t_ms,phase,red_raw,ir_raw,red_dc,ir_dc,red_ac,ir_ac,OD_red,OD_ir,R,spo2,spo2_valid
10,0,51673,56882,51624.36,57116.68,48.64,-234.68,-0.468595,-0.463443,0.459231,98.85,1
48,0,51681,56907,51624.48,57116.26,56.52,-209.26,-0.468597,-0.463435,0.459465,98.84,1
87,0,51697,56936,51624.62,57115.90,72.38,-179.90,-0.468600,-0.463429,0.459697,98.83,1
128,0,51703,56954,51624.78,57115.58,78.22,-161.58,-0.468603,-0.463423,0.459927,98.82,1
168,0,51712,56982,51624.95,57115.31,87.05,-133.31,-0.468607,-0.463419,0.460159,98.81,1
209,0,51723,56976,51625.15,57115.04,97.85,-139.04,-0.468611,-0.463414,0.460393,98.80,1
247,0,51690,56831,51625.29,57114.47,64.71,-283.47,-0.468613,-0.463404,0.460619,98.79,1
288,0,51642,56730,51625.32,57113.70,16.68,-383.70,-0.468614,-0.463391,0.460827,98.79,1
351,0,51637,56736,51625.34,57112.95,11.66,-376.95,-0.468614,-0.463377,0.461020,98.78,1
365,0,51644,56760,51625.38,57112.25,18.62,-352.25,-0.468615,-0.463365,0.461199,98.77,1
405,0,51657,56771,51625.45,57111.57,31.55,-340.57,-0.468616,-0.463353,0.461366,98.76,1
445,0,51662,56786,51625.52,57110.92,36.48,-324.92,-0.468618,-0.463342,0.461522,98.75,1
486,0,51668,56794,51625.61,57110.29,42.39,-316.29,-0.468619,-0.463331,0.461668,98.74,1
527,0,51664,56792,51625.69,57109.65,38.31,-317.65,-0.468621,-0.463320,0.461804,98.73,1
568,0,51668,56797,51625.77,57109.02,42.23,-312.02,-0.468623,-0.463309,0.461930,98.72,1
607,0,51675,56827,51625.87,57108.46,49.13,-281.46,-0.468624,-0.463299,0.462050,98.72,1
646,0,51686,56857,51626.00,57107.96,60.00,-250.96,-0.468627,-0.463290,0.462164,98.71,1
687,0,51697,56891,51626.14,57107.53,70.86,-216.53,-0.468630,-0.463282,0.462276,98.70,1
725,0,51704,56921,51626.30,57107.16,77.70,-186.16,-0.468633,-0.463276,0.462386,98.69,1
767,0,51715,56950,51626.48,57106.84,88.52,-156.84,-0.468636,-0.463271,0.462498,98.68,1
808,0,51724,56974,51626.67,57106.58,97.33,-132.58,-0.468640,-0.463266,0.462613,98.68,1
849,0,51727,56924,51626.87,57106.21,100.12,-182.21,-0.468644,-0.463259,0.462729,98.67,1
890,0,51681,56764,51626.98,57105.53,54.02,-341.53,-0.468646,-0.463247,0.462834,98.66,1
928,0,51637,56690,51627.00,57104.70,10.00,-414.70,-0.468646,-0.463233,0.462921,98.65,1
969,0,51622,56706,51627.00,57103.91,-5.00,-397.91,-0.468646,-0.463219,0.462992,98.65,1
1009,0,51634,56722,51627.01,57103.14,6.99,-381.14,-0.468647,-0.463206,0.463050,98.64,1
1049,0,51638,56733,51627.04,57102.41,10.96,-369.41,-0.468647,-0.463193,0.463094,98.63,1
1088,0,51642,56748,51627.07,57101.70,14.93,-353.70,-0.468648,-0.463180,0.463126,98.63,1
1129,0,51653,56756,51627.12,57101.01,25.88,-345.01,-0.468649,-0.463168,0.463148,98.62,1
1168,0,51655,56762,51627.18,57100.33,27.82,-338.33,-0.468650,-0.463156,0.463160,98.62,1
1208,0,51658,56786,51627.24,57099.70,30.76,-313.70,-0.468651,-0.463145,0.463163,98.61,1
1249,0,51666,56823,51627.32,57099.15,38.68,-276.15,-0.468653,-0.463136,0.463160,98.60,1
1289,0,51685,56860,51627.44,57098.68,57.56,-238.68,-0.468655,-0.463127,0.463154,98.60,1
1329,0,51699,56896,51627.58,57098.27,71.42,-202.27,-0.468658,-0.463120,0.463146,98.59,1
1369,0,51713,56929,51627.75,57097.94,85.25,-168.94,-0.468661,-0.463115,0.463140,98.59,1
1409,0,51723,56955,51627.95,57097.65,95.05,-142.65,-0.468665,-0.463110,0.463137,98.58,1
1450,0,51731,56987,51628.15,57097.43,102.85,-110.43,-0.468669,-0.463106,0.463138,98.58,1
1488,0,51737,56981,51628.37,57097.20,108.63,-116.20,-0.468673,-0.463102,0.463144,98.57,1
1529,0,51701,56816,51628.52,57096.64,72.48,-280.64,-0.468676,-0.463092,0.463146,98.57,1
1569,0,51639,56704,51628.54,57095.86,10.46,-391.86,-0.468676,-0.463078,0.463134,98.56,1
1608,0,51621,56693,51628.53,57095.05,-7.53,-402.05,-0.468676,-0.463064,0.463106,98.56,1
1650,0,51625,56693,51628.52,57094.25,-3.52,-401.25,-0.468676,-0.463050,0.463065,98.56,1
1689,0,51619,56683,51628.50,57093.43,-9.50,-410.43,-0.468675,-0.463036,0.463010,98.55,1
1729,0,51618,56684,51628.48,57092.61,-10.48,-408.61,-0.468675,-0.463021,0.462940,98.55,1
1769,0,51623,56705,51628.48,57091.84,-5.48,-386.84,-0.468675,-0.463008,0.462859,98.55,1
1808,0,51625,56711,51628.47,57091.08,-3.47,-380.08,-0.468675,-0.462994,0.462766,98.54,1
1850,0,51624,56721,51628.46,57090.34,-4.46,-369.34,-0.468675,-0.462981,0.462662,98.54,1
1891,0,51630,56746,51628.47,57089.65,1.53,-343.65,-0.468675,-0.462969,0.462550,98.54,1
1930,0,51639,56778,51628.49,57089.03,10.51,-311.03,-0.468675,-0.462959,0.462430,98.53,1
1970,0,51657,56821,51628.55,57088.50,28.45,-267.50,-0.468676,-0.462949,0.462305,98.53,1
2010,0,51669,56858,51628.63,57088.04,40.37,-230.04,-0.468678,-0.462941,0.462178,98.53,1
2050,0,51683,56897,51628.74,57087.66,54.26,-190.66,-0.468680,-0.462934,0.462049,98.52,1
2090,0,51694,56925,51628.87,57087.33,65.12,-162.33,-0.468683,-0.462929,0.461922,98.52,1
2130,0,51712,56957,51629.04,57087.07,82.96,-130.07,-0.468686,-0.462924,0.461797,98.52,1
2171,0,51717,56907,51629.22,57086.71,87.78,-179.71,-0.468689,-0.462918,0.461674,98.52,1
2210,0,51670,56768,51629.30,57086.08,40.70,-318.08,-0.468691,-0.462907,0.461544,98.52,1
2251,0,51631,56717,51629.30,57085.34,1.70,-368.34,-0.468691,-0.462894,0.461404,98.52,1
2289,0,51633,56728,51629.31,57084.62,3.69,-356.62,-0.468691,-0.462881,0.461255,98.51,1
2330,0,51639,56735,51629.33,57083.93,9.67,-348.93,-0.468691,-0.462869,0.461097,98.51,1
2371,0,51641,56736,51629.36,57083.23,11.64,-347.23,-0.468692,-0.462857,0.460930,98.51,1
2409,0,51651,56757,51629.40,57082.58,21.60,-325.58,-0.468693,-0.462846,0.460756,98.51,1
2447,0,51662,56782,51629.46,57081.98,32.54,-299.98,-0.468694,-0.462835,0.460577,98.51,1
2487,0,51665,56791,51629.54,57081.39,35.46,-290.39,-0.468696,-0.462825,0.460392,98.51,1
2529,0,51667,56811,51629.62,57080.86,37.38,-269.86,-0.468697,-0.462815,0.460204,98.51,1
2571,0,51673,56837,51629.71,57080.37,43.29,-243.37,-0.468699,-0.462807,0.460012,98.51,1
2610,0,51690,56874,51629.83,57079.96,60.17,-205.96,-0.468701,-0.462800,0.459821,98.51,1
2650,0,51701,56901,51629.97,57079.61,71.03,-178.61,-0.468704,-0.462793,0.459630,98.51,1
2690,0,51708,56924,51630.13,57079.30,77.87,-155.30,-0.468707,-0.462788,0.459442,98.51,1
2730,0,51717,56953,51630.30,57079.05,86.70,-126.05,-0.468710,-0.462784,0.459257,98.51,1
2770,0,51720,56975,51630.48,57078.84,89.52,-103.84,-0.468714,-0.462780,0.459077,98.51,1
2810,0,51729,57000,51630.68,57078.68,98.32,-78.68,-0.468718,-0.462777,0.458903,98.51,1
2850,0,51716,56882,51630.86,57078.29,85.14,-196.29,-0.468721,-0.462770,0.458730,98.51,1
2891,0,51660,56772,51630.91,57077.68,29.09,-305.68,-0.468722,-0.462760,0.458551,98.51,1
2930,0,51641,56757,51630.94,57077.04,10.06,-320.04,-0.468723,-0.462749,0.458365,98.51,1
2971,0,51642,56774,51630.96,57076.44,11.04,-302.44,-0.468723,-0.462738,0.458172,98.51,1
3010,0,51641,56771,51630.98,57075.83,10.02,-304.83,-0.468723,-0.462727,0.457973,98.51,1
3050,0,51642,56784,51631.00,57075.25,11.00,-291.25,-0.468724,-0.462717,0.457769,98.52,1
3090,0,51650,56797,51631.04,57074.69,18.96,-277.69,-0.468725,-0.462707,0.457559,98.52,1
3131,0,51653,56809,51631.09,57074.16,21.91,-265.16,-0.468726,-0.462698,0.457345,98.52,1
3171,0,51657,56824,51631.14,57073.66,25.86,-249.66,-0.468727,-0.462689,0.457127,98.52,1
3211,0,51668,56849,51631.22,57073.21,36.78,-224.21,-0.468728,-0.462681,0.456908,98.52,1
3251,0,51677,56894,51631.31,57072.86,45.69,-178.86,-0.468730,-0.462675,0.456687,98.52,1
3291,0,51698,56927,51631.45,57072.57,66.55,-145.57,-0.468732,-0.462670,0.456469,98.53,1
3334,0,51712,56962,51631.61,57072.35,80.39,-110.35,-0.468736,-0.462666,0.456254,98.53,1
3371,0,51724,56986,51631.80,57072.18,92.20,-86.18,-0.468739,-0.462663,0.456045,98.53,1
3411,0,51734,57017,51632.00,57072.07,102.00,-55.07,-0.468743,-0.462661,0.455843,98.53,1
3451,0,51747,57038,51632.23,57072.00,114.77,-34.00,-0.468748,-0.462660,0.455649,98.53,1
3491,0,51740,56947,51632.45,57071.75,107.55,-124.75,-0.468752,-0.462656,0.455463,98.54,1
3531,0,51691,56838,51632.57,57071.29,58.43,-233.29,-0.468754,-0.462648,0.455274,98.54,1
3571,0,51666,56823,51632.64,57070.79,33.36,-247.79,-0.468755,-0.462639,0.455082,98.54,1
3611,0,51667,56837,51632.71,57070.32,34.29,-233.32,-0.468757,-0.462631,0.454887,98.54,1
3650,0,51676,56842,51632.80,57069.87,43.20,-227.87,-0.468759,-0.462623,0.454689,98.55,1
3691,0,51679,56849,51632.89,57069.43,46.11,-220.43,-0.468760,-0.462615,0.454490,98.55,1
3731,0,51687,56871,51633.00,57069.03,54.00,-198.03,-0.468763,-0.462608,0.454290,98.55,1
3770,0,51692,56875,51633.12,57068.64,58.88,-193.64,-0.468765,-0.462601,0.454089,98.56,1
3811,0,51690,56882,51633.23,57068.27,56.77,-186.27,-0.468767,-0.462595,0.453889,98.56,1
3851,0,51696,56910,51633.36,57067.96,62.64,-157.96,-0.468770,-0.462589,0.453690,98.56,1
3892,0,51710,56938,51633.52,57067.70,76.48,-129.70,-0.468773,-0.462585,0.453494,98.56,1
3935,0,51719,56970,51633.69,57067.50,85.31,-97.50,-0.468776,-0.462581,0.453302,98.57,1
3971,0,51732,56996,51633.89,57067.36,98.11,-71.36,-0.468780,-0.462579,0.453117,98.57,1
4012,0,51739,57018,51634.10,57067.27,104.90,-49.27,-0.468784,-0.462577,0.452940,98.57,1
4053,0,51746,57040,51634.32,57067.21,111.68,-27.21,-0.468788,-0.462576,0.452772,98.58,1
4092,0,51748,57064,51634.55,57067.21,113.45,-3.21,-0.468793,-0.462576,0.452614,98.58,1
4132,0,51757,57065,51634.80,57067.20,122.20,-2.20,-0.468797,-0.462576,0.452466,98.58,1
4172,0,51736,56925,51635.00,57066.92,101.00,-141.92,-0.468801,-0.462571,0.452323,98.59,1
4212,0,51684,56830,51635.10,57066.45,48.90,-236.45,-0.468803,-0.462563,0.452178,98.59,1
4250,0,51666,56811,51635.16,57065.94,30.84,-254.94,-0.468804,-0.462554,0.452028,98.59,1
4292,0,51663,56803,51635.22,57065.42,27.78,-262.42,-0.468806,-0.462545,0.451872,98.60,1
4331,0,51656,56780,51635.27,57064.85,20.73,-284.85,-0.468806,-0.462535,0.451710,98.60,1
4372,0,51652,56775,51635.30,57064.27,16.70,-289.27,-0.468807,-0.462525,0.451540,98.60,1
4412,0,51658,56782,51635.35,57063.71,22.65,-281.71,-0.468808,-0.462515,0.451365,98.61,1
4452,0,51664,56789,51635.41,57063.16,28.59,-274.16,-0.468809,-0.462505,0.451184,98.61,1
4491,0,51663,56804,51635.46,57062.64,27.54,-258.64,-0.468810,-0.462496,0.450998,98.61,1
4531,0,51665,56819,51635.52,57062.16,29.48,-243.16,-0.468811,-0.462488,0.450808,98.62,1
4572,0,51671,56853,51635.59,57061.74,35.41,-208.74,-0.468813,-0.462480,0.450616,98.62,1
4611,0,51682,56880,51635.69,57061.38,46.31,-181.38,-0.468815,-0.462474,0.450422,98.62,1
4652,0,51697,56907,51635.81,57061.07,61.19,-154.07,-0.468817,-0.462469,0.450231,98.63,1
4692,0,51706,56943,51635.95,57060.84,70.05,-117.84,-0.468820,-0.462465,0.450041,98.63,1
4732,0,51717,56971,51636.12,57060.66,80.88,-89.66,-0.468823,-0.462461,0.449857,98.63,1
4773,0,51727,57004,51636.30,57060.54,90.70,-56.54,-0.468826,-0.462459,0.449679,98.64,1
4812,0,51737,56999,51636.50,57060.42,100.50,-61.42,-0.468830,-0.462457,0.449509,98.64,1
4853,0,51704,56881,51636.64,57060.07,67.36,-179.07,-0.468833,-0.462451,0.449339,98.65,1
4893,0,51665,56814,51636.70,57059.57,28.30,-245.57,-0.468834,-0.462442,0.449165,98.65,1
4933,0,51652,56814,51636.73,57059.09,15.27,-245.09,-0.468835,-0.462434,0.448986,98.65,1
4972,0,51656,56824,51636.77,57058.62,19.23,-234.62,-0.468836,-0.462426,0.448802,98.66,1
5013,0,51651,56816,51636.80,57058.13,14.20,-242.13,-0.468836,-0.462417,0.448614,98.66,1
5054,0,51651,56839,51636.83,57057.70,14.17,-218.70,-0.468837,-0.462409,0.448422,98.67,1
5093,0,51659,56863,51636.88,57057.31,22.12,-194.31,-0.468838,-0.462403,0.448228,98.67,1
5135,0,51665,56877,51636.94,57056.95,28.06,-179.95,-0.468839,-0.462396,0.448032,98.67,1
5173,0,51677,56899,51637.02,57056.64,39.98,-157.64,-0.468840,-0.462391,0.447835,98.68,1
5213,0,51685,56932,51637.12,57056.39,47.88,-124.39,-0.468842,-0.462387,0.447639,98.68,1
5253,0,51696,56977,51637.23,57056.23,58.77,-79.23,-0.468845,-0.462384,0.447446,98.68,1
5293,0,51714,57026,51637.39,57056.18,76.61,-30.18,-0.468848,-0.462383,0.447258,98.69,1
5333,0,51738,57075,51637.59,57056.21,100.41,18.79,-0.468852,-0.462384,0.447078,98.69,1
5372,0,51759,57115,51637.84,57056.33,121.16,58.67,-0.468856,-0.462386,0.446911,98.70,1
5413,0,51779,57151,51638.12,57056.52,140.87,94.48,-0.468862,-0.462389,0.446759,98.70,1
5453,0,51790,57183,51638.43,57056.78,151.57,126.22,-0.468868,-0.462393,0.446624,98.70,1
5493,0,51799,57221,51638.75,57057.11,160.25,163.89,-0.468874,-0.462399,0.446506,98.71,1
5533,0,51801,57180,51639.08,57057.35,161.92,122.65,-0.468880,-0.462403,0.446408,98.71,1
5572,0,51770,57097,51639.34,57057.43,130.66,39.57,-0.468885,-0.462405,0.446324,98.72,1
5612,0,51753,57081,51639.57,57057.48,113.43,23.52,-0.468890,-0.462406,0.446249,98.72,1
5653,0,51758,57109,51639.81,57057.59,118.19,51.41,-0.468894,-0.462408,0.446186,98.72,1
5693,0,51765,57121,51640.06,57057.71,124.94,63.29,-0.468899,-0.462410,0.446134,98.73,1
5734,0,51766,57126,51640.31,57057.85,125.69,68.15,-0.468904,-0.462412,0.446094,98.73,1
5772,0,51768,57152,51640.57,57058.04,127.43,93.96,-0.468909,-0.462416,0.446066,98.74,1
5812,0,51775,57168,51640.84,57058.27,134.16,109.73,-0.468914,-0.462419,0.446050,98.74,1
5854,0,51780,57189,51641.12,57058.53,138.88,130.47,-0.468920,-0.462424,0.446048,98.74,1
5894,0,51784,57208,51641.41,57058.83,142.59,149.17,-0.468925,-0.462429,0.446058,98.74,1
5935,0,51796,57236,51641.71,57059.18,154.29,176.82,-0.468931,-0.462436,0.446083,98.75,1
5973,0,51805,57275,51642.04,57059.62,162.96,215.38,-0.468938,-0.462443,0.446122,98.75,1
6014,0,51817,57308,51642.39,57060.12,174.61,247.88,-0.468944,-0.462452,0.446175,98.75,1
6054,0,51826,57342,51642.76,57060.68,183.24,281.32,-0.468952,-0.462462,0.446243,98.76,1
6094,0,51838,57370,51643.15,57061.30,194.85,308.70,-0.468959,-0.462473,0.446326,98.76,1
6134,0,51850,57400,51643.57,57061.98,206.43,338.02,-0.468967,-0.462485,0.446424,98.76,1
6173,0,51862,57430,51644.00,57062.72,218.00,367.28,-0.468976,-0.462498,0.446537,98.76,1
6213,0,51868,57412,51644.45,57063.42,223.55,348.58,-0.468984,-0.462510,0.446668,98.77,1
6253,0,51842,57329,51644.85,57063.95,197.15,265.05,-0.468992,-0.462519,0.446815,98.77,1
6293,0,51820,57314,51645.20,57064.45,174.80,249.55,-0.468999,-0.462528,0.446974,98.77,1
6333,0,51829,57336,51645.57,57065.00,183.43,271.00,-0.469006,-0.462537,0.447144,98.77,1
6373,0,51842,57354,51645.96,57065.57,196.04,288.43,-0.469014,-0.462548,0.447328,98.77,1
6413,0,51848,57359,51646.37,57066.16,201.63,292.84,-0.469021,-0.462558,0.447525,98.77,1
6452,0,51850,57385,51646.78,57066.80,203.22,318.20,-0.469029,-0.462569,0.447734,98.77,1
6493,0,51854,57395,51647.19,57067.46,206.81,327.54,-0.469037,-0.462581,0.447953,98.78,1
6534,0,51853,57410,51647.61,57068.15,205.39,341.85,-0.469045,-0.462593,0.448183,98.78,1
6573,0,51862,57428,51648.04,57068.87,213.96,359.13,-0.469054,-0.462605,0.448421,98.78,1
6614,0,51867,57449,51648.47,57069.63,218.53,379.37,-0.469062,-0.462619,0.448667,98.78,1
6655,0,51875,57474,51648.93,57070.44,226.07,403.56,-0.469071,-0.462633,0.448920,98.78,1
6694,0,51884,57504,51649.40,57071.31,234.60,432.69,-0.469080,-0.462648,0.449179,98.78,1
6740,0,51893,57529,51649.89,57072.23,243.11,456.77,-0.469089,-0.462664,0.449443,98.78,1
6800,0,51902,57554,51650.39,57073.19,251.61,480.81,-0.469099,-0.462681,0.449710,98.78,1
6821,0,51908,57573,51650.91,57074.19,257.09,498.81,-0.469109,-0.462699,0.449980,98.77,1
6855,0,51916,57593,51651.44,57075.23,264.56,517.77,-0.469120,-0.462717,0.450252,98.77,1
6895,0,51923,57617,51651.98,57076.32,271.02,540.68,-0.469130,-0.462736,0.450526,98.77,1
6935,0,51920,57553,51652.52,57077.27,267.48,475.73,-0.469140,-0.462752,0.450806,98.77,1
6975,0,51884,57472,51652.98,57078.06,231.02,393.94,-0.469150,-0.462766,0.451093,98.77,1
7015,0,51866,57473,51653.41,57078.85,212.59,394.15,-0.469158,-0.462780,0.451382,98.77,1
7055,0,51868,57487,51653.84,57079.67,214.16,407.33,-0.469166,-0.462794,0.451672,98.77,1
7095,0,51876,57484,51654.29,57080.48,221.71,403.52,-0.469175,-0.462809,0.451966,98.76,1
7136,0,51870,57488,51654.72,57081.29,215.28,406.71,-0.469183,-0.462823,0.452261,98.76,1
7175,0,51876,57511,51655.16,57082.15,220.84,428.85,-0.469192,-0.462838,0.452556,98.76,1
7215,0,51877,57522,51655.61,57083.04,221.39,438.96,-0.469200,-0.462853,0.452852,98.76,1
7254,0,51883,57535,51656.07,57083.94,226.93,451.06,-0.469209,-0.462869,0.453146,98.76,1
7295,0,51888,57555,51656.53,57084.89,231.47,470.11,-0.469218,-0.462886,0.453440,98.75,1
7335,0,51903,57578,51657.03,57085.87,245.97,492.12,-0.469228,-0.462903,0.453732,98.75,1
7375,0,51910,57595,51657.54,57086.89,252.46,508.11,-0.469238,-0.462921,0.454023,98.75,1
7414,0,51916,57618,51658.05,57087.96,257.95,530.04,-0.469248,-0.462940,0.454313,98.74,1
7454,0,51927,57641,51658.59,57089.07,268.41,551.93,-0.469258,-0.462959,0.454600,98.74,1
7494,0,51932,57659,51659.14,57090.21,272.86,568.79,-0.469269,-0.462979,0.454884,98.74,1
7536,0,51933,57678,51659.69,57091.38,273.31,586.62,-0.469279,-0.463000,0.455164,98.73,1
7575,0,51941,57695,51660.25,57092.59,280.75,602.41,-0.469290,-0.463021,0.455439,98.73,1
7616,0,51949,57716,51660.83,57093.84,288.17,622.16,-0.469301,-0.463043,0.455710,98.73,1
7655,0,51949,57673,51661.41,57095.00,287.59,578.00,-0.469313,-0.463063,0.455980,98.72,1
7695,0,51917,57580,51661.92,57095.97,255.08,484.03,-0.469323,-0.463080,0.456252,98.72,1
7735,0,51893,57549,51662.39,57096.88,230.61,452.12,-0.469332,-0.463096,0.456524,98.71,1
7775,0,51886,57565,51662.84,57097.82,223.16,467.18,-0.469340,-0.463112,0.456795,98.71,1
7815,0,51887,57568,51663.29,57098.76,223.71,469.24,-0.469349,-0.463129,0.457063,98.71,1
7856,0,51887,57567,51663.73,57099.70,223.27,467.30,-0.469358,-0.463145,0.457329,98.70,1
7896,0,51884,57575,51664.18,57100.65,219.82,474.35,-0.469366,-0.463162,0.457593,98.70,1
7936,0,51888,57577,51664.62,57101.60,223.37,475.40,-0.469375,-0.463179,0.457854,98.69,1
7976,0,51884,57584,51665.07,57102.57,218.93,481.43,-0.469383,-0.463196,0.458112,98.69,1
8016,0,51883,57596,51665.50,57103.55,217.50,492.45,-0.469392,-0.463213,0.458366,98.68,1
8055,0,51883,57614,51665.94,57104.58,217.06,509.42,-0.469400,-0.463231,0.458614,98.68,1
8096,0,51891,57636,51666.39,57105.64,224.61,530.36,-0.469409,-0.463249,0.458857,98.68,1
8136,0,51898,57649,51666.86,57106.73,231.14,542.27,-0.469418,-0.463268,0.459094,98.67,1
8175,0,51906,57665,51667.34,57107.85,238.66,557.15,-0.469427,-0.463288,0.459326,98.67,1
8216,0,51911,57686,51667.83,57109.00,243.17,577.00,-0.469437,-0.463308,0.459551,98.66,1
8256,0,51912,57708,51668.32,57110.20,243.68,597.80,-0.469446,-0.463329,0.459770,98.66,1
8296,0,51923,57729,51668.83,57111.44,254.17,617.56,-0.469456,-0.463351,0.459981,98.65,1
8338,0,51930,57747,51669.35,57112.71,260.65,634.29,-0.469466,-0.463373,0.460185,98.65,1
8376,0,51939,57766,51669.89,57114.02,269.11,651.98,-0.469477,-0.463396,0.460382,98.64,1
8416,0,51936,57709,51670.43,57115.21,265.57,593.79,-0.469487,-0.463417,0.460576,98.64,1
8455,0,51906,57619,51670.90,57116.22,235.10,502.78,-0.469496,-0.463435,0.460769,98.63,1
8496,0,51885,57598,51671.33,57117.19,213.67,480.81,-0.469505,-0.463452,0.460959,98.63,1
8535,0,51881,57611,51671.75,57118.18,209.25,492.82,-0.469513,-0.463469,0.461147,98.62,1
8577,0,51882,57615,51672.17,57119.17,209.83,495.83,-0.469521,-0.463486,0.461331,98.62,1
8616,0,51879,57619,51672.59,57120.17,206.41,498.83,-0.469529,-0.463504,0.461511,98.61,1
8656,0,51881,57624,51673.00,57121.18,208.00,502.82,-0.469537,-0.463521,0.461688,98.61,1
8696,0,51882,57625,51673.42,57122.19,208.58,502.81,-0.469545,-0.463539,0.461861,98.61,1
8736,0,51881,57622,51673.84,57123.19,207.16,498.81,-0.469553,-0.463557,0.462030,98.60,1
8776,0,51876,57632,51674.25,57124.21,201.75,507.79,-0.469561,-0.463574,0.462195,98.60,1
8816,0,51875,57643,51674.65,57125.25,200.35,517.75,-0.469569,-0.463593,0.462355,98.59,1
8855,0,51875,57657,51675.05,57126.31,199.95,530.69,-0.469577,-0.463611,0.462509,98.59,1
8923,0,51879,57671,51675.46,57127.40,203.54,543.60,-0.469585,-0.463630,0.462658,98.58,1
8937,0,51887,57692,51675.89,57128.53,211.11,563.47,-0.469593,-0.463650,0.462800,98.58,1
8977,0,51890,57702,51676.32,57129.68,213.68,572.32,-0.469601,-0.463670,0.462937,98.57,1
9017,0,51888,57715,51676.74,57130.85,211.26,584.15,-0.469609,-0.463691,0.463066,98.57,1
9057,0,51889,57731,51677.17,57132.05,211.83,598.95,-0.469618,-0.463712,0.463189,98.56,1
9097,0,51890,57749,51677.59,57133.29,212.41,615.71,-0.469626,-0.463733,0.463303,98.56,1
9137,0,51898,57742,51678.04,57134.51,219.96,607.49,-0.469634,-0.463755,0.463410,98.56,1
9176,0,51877,57643,51678.43,57135.53,198.57,507.47,-0.469642,-0.463773,0.463514,98.55,1
9218,0,51848,57593,51678.77,57136.45,169.23,456.55,-0.469649,-0.463789,0.463615,98.55,1
9254,0,51840,57606,51679.10,57137.39,160.90,468.61,-0.469655,-0.463805,0.463711,98.54,1
9297,0,51843,57626,51679.43,57138.37,163.57,487.63,-0.469661,-0.463822,0.463802,98.54,1
9335,0,51842,57627,51679.75,57139.35,162.25,487.65,-0.469668,-0.463840,0.463888,98.53,1
9376,0,51846,57642,51680.09,57140.36,165.91,501.64,-0.469674,-0.463857,0.463969,98.53,1
9417,0,51848,57645,51680.42,57141.37,167.58,503.63,-0.469681,-0.463875,0.464045,98.53,1
9457,0,51848,57634,51680.76,57142.36,167.24,491.64,-0.469687,-0.463892,0.464116,98.52,1
9494,0,51846,57635,51681.09,57143.34,164.91,491.66,-0.469694,-0.463909,0.464182,98.52,1
9536,0,51851,57650,51681.43,57144.36,169.57,505.64,-0.469700,-0.463927,0.464244,98.52,1
9577,0,51853,57670,51681.77,57145.41,171.23,524.59,-0.469707,-0.463946,0.464300,98.51,1
9614,0,51858,57689,51682.13,57146.50,175.87,542.50,-0.469714,-0.463965,0.464350,98.51,1
9656,0,51857,57704,51682.48,57147.62,174.52,556.38,-0.469720,-0.463984,0.464394,98.50,1
9697,0,51869,57719,51682.86,57148.77,186.14,570.23,-0.469728,-0.464004,0.464432,98.50,1
9737,0,51867,57729,51683.23,57149.93,183.77,579.07,-0.469735,-0.464025,0.464463,98.50,1
9776,0,51873,57746,51683.61,57151.12,189.39,594.88,-0.469742,-0.464046,0.464488,98.49,1
9816,0,51873,57758,51683.99,57152.34,189.01,605.66,-0.469750,-0.464067,0.464506,98.49,1
9856,0,51866,57686,51684.36,57153.41,181.64,532.59,-0.469757,-0.464086,0.464520,98.49,1
9896,0,51826,57586,51684.64,57154.27,141.36,431.73,-0.469762,-0.464101,0.464532,98.48,1
9938,0,51800,57569,51684.87,57155.11,115.13,413.89,-0.469767,-0.464115,0.464539,98.48,1
9978,0,51800,57575,51685.10,57155.95,114.90,419.05,-0.469771,-0.464130,0.464542,98.48,1
10018,0,51799,57574,51685.33,57156.78,113.67,417.22,-0.469776,-0.464145,0.464541,98.48,1
10058,0,51796,57573,51685.55,57157.61,110.45,415.39,-0.469780,-0.464159,0.464537,98.47,1
10099,0,51788,57576,51685.76,57158.45,102.24,417.55,-0.469784,-0.464174,0.464528,98.47,1
10138,0,51787,57578,51685.96,57159.29,101.04,418.71,-0.469788,-0.464189,0.464514,98.47,1
10178,0,51786,57576,51686.17,57160.13,99.83,415.87,-0.469792,-0.464203,0.464496,98.47,1
10218,0,51789,57578,51686.37,57160.96,102.62,417.04,-0.469796,-0.464218,0.464474,98.46,1
10259,0,51789,57600,51686.58,57161.84,102.42,438.16,-0.469800,-0.464233,0.464447,98.46,1
10298,0,51795,57619,51686.80,57162.76,108.20,456.24,-0.469804,-0.464249,0.464415,98.46,1
10337,0,51801,57640,51687.03,57163.71,113.97,476.29,-0.469808,-0.464266,0.464377,98.46,1
10378,0,51804,57662,51687.27,57164.71,116.73,497.29,-0.469813,-0.464283,0.464333,98.46,1
10419,0,51810,57673,51687.51,57165.73,122.49,507.27,-0.469818,-0.464301,0.464283,98.45,1
10458,0,51820,57689,51687.78,57166.78,132.22,522.22,-0.469823,-0.464319,0.464227,98.45,1
10498,0,51827,57707,51688.06,57167.86,138.94,539.14,-0.469828,-0.464338,0.464165,98.45,1
10537,0,51832,57700,51688.35,57168.93,143.65,531.07,-0.469834,-0.464357,0.464097,98.45,1
10578,0,51811,57594,51688.59,57169.78,122.41,424.22,-0.469839,-0.464372,0.464027,98.45,1
10618,0,51769,57518,51688.76,57170.48,80.24,347.52,-0.469842,-0.464384,0.463954,98.45,1
10658,0,51754,57513,51688.89,57171.17,65.11,341.83,-0.469844,-0.464396,0.463878,98.44,1
10698,0,51755,57513,51689.02,57171.85,65.98,341.15,-0.469847,-0.464408,0.463799,98.44,1
10738,0,51751,57507,51689.15,57172.52,61.85,334.48,-0.469849,-0.464420,0.463717,98.44,1
10778,0,51743,57494,51689.26,57173.17,53.74,320.83,-0.469851,-0.464431,0.463633,98.44,1
10818,0,51743,57500,51689.37,57173.82,53.63,326.18,-0.469854,-0.464443,0.463545,98.44,1
10857,0,51742,57501,51689.47,57174.48,52.53,326.52,-0.469856,-0.464454,0.463454,98.44,1
10899,0,51735,57504,51689.57,57175.14,45.43,328.86,-0.469857,-0.464466,0.463361,98.44,1
10938,0,51736,57516,51689.66,57175.82,46.34,340.18,-0.469859,-0.464478,0.463264,98.44,1
10979,0,51740,57530,51689.76,57176.54,50.24,353.46,-0.469861,-0.464490,0.463163,98.44,1
11018,0,51739,57552,51689.86,57177.29,49.14,374.71,-0.469863,-0.464503,0.463058,98.44,1
11056,0,51746,57562,51689.98,57178.06,56.02,383.94,-0.469865,-0.464517,0.462949,98.44,1
11099,0,51751,57579,51690.10,57178.86,60.90,400.14,-0.469868,-0.464531,0.462835,98.44,1
11138,0,51753,57604,51690.23,57179.71,62.77,424.29,-0.469870,-0.464546,0.462716,98.44,1
11179,0,51762,57622,51690.37,57180.60,71.62,441.40,-0.469873,-0.464561,0.462592,98.44,1
11220,0,51767,57638,51690.53,57181.52,76.47,456.48,-0.469876,-0.464577,0.462462,98.44,1
11259,0,51773,57606,51690.70,57182.37,82.30,423.63,-0.469879,-0.464592,0.462327,98.44,1
11301,0,51740,57508,51690.80,57183.02,49.20,324.98,-0.469881,-0.464604,0.462190,98.44,1
11339,0,51713,57478,51690.85,57183.61,22.15,294.39,-0.469882,-0.464614,0.462051,98.44,1
11379,0,51712,57484,51690.89,57184.21,21.11,299.79,-0.469883,-0.464624,0.461909,98.44,1
11419,0,51713,57485,51690.94,57184.82,22.06,300.18,-0.469884,-0.464635,0.461764,98.44,1
11459,0,51709,57476,51690.98,57185.40,18.02,290.60,-0.469885,-0.464645,0.461616,98.44,1
11498,0,51713,57488,51691.02,57186.00,21.98,302.00,-0.469886,-0.464656,0.461466,98.44,1
11538,0,51718,57495,51691.08,57186.62,26.92,308.37,-0.469887,-0.464667,0.461314,98.44,1
11579,0,51715,57496,51691.13,57187.25,23.87,308.75,-0.469888,-0.464677,0.461158,98.44,1
11620,0,51713,57504,51691.18,57187.88,21.82,316.12,-0.469889,-0.464689,0.460999,98.44,1
11659,0,51715,57517,51691.23,57188.54,23.77,328.46,-0.469890,-0.464700,0.460837,98.44,1
11699,0,51724,57539,51691.29,57189.25,32.71,349.75,-0.469891,-0.464712,0.460672,98.44,1
11738,0,51731,57556,51691.37,57189.98,39.63,366.02,-0.469892,-0.464725,0.460502,98.45,1
11779,0,51729,57568,51691.45,57190.74,37.55,377.26,-0.469894,-0.464738,0.460328,98.45,1
11819,0,51728,57578,51691.53,57191.52,36.47,386.48,-0.469895,-0.464752,0.460150,98.45,1
11860,0,51736,57601,51691.62,57192.34,44.38,408.66,-0.469897,-0.464766,0.459967,98.45,1
11900,0,51741,57612,51691.72,57193.18,49.28,418.82,-0.469899,-0.464781,0.459779,98.45,1
11939,0,51743,57634,51691.82,57194.06,51.18,439.94,-0.469901,-0.464797,0.459585,98.45,1
11980,0,51745,57576,51691.93,57194.82,53.07,381.18,-0.469903,-0.464810,0.459388,98.46,1
12020,0,51711,57489,51691.97,57195.41,19.03,293.59,-0.469904,-0.464820,0.459188,98.46,1
12060,0,51691,57476,51691.97,57195.98,-0.97,280.02,-0.469904,-0.464830,0.458986,98.46,1
12099,0,51693,57491,51691.98,57196.57,1.02,294.43,-0.469904,-0.464840,0.458782,98.46,1
12140,0,51691,57497,51691.98,57197.17,-0.98,299.83,-0.469904,-0.464851,0.458575,98.46,1
12180,0,51690,57497,51691.97,57197.77,-1.97,299.23,-0.469904,-0.464861,0.458365,98.47,1
12220,0,51699,57508,51691.99,57198.39,7.01,309.61,-0.469904,-0.464872,0.458153,98.47,1
12259,0,51702,57514,51692.01,57199.02,9.99,314.98,-0.469905,-0.464883,0.457938,98.47,1
12300,0,51703,57519,51692.03,57199.66,10.97,319.34,-0.469905,-0.464895,0.457720,98.47,1
12339,0,51705,57535,51692.06,57200.34,12.94,334.66,-0.469906,-0.464906,0.457498,98.48,1
12379,0,51713,57548,51692.10,57201.03,20.90,346.97,-0.469906,-0.464918,0.457273,98.48,1
12420,0,51719,57573,51692.16,57201.78,26.84,371.22,-0.469908,-0.464931,0.457044,98.48,1
12459,0,51728,57591,51692.23,57202.56,35.77,388.44,-0.469909,-0.464945,0.456811,98.48,1
12499,0,51733,57605,51692.31,57203.36,40.69,401.64,-0.469911,-0.464959,0.456573,98.49,1
12539,0,51741,57619,51692.41,57204.20,48.59,414.80,-0.469913,-0.464974,0.456331,98.49,1
12580,0,51745,57634,51692.52,57205.05,52.48,428.95,-0.469915,-0.464989,0.456084,98.49,1
12619,0,51752,57652,51692.64,57205.95,59.36,446.05,-0.469917,-0.465004,0.455831,98.50,1
12660,0,51759,57661,51692.77,57206.86,66.23,454.14,-0.469919,-0.465020,0.455574,98.50,1
12700,0,51744,57586,51692.87,57207.62,51.13,378.38,-0.469921,-0.465034,0.455314,98.50,1
12739,0,51712,57520,51692.91,57208.24,19.09,311.76,-0.469922,-0.465044,0.455050,98.51,1
12780,0,51702,57522,51692.93,57208.87,9.07,313.13,-0.469923,-0.465055,0.454785,98.51,1
12819,0,51708,57534,51692.96,57209.52,15.04,324.48,-0.469923,-0.465067,0.454517,98.52,1
12860,0,51713,57540,51693.01,57210.19,19.99,329.81,-0.469924,-0.465078,0.454245,98.52,1
12901,0,51707,57545,51693.04,57210.86,13.96,334.14,-0.469925,-0.465090,0.453971,98.52,1
12939,0,51709,57545,51693.07,57211.53,15.93,333.47,-0.469925,-0.465102,0.453694,98.53,1
12980,0,51709,57545,51693.11,57212.20,15.89,332.80,-0.469926,-0.465114,0.453414,98.53,1
13020,0,51708,57552,51693.14,57212.87,14.86,339.12,-0.469927,-0.465126,0.453131,98.54,1
13059,0,51709,57563,51693.17,57213.58,15.83,349.42,-0.469927,-0.465138,0.452845,98.54,1
13100,0,51711,57584,51693.20,57214.32,17.80,369.68,-0.469928,-0.465151,0.452555,98.54,1
13141,0,51723,57605,51693.27,57215.10,29.73,389.90,-0.469929,-0.465164,0.452262,98.55,1
13180,0,51726,57622,51693.33,57215.92,32.67,406.08,-0.469930,-0.465179,0.451963,98.55,1
13221,0,51733,57640,51693.41,57216.77,39.59,423.23,-0.469932,-0.465194,0.451661,98.56,1
13261,0,51744,57653,51693.52,57217.64,50.48,435.36,-0.469934,-0.465209,0.451353,98.56,1
13301,0,51752,57675,51693.63,57218.56,58.37,456.44,-0.469936,-0.465225,0.451041,98.57,1
13341,0,51756,57686,51693.76,57219.50,62.24,466.50,-0.469939,-0.465241,0.450724,98.57,1
13380,0,51743,57610,51693.86,57220.28,49.14,389.72,-0.469941,-0.465255,0.450404,98.58,1
13420,0,51717,57549,51693.91,57220.94,23.09,328.06,-0.469941,-0.465266,0.450081,98.58,1
13461,0,51706,57549,51693.93,57221.60,12.07,327.40,-0.469942,-0.465278,0.449756,98.59,1
13501,0,51718,57560,51693.98,57222.28,24.02,337.72,-0.469943,-0.465290,0.449428,98.59,1
13540,0,51721,57560,51694.04,57222.95,26.96,337.05,-0.469944,-0.465302,0.449098,98.60,1
13581,0,51721,57569,51694.09,57223.65,26.91,345.35,-0.469945,-0.465314,0.448765,98.60,1
13621,0,51725,57570,51694.16,57224.34,30.84,345.66,-0.469946,-0.465326,0.448430,98.61,1
13661,0,51720,57560,51694.21,57225.02,25.79,334.98,-0.469947,-0.465338,0.448092,98.62,1
13701,0,51716,57559,51694.25,57225.68,21.75,333.32,-0.469948,-0.465349,0.447752,98.62,1
13741,0,51717,57575,51694.30,57226.38,22.70,348.62,-0.469949,-0.465362,0.447409,98.63,1
13780,0,51723,57590,51694.36,57227.11,28.64,362.89,-0.469950,-0.465374,0.447063,98.63,1
13821,0,51733,57616,51694.44,57227.89,38.56,388.11,-0.469952,-0.465388,0.446714,98.64,1
13862,0,51737,57630,51694.52,57228.70,42.48,401.30,-0.469953,-0.465402,0.446362,98.64,1
13901,0,51743,57644,51694.62,57229.53,48.38,414.47,-0.469955,-0.465416,0.446005,98.65,1
13941,0,51747,57659,51694.73,57230.39,52.27,428.61,-0.469957,-0.465432,0.445646,98.66,1
13982,0,51752,57669,51694.84,57231.27,57.16,437.73,-0.469960,-0.465447,0.445282,98.66,1
14021,0,51759,57655,51694.97,57232.11,64.03,422.89,-0.469962,-0.465462,0.444915,98.67,1
14062,0,51731,57558,51695.05,57232.77,35.95,325.23,-0.469963,-0.465473,0.444547,98.68,1
14101,0,51695,57503,51695.05,57233.31,-0.05,269.69,-0.469963,-0.465483,0.444177,98.68,1
14142,0,51689,57507,51695.04,57233.86,-6.04,273.14,-0.469963,-0.465492,0.443807,98.69,1
14182,0,51696,57517,51695.04,57234.43,0.96,282.57,-0.469963,-0.465502,0.443434,98.70,1
14221,0,51700,57510,51695.05,57234.98,4.95,275.02,-0.469964,-0.465512,0.443061,98.70,1
14261,0,51697,57509,51695.05,57235.53,1.95,273.47,-0.469964,-0.465521,0.442686,98.71,1
14302,0,51703,57520,51695.07,57236.10,7.93,283.90,-0.469964,-0.465531,0.442310,98.72,1
14341,0,51703,57527,51695.09,57236.68,7.91,290.32,-0.469964,-0.465541,0.441933,98.72,1
14384,0,51705,57537,51695.11,57237.28,9.89,299.72,-0.469965,-0.465552,0.441554,98.73,1
14422,0,51714,57550,51695.14,57237.91,18.86,312.09,-0.469965,-0.465563,0.441173,98.74,1
14461,0,51725,57571,51695.21,57238.57,29.79,332.43,-0.469967,-0.465575,0.440790,98.75,1
14502,0,51733,57589,51695.29,57239.28,37.71,349.72,-0.469968,-0.465587,0.440404,98.75,1
14541,0,51743,57610,51695.38,57240.02,47.62,369.98,-0.469970,-0.465600,0.440017,98.76,1
14582,0,51753,57629,51695.50,57240.80,57.50,388.20,-0.469972,-0.465613,0.439627,98.77,1
14622,0,51758,57649,51695.62,57241.62,62.38,407.38,-0.469975,-0.465628,0.439235,98.78,1
14663,0,51764,57669,51695.76,57242.47,68.24,426.53,-0.469977,-0.465643,0.438840,98.78,1
14702,0,51773,57643,51695.92,57243.27,77.08,399.73,-0.469980,-0.465657,0.438444,98.79,1
14742,0,51747,57541,51696.02,57243.87,50.98,297.13,-0.469982,-0.465667,0.438047,98.80,1
14782,0,51710,57503,51696.05,57244.39,13.95,258.61,-0.469983,-0.465676,0.437649,98.81,1
14821,0,51713,57512,51696.09,57244.93,16.91,267.07,-0.469984,-0.465686,0.437251,98.81,1
14862,0,51712,57518,51696.12,57245.47,15.88,272.53,-0.469984,-0.465695,0.436852,98.82,1
14902,0,51711,57510,51696.15,57246.00,14.85,264.00,-0.469985,-0.465704,0.436451,98.83,1
14943,0,51712,57534,51696.18,57246.58,15.82,287.42,-0.469985,-0.465714,0.436050,98.84,1
14982,0,51717,57540,51696.22,57247.17,20.78,292.83,-0.469986,-0.465725,0.435647,98.85,1
15022,0,51720,57545,51696.27,57247.77,23.73,297.23,-0.469987,-0.465735,0.435242,98.85,1
15063,0,51719,57556,51696.32,57248.39,22.68,307.61,-0.469988,-0.465746,0.434836,98.86,1
15105,0,51721,57575,51696.37,57249.04,24.63,325.96,-0.469989,-0.465757,0.434429,98.87,1
15143,0,51725,57600,51696.43,57249.75,28.57,350.25,-0.469990,-0.465770,0.434019,98.88,1
15183,0,51737,57620,51696.51,57250.49,40.49,369.51,-0.469992,-0.465783,0.433606,98.89,1
15222,0,51746,57641,51696.61,57251.27,49.39,389.73,-0.469994,-0.465796,0.433192,98.90,1
15268,0,51759,57667,51696.74,57252.10,62.26,414.90,-0.469996,-0.465811,0.432774,98.90,1
15302,0,51765,57687,51696.87,57252.97,68.12,434.03,-0.469999,-0.465826,0.432355,98.91,1
15363,0,51772,57716,51697.03,57253.90,74.97,462.10,-0.470002,-0.465842,0.431932,98.92,1
15382,0,51784,57709,51697.20,57254.81,86.80,454.19,-0.470005,-0.465858,0.431508,98.93,1
15422,0,51762,57627,51697.34,57255.55,64.66,371.45,-0.470008,-0.465871,0.431083,98.94,1
15462,0,51744,57594,51697.43,57256.23,46.57,337.77,-0.470010,-0.465883,0.430656,98.95,1
15502,0,51744,57608,51697.52,57256.94,46.48,351.06,-0.470011,-0.465895,0.430228,98.96,1
15542,0,51756,57620,51697.64,57257.66,58.36,362.34,-0.470014,-0.465908,0.429799,98.97,1
15582,0,51755,57622,51697.76,57258.39,57.24,363.61,-0.470016,-0.465921,0.429369,98.98,1
15622,0,51755,57642,51697.87,57259.16,57.13,382.84,-0.470018,-0.465934,0.428937,98.98,1
15662,0,51759,57655,51698.00,57259.96,61.00,395.04,-0.470021,-0.465948,0.428503,98.99,1
15703,0,51761,57651,51698.13,57260.74,62.87,390.26,-0.470023,-0.465962,0.428068,99.00,1
15743,0,51762,57662,51698.26,57261.55,63.74,400.45,-0.470026,-0.465976,0.427631,99.01,1
15782,0,51769,57681,51698.40,57262.39,70.60,418.61,-0.470028,-0.465990,0.427193,99.02,1
15822,0,51776,57697,51698.56,57263.26,77.44,433.74,-0.470031,-0.466006,0.426754,99.03,1
15862,0,51783,57721,51698.73,57264.18,84.27,456.82,-0.470035,-0.466022,0.426312,99.04,1
15903,0,51781,57739,51698.89,57265.12,82.11,473.87,-0.470038,-0.466038,0.425869,99.05,1
15942,0,51791,57757,51699.08,57266.11,91.92,490.89,-0.470042,-0.466055,0.425424,99.06,1
15984,0,51796,57771,51699.28,57267.12,96.72,503.88,-0.470045,-0.466073,0.424977,99.07,1
16023,0,51803,57792,51699.48,57268.17,103.52,523.83,-0.470049,-0.466092,0.424529,99.08,1
16064,0,51802,57756,51699.69,57269.15,102.31,486.85,-0.470053,-0.466109,0.424081,99.09,1
16103,0,51780,57686,51699.85,57269.98,80.15,416.02,-0.470056,-0.466123,0.423632,99.10,1
16143,0,51760,57678,51699.97,57270.80,60.03,407.20,-0.470059,-0.466137,0.423181,99.11,1
16184,0,51765,57698,51700.11,57271.66,64.89,426.34,-0.470061,-0.466152,0.422728,99.12,1
16222,0,51771,57709,51700.25,57272.53,70.75,436.47,-0.470064,-0.466168,0.422275,99.13,1
16263,0,51778,57713,51700.41,57273.41,77.59,439.59,-0.470067,-0.466183,0.421819,99.14,1
16304,0,51779,57732,51700.57,57274.33,78.43,457.67,-0.470070,-0.466199,0.421363,99.15,1
16343,0,51784,57739,51700.73,57275.26,83.27,463.74,-0.470074,-0.466215,0.420905,99.16,1
16383,0,51788,57750,51700.91,57276.21,87.09,473.79,-0.470077,-0.466232,0.420446,99.17,1
16423,0,51790,57767,51701.09,57277.20,88.91,489.80,-0.470080,-0.466249,0.419986,99.18,1
16463,0,51797,57791,51701.28,57278.22,95.72,512.78,-0.470084,-0.466267,0.419524,99.19,1
16503,0,51811,57811,51701.50,57279.29,109.50,531.71,-0.470088,-0.466286,0.419062,99.20,1
16544,0,51818,57827,51701.74,57280.39,116.26,546.61,-0.470093,-0.466305,0.418600,99.21,1
16585,0,51824,57843,51701.98,57281.51,122.02,561.49,-0.470098,-0.466324,0.418138,99.22,1
16624,0,51830,57862,51702.24,57282.68,127.76,579.32,-0.470103,-0.466345,0.417676,99.23,1
16664,0,51836,57880,51702.51,57283.87,133.49,596.13,-0.470108,-0.466366,0.417214,99.24,1
16703,0,51841,57898,51702.79,57285.10,138.21,612.90,-0.470113,-0.466387,0.416753,99.25,1
16744,0,51846,57861,51703.08,57286.25,142.92,574.75,-0.470119,-0.466407,0.416294,99.26,1
16784,0,51819,57777,51703.31,57287.24,115.69,489.76,-0.470123,-0.466424,0.415836,99.27,1
16824,0,51800,57758,51703.51,57288.18,96.49,469.82,-0.470127,-0.466441,0.415378,99.28,1
16866,0,51797,57770,51703.70,57289.14,93.30,480.86,-0.470131,-0.466458,0.414920,99.29,1
16904,0,51799,57771,51703.89,57290.11,95.11,480.89,-0.470134,-0.466474,0.414462,99.30,1
16944,0,51794,57771,51704.07,57291.07,89.93,479.93,-0.470138,-0.466491,0.414003,99.31,1
16985,0,51793,57784,51704.25,57292.06,88.75,491.94,-0.470141,-0.466509,0.413543,99.32,1
17025,0,51797,57792,51704.43,57293.06,92.57,498.94,-0.470145,-0.466526,0.413082,99.33,1
17065,0,51800,57793,51704.62,57294.06,95.37,498.94,-0.470149,-0.466543,0.412621,99.34,1
17104,0,51798,57805,51704.81,57295.09,93.19,509.91,-0.470152,-0.466561,0.412159,99.35,1
17145,0,51801,57828,51705.01,57296.15,95.99,531.85,-0.470156,-0.466580,0.411696,99.36,1
17185,0,51810,57848,51705.22,57297.26,104.78,550.74,-0.470160,-0.466599,0.411232,99.37,1
17225,0,51815,57869,51705.44,57298.40,109.56,570.60,-0.470165,-0.466619,0.410767,99.38,1
17264,0,51824,57882,51705.68,57299.57,118.32,582.43,-0.470169,-0.466640,0.410302,99.40,1
17305,0,51834,57902,51705.94,57300.78,128.06,601.22,-0.470174,-0.466661,0.409838,99.41,1
17345,0,51839,57926,51706.20,57302.03,132.80,623.97,-0.470179,-0.466683,0.409373,99.42,1
17385,0,51850,57941,51706.49,57303.31,143.51,637.69,-0.470185,-0.466705,0.408910,99.43,1
17424,0,51852,57959,51706.79,57304.62,145.21,654.38,-0.470191,-0.466728,0.408447,99.44,1
17466,0,51853,57900,51707.08,57305.81,145.92,594.19,-0.470196,-0.466749,0.407987,99.45,1
17505,0,51823,57828,51707.31,57306.86,115.69,521.14,-0.470201,-0.466767,0.407527,99.46,1
17544,0,51817,57814,51707.54,57307.87,109.46,506.12,-0.470205,-0.466785,0.407069,99.47,1
17585,0,51811,57835,51707.74,57308.93,103.26,526.07,-0.470209,-0.466803,0.406610,99.48,1
17627,0,51816,57832,51707.96,57309.98,108.04,522.02,-0.470213,-0.466821,0.406152,99.49,1
17665,0,51812,57830,51708.17,57311.02,103.83,518.98,-0.470217,-0.466839,0.405694,99.50,1
17705,0,51814,57842,51708.39,57312.08,105.61,529.92,-0.470221,-0.466858,0.405236,99.51,1
17745,0,51816,57850,51708.60,57313.16,107.40,536.84,-0.470226,-0.466877,0.404778,99.53,1
17784,0,51817,57852,51708.82,57314.24,108.18,537.76,-0.470230,-0.466896,0.404320,99.54,1
17824,0,51816,57863,51709.04,57315.34,106.96,547.66,-0.470234,-0.466915,0.403862,99.55,1
17867,0,51817,57878,51709.25,57316.46,107.75,561.54,-0.470238,-0.466934,0.403404,99.56,1
17904,0,51820,57892,51709.48,57317.61,110.52,574.39,-0.470243,-0.466954,0.402945,99.57,1
17945,0,51824,57906,51709.71,57318.79,114.29,587.21,-0.470247,-0.466975,0.402486,99.58,1
17985,0,51833,57922,51709.95,57320.00,123.05,602.00,-0.470252,-0.466996,0.402028,99.59,1
18023,0,51832,57932,51710.20,57321.23,121.80,610.77,-0.470257,-0.467018,0.401569,99.60,1
18065,0,51833,57949,51710.45,57322.48,122.55,626.52,-0.470261,-0.467039,0.401110,99.61,1
18105,0,51839,57969,51710.70,57323.78,128.30,645.22,-0.470266,-0.467062,0.400651,99.63,1
18145,0,51844,57986,51710.97,57325.10,133.03,660.90,-0.470272,-0.467085,0.400191,99.64,1
18185,0,51853,57993,51711.26,57326.44,141.74,666.56,-0.470277,-0.467108,0.399732,99.65,1
18225,0,51838,57909,51711.51,57327.61,126.49,581.39,-0.470282,-0.467129,0.399275,99.66,1
18266,0,51813,57862,51711.71,57328.68,101.29,533.32,-0.470286,-0.467147,0.398817,99.67,1
18305,0,51806,57870,51711.91,57329.76,94.09,540.24,-0.470290,-0.467166,0.398359,99.68,1
18345,0,51812,57884,51712.11,57330.87,99.89,553.13,-0.470294,-0.467186,0.397900,99.69,1
18387,0,51811,57887,51712.31,57331.98,98.69,555.02,-0.470297,-0.467205,0.397441,99.70,1
18426,0,51813,57889,51712.51,57333.10,100.49,555.90,-0.470301,-0.467225,0.396982,99.71,1
18466,0,51820,57902,51712.73,57334.24,107.27,567.76,-0.470305,-0.467245,0.396523,99.71,1
18505,0,51821,57901,51712.95,57335.38,108.05,565.62,-0.470310,-0.467264,0.396063,99.72,1
18545,0,51824,57906,51713.17,57336.52,110.83,569.48,-0.470314,-0.467284,0.395604,99.73,1
18587,0,51825,57916,51713.39,57337.68,111.61,578.32,-0.470318,-0.467305,0.395146,99.74,1
18625,0,51825,57932,51713.62,57338.87,111.38,593.12,-0.470323,-0.467325,0.394687,99.75,1
18667,0,51833,57946,51713.86,57340.09,119.14,605.91,-0.470327,-0.467347,0.394228,99.76,1
18705,0,51833,57960,51714.09,57341.33,118.91,618.67,-0.470332,-0.467368,0.393769,99.76,1
18746,0,51840,57971,51714.35,57342.59,125.65,628.41,-0.470337,-0.467390,0.393311,99.77,1
18786,0,51843,57979,51714.61,57343.87,128.39,635.13,-0.470342,-0.467412,0.392853,99.78,1
18827,0,51846,57995,51714.87,57345.17,131.13,649.83,-0.470347,-0.467435,0.392396,99.78,1
18868,0,51850,58010,51715.14,57346.50,134.86,663.50,-0.470352,-0.467458,0.391939,99.79,1
18905,0,51855,58015,51715.43,57347.84,139.57,667.16,-0.470358,-0.467482,0.391483,99.80,1
18946,0,51841,57947,51715.68,57349.04,125.32,597.96,-0.470363,-0.467503,0.391028,99.80,1
18987,0,51813,57884,51715.87,57350.11,97.12,533.89,-0.470366,-0.467521,0.390574,99.81,1
19027,0,51800,57885,51716.04,57351.18,83.96,533.82,-0.470370,-0.467540,0.390119,99.81,1
19068,0,51804,57901,51716.22,57352.29,87.78,548.71,-0.470373,-0.467559,0.389663,99.82,1
19107,0,51805,57908,51716.40,57353.40,88.60,554.60,-0.470376,-0.467579,0.389206,99.82,1
19147,0,51806,57916,51716.58,57354.52,89.42,561.48,-0.470380,-0.467598,0.388749,99.83,1
19187,0,51806,57922,51716.76,57355.66,89.24,566.34,-0.470383,-0.467618,0.388291,99.84,1
19228,0,51805,57924,51716.94,57356.80,88.06,567.20,-0.470387,-0.467638,0.387832,99.84,1
19267,0,51806,57927,51717.12,57357.94,88.88,569.06,-0.470390,-0.467658,0.387372,99.85,1
19307,0,51811,57939,51717.30,57359.10,93.70,579.90,-0.470394,-0.467678,0.386912,99.85,1
19347,0,51815,57961,51717.50,57360.31,97.50,600.69,-0.470398,-0.467699,0.386451,99.85,1
19386,0,51823,57979,51717.71,57361.55,105.29,617.45,-0.470402,-0.467721,0.385989,99.86,1
19426,0,51825,57997,51717.93,57362.82,107.07,634.18,-0.470406,-0.467743,0.385527,99.86,1
19467,0,51832,58009,51718.16,57364.11,113.84,644.89,-0.470410,-0.467765,0.385065,99.87,1
19507,0,51838,58021,51718.40,57365.43,119.60,655.57,-0.470415,-0.467788,0.384603,99.87,1
19546,0,51846,58034,51718.66,57366.77,127.34,667.23,-0.470420,-0.467812,0.384141,99.87,1
19587,0,51848,58042,51718.92,57368.12,129.08,673.88,-0.470425,-0.467835,0.383679,99.88,1
19624,0,51855,58035,51719.19,57369.46,135.81,665.54,-0.470430,-0.467859,0.383219,99.88,1
19666,0,51832,57947,51719.42,57370.61,112.58,576.39,-0.470435,-0.467879,0.382760,99.89,1
19706,0,51798,57888,51719.58,57371.65,78.42,516.35,-0.470438,-0.467897,0.382300,99.89,1
19746,0,51791,57886,51719.72,57372.68,71.28,513.32,-0.470441,-0.467915,0.381840,99.89,1
19784,0,51790,57884,51719.86,57373.70,70.14,510.30,-0.470443,-0.467933,0.381379,99.90,1
19826,0,51788,57872,51720.00,57374.70,68.00,497.30,-0.470446,-0.467950,0.380918,99.90,1
19867,0,51780,57873,51720.12,57375.70,59.88,497.30,-0.470448,-0.467967,0.380456,99.90,1
19907,0,51780,57871,51720.24,57376.70,59.76,494.30,-0.470451,-0.467985,0.379993,99.90,1
19947,0,51776,57867,51720.36,57377.68,55.64,489.32,-0.470453,-0.468002,0.379530,99.91,1
19987,0,51772,57870,51720.46,57378.66,51.54,491.34,-0.470455,-0.468019,0.379066,99.91,1
20028,0,51776,57878,51720.57,57379.66,55.43,498.34,-0.470457,-0.468036,0.378601,99.91,1
20067,0,51776,57888,51720.69,57380.68,55.31,507.32,-0.470459,-0.468054,0.378134,99.92,1
20107,0,51776,57901,51720.80,57381.72,55.20,519.28,-0.470462,-0.468072,0.377667,99.92,1
20148,0,51781,57914,51720.92,57382.79,60.08,531.21,-0.470464,-0.468091,0.377199,99.92,1
20187,0,51785,57934,51721.05,57383.89,63.95,550.11,-0.470466,-0.468110,0.376729,99.92,1
20228,0,51787,57942,51721.18,57385.01,65.82,556.99,-0.470469,-0.468130,0.376258,99.93,1
20268,0,51792,57953,51721.33,57386.15,70.67,566.85,-0.470472,-0.468149,0.375787,99.93,1
20308,0,51798,57966,51721.48,57387.31,76.52,578.69,-0.470475,-0.468170,0.375314,99.93,1
20350,0,51803,57968,51721.65,57388.47,81.35,579.53,-0.470478,-0.468190,0.374841,99.93,1
20387,0,51783,57867,51721.77,57389.43,61.23,477.57,-0.470480,-0.468207,0.374367,99.93,1
20429,0,51750,57796,51721.83,57390.25,28.17,405.75,-0.470481,-0.468221,0.373893,99.94,1
20469,0,51735,57780,51721.86,57391.03,13.14,388.97,-0.470482,-0.468235,0.373419,99.94,1
20507,0,51737,57783,51721.89,57391.81,15.11,391.19,-0.470483,-0.468248,0.372945,99.94,1
20547,0,51732,57770,51721.91,57392.57,10.09,377.43,-0.470483,-0.468261,0.372469,99.94,1
20588,0,51732,57761,51721.94,57393.31,10.06,367.69,-0.470484,-0.468274,0.371994,99.94,1
20628,0,51727,57763,51721.95,57394.05,5.05,368.95,-0.470484,-0.468287,0.371519,99.95,1
20668,0,51728,57762,51721.96,57394.79,6.04,367.21,-0.470484,-0.468300,0.371043,99.95,1
20707,0,51726,57759,51721.97,57395.52,4.03,363.48,-0.470484,-0.468313,0.370567,99.95,1
20748,0,51727,57764,51721.98,57396.26,5.02,367.74,-0.470484,-0.468326,0.370090,99.95,1
20788,0,51731,57779,51722.00,57397.02,9.00,381.98,-0.470485,-0.468339,0.369614,99.95,1
20828,0,51734,57791,51722.02,57397.81,11.98,393.19,-0.470485,-0.468353,0.369136,99.95,1
20868,0,51736,57806,51722.05,57398.63,13.95,407.37,-0.470486,-0.468367,0.368659,99.95,1
20908,0,51743,57820,51722.09,57399.47,20.91,420.53,-0.470487,-0.468382,0.368180,99.96,1
20949,0,51744,57831,51722.14,57400.34,21.86,430.66,-0.470487,-0.468397,0.367701,99.96,1
20988,0,51750,57840,51722.20,57401.21,27.80,438.79,-0.470489,-0.468412,0.367221,99.96,1
21029,0,51752,57853,51722.26,57402.12,29.74,450.88,-0.470490,-0.468428,0.366740,99.96,1
21069,0,51756,57865,51722.33,57403.05,33.67,461.95,-0.470491,-0.468444,0.366259,99.96,1
21109,0,51744,57782,51722.37,57403.80,21.62,378.20,-0.470492,-0.468457,0.365777,99.96,1
21149,0,51701,57674,51722.33,57404.35,-21.33,269.65,-0.470491,-0.468467,0.365296,99.96,1
21189,0,51676,57650,51722.24,57404.84,-46.24,245.16,-0.470489,-0.468475,0.364816,99.96,1
21229,0,51678,57648,51722.16,57405.33,-44.16,242.67,-0.470488,-0.468484,0.364338,99.97,1
21269,0,51679,57644,51722.07,57405.81,-43.07,238.19,-0.470486,-0.468492,0.363861,99.97,1
21309,0,51676,57639,51721.98,57406.28,-45.98,232.72,-0.470484,-0.468500,0.363386,99.97,1
21349,0,51674,57642,51721.89,57406.75,-47.89,235.25,-0.470483,-0.468508,0.362912,99.97,1
21389,0,51681,57645,51721.80,57407.23,-40.80,237.77,-0.470481,-0.468517,0.362440,99.97,1
21429,0,51684,57638,51721.73,57407.69,-37.73,230.31,-0.470480,-0.468525,0.361969,99.97,1
21469,0,51685,57644,51721.66,57408.16,-36.66,235.84,-0.470478,-0.468533,0.361499,99.97,1
21508,0,51693,57655,51721.61,57408.66,-28.61,246.34,-0.470477,-0.468542,0.361030,99.97,1
21549,0,51705,57670,51721.57,57409.18,-16.57,260.82,-0.470477,-0.468551,0.360561,99.97,1
21588,0,51711,57690,51721.55,57409.75,-10.55,280.25,-0.470476,-0.468561,0.360093,99.97,1
21629,0,51713,57713,51721.54,57410.36,-8.54,302.64,-0.470476,-0.468571,0.359625,99.97,1
21670,0,51724,57732,51721.55,57411.00,2.45,321.00,-0.470476,-0.468582,0.359158,99.98,1
21709,0,51729,57743,51721.56,57411.66,7.44,331.34,-0.470476,-0.468594,0.358690,99.98,1
21749,0,51739,57754,51721.60,57412.35,17.40,341.65,-0.470477,-0.468606,0.358221,99.98,1
21788,0,51739,57751,51721.63,57413.03,17.37,337.97,-0.470478,-0.468618,0.357753,99.98,1
21828,0,51722,57651,51721.64,57413.51,0.36,237.49,-0.470478,-0.468626,0.357286,99.98,1
21869,0,51681,57572,51721.56,57413.83,-40.56,158.17,-0.470476,-0.468632,0.356820,99.98,1
21909,0,51668,57569,51721.45,57414.14,-53.45,154.86,-0.470474,-0.468637,0.356357,99.98,1
21949,0,51672,57582,51721.36,57414.48,-49.36,167.52,-0.470472,-0.468643,0.355895,99.98,1
21990,0,51679,57585,51721.27,57414.82,-42.27,170.18,-0.470471,-0.468649,0.355436,99.98,1
22030,0,51676,57595,51721.18,57415.18,-45.18,179.82,-0.470469,-0.468655,0.354978,99.98,1
22070,0,51679,57597,51721.10,57415.55,-42.10,181.45,-0.470467,-0.468662,0.354522,99.98,1
22110,0,51678,57602,51721.02,57415.92,-43.02,186.08,-0.470466,-0.468668,0.354067,99.98,1
22150,0,51684,57607,51720.94,57416.30,-36.94,190.70,-0.470464,-0.468675,0.353614,99.98,1
22190,0,51690,57626,51720.88,57416.73,-30.88,209.27,-0.470463,-0.468682,0.353162,99.98,1
22230,0,51700,57647,51720.84,57417.19,-20.84,229.81,-0.470462,-0.468690,0.352711,99.98,1
22270,0,51710,57678,51720.82,57417.71,-10.82,260.29,-0.470462,-0.468699,0.352260,99.98,1
22310,0,51721,57702,51720.82,57418.28,0.18,283.72,-0.470462,-0.468709,0.351809,99.98,1
22350,0,51727,57728,51720.84,57418.90,6.16,309.10,-0.470462,-0.468720,0.351359,99.99,1
22389,0,51740,57747,51720.88,57419.56,19.12,327.44,-0.470463,-0.468731,0.350908,99.99,1
22430,0,51748,57765,51720.93,57420.25,27.07,344.75,-0.470464,-0.468744,0.350457,99.99,1
22470,0,51759,57788,51721.01,57420.99,37.99,367.01,-0.470466,-0.468756,0.350005,99.99,1
22510,0,51767,57753,51721.11,57421.65,45.89,331.35,-0.470467,-0.468768,0.350005,99.99,0
22550,0,51734,57646,51721.13,57422.10,12.87,223.90,-0.470468,-0.468776,0.350005,99.99,0
22589,0,51702,57600,51721.10,57422.46,-19.10,177.54,-0.470467,-0.468782,0.350005,99.99,0
22630,0,51701,57607,51721.06,57422.83,-20.06,184.17,-0.470467,-0.468788,0.350005,99.99,0
22669,0,51703,57611,51721.02,57423.21,-18.02,187.79,-0.470466,-0.468795,0.350005,99.99,0
22709,0,51704,57605,51720.99,57423.57,-16.99,181.43,-0.470465,-0.468801,0.350005,99.99,0
22750,0,51704,57612,51720.96,57423.95,-16.96,188.05,-0.470465,-0.468808,0.350005,99.99,0
22790,0,51708,57619,51720.94,57424.34,-12.94,194.66,-0.470464,-0.468815,0.350005,99.99,0
22830,0,51713,57620,51720.92,57424.73,-7.92,195.27,-0.470464,-0.468822,0.350005,99.99,0
22870,0,51714,57625,51720.91,57425.14,-6.91,199.86,-0.470464,-0.468829,0.350005,99.99,0
22909,0,51712,57640,51720.89,57425.57,-8.89,214.43,-0.470463,-0.468836,0.350005,99.99,0
22950,0,51721,57656,51720.89,57426.03,0.11,229.97,-0.470463,-0.468844,0.350005,99.99,0
22990,0,51728,57683,51720.91,57426.54,7.09,256.46,-0.470464,-0.468853,0.350005,99.99,0
23030,0,51737,57697,51720.95,57427.09,16.05,269.91,-0.470464,-0.468863,0.350005,99.99,0
23071,0,51745,57716,51721.00,57427.66,24.00,288.34,-0.470465,-0.468873,0.350005,99.99,0
23112,0,51747,57734,51721.05,57428.28,25.95,305.72,-0.470466,-0.468883,0.350005,99.99,0
23149,0,51756,57748,51721.12,57428.92,34.88,319.08,-0.470468,-0.468894,0.350005,99.99,0
23192,0,51757,57771,51721.20,57429.61,35.80,341.39,-0.470469,-0.468906,0.350005,99.99,0
23232,0,51762,57740,51721.28,57430.23,40.72,309.77,-0.470471,-0.468917,0.350005,99.99,0
23271,0,51732,57634,51721.30,57430.64,10.70,203.36,-0.470471,-0.468924,0.350005,99.99,0
23312,0,51708,57594,51721.28,57430.96,-13.28,163.04,-0.470471,-0.468930,0.350005,99.99,0
23350,0,51705,57601,51721.25,57431.30,-16.25,169.70,-0.470470,-0.468936,0.350005,99.99,0
23388,0,51709,57605,51721.22,57431.65,-12.22,173.35,-0.470470,-0.468942,0.350005,99.99,0
23428,0,51710,57608,51721.20,57432.01,-11.20,175.99,-0.470469,-0.468948,0.350005,99.99,0
23468,0,51712,57617,51721.19,57432.38,-9.19,184.62,-0.470469,-0.468955,0.350005,99.99,0
23511,0,51719,57630,51721.18,57432.78,-2.18,197.22,-0.470469,-0.468962,0.350005,99.99,0
23550,0,51725,57634,51721.19,57433.18,3.81,200.82,-0.470469,-0.468969,0.350005,99.99,0
23591,0,51734,57639,51721.22,57433.59,12.78,205.41,-0.470470,-0.468976,0.350005,99.99,0
23632,0,51736,57655,51721.25,57434.04,14.75,220.96,-0.470470,-0.468984,0.350005,99.99,0
23672,0,51745,57672,51721.30,57434.52,23.70,237.48,-0.470471,-0.468992,0.350005,99.99,0
23712,0,51754,57690,51721.37,57435.03,32.63,254.97,-0.470472,-0.469001,0.350005,99.99,0
23749,0,51755,57712,51721.44,57435.58,33.56,276.42,-0.470474,-0.469011,0.350005,99.99,0
23791,0,51764,57729,51721.52,57436.17,42.48,292.83,-0.470476,-0.469021,0.350005,99.99,0
23828,0,51772,57742,51721.62,57436.79,50.38,305.21,-0.470477,-0.469031,0.350005,99.99,0
23871,0,51776,57759,51721.73,57437.43,54.27,321.57,-0.470480,-0.469043,0.350005,99.99,0
23912,0,51780,57773,51721.85,57438.10,58.15,334.90,-0.470482,-0.469054,0.350005,99.99,0
23952,0,51775,57703,51721.96,57438.63,53.04,264.37,-0.470484,-0.469064,0.350005,99.99,0
23992,0,51743,57621,51722.00,57439.00,21.00,182.00,-0.470485,-0.469070,0.350005,99.99,0
24032,0,51725,57609,51722.01,57439.34,2.99,169.66,-0.470485,-0.469076,0.350005,99.99,0
24074,0,51727,57624,51722.02,57439.71,4.98,184.29,-0.470485,-0.469082,0.350005,99.99,0
24112,0,51731,57629,51722.04,57440.09,8.96,188.91,-0.470486,-0.469089,0.350005,99.99,0
24153,0,51726,57628,51722.05,57440.47,3.95,187.53,-0.470486,-0.469096,0.350005,99.99,0
24192,0,51732,57642,51722.07,57440.87,9.93,201.12,-0.470486,-0.469103,0.350005,99.99,0
24233,0,51730,57645,51722.09,57441.29,7.91,203.71,-0.470486,-0.469110,0.350005,99.99,0
24272,0,51728,57652,51722.10,57441.71,5.90,210.29,-0.470487,-0.469117,0.350005,99.99,0
24313,0,51734,57661,51722.12,57442.15,11.88,218.85,-0.470487,-0.469125,0.350005,99.99,0
24352,0,51746,57684,51722.17,57442.63,23.83,241.37,-0.470488,-0.469133,0.350005,99.99,0
24393,0,51757,57706,51722.24,57443.16,34.76,262.84,-0.470489,-0.469142,0.350005,99.99,0
24430,0,51761,57729,51722.32,57443.73,38.68,285.27,-0.470491,-0.469152,0.350005,99.99,0
24473,0,51769,57748,51722.41,57444.34,46.59,303.66,-0.470493,-0.469163,0.350005,99.99,0
24513,0,51778,57772,51722.53,57445.00,55.47,327.00,-0.470495,-0.469175,0.350005,99.99,0
24552,0,51784,57790,51722.65,57445.69,61.35,344.31,-0.470497,-0.469186,0.350005,99.99,0
24593,0,51797,57804,51722.80,57446.41,74.20,357.59,-0.470500,-0.469199,0.350005,99.99,0
24631,0,51795,57730,51722.95,57446.98,72.05,283.02,-0.470503,-0.469209,0.350005,99.99,0
24670,0,51758,57655,51723.02,57447.40,34.98,207.60,-0.470504,-0.469216,0.350005,99.99,0
24712,0,51743,57650,51723.06,57447.80,19.94,202.20,-0.470505,-0.469223,0.350005,99.99,0
24752,0,51748,57664,51723.11,57448.24,24.89,215.76,-0.470506,-0.469231,0.350005,99.99,0
24790,0,51752,57671,51723.17,57448.68,28.83,222.32,-0.470507,-0.469239,0.350005,99.99,0
24833,0,51749,57672,51723.22,57449.13,25.78,222.87,-0.470508,-0.469246,0.350005,99.99,0
24873,0,51754,57681,51723.29,57449.60,30.71,231.40,-0.470510,-0.469254,0.350005,99.99,0
24913,0,51759,57684,51723.36,57450.07,35.64,233.93,-0.470511,-0.469263,0.350005,99.99,0
24953,0,51758,57689,51723.43,57450.55,34.57,238.45,-0.470512,-0.469271,0.350005,99.99,0
24993,0,51760,57697,51723.50,57451.04,36.50,245.96,-0.470514,-0.469280,0.350005,99.99,0
25032,0,51761,57717,51723.58,57451.58,37.42,265.42,-0.470515,-0.469289,0.350005,99.99,0
25070,0,51771,57739,51723.68,57452.16,47.32,286.84,-0.470517,-0.469299,0.350005,99.99,0
25114,0,51779,57758,51723.79,57452.77,55.21,305.23,-0.470519,-0.469310,0.350005,99.99,0
25154,0,51785,57776,51723.92,57453.42,61.08,322.58,-0.470522,-0.469321,0.350005,99.99,0
25194,0,51787,57794,51724.05,57454.10,62.95,339.90,-0.470524,-0.469333,0.350005,99.99,0
25233,0,51793,57813,51724.19,57454.82,68.81,358.18,-0.470527,-0.469345,0.350005,99.99,0
25273,0,51800,57829,51724.34,57455.57,75.66,373.43,-0.470530,-0.469358,0.350005,99.99,0
25314,0,51790,57749,51724.47,57456.16,65.53,292.84,-0.470533,-0.469369,0.350005,99.99,0
25351,0,51754,57670,51724.53,57456.59,29.47,213.41,-0.470534,-0.469376,0.350005,99.99,0
25394,0,51743,57661,51724.57,57457.00,18.43,204.00,-0.470534,-0.469383,0.350005,99.99,0
25433,0,51745,57670,51724.61,57457.43,20.39,212.57,-0.470535,-0.469391,0.350005,99.99,0
25474,0,51749,57670,51724.66,57457.85,24.34,212.15,-0.470536,-0.469398,0.350005,99.99,0
25512,0,51746,57671,51724.71,57458.28,21.29,212.72,-0.470537,-0.469406,0.350005,99.99,0
25553,0,51749,57684,51724.76,57458.73,24.24,225.27,-0.470538,-0.469414,0.350005,99.99,0
25593,0,51756,57688,51724.82,57459.20,31.18,228.80,-0.470539,-0.469422,0.350005,99.99,0
25634,0,51759,57691,51724.89,57459.66,34.11,231.34,-0.470541,-0.469430,0.350005,99.99,0
25672,0,51765,57707,51724.97,57460.16,40.03,246.84,-0.470542,-0.469438,0.350005,99.99,0
25714,0,51771,57720,51725.07,57460.68,45.93,259.32,-0.470544,-0.469447,0.350005,99.99,0
25754,0,51780,57743,51725.18,57461.24,54.82,281.76,-0.470546,-0.469457,0.350005,99.99,0
25794,0,51789,57761,51725.30,57461.84,63.70,299.16,-0.470549,-0.469468,0.350005,99.99,0
25831,0,51795,57781,51725.45,57462.48,69.55,318.52,-0.470551,-0.469479,0.350005,99.99,0
25874,0,51798,57793,51725.59,57463.15,72.41,329.85,-0.470554,-0.469490,0.350005,99.99,0
25911,0,51800,57813,51725.74,57463.85,74.26,349.15,-0.470557,-0.469503,0.350005,99.99,0
25954,0,51811,57819,51725.91,57464.56,85.09,354.44,-0.470560,-0.469515,0.350005,99.99,0
25994,0,51806,57767,51726.07,57465.17,79.93,301.83,-0.470563,-0.469526,0.350005,99.99,0
26034,0,51771,57669,51726.16,57465.58,44.84,203.42,-0.470565,-0.469533,0.350005,99.99,0
26074,0,51747,57643,51726.20,57465.93,20.80,177.07,-0.470566,-0.469539,0.350005,99.99,0
26114,0,51746,57650,51726.24,57466.30,19.76,183.70,-0.470567,-0.469545,0.350005,99.99,0
26155,0,51745,57639,51726.28,57466.65,18.72,172.35,-0.470567,-0.469551,0.350005,99.99,0
26195,0,51738,57626,51726.30,57466.97,11.70,159.03,-0.470568,-0.469557,0.350005,99.99,0
26234,0,51738,57633,51726.33,57467.30,11.67,165.70,-0.470568,-0.469563,0.350005,99.99,0
26274,0,51744,57650,51726.36,57467.67,17.64,182.33,-0.470569,-0.469569,0.350005,99.99,0
26314,0,51743,57649,51726.40,57468.04,16.60,180.96,-0.470570,-0.469575,0.350005,99.99,0
26355,0,51743,57664,51726.43,57468.43,16.57,195.57,-0.470570,-0.469582,0.350005,99.99,0
26394,0,51747,57678,51726.48,57468.85,20.52,209.15,-0.470571,-0.469590,0.350005,99.99,0
26435,0,51753,57693,51726.53,57469.30,26.47,223.70,-0.470572,-0.469597,0.350005,99.99,0
26473,0,51764,57715,51726.61,57469.79,37.39,245.21,-0.470574,-0.469606,0.350005,99.99,0
26515,0,51769,57735,51726.70,57470.32,42.30,264.68,-0.470576,-0.469615,0.350005,99.99,0
26554,0,51778,57754,51726.80,57470.89,51.20,283.11,-0.470578,-0.469625,0.350005,99.99,0
26593,0,51783,57779,51726.91,57471.51,56.09,307.49,-0.470580,-0.469636,0.350005,99.99,0
26633,0,51794,57801,51727.05,57472.17,66.95,328.83,-0.470582,-0.469647,0.350005,99.99,0
26673,0,51804,57800,51727.21,57472.83,76.79,327.17,-0.470585,-0.469659,0.350005,99.99,0
26713,0,51791,57708,51727.34,57473.30,63.66,234.70,-0.470588,-0.469667,0.350005,99.99,0
26751,0,51756,57636,51727.39,57473.63,28.61,162.37,-0.470589,-0.469673,0.350005,99.99,0
26793,0,51748,57637,51727.44,57473.96,20.56,163.04,-0.470590,-0.469678,0.350005,99.99,0
26833,0,51754,57645,51727.49,57474.30,26.51,170.70,-0.470591,-0.469684,0.350005,99.99,0
26874,0,51751,57635,51727.54,57474.62,23.46,160.37,-0.470592,-0.469690,0.350005,99.99,0
26916,0,51744,57642,51727.57,57474.96,16.43,167.04,-0.470592,-0.469696,0.350005,99.99,0
26953,0,51750,57645,51727.62,57475.30,22.38,169.70,-0.470593,-0.469702,0.350005,99.99,0
26993,0,51749,57650,51727.66,57475.65,21.34,174.35,-0.470594,-0.469708,0.350005,99.99,0
27035,0,51754,57649,51727.72,57476.00,26.28,173.00,-0.470595,-0.469714,0.350005,99.99,0
27075,0,51752,57658,51727.77,57476.37,24.23,181.63,-0.470596,-0.469720,0.350005,99.99,0
27115,0,51758,57680,51727.83,57476.78,30.17,203.22,-0.470598,-0.469727,0.350005,99.99,0
27154,0,51765,57704,51727.91,57477.23,37.09,226.77,-0.470599,-0.469735,0.350005,99.99,0
27195,0,51769,57720,51727.99,57477.72,41.01,242.28,-0.470600,-0.469744,0.350005,99.99,0
27235,0,51778,57738,51728.09,57478.25,49.91,259.75,-0.470602,-0.469753,0.350005,99.99,0
27275,0,51783,57752,51728.20,57478.80,54.80,273.20,-0.470605,-0.469763,0.350005,99.99,0
27315,0,51792,57770,51728.33,57479.38,63.67,290.62,-0.470607,-0.469773,0.350005,99.99,0
27355,0,51794,57780,51728.46,57479.98,65.54,300.02,-0.470610,-0.469783,0.350005,99.99,0
27396,0,51777,57691,51728.56,57480.40,48.44,210.60,-0.470612,-0.469791,0.350005,99.99,0
27435,0,51739,57627,51728.58,57480.70,10.42,146.30,-0.470612,-0.469796,0.350005,99.99,0
27475,0,51735,57633,51728.60,57481.00,6.40,152.00,-0.470612,-0.469801,0.350005,99.99,0
27515,0,51739,57643,51728.62,57481.32,10.38,161.68,-0.470613,-0.469807,0.350005,99.99,0
27557,0,51747,57645,51728.66,57481.65,18.34,163.35,-0.470614,-0.469812,0.350005,99.99,0
27592,0,51749,57660,51728.70,57482.01,20.30,177.99,-0.470614,-0.469819,0.350005,99.99,0
27632,0,51754,57678,51728.75,57482.41,25.25,195.59,-0.470615,-0.469825,0.350005,99.99,0
27675,0,51758,57682,51728.81,57482.81,29.19,199.19,-0.470616,-0.469832,0.350005,99.99,0
27712,0,51764,57695,51728.88,57483.23,35.12,211.77,-0.470618,-0.469840,0.350005,99.99,0
27754,0,51774,57712,51728.97,57483.70,45.03,228.30,-0.470620,-0.469848,0.350005,99.99,0
27792,0,51780,57728,51729.07,57484.18,50.93,243.82,-0.470621,-0.469856,0.350005,99.99,0
27833,0,51793,57752,51729.20,57484.72,63.80,267.28,-0.470624,-0.469866,0.350005,99.99,0
27875,0,51799,57770,51729.34,57485.29,69.66,284.71,-0.470627,-0.469876,0.350005,99.99,0
27915,0,51807,57793,51729.50,57485.91,77.50,307.09,-0.470630,-0.469886,0.350005,99.99,0
27954,0,51809,57816,51729.66,57486.57,79.34,329.43,-0.470633,-0.469898,0.350005,99.99,0
27993,0,51819,57833,51729.84,57487.27,89.16,345.73,-0.470636,-0.469910,0.350005,99.99,0
28033,0,51825,57851,51730.03,57488.00,94.97,363.00,-0.470640,-0.469923,0.349556,99.99,1
28073,0,51828,57800,51730.23,57488.62,97.77,311.38,-0.470644,-0.469934,0.349114,99.99,1
28112,0,51794,57699,51730.36,57489.04,63.64,209.96,-0.470646,-0.469941,0.348675,99.99,1
28155,0,51767,57663,51730.43,57489.39,36.57,173.61,-0.470648,-0.469947,0.348239,99.99,1
28196,0,51760,57664,51730.49,57489.74,29.51,174.26,-0.470649,-0.469953,0.347804,99.99,1
28236,0,51760,57658,51730.55,57490.08,29.45,167.92,-0.470650,-0.469959,0.347369,99.99,1
28274,0,51750,57651,51730.59,57490.41,19.41,160.59,-0.470651,-0.469965,0.346936,99.99,1
28313,0,51754,57657,51730.64,57490.74,23.36,166.26,-0.470652,-0.469970,0.346504,99.99,1
28355,0,51754,57666,51730.68,57491.09,23.32,174.91,-0.470653,-0.469977,0.346072,99.99,1
28395,0,51753,57671,51730.73,57491.45,22.27,179.55,-0.470654,-0.469983,0.345641,99.99,1
28436,0,51757,57680,51730.79,57491.83,26.21,188.17,-0.470655,-0.469989,0.345211,99.99,1
28475,0,51764,57703,51730.85,57492.25,33.15,210.75,-0.470656,-0.469997,0.344782,99.99,1
28518,0,51770,57722,51730.93,57492.71,39.07,229.29,-0.470657,-0.470005,0.344354,99.99,1
28557,0,51777,57744,51731.02,57493.22,45.98,250.78,-0.470659,-0.470014,0.343927,99.99,1
28599,0,51790,57768,51731.14,57493.77,58.86,274.23,-0.470662,-0.470023,0.343502,99.99,1
28636,0,51796,57786,51731.28,57494.36,64.72,291.64,-0.470664,-0.470033,0.343081,99.99,1
28676,0,51798,57811,51731.41,57494.99,66.59,316.01,-0.470667,-0.470044,0.342661,99.99,1
28716,0,51804,57833,51731.56,57495.67,72.44,337.33,-0.470670,-0.470056,0.342245,99.99,1
28756,0,51819,57851,51731.74,57496.38,87.26,354.62,-0.470673,-0.470068,0.341833,99.99,1
28795,0,51821,57799,51731.92,57496.98,89.08,302.02,-0.470677,-0.470079,0.341427,99.99,1
28836,0,51789,57698,51732.04,57497.39,56.96,200.61,-0.470679,-0.470086,0.341025,99.99,1
28876,0,51762,57664,51732.10,57497.72,29.90,166.28,-0.470680,-0.470092,0.340623,99.99,1
28916,0,51761,57669,51732.16,57498.07,28.84,170.93,-0.470681,-0.470098,0.340223,99.99,1
28955,0,51766,57668,51732.23,57498.41,33.77,169.59,-0.470682,-0.470104,0.339824,99.99,1
28997,0,51760,57656,51732.29,57498.72,27.71,157.28,-0.470684,-0.470109,0.339426,99.99,1
29036,0,51759,57670,51732.34,57499.07,26.66,170.93,-0.470685,-0.470115,0.339029,99.99,1
29076,0,51763,57671,51732.40,57499.41,30.60,171.59,-0.470686,-0.470121,0.338633,99.99,1
29116,0,51766,57673,51732.47,57499.76,33.53,173.24,-0.470687,-0.470127,0.338239,99.99,1
29156,0,51766,57682,51732.54,57500.12,33.46,181.87,-0.470689,-0.470134,0.337845,99.99,1
29196,0,51769,57691,51732.62,57500.51,36.38,190.49,-0.470690,-0.470140,0.337453,99.99,1
29237,0,51774,57714,51732.70,57500.94,41.30,213.06,-0.470692,-0.470148,0.337062,99.99,1
29275,0,51780,57729,51732.80,57501.39,47.20,227.61,-0.470694,-0.470156,0.336673,99.99,1
29317,0,51788,57750,51732.91,57501.89,55.09,248.11,-0.470696,-0.470164,0.336285,100.00,1
29357,0,51796,57766,51733.04,57502.43,62.96,263.57,-0.470698,-0.470174,0.335901,100.00,1
29397,0,51796,57776,51733.17,57502.97,62.83,273.03,-0.470701,-0.470183,0.335520,100.00,1
29437,0,51798,57791,51733.30,57503.55,64.70,287.45,-0.470703,-0.470193,0.335140,100.00,1
29477,0,51806,57814,51733.45,57504.17,72.55,309.83,-0.470706,-0.470204,0.334764,100.00,1
29518,0,51803,57769,51733.59,57504.70,69.41,264.30,-0.470709,-0.470213,0.334392,100.00,1
29558,0,51771,57667,51733.67,57505.03,37.33,161.97,-0.470710,-0.470219,0.334022,100.00,1
29598,0,51746,57642,51733.70,57505.30,12.30,136.70,-0.470711,-0.470224,0.333651,100.00,1
29637,0,51747,57655,51733.72,57505.61,13.28,149.39,-0.470711,-0.470229,0.333282,100.00,1
29678,0,51756,57665,51733.77,57505.93,22.23,159.07,-0.470712,-0.470235,0.332913,100.00,1
29718,0,51759,57672,51733.82,57506.26,25.18,165.74,-0.470713,-0.470240,0.332544,100.00,1
29758,0,51760,57686,51733.87,57506.62,26.12,179.38,-0.470714,-0.470246,0.332176,100.00,1
29798,0,51761,57687,51733.93,57506.98,27.07,180.02,-0.470715,-0.470253,0.331809,100.00,1
29838,0,51771,57686,51734.00,57507.34,37.00,178.66,-0.470717,-0.470259,0.331443,100.00,1
29878,0,51770,57698,51734.08,57507.72,35.92,190.28,-0.470718,-0.470266,0.331079,100.00,1
29917,0,51780,57716,51734.17,57508.14,45.83,207.86,-0.470720,-0.470273,0.330716,100.00,1
29956,0,51789,57740,51734.28,57508.61,54.72,231.39,-0.470722,-0.470281,0.330355,100.00,1
29998,0,51794,57762,51734.40,57509.11,59.60,252.89,-0.470725,-0.470290,0.329997,100.00,1
30037,0,51803,57779,51734.54,57509.66,68.46,269.34,-0.470727,-0.470299,0.329643,100.00,1
30079,0,51811,57796,51734.69,57510.23,76.31,285.77,-0.470730,-0.470309,0.329292,100.00,1
30117,0,51814,57809,51734.85,57510.83,79.15,298.17,-0.470733,-0.470320,0.328947,100.00,1
30158,0,51822,57827,51735.03,57511.46,86.97,315.54,-0.470737,-0.470331,0.328606,100.00,1
30198,0,51828,57813,51735.21,57512.07,92.79,300.93,-0.470740,-0.470341,0.328273,100.00,1
30237,0,51798,57709,51735.34,57512.46,62.66,196.54,-0.470743,-0.470348,0.327943,100.00,1
30277,0,51757,57638,51735.38,57512.71,21.62,125.29,-0.470743,-0.470353,0.327614,100.00,1
30321,0,51744,57636,51735.40,57512.96,8.60,123.04,-0.470744,-0.470357,0.327285,100.00,1
30358,0,51750,57644,51735.43,57513.23,14.57,130.77,-0.470744,-0.470361,0.326957,100.00,1
30400,0,51749,57634,51735.46,57513.47,13.54,120.53,-0.470745,-0.470366,0.326630,100.00,1
30455,0,51747,57638,51735.48,57513.72,11.52,124.28,-0.470745,-0.470370,0.326303,100.00,1
30486,0,51746,57648,51735.51,57513.99,10.49,134.01,-0.470746,-0.470375,0.325976,100.00,1
30519,0,51752,57653,51735.54,57514.27,16.46,138.73,-0.470747,-0.470380,0.325650,100.00,1
30559,0,51750,57661,51735.57,57514.57,14.43,146.43,-0.470747,-0.470385,0.325324,100.00,1
30599,0,51755,57677,51735.61,57514.89,19.39,162.11,-0.470748,-0.470390,0.324998,100.00,1
30640,0,51766,57697,51735.68,57515.26,30.32,181.74,-0.470749,-0.470397,0.324673,100.00,1
30680,0,51776,57719,51735.76,57515.67,40.24,203.33,-0.470751,-0.470404,0.324349,100.00,1
30716,0,51786,57743,51735.86,57516.13,50.14,226.87,-0.470753,-0.470412,0.324026,100.00,1
30759,0,51788,57763,51735.96,57516.62,52.04,246.37,-0.470755,-0.470421,0.323705,100.00,1
30799,0,51798,57782,51736.09,57517.16,61.91,264.84,-0.470757,-0.470430,0.323386,100.00,1
30838,0,51805,57806,51736.23,57517.73,68.77,288.27,-0.470760,-0.470440,0.323070,100.00,1
30880,0,51817,57825,51736.39,57518.35,80.61,306.65,-0.470763,-0.470451,0.322759,100.00,1
30918,0,51826,57803,51736.57,57518.92,89.43,284.08,-0.470767,-0.470460,0.322454,100.00,1
30958,0,51798,57682,51736.70,57519.25,61.30,162.75,-0.470769,-0.470466,0.322153,100.00,1
30998,0,51759,57614,51736.75,57519.44,22.25,94.56,-0.470770,-0.470469,0.321854,100.00,1
31037,0,51744,57610,51736.76,57519.62,7.24,90.37,-0.470770,-0.470473,0.321555,100.00,1
31078,0,51742,57607,51736.77,57519.80,5.23,87.20,-0.470770,-0.470476,0.321257,100.00,1
31118,0,51746,57594,51736.79,57519.95,9.21,74.05,-0.470771,-0.470478,0.320959,100.00,1
31157,0,51737,57591,51736.79,57520.09,0.21,70.91,-0.470771,-0.470481,0.320662,100.00,1
31199,0,51743,57599,51736.81,57520.25,6.19,78.75,-0.470771,-0.470484,0.320365,100.00,1
31238,0,51743,57606,51736.82,57520.43,6.18,85.57,-0.470771,-0.470487,0.320070,100.00,1
31278,0,51749,57603,51736.85,57520.59,12.15,82.41,-0.470772,-0.470490,0.319775,100.00,1
31318,0,51746,57621,51736.87,57520.80,9.13,100.20,-0.470772,-0.470493,0.319480,100.00,1
31358,0,51754,57640,51736.91,57521.04,17.09,118.96,-0.470773,-0.470497,0.319186,100.00,1
31400,0,51762,57664,51736.96,57521.32,25.04,142.68,-0.470774,-0.470502,0.318892,100.00,1
31438,0,51775,57681,51737.04,57521.64,37.96,159.36,-0.470775,-0.470508,0.318600,100.00,1
31478,0,51778,57704,51737.12,57522.01,40.88,181.99,-0.470777,-0.470514,0.318310,100.00,1
31519,0,51785,57720,51737.21,57522.41,47.79,197.59,-0.470779,-0.470521,0.318021,100.00,1
31558,0,51791,57741,51737.32,57522.85,53.68,218.15,-0.470781,-0.470529,0.317734,100.00,1
31599,0,51800,57765,51737.45,57523.33,62.55,241.67,-0.470783,-0.470537,0.317451,100.00,1
31638,0,51803,57777,51737.58,57523.84,65.42,253.16,-0.470786,-0.470546,0.317170,100.00,1
31679,0,51793,57675,51737.70,57524.14,55.30,150.86,-0.470788,-0.470551,0.316893,100.00,1
31718,0,51750,57571,51737.72,57524.24,12.28,46.76,-0.470789,-0.470553,0.316617,100.00,1
31759,0,51728,57561,51737.70,57524.31,-9.70,36.69,-0.470788,-0.470554,0.316342,100.00,1
31798,0,51731,57566,51737.69,57524.40,-6.69,41.60,-0.470788,-0.470556,0.316068,100.00,1
31839,0,51734,57561,51737.68,57524.47,-3.68,36.53,-0.470788,-0.470557,0.315794,100.00,1
31878,0,51728,57558,51737.66,57524.54,-9.66,33.46,-0.470788,-0.470558,0.315522,100.00,1
31918,0,51740,57575,51737.67,57524.64,2.33,50.36,-0.470788,-0.470560,0.315250,100.00,1
31958,0,51749,57580,51737.70,57524.76,11.30,55.24,-0.470788,-0.470562,0.314979,100.00,1
31999,0,51753,57582,51737.73,57524.87,15.27,57.13,-0.470789,-0.470564,0.314708,100.00,1
32038,0,51754,57592,51737.76,57525.01,16.24,66.99,-0.470789,-0.470566,0.314439,100.00,1
32079,0,51763,57611,51737.81,57525.18,25.19,85.82,-0.470790,-0.470569,0.314171,100.00,1
32118,0,51769,57632,51737.87,57525.40,31.12,106.60,-0.470792,-0.470573,0.313905,100.00,1
32159,0,51776,57659,51737.95,57525.67,38.05,133.33,-0.470793,-0.470578,0.313640,100.00,1
32198,0,51780,57679,51738.04,57525.98,41.96,153.02,-0.470795,-0.470583,0.313378,100.00,1
32238,0,51792,57700,51738.15,57526.32,53.85,173.68,-0.470797,-0.470589,0.313118,100.00,1
32278,0,51802,57714,51738.28,57526.70,63.72,187.30,-0.470799,-0.470596,0.312863,100.00,1
32319,0,51806,57727,51738.41,57527.10,67.59,199.90,-0.470802,-0.470603,0.312614,100.00,1
32359,0,51811,57749,51738.56,57527.55,72.44,221.45,-0.470805,-0.470610,0.312369,100.00,1
32401,0,51813,57701,51738.71,57527.89,74.29,173.11,-0.470808,-0.470616,0.312132,100.00,1
32439,0,51769,57572,51738.77,57527.98,30.23,44.02,-0.470809,-0.470618,0.311897,100.00,1
32480,0,51728,57520,51738.75,57527.97,-10.75,-7.97,-0.470809,-0.470618,0.311662,100.00,1
32519,0,51728,57522,51738.73,57527.96,-10.73,-5.96,-0.470808,-0.470618,0.311428,100.00,1
32559,0,51731,57527,51738.72,57527.96,-7.72,-0.96,-0.470808,-0.470618,0.311195,100.00,1
32599,0,51730,57520,51738.70,57527.94,-8.70,-7.94,-0.470808,-0.470617,0.310963,100.00,1
32639,0,51731,57530,51738.69,57527.95,-7.69,2.05,-0.470807,-0.470617,0.310732,100.00,1
32679,0,51732,57541,51738.68,57527.97,-6.68,13.03,-0.470807,-0.470618,0.310501,100.00,1
32721,0,51735,57538,51738.67,57528.00,-3.67,10.00,-0.470807,-0.470618,0.310271,100.00,1
32761,0,51739,57547,51738.67,57528.04,0.33,18.96,-0.470807,-0.470619,0.310042,100.00,1
32802,0,51749,57567,51738.70,57528.11,10.30,38.89,-0.470807,-0.470620,0.309814,100.00,1
32840,0,51755,57592,51738.73,57528.24,16.27,63.76,-0.470808,-0.470623,0.309586,100.00,1
32882,0,51762,57617,51738.78,57528.42,23.22,88.58,-0.470809,-0.470626,0.309359,100.00,1
32921,0,51774,57645,51738.85,57528.66,35.15,116.34,-0.470810,-0.470630,0.309134,100.00,1
32960,0,51786,57668,51738.94,57528.94,47.06,139.06,-0.470812,-0.470635,0.308912,100.00,1
33000,0,51794,57686,51739.05,57529.25,54.95,156.75,-0.470814,-0.470640,0.308694,100.00,1
33039,0,51802,57700,51739.18,57529.60,62.82,170.40,-0.470817,-0.470646,0.308481,100.00,1
33079,0,51813,57717,51739.33,57529.97,73.67,187.03,-0.470820,-0.470653,0.308275,100.00,1
33121,0,51818,57721,51739.49,57530.36,78.51,190.64,-0.470823,-0.470659,0.308076,100.00,1
33161,0,51798,57609,51739.61,57530.52,58.39,78.48,-0.470825,-0.470662,0.307884,100.00,1
33201,0,51747,57510,51739.62,57530.48,7.37,-20.48,-0.470825,-0.470661,0.307692,100.00,1
33241,0,51733,57500,51739.61,57530.42,-6.61,-30.42,-0.470825,-0.470660,0.307500,100.00,1
33281,0,51734,57514,51739.60,57530.39,-5.60,-16.39,-0.470825,-0.470660,0.307309,100.00,1
33321,0,51743,57514,51739.61,57530.36,3.39,-16.36,-0.470825,-0.470659,0.307119,100.00,1
33362,0,51748,57524,51739.63,57530.34,8.37,-6.34,-0.470826,-0.470659,0.306929,100.00,1
33402,0,51740,57524,51739.63,57530.33,0.37,-6.33,-0.470826,-0.470659,0.306740,100.00,1
33442,0,51744,57514,51739.64,57530.30,4.36,-16.30,-0.470826,-0.470658,0.306552,100.00,1
33483,0,51736,57514,51739.64,57530.27,-3.64,-16.27,-0.470826,-0.470658,0.306364,100.00,1
33522,0,51741,57528,51739.64,57530.27,1.36,-2.27,-0.470826,-0.470658,0.306177,100.00,1
33562,0,51746,57545,51739.66,57530.30,6.34,14.70,-0.470826,-0.470658,0.305990,100.00,1
33602,0,51753,57572,51739.68,57530.38,13.32,41.62,-0.470827,-0.470660,0.305804,100.00,1
33641,0,51759,57596,51739.72,57530.52,19.28,65.48,-0.470827,-0.470662,0.305619,100.00,1
33684,0,51766,57615,51739.78,57530.69,26.22,84.31,-0.470828,-0.470665,0.305435,100.00,1
33723,0,51771,57633,51739.84,57530.89,31.16,102.11,-0.470830,-0.470669,0.305252,100.00,1
33762,0,51778,57650,51739.92,57531.13,38.08,118.87,-0.470831,-0.470673,0.305072,100.00,1
33802,0,51789,57676,51740.02,57531.43,48.98,144.57,-0.470833,-0.470678,0.304894,100.00,1
33843,0,51793,57626,51740.12,57531.62,52.88,94.38,-0.470835,-0.470681,0.304722,100.00,1
33882,0,51746,57500,51740.13,57531.55,5.87,-31.55,-0.470835,-0.470680,0.304550,100.00,1
33922,0,51717,57444,51740.09,57531.38,-23.09,-87.38,-0.470834,-0.470677,0.304379,100.00,1
33960,0,51711,57458,51740.03,57531.24,-29.03,-73.24,-0.470833,-0.470675,0.304209,100.00,1
34002,0,51722,57475,51739.99,57531.13,-17.99,-56.13,-0.470833,-0.470673,0.304041,100.00,1
34040,0,51729,57479,51739.97,57531.03,-10.97,-52.03,-0.470832,-0.470671,0.303872,100.00,1
34083,0,51734,57489,51739.96,57530.95,-5.96,-41.95,-0.470832,-0.470670,0.303704,100.00,1
34122,0,51732,57483,51739.95,57530.85,-7.95,-47.85,-0.470832,-0.470668,0.303537,100.00,1
34162,0,51732,57482,51739.93,57530.75,-7.93,-48.75,-0.470831,-0.470666,0.303370,100.00,1
34202,0,51731,57491,51739.91,57530.68,-8.91,-39.68,-0.470831,-0.470665,0.303203,100.00,1
34243,0,51737,57511,51739.91,57530.64,-2.91,-19.64,-0.470831,-0.470664,0.303037,100.00,1
34281,0,51746,57534,51739.92,57530.64,6.08,3.36,-0.470831,-0.470664,0.302872,100.00,1
34323,0,51753,57558,51739.95,57530.70,13.05,27.30,-0.470832,-0.470665,0.302707,100.00,1
34361,0,51760,57582,51739.99,57530.80,20.01,51.20,-0.470833,-0.470667,0.302544,100.00,1
34400,0,51769,57603,51740.05,57530.95,28.95,72.05,-0.470834,-0.470670,0.302382,100.00,1
34440,0,51774,57619,51740.12,57531.12,33.88,87.87,-0.470835,-0.470673,0.302222,100.00,1
34485,0,51779,57637,51740.20,57531.34,38.80,105.66,-0.470837,-0.470676,0.302064,100.00,1
34523,0,51783,57595,51740.29,57531.47,42.71,63.53,-0.470838,-0.470679,0.301911,100.00,1
34563,0,51735,57442,51740.28,57531.29,-5.28,-89.29,-0.470838,-0.470676,0.301757,100.00,1
34605,0,51688,57364,51740.18,57530.96,-52.18,-166.96,-0.470836,-0.470670,0.301607,100.00,1
34643,0,51674,57361,51740.04,57530.62,-66.04,-169.62,-0.470834,-0.470664,0.301463,100.00,1
34683,0,51679,57369,51739.92,57530.30,-60.92,-161.30,-0.470831,-0.470658,0.301325,100.00,1
34723,0,51680,57361,51739.80,57529.96,-59.80,-168.96,-0.470829,-0.470652,0.301191,100.00,1
34763,0,51679,57364,51739.68,57529.63,-60.68,-165.63,-0.470827,-0.470647,0.301063,100.00,1
34809,0,51683,57373,51739.57,57529.32,-56.57,-156.32,-0.470824,-0.470641,0.300939,100.00,1
34843,0,51680,57379,51739.45,57529.02,-59.45,-150.02,-0.470822,-0.470636,0.300820,100.00,1
34883,0,51688,57386,51739.35,57528.73,-51.35,-142.73,-0.470820,-0.470631,0.300705,100.00,1
34923,0,51693,57405,51739.26,57528.49,-46.26,-123.49,-0.470818,-0.470627,0.300593,100.00,1
34963,0,51703,57429,51739.19,57528.29,-36.19,-99.29,-0.470817,-0.470623,0.300483,100.00,1
35003,0,51719,57456,51739.15,57528.14,-20.15,-72.14,-0.470816,-0.470621,0.300373,100.00,1
35045,0,51731,57478,51739.14,57528.05,-8.14,-50.05,-0.470816,-0.470619,0.300264,100.00,1
35084,0,51739,57504,51739.14,57528.00,-0.14,-24.00,-0.470816,-0.470618,0.300155,100.00,1
35122,0,51747,57519,51739.15,57527.98,7.85,-8.98,-0.470816,-0.470618,0.300046,100.00,1
35162,0,51751,57546,51739.18,57528.02,11.82,17.98,-0.470817,-0.470619,0.299938,100.00,1
35202,0,51760,57533,51739.22,57528.04,20.78,4.96,-0.470818,-0.470619,0.299831,100.00,1
35243,0,51729,57378,51739.20,57527.74,-10.20,-149.74,-0.470817,-0.470614,0.299722,100.00,1
35283,0,51667,57255,51739.05,57527.20,-72.05,-272.20,-0.470814,-0.470604,0.299616,100.00,1
35321,0,51644,57226,51738.87,57526.59,-94.87,-300.59,-0.470811,-0.470594,0.299518,100.00,1
35359,0,51641,57229,51738.67,57526.00,-97.67,-297.00,-0.470807,-0.470583,0.299430,100.00,1
35401,0,51637,57213,51738.47,57525.37,-101.47,-312.37,-0.470803,-0.470573,0.299351,100.00,1
35442,0,51633,57213,51738.26,57524.75,-105.26,-311.75,-0.470799,-0.470562,0.299283,100.00,1
35484,0,51636,57224,51738.05,57524.15,-102.05,-300.15,-0.470795,-0.470551,0.299225,100.00,1
35523,0,51638,57222,51737.86,57523.55,-99.86,-301.55,-0.470791,-0.470541,0.299174,100.00,1
35563,0,51638,57231,51737.66,57522.96,-99.66,-291.96,-0.470787,-0.470531,0.299132,100.00,1
35605,0,51643,57246,51737.47,57522.41,-94.47,-276.41,-0.470784,-0.470521,0.299097,100.00,1
35643,0,51647,57277,51737.29,57521.93,-90.29,-244.93,-0.470780,-0.470513,0.299070,100.00,1
35685,0,51659,57304,51737.13,57521.49,-78.13,-217.49,-0.470777,-0.470505,0.299047,100.00,1
35723,0,51671,57337,51737.00,57521.12,-66.00,-184.12,-0.470775,-0.470499,0.299029,100.00,1
35762,0,51682,57363,51736.89,57520.81,-54.89,-157.81,-0.470773,-0.470493,0.299012,100.00,1
35803,0,51693,57389,51736.80,57520.55,-43.80,-131.55,-0.470771,-0.470489,0.298997,100.00,1
35844,0,51701,57411,51736.73,57520.33,-35.73,-109.33,-0.470770,-0.470485,0.298982,100.00,1
35882,0,51711,57437,51736.68,57520.16,-25.68,-83.16,-0.470769,-0.470482,0.298968,100.00,1
35922,0,51706,57340,51736.62,57519.80,-30.62,-179.80,-0.470767,-0.470476,0.298952,100.00,1
35965,0,51653,57187,51736.46,57519.14,-83.46,-332.14,-0.470764,-0.470464,0.298934,100.00,1
36003,0,51613,57140,51736.21,57518.38,-123.21,-378.38,-0.470760,-0.470451,0.298926,100.00,1
36042,0,51612,57143,51735.97,57517.63,-123.97,-374.63,-0.470755,-0.470438,0.298926,100.00,1
36084,0,51623,57146,51735.75,57516.89,-112.75,-370.89,-0.470751,-0.470425,0.298930,100.00,1
36123,0,51621,57143,51735.52,57516.14,-114.52,-373.14,-0.470746,-0.470412,0.298939,100.00,1
36163,0,51625,57152,51735.30,57515.42,-110.30,-363.42,-0.470742,-0.470400,0.298952,100.00,1
36203,0,51629,57161,51735.09,57514.71,-106.09,-353.71,-0.470738,-0.470387,0.298967,100.00,1
36243,0,51625,57159,51734.87,57514.00,-109.87,-355.00,-0.470734,-0.470375,0.298986,100.00,1
36282,0,51628,57167,51734.66,57513.31,-106.66,-346.31,-0.470730,-0.470363,0.299008,100.00,1
36323,0,51639,57190,51734.47,57512.66,-95.47,-322.66,-0.470726,-0.470352,0.299032,100.00,1
36362,0,51647,57220,51734.30,57512.08,-87.30,-292.08,-0.470722,-0.470342,0.299057,100.00,1
36403,0,51657,57246,51734.14,57511.55,-77.14,-265.55,-0.470720,-0.470332,0.299083,100.00,1
36443,0,51667,57267,51734.01,57511.06,-67.01,-244.06,-0.470717,-0.470324,0.299108,100.00,1
36482,0,51669,57291,51733.88,57510.62,-64.88,-219.62,-0.470714,-0.470316,0.299134,100.00,1
36522,0,51681,57314,51733.78,57510.23,-52.78,-196.23,-0.470712,-0.470309,0.299160,100.00,1
36566,0,51688,57333,51733.69,57509.88,-45.69,-176.88,-0.470711,-0.470303,0.299186,100.00,1
36605,0,51687,57257,51733.59,57509.38,-46.59,-252.38,-0.470709,-0.470295,0.299208,100.00,1
36648,0,51630,57097,51733.39,57508.55,-103.39,-411.55,-0.470705,-0.470280,0.299226,100.00,1
36685,0,51590,57048,51733.10,57507.64,-143.10,-459.64,-0.470699,-0.470264,0.299251,100.00,1
36726,0,51586,57068,51732.81,57506.76,-146.81,-438.76,-0.470694,-0.470249,0.299283,100.00,1
36765,0,51595,57085,51732.54,57505.91,-137.54,-420.91,-0.470688,-0.470234,0.299322,100.00,1
36805,0,51602,57089,51732.28,57505.08,-130.28,-416.08,-0.470683,-0.470220,0.299364,100.00,1
36844,0,51607,57097,51732.03,57504.27,-125.03,-407.27,-0.470679,-0.470206,0.299409,100.00,1
36885,0,51610,57095,51731.79,57503.45,-121.79,-408.45,-0.470674,-0.470191,0.299455,100.00,1
36925,0,51609,57100,51731.54,57502.64,-122.54,-402.64,-0.470669,-0.470177,0.299504,100.00,1
37004,0,51611,57119,51731.30,57501.88,-120.30,-382.88,-0.470665,-0.470164,0.299554,100.00,1
37019,0,51619,57154,51731.08,57501.18,-112.08,-347.18,-0.470660,-0.470152,0.299608,100.00,1
37045,0,51637,57189,51730.89,57500.56,-93.89,-311.56,-0.470657,-0.470141,0.299662,100.00,1
37086,0,51655,57221,51730.74,57500.00,-75.74,-279.00,-0.470654,-0.470132,0.299716,100.00,1
37125,0,51669,57243,51730.62,57499.49,-61.62,-256.49,-0.470651,-0.470123,0.299768,100.00,1
37166,0,51675,57264,51730.51,57499.02,-55.51,-235.02,-0.470649,-0.470114,0.299818,100.00,1
37205,0,51684,57292,51730.42,57498.61,-46.42,-206.61,-0.470647,-0.470107,0.299867,100.00,1
37246,0,51694,57307,51730.35,57498.23,-36.35,-191.23,-0.470646,-0.470101,0.299913,100.00,1
37288,0,51678,57177,51730.25,57497.59,-52.25,-320.59,-0.470644,-0.470089,0.299955,100.00,1
37325,0,51613,57040,51730.01,57496.67,-117.01,-456.67,-0.470640,-0.470074,0.299993,100.00,1
37365,0,51584,57012,51729.72,57495.70,-145.72,-483.70,-0.470634,-0.470057,0.300033,100.00,1
37405,0,51589,57020,51729.44,57494.75,-140.44,-474.75,-0.470629,-0.470040,0.300075,100.00,1
37443,0,51595,57016,51729.18,57493.80,-134.18,-477.80,-0.470623,-0.470024,0.300117,100.00,1
37483,0,51586,57017,51728.89,57492.84,-142.89,-475.84,-0.470618,-0.470007,0.300161,100.00,1
37524,0,51595,57032,51728.62,57491.92,-133.62,-459.92,-0.470613,-0.469991,0.300205,100.00,1
37565,0,51595,57033,51728.36,57491.00,-133.36,-458.00,-0.470608,-0.469975,0.300250,100.00,1
37604,0,51593,57040,51728.09,57490.10,-135.09,-450.10,-0.470602,-0.469959,0.300296,100.00,1
37644,0,51600,57061,51727.84,57489.25,-127.84,-428.25,-0.470598,-0.469944,0.300344,100.00,1
37686,0,51610,57083,51727.60,57488.43,-117.60,-405.43,-0.470593,-0.469930,0.300392,100.00,1
37724,0,51618,57124,51727.38,57487.71,-109.38,-363.71,-0.470589,-0.469918,0.300441,100.00,1
37765,0,51631,57157,51727.19,57487.05,-96.19,-330.05,-0.470585,-0.469906,0.300490,100.00,1
37804,0,51642,57186,51727.02,57486.45,-85.02,-300.45,-0.470582,-0.469896,0.300538,100.00,1
37844,0,51652,57212,51726.87,57485.90,-74.87,-273.90,-0.470579,-0.469886,0.300587,100.00,1
37885,0,51660,57237,51726.74,57485.40,-66.74,-248.40,-0.470576,-0.469878,0.300634,100.00,1
37924,0,51670,57233,51726.63,57484.90,-56.63,-251.90,-0.470574,-0.469869,0.300680,100.00,1
37964,0,51643,57081,51726.46,57484.09,-83.46,-403.09,-0.470571,-0.469855,0.300721,100.00,1
38003,0,51574,56955,51726.16,57483.04,-152.16,-528.04,-0.470565,-0.469836,0.300762,100.00,1
38046,0,51554,56941,51725.82,57481.95,-171.82,-540.95,-0.470559,-0.469818,0.300808,100.00,1
38084,0,51558,56941,51725.48,57480.87,-167.48,-539.87,-0.470552,-0.469799,0.300857,100.00,1
38123,0,51557,56924,51725.14,57479.76,-168.14,-555.76,-0.470546,-0.469779,0.300908,100.00,1
38166,0,51560,56922,51724.82,57478.64,-164.82,-556.64,-0.470539,-0.469760,0.300960,100.00,1
38206,0,51566,56944,51724.50,57477.58,-158.50,-533.58,-0.470533,-0.469741,0.301013,100.00,1
38246,0,51571,56953,51724.20,57476.53,-153.20,-523.53,-0.470527,-0.469723,0.301066,100.00,1
38287,0,51575,56961,51723.90,57475.50,-148.90,-514.50,-0.470521,-0.469705,0.301120,100.00,1
38325,0,51582,56987,51723.62,57474.52,-141.62,-487.52,-0.470516,-0.469688,0.301173,100.00,1
38366,0,51592,57018,51723.36,57473.61,-131.36,-455.61,-0.470511,-0.469673,0.301227,100.00,1
38406,0,51604,57053,51723.12,57472.77,-119.12,-419.77,-0.470506,-0.469658,0.301280,100.00,1
38446,0,51619,57079,51722.91,57471.99,-103.91,-392.99,-0.470502,-0.469644,0.301332,100.00,1
38485,0,51634,57114,51722.73,57471.27,-88.73,-357.27,-0.470499,-0.469632,0.301382,100.00,1
38525,0,51637,57138,51722.56,57470.61,-85.56,-332.61,-0.470496,-0.469620,0.301431,100.00,1
38566,0,51648,57167,51722.41,57470.00,-74.41,-303.00,-0.470493,-0.469610,0.301479,100.00,1
38606,0,51658,57189,51722.29,57469.45,-64.29,-280.45,-0.470490,-0.469600,0.301524,100.00,1
38648,0,51652,57092,51722.14,57468.69,-70.14,-376.69,-0.470488,-0.469587,0.301566,100.00,1
38688,0,51587,56927,51721.87,57467.61,-134.87,-540.61,-0.470482,-0.469568,0.301605,100.00,1
38728,0,51546,56872,51721.52,57466.42,-175.52,-594.42,-0.470476,-0.469547,0.301644,100.00,1
38768,0,51539,56875,51721.16,57465.24,-182.16,-590.24,-0.470469,-0.469527,0.301687,100.00,1
38807,0,51547,56875,51720.81,57464.06,-173.81,-589.06,-0.470462,-0.469506,0.301730,100.00,1
38847,0,51540,56869,51720.45,57462.87,-180.45,-593.87,-0.470455,-0.469486,0.301776,100.00,1
38889,0,51541,56892,51720.09,57461.73,-179.09,-569.73,-0.470448,-0.469466,0.301825,100.00,1
38927,0,51551,56906,51719.76,57460.62,-168.76,-554.62,-0.470441,-0.469446,0.301875,100.00,1
38968,0,51553,56911,51719.43,57459.52,-166.43,-548.52,-0.470435,-0.469427,0.301926,100.00,1
39007,0,51560,56932,51719.11,57458.47,-159.11,-526.47,-0.470429,-0.469409,0.301979,100.00,1
39048,0,51566,56959,51718.80,57457.47,-152.80,-498.47,-0.470423,-0.469392,0.302033,100.00,1
39087,0,51581,57000,51718.53,57456.56,-137.53,-456.56,-0.470418,-0.469376,0.302087,100.00,1
39127,0,51595,57042,51718.29,57455.73,-123.29,-413.73,-0.470413,-0.469361,0.302142,100.00,1
39167,0,51610,57071,51718.07,57454.96,-108.07,-383.96,-0.470409,-0.469348,0.302196,100.00,1
39207,0,51624,57097,51717.88,57454.25,-93.88,-357.25,-0.470405,-0.469335,0.302249,100.00,1
39247,0,51637,57115,51717.72,57453.57,-80.72,-338.57,-0.470402,-0.469324,0.302301,100.00,1
39288,0,51648,57151,51717.59,57452.96,-69.59,-301.96,-0.470399,-0.469313,0.302351,100.00,1
39327,0,51656,57120,51717.46,57452.30,-61.46,-332.30,-0.470397,-0.469302,0.302398,100.00,1
39368,0,51613,56961,51717.26,57451.32,-104.26,-490.32,-0.470393,-0.469284,0.302441,100.00,1
39406,0,51557,56882,51716.94,57450.18,-159.94,-568.18,-0.470387,-0.469265,0.302483,100.00,1
39447,0,51551,56894,51716.61,57449.07,-165.61,-555.07,-0.470380,-0.469245,0.302527,100.00,1
39486,0,51562,56908,51716.30,57447.99,-154.30,-539.99,-0.470374,-0.469227,0.302570,100.00,1
39527,0,51565,56911,51716.00,57446.92,-151.00,-535.92,-0.470369,-0.469208,0.302613,100.00,1
39566,0,51570,56932,51715.71,57445.89,-145.71,-513.89,-0.470363,-0.469190,0.302655,100.00,1
39607,0,51579,56941,51715.43,57444.88,-136.43,-503.88,-0.470358,-0.469172,0.302697,100.00,1
39645,0,51574,56944,51715.15,57443.88,-141.15,-499.88,-0.470352,-0.469155,0.302738,100.00,1
39688,0,51578,56963,51714.88,57442.92,-136.88,-479.92,-0.470347,-0.469138,0.302779,100.00,1
39728,0,51591,56991,51714.63,57442.02,-123.63,-451.02,-0.470342,-0.469123,0.302819,100.00,1
39768,0,51598,57027,51714.40,57441.19,-116.40,-414.19,-0.470338,-0.469108,0.302860,100.00,1
39808,0,51611,57055,51714.20,57440.42,-103.20,-385.42,-0.470334,-0.469095,0.302899,100.00,1
39849,0,51621,57089,51714.01,57439.72,-93.01,-350.72,-0.470330,-0.469083,0.302938,100.00,1
39888,0,51632,57119,51713.85,57439.08,-81.85,-320.08,-0.470327,-0.469071,0.302975,100.00,1
39930,0,51643,57148,51713.71,57438.50,-70.71,-290.50,-0.470324,-0.469061,0.303012,100.00,1
39968,0,51654,57176,51713.59,57437.97,-59.59,-261.97,-0.470322,-0.469052,0.303048,100.00,1
40010,0,51663,57132,51713.49,57437.36,-50.49,-305.36,-0.470320,-0.469042,0.303082,100.00,1
40048,0,51612,56971,51713.29,57436.43,-101.29,-465.43,-0.470316,-0.469025,0.303112,100.00,1
40088,0,51561,56895,51712.98,57435.35,-151.98,-540.35,-0.470310,-0.469006,0.303142,100.00,1
40128,0,51554,56900,51712.66,57434.28,-158.66,-534.28,-0.470304,-0.468988,0.303173,100.00,1
40169,0,51557,56908,51712.36,57433.23,-155.36,-525.23,-0.470298,-0.468970,0.303205,100.00,1
40208,0,51563,56903,51712.06,57432.17,-149.06,-529.17,-0.470293,-0.468951,0.303237,100.00,1
40248,0,51569,56920,51711.77,57431.15,-142.77,-511.15,-0.470287,-0.468933,0.303269,100.00,1
40287,0,51578,56935,51711.51,57430.16,-133.51,-495.16,-0.470282,-0.468916,0.303299,100.00,1
40329,0,51585,56946,51711.26,57429.19,-126.26,-483.19,-0.470277,-0.468899,0.303329,100.00,1
40368,0,51585,56959,51711.01,57428.25,-126.01,-469.25,-0.470272,-0.468883,0.303357,100.00,1
40410,0,51594,56986,51710.77,57427.37,-116.77,-441.37,-0.470268,-0.468867,0.303385,100.00,1
40448,0,51603,57022,51710.56,57426.56,-107.56,-404.56,-0.470263,-0.468853,0.303412,100.00,1
40488,0,51618,57056,51710.37,57425.82,-92.37,-369.82,-0.470260,-0.468841,0.303438,100.00,1
40527,0,51631,57089,51710.22,57425.15,-79.22,-336.15,-0.470257,-0.468829,0.303463,100.00,1
40568,0,51646,57115,51710.09,57424.53,-64.09,-309.53,-0.470254,-0.468818,0.303486,100.00,1
40607,0,51649,57138,51709.97,57423.96,-60.97,-285.96,-0.470252,-0.468808,0.303508,100.00,1
40645,0,51658,57165,51709.87,57423.45,-51.87,-258.45,-0.470250,-0.468799,0.303529,100.00,1
40684,0,51665,57168,51709.78,57422.94,-44.78,-254.94,-0.470248,-0.468790,0.303549,100.00,1
40729,0,51639,57021,51709.64,57422.14,-70.64,-401.14,-0.470246,-0.468776,0.303565,100.00,1
40770,0,51573,56885,51709.36,57421.06,-136.36,-536.06,-0.470240,-0.468758,0.303580,100.00,1
40809,0,51541,56862,51709.03,57419.95,-168.03,-557.95,-0.470234,-0.468738,0.303596,100.00,1
40848,0,51547,56871,51708.70,57418.85,-161.70,-547.85,-0.470228,-0.468719,0.303614,100.00,1
40887,0,51544,56855,51708.37,57417.72,-164.37,-562.72,-0.470221,-0.468700,0.303632,100.00,1
40927,0,51540,56859,51708.04,57416.61,-168.04,-557.61,-0.470215,-0.468680,0.303652,100.00,1
40969,0,51545,56886,51707.71,57415.55,-162.71,-529.55,-0.470209,-0.468662,0.303674,100.00,1
41007,0,51559,56897,51707.42,57414.51,-148.42,-517.51,-0.470203,-0.468644,0.303696,100.00,1
41048,0,51562,56910,51707.13,57413.50,-145.13,-503.50,-0.470197,-0.468626,0.303718,100.00,1
41088,0,51568,56941,51706.85,57412.56,-138.85,-471.56,-0.470192,-0.468610,0.303741,100.00,1
41128,0,51578,56973,51706.59,57411.68,-128.59,-438.68,-0.470187,-0.468594,0.303765,100.00,1
41167,0,51592,57014,51706.37,57410.89,-114.37,-396.89,-0.470182,-0.468580,0.303789,100.00,1
41209,0,51608,57049,51706.17,57410.16,-98.17,-361.16,-0.470179,-0.468568,0.303812,100.00,1
41249,0,51628,57078,51706.02,57409.50,-78.02,-331.50,-0.470176,-0.468556,0.303835,100.00,1
41289,0,51640,57110,51705.89,57408.90,-65.89,-298.90,-0.470173,-0.468546,0.303856,100.00,1
41329,0,51648,57132,51705.77,57408.35,-57.77,-276.35,-0.470171,-0.468536,0.303876,100.00,1
41369,0,51659,57162,51705.68,57407.86,-46.68,-245.86,-0.470169,-0.468528,0.303895,100.00,1
41410,0,51662,57101,51705.59,57407.25,-43.59,-306.25,-0.470167,-0.468517,0.303912,100.00,1
41449,0,51609,56938,51705.40,57406.31,-96.40,-468.31,-0.470164,-0.468501,0.303925,100.00,1
41488,0,51556,56867,51705.11,57405.23,-149.11,-538.23,-0.470158,-0.468482,0.303939,100.00,1
41529,0,51550,56870,51704.80,57404.16,-154.80,-534.16,-0.470152,-0.468463,0.303953,100.00,1
41569,0,51557,56874,51704.50,57403.10,-147.50,-529.10,-0.470146,-0.468445,0.303967,100.00,1
41609,0,51546,56868,51704.19,57402.03,-158.19,-534.03,-0.470140,-0.468426,0.303982,100.00,1
41650,0,51549,56877,51703.88,57400.98,-154.88,-523.98,-0.470134,-0.468408,0.303999,100.00,1
41690,0,51557,56892,51703.59,57399.97,-146.59,-507.97,-0.470129,-0.468390,0.304016,100.00,1
41731,0,51561,56898,51703.30,57398.96,-142.30,-500.96,-0.470123,-0.468373,0.304033,100.00,1
41770,0,51562,56914,51703.02,57398.00,-141.02,-484.00,-0.470118,-0.468356,0.304050,100.00,1
41810,0,51570,56934,51702.75,57397.07,-132.75,-463.07,-0.470113,-0.468340,0.304068,100.00,1
41851,0,51578,56965,51702.50,57396.21,-124.50,-431.21,-0.470108,-0.468325,0.304086,100.00,1
41890,0,51588,57003,51702.28,57395.42,-114.28,-392.42,-0.470103,-0.468311,0.304105,100.00,1
41931,0,51599,57032,51702.07,57394.70,-103.07,-362.70,-0.470099,-0.468298,0.304123,100.00,1
41970,0,51607,57058,51701.88,57394.02,-94.88,-336.02,-0.470096,-0.468287,0.304142,100.00,1
42011,0,51619,57085,51701.72,57393.41,-82.72,-308.41,-0.470093,-0.468276,0.304160,100.00,1
42052,0,51628,57108,51701.57,57392.84,-73.57,-284.84,-0.470090,-0.468266,0.304178,100.00,1
42091,0,51636,57072,51701.45,57392.20,-65.45,-320.20,-0.470087,-0.468255,0.304194,100.00,1
42130,0,51590,56918,51701.22,57391.25,-111.22,-473.25,-0.470083,-0.468238,0.304208,100.00,1
42171,0,51536,56858,51700.89,57390.18,-164.89,-532.18,-0.470077,-0.468220,0.304225,100.00,1
42211,0,51537,56874,51700.57,57389.15,-163.57,-515.15,-0.470070,-0.468202,0.304243,100.00,1
42250,0,51550,56893,51700.27,57388.16,-150.27,-495.16,-0.470064,-0.468185,0.304263,100.00,1
42289,0,51557,56900,51699.98,57387.18,-142.98,-487.18,-0.470059,-0.468167,0.304283,100.00,1
42329,0,51571,56922,51699.72,57386.25,-128.72,-464.25,-0.470054,-0.468151,0.304303,100.00,1
42369,0,51575,56928,51699.47,57385.34,-124.47,-457.34,-0.470049,-0.468135,0.304323,100.00,1
42409,0,51573,56925,51699.22,57384.42,-126.22,-459.42,-0.470044,-0.468119,0.304343,100.00,1
42449,0,51570,56943,51698.96,57383.54,-128.96,-440.54,-0.470039,-0.468104,0.304362,100.00,1
42489,0,51581,56975,51698.73,57382.72,-117.73,-407.72,-0.470035,-0.468090,0.304382,100.00,1
42530,0,51595,57006,51698.52,57381.97,-103.52,-375.97,-0.470031,-0.468077,0.304402,100.00,1
42571,0,51610,57035,51698.35,57381.28,-88.35,-346.28,-0.470027,-0.468065,0.304422,100.00,1
42611,0,51621,57063,51698.20,57380.64,-77.20,-317.64,-0.470024,-0.468053,0.304440,100.00,1
42653,0,51623,57089,51698.05,57380.06,-75.05,-291.06,-0.470022,-0.468043,0.304458,100.00,1
42688,0,51634,57116,51697.92,57379.53,-63.92,-263.53,-0.470019,-0.468034,0.304475,100.00,1
42730,0,51643,57121,51697.81,57379.02,-54.81,-258.02,-0.470017,-0.468025,0.304492,100.00,1
42771,0,51619,56982,51697.66,57378.22,-78.66,-396.22,-0.470014,-0.468011,0.304506,100.00,1
42811,0,51562,56870,51697.39,57377.21,-135.39,-507.21,-0.470009,-0.467994,0.304520,100.00,1
42851,0,51537,56866,51697.07,57376.19,-160.07,-510.19,-0.470003,-0.467976,0.304535,100.00,1
42891,0,51541,56886,51696.75,57375.21,-155.75,-489.21,-0.469997,-0.467959,0.304553,100.00,1
42931,0,51548,56892,51696.46,57374.24,-148.46,-482.24,-0.469991,-0.467942,0.304572,100.00,1
42972,0,51548,56911,51696.16,57373.32,-148.16,-462.32,-0.469985,-0.467926,0.304593,100.00,1
43010,0,51559,56932,51695.89,57372.43,-136.89,-440.43,-0.469980,-0.467910,0.304614,100.00,1
43052,0,51569,56939,51695.63,57371.57,-126.63,-432.57,-0.469975,-0.467895,0.304637,100.00,1
43091,0,51569,56960,51695.38,57370.75,-126.38,-410.75,-0.469970,-0.467881,0.304660,100.00,1
43132,0,51581,56983,51695.16,57369.97,-114.16,-386.97,-0.469966,-0.467868,0.304683,100.00,1
43171,0,51593,57025,51694.95,57369.29,-101.95,-344.29,-0.469962,-0.467856,0.304707,100.00,1
43213,0,51608,57063,51694.78,57368.68,-86.78,-305.68,-0.469958,-0.467845,0.304731,100.00,1
43252,0,51624,57102,51694.64,57368.14,-70.64,-266.14,-0.469956,-0.467836,0.304754,100.00,1
43292,0,51643,57129,51694.54,57367.67,-51.54,-238.67,-0.469954,-0.467827,0.304777,100.00,1
43328,0,51652,57156,51694.46,57367.25,-42.46,-211.25,-0.469952,-0.467820,0.304799,100.00,1
43371,0,51671,57187,51694.41,57366.89,-23.41,-179.89,-0.469951,-0.467814,0.304820,100.00,1
43409,0,51666,57101,51694.36,57366.36,-28.36,-265.36,-0.469950,-0.467804,0.304839,100.00,1
43450,0,51609,56970,51694.19,57365.56,-85.19,-395.56,-0.469947,-0.467791,0.304857,100.00,1
43490,0,51568,56932,51693.94,57364.70,-125.94,-432.70,-0.469942,-0.467776,0.304874,100.00,1
43530,0,51569,56944,51693.69,57363.86,-124.69,-419.86,-0.469937,-0.467761,0.304893,100.00,1
43570,0,51576,56947,51693.45,57363.02,-117.45,-416.02,-0.469933,-0.467746,0.304911,100.00,1
43610,0,51575,56945,51693.22,57362.19,-118.22,-417.19,-0.469928,-0.467732,0.304929,100.00,1
43650,0,51576,56966,51692.98,57361.40,-116.98,-395.40,-0.469924,-0.467718,0.304948,100.00,1
43690,0,51584,56984,51692.77,57360.64,-108.77,-376.64,-0.469919,-0.467705,0.304967,100.00,1
43729,0,51587,56995,51692.56,57359.91,-105.56,-364.91,-0.469915,-0.467692,0.304986,100.00,1
43771,0,51587,57013,51692.35,57359.22,-105.35,-346.22,-0.469911,-0.467680,0.305006,100.00,1
43811,0,51601,57045,51692.17,57358.59,-91.17,-313.59,-0.469908,-0.467669,0.305026,100.00,1
43852,0,51611,57076,51692.01,57358.03,-81.01,-282.03,-0.469905,-0.467659,0.305046,100.00,1
43891,0,51627,57112,51691.88,57357.54,-64.88,-245.54,-0.469902,-0.467651,0.305065,100.00,1
43932,0,51635,57144,51691.77,57357.11,-56.77,-213.11,-0.469900,-0.467643,0.305085,100.00,1
43971,0,51646,57177,51691.68,57356.75,-45.68,-179.75,-0.469898,-0.467637,0.305104,100.00,1
44011,0,51658,57210,51691.61,57356.46,-33.61,-146.46,-0.469897,-0.467632,0.305123,100.00,1
44050,0,51668,57188,51691.56,57356.12,-23.56,-168.12,-0.469896,-0.467626,0.305141,100.00,1
44091,0,51631,57056,51691.44,57355.53,-60.44,-299.53,-0.469894,-0.467616,0.305158,100.00,1
44131,0,51586,56992,51691.23,57354.80,-105.23,-362.80,-0.469890,-0.467603,0.305175,100.00,1
44171,0,51577,57002,51691.00,57354.10,-114.00,-352.10,-0.469885,-0.467591,0.305193,100.00,1
44210,0,51588,57012,51690.80,57353.41,-102.80,-341.41,-0.469881,-0.467579,0.305212,100.00,1
44253,0,51595,57017,51690.61,57352.74,-95.61,-335.74,-0.469878,-0.467567,0.305231,100.00,1
44291,0,51602,57033,51690.43,57352.11,-88.43,-319.11,-0.469874,-0.467556,0.305249,100.00,1
44331,0,51611,57049,51690.28,57351.50,-79.28,-302.50,-0.469871,-0.467546,0.305267,100.00,1
44369,0,51618,57053,51690.13,57350.91,-72.13,-297.91,-0.469868,-0.467535,0.305285,100.00,1
44411,0,51617,57060,51689.99,57350.32,-72.99,-290.32,-0.469866,-0.467525,0.305302,100.00,1
44451,0,51624,57083,51689.86,57349.79,-65.86,-266.79,-0.469863,-0.467516,0.305318,100.00,1
44491,0,51629,57116,51689.74,57349.33,-60.74,-233.33,-0.469861,-0.467508,0.305334,100.00,1
44532,0,51641,57148,51689.64,57348.93,-48.64,-200.93,-0.469859,-0.467501,0.305350,100.00,1
44572,0,51655,57177,51689.57,57348.58,-34.57,-171.58,-0.469858,-0.467495,0.305365,100.00,1
44612,0,51667,57204,51689.53,57348.29,-22.53,-144.29,-0.469857,-0.467490,0.305379,100.00,1
44652,0,51674,57226,51689.50,57348.05,-15.50,-122.05,-0.469856,-0.467485,0.305393,100.00,1
44693,0,51682,57210,51689.49,57347.78,-7.49,-137.78,-0.469856,-0.467481,0.305407,100.00,1
44734,0,51640,57073,51689.39,57347.23,-49.39,-274.23,-0.469854,-0.467471,0.305419,100.00,1
44772,0,51593,56995,51689.20,57346.53,-96.20,-351.53,-0.469850,-0.467459,0.305431,100.00,1
44814,0,51580,56993,51688.98,57345.82,-108.98,-352.82,-0.469846,-0.467446,0.305443,100.00,1
44854,0,51586,57006,51688.78,57345.14,-102.78,-339.14,-0.469842,-0.467435,0.305456,100.00,1
44893,0,51588,57009,51688.58,57344.47,-100.58,-335.47,-0.469838,-0.467423,0.305470,100.00,1
44934,0,51589,57035,51688.38,57343.85,-99.38,-308.85,-0.469835,-0.467412,0.305485,100.00,1
44974,0,51596,57036,51688.20,57343.24,-92.20,-307.24,-0.469831,-0.467401,0.305500,100.00,1
45014,0,51592,57039,51688.00,57342.63,-96.00,-303.63,-0.469827,-0.467391,0.305516,100.00,1
45054,0,51596,57046,51687.82,57342.04,-91.82,-296.04,-0.469824,-0.467381,0.305533,100.00,1
45093,0,51602,57071,51687.65,57341.50,-85.65,-270.50,-0.469820,-0.467371,0.305551,100.00,1
45133,0,51620,57102,51687.52,57341.03,-67.52,-239.03,-0.469818,-0.467363,0.305568,100.00,1
45173,0,51630,57135,51687.40,57340.62,-57.40,-205.62,-0.469816,-0.467356,0.305585,100.00,1
45214,0,51636,57161,51687.30,57340.26,-51.30,-179.26,-0.469814,-0.467349,0.305602,100.00,1
45253,0,51649,57185,51687.23,57339.95,-38.23,-154.95,-0.469812,-0.467344,0.305619,100.00,1
45293,0,51659,57221,51687.17,57339.71,-28.17,-118.71,-0.469811,-0.467340,0.305636,100.00,1
45333,0,51669,57176,51687.14,57339.39,-18.14,-163.39,-0.469810,-0.467334,0.305652,100.00,1
45373,0,51633,57064,51687.03,57338.84,-54.03,-274.84,-0.469808,-0.467325,0.305666,100.00,1
45414,0,51601,57028,51686.86,57338.21,-85.86,-310.21,-0.469805,-0.467314,0.305681,100.00,1
45453,0,51603,57043,51686.69,57337.62,-83.69,-294.62,-0.469802,-0.467304,0.305695,100.00,1
45491,0,51608,57060,51686.54,57337.07,-78.54,-277.07,-0.469799,-0.467294,0.305710,100.00,1
45533,0,51618,57073,51686.40,57336.54,-68.40,-263.54,-0.469796,-0.467285,0.305724,100.00,1
45572,0,51622,57099,51686.27,57336.07,-64.27,-237.07,-0.469794,-0.467276,0.305737,100.00,1
45613,0,51630,57106,51686.16,57335.61,-56.16,-229.61,-0.469792,-0.467268,0.305751,100.00,1
45653,0,51631,57112,51686.05,57335.17,-55.05,-223.17,-0.469789,-0.467261,0.305764,100.00,1
45693,0,51634,57132,51685.95,57334.76,-51.95,-202.76,-0.469787,-0.467254,0.305776,100.00,1
45734,0,51639,57164,51685.86,57334.42,-46.86,-170.42,-0.469786,-0.467248,0.305789,100.00,1
45774,0,51656,57196,51685.80,57334.15,-29.80,-138.15,-0.469785,-0.467243,0.305801,100.00,1
45812,0,51668,57228,51685.76,57333.94,-17.76,-105.94,-0.469784,-0.467239,0.305813,100.00,1
45855,0,51679,57256,51685.75,57333.78,-6.75,-77.78,-0.469784,-0.467237,0.305824,100.00,1
45894,0,51685,57284,51685.75,57333.68,-0.75,-49.68,-0.469784,-0.467235,0.305836,100.00,1
45934,0,51695,57311,51685.77,57333.64,9.23,-22.64,-0.469784,-0.467234,0.305847,100.00,1
45973,0,51702,57273,51685.80,57333.52,16.20,-60.52,-0.469785,-0.467232,0.305859,100.00,1
46013,0,51660,57152,51685.75,57333.16,-25.75,-181.16,-0.469784,-0.467226,0.305869,100.00,1
46053,0,51625,57107,51685.63,57332.71,-60.63,-225.71,-0.469781,-0.467218,0.305879,100.00,1
46094,0,51619,57126,51685.50,57332.30,-66.50,-206.30,-0.469779,-0.467211,0.305890,100.00,1
46134,0,51631,57138,51685.39,57331.91,-54.39,-193.91,-0.469777,-0.467204,0.305901,100.00,1
46174,0,51633,57145,51685.29,57331.54,-52.29,-186.54,-0.469775,-0.467197,0.305911,100.00,1
46214,0,51640,57172,51685.20,57331.22,-45.20,-159.22,-0.469773,-0.467192,0.305922,100.00,1
46254,0,51650,57198,51685.13,57330.96,-35.13,-132.96,-0.469772,-0.467187,0.305933,100.00,1
46293,0,51657,57211,51685.07,57330.72,-28.07,-119.72,-0.469771,-0.467183,0.305943,100.00,1
46334,0,51665,57231,51685.04,57330.52,-20.04,-99.52,-0.469770,-0.467180,0.305953,100.00,1
46374,0,51677,57257,51685.02,57330.37,-8.02,-73.37,-0.469770,-0.467177,0.305963,100.00,1
46413,0,51689,57297,51685.03,57330.31,3.97,-33.31,-0.469770,-0.467176,0.305973,100.00,1
46454,0,51706,57326,51685.07,57330.30,20.93,-4.30,-0.469770,-0.467176,0.305983,100.00,1
46495,0,51722,57354,51685.14,57330.35,36.86,23.65,-0.469772,-0.467177,0.305994,100.00,1
46534,0,51727,57387,51685.23,57330.46,41.77,56.54,-0.469774,-0.467179,0.306005,100.00,1
46574,0,51743,57414,51685.35,57330.63,57.65,83.37,-0.469776,-0.467182,0.306018,100.00,1
46615,0,51731,57321,51685.44,57330.61,45.56,-9.61,-0.469778,-0.467181,0.306033,100.00,1
46654,0,51687,57229,51685.45,57330.41,1.55,-101.41,-0.469778,-0.467178,0.306047,100.00,1
46694,0,51669,57221,51685.41,57330.19,-16.41,-109.19,-0.469777,-0.467174,0.306060,100.00,1
46735,0,51675,57240,51685.39,57330.01,-10.39,-90.01,-0.469777,-0.467171,0.306073,100.00,1
46773,0,51676,57244,51685.38,57329.84,-9.38,-85.84,-0.469776,-0.467168,0.306086,100.00,1
46812,0,51673,57260,51685.36,57329.70,-12.36,-69.70,-0.469776,-0.467165,0.306098,100.00,1
46854,0,51684,57283,51685.36,57329.61,-1.36,-46.61,-0.469776,-0.467164,0.306111,100.00,1
46893,0,51692,57311,51685.37,57329.57,6.63,-18.57,-0.469776,-0.467163,0.306123,100.00,1
46936,0,51698,57326,51685.40,57329.57,12.60,-3.57,-0.469777,-0.467163,0.306135,100.00,1
46975,0,51707,57352,51685.44,57329.62,21.56,22.38,-0.469778,-0.467164,0.306148,100.00,1
47015,0,51717,57390,51685.51,57329.74,31.49,60.26,-0.469779,-0.467166,0.306161,100.00,1
47056,0,51725,57425,51685.59,57329.93,39.41,95.07,-0.469781,-0.467169,0.306175,100.00,1
47095,0,51738,57470,51685.70,57330.21,52.30,139.79,-0.469783,-0.467174,0.306189,100.00,1
47135,0,51755,57509,51685.84,57330.57,69.16,178.43,-0.469785,-0.467181,0.306205,100.00,1
47175,0,51764,57551,51685.99,57331.01,78.01,219.99,-0.469788,-0.467188,0.306222,100.00,1
47215,0,51778,57537,51686.18,57331.43,91.82,205.57,-0.469792,-0.467195,0.306243,100.00,1
47255,0,51752,57445,51686.31,57331.66,65.69,113.34,-0.469794,-0.467199,0.306266,100.00,1
47295,0,51728,57418,51686.39,57331.83,41.61,86.17,-0.469796,-0.467203,0.306289,100.00,1
47336,0,51726,57442,51686.48,57332.05,39.52,109.95,-0.469798,-0.467206,0.306313,100.00,1
47376,0,51739,57469,51686.58,57332.33,52.42,136.67,-0.469800,-0.467211,0.306337,100.00,1
47416,0,51744,57479,51686.70,57332.62,57.30,146.38,-0.469802,-0.467216,0.306363,100.00,1
47454,0,51757,57513,51686.84,57332.98,70.16,180.02,-0.469805,-0.467223,0.306390,100.00,1
47493,0,51771,57533,51687.01,57333.39,83.99,199.61,-0.469808,-0.467230,0.306419,100.00,1
47534,0,51777,57555,51687.19,57333.83,89.81,221.17,-0.469811,-0.467237,0.306452,100.00,1
47575,0,51781,57579,51687.37,57334.32,93.62,244.68,-0.469815,-0.467246,0.306487,100.00,1
47615,0,51789,57610,51687.58,57334.88,101.42,275.12,-0.469819,-0.467256,0.306525,100.00,1
47654,0,51800,57637,51687.80,57335.48,112.20,301.52,-0.469823,-0.467266,0.306566,100.00,1
47695,0,51812,57670,51688.05,57336.16,123.95,333.84,-0.469828,-0.467278,0.306611,100.00,1
47758,0,51822,57704,51688.32,57336.89,133.68,367.11,-0.469833,-0.467291,0.306660,100.00,1
47777,0,51837,57739,51688.62,57337.70,148.38,401.30,-0.469839,-0.467305,0.306715,100.00,1
47815,0,51848,57770,51688.94,57338.57,159.06,431.43,-0.469845,-0.467320,0.306776,100.00,1
47856,0,51850,57734,51689.27,57339.36,160.73,394.64,-0.469852,-0.467334,0.306845,100.00,1
47895,0,51816,57668,51689.52,57340.02,126.48,327.98,-0.469857,-0.467345,0.306917,100.00,1
47935,0,51799,57657,51689.74,57340.66,109.26,316.34,-0.469861,-0.467356,0.306992,100.00,1
47974,0,51803,57681,51689.96,57341.34,113.04,339.66,-0.469865,-0.467368,0.307067,100.00,1
48016,0,51813,57702,51690.21,57342.06,122.79,359.94,-0.469870,-0.467381,0.307145,100.00,1
48056,0,51814,57722,51690.46,57342.82,123.54,379.18,-0.469875,-0.467394,0.307224,100.00,1
48096,0,51819,57745,51690.72,57343.63,128.28,401.37,-0.469880,-0.467408,0.307304,100.00,1
48135,0,51825,57767,51690.99,57344.48,134.01,422.52,-0.469885,-0.467423,0.307384,100.00,1
48176,0,51828,57784,51691.26,57345.36,136.74,438.64,-0.469890,-0.467438,0.307465,100.00,1
48216,0,51840,57807,51691.56,57346.28,148.44,460.72,-0.469896,-0.467455,0.307548,100.00,1
48256,0,51848,57836,51691.87,57347.26,156.13,488.74,-0.469902,-0.467472,0.307632,100.00,1
48296,0,51860,57865,51692.21,57348.30,167.79,516.70,-0.469909,-0.467490,0.307718,100.00,1
48337,0,51870,57893,51692.56,57349.39,177.44,543.61,-0.469915,-0.467509,0.307806,100.00,1
48376,0,51875,57921,51692.93,57350.53,182.07,570.47,-0.469923,-0.467529,0.307895,100.00,1
48418,0,51883,57954,51693.31,57351.74,189.69,602.26,-0.469930,-0.467550,0.307986,100.00,1
48454,0,51898,57982,51693.72,57353.00,204.28,629.00,-0.469938,-0.467572,0.308078,100.00,1
48496,0,51903,57957,51694.14,57354.21,208.86,602.79,-0.469946,-0.467593,0.308176,100.00,1
48536,0,51883,57889,51694.52,57355.28,188.48,533.72,-0.469953,-0.467611,0.308277,100.00,1
48577,0,51872,57886,51694.87,57356.34,177.12,529.66,-0.469960,-0.467630,0.308381,100.00,1
48616,0,51879,57910,51695.25,57357.45,183.75,552.55,-0.469967,-0.467649,0.308486,100.00,1
48654,0,51886,57926,51695.63,57358.59,190.37,567.41,-0.469975,-0.467669,0.308593,100.00,1
48694,0,51888,57946,51696.02,57359.77,191.98,586.23,-0.469982,-0.467690,0.308702,100.00,1
48735,0,51891,57966,51696.41,57360.98,194.59,605.02,-0.469990,-0.467711,0.308812,100.00,1
48776,0,51899,57976,51696.81,57362.21,202.19,613.79,-0.469998,-0.467732,0.308923,100.00,1
48818,0,51901,57989,51697.22,57363.46,203.78,625.54,-0.470006,-0.467754,0.309036,100.00,1
48856,0,51909,58002,51697.65,57364.74,211.35,637.26,-0.470014,-0.467776,0.309150,100.00,1
48896,0,51912,58025,51698.08,57366.06,213.92,658.94,-0.470022,-0.467799,0.309265,100.00,1
48934,0,51912,58046,51698.51,57367.43,213.49,678.57,-0.470030,-0.467823,0.309380,100.00,1
48977,0,51920,58065,51698.95,57368.82,221.05,696.18,-0.470039,-0.467848,0.309496,100.00,1
49014,0,51926,58085,51699.41,57370.26,226.59,714.74,-0.470048,-0.467873,0.309611,100.00,1
49056,0,51932,58104,51699.87,57371.73,232.12,732.27,-0.470057,-0.467898,0.309726,100.00,1
49096,0,51939,58124,51700.36,57373.23,238.64,750.77,-0.470066,-0.467924,0.309842,100.00,1
49138,0,51940,58104,51700.84,57374.70,239.16,729.30,-0.470075,-0.467950,0.309959,100.00,1
49178,0,51916,58036,51701.27,57376.02,214.73,659.98,-0.470084,-0.467973,0.310077,100.00,1
49217,0,51893,58030,51701.66,57377.33,191.34,652.67,-0.470091,-0.467996,0.310192,100.00,1
49257,0,51901,58052,51702.05,57378.68,198.95,673.32,-0.470099,-0.468019,0.310306,100.00,1
49297,0,51905,58065,51702.46,57380.06,202.54,684.94,-0.470107,-0.468043,0.310417,100.00,1
49337,0,51915,58075,51702.89,57381.45,212.11,693.55,-0.470115,-0.468068,0.310528,100.00,1
49379,0,51920,58097,51703.32,57382.88,216.68,714.12,-0.470124,-0.468093,0.310637,100.00,1
49418,0,51921,58111,51703.76,57384.34,217.24,726.66,-0.470132,-0.468118,0.310745,100.00,1
49457,0,51923,58117,51704.20,57385.81,218.80,731.19,-0.470141,-0.468144,0.310851,100.00,1
49495,0,51922,58129,51704.64,57387.30,217.36,741.70,-0.470149,-0.468170,0.310955,100.00,1
49535,0,51931,58149,51705.09,57388.82,225.91,760.18,-0.470158,-0.468196,0.311057,100.00,1
49575,0,51944,58169,51705.57,57390.38,238.43,778.62,-0.470167,-0.468223,0.311158,100.00,1
49615,0,51948,58190,51706.06,57391.98,241.94,798.02,-0.470176,-0.468251,0.311259,100.00,1
49655,0,51955,58203,51706.56,57393.61,248.44,809.39,-0.470186,-0.468280,0.311358,100.00,1
49695,0,51959,58217,51707.07,57395.26,251.93,821.74,-0.470196,-0.468308,0.311457,100.00,1
49735,0,51966,58235,51707.59,57396.94,258.41,838.06,-0.470206,-0.468338,0.311556,100.00,1
49776,0,51970,58244,51708.11,57398.63,261.89,845.37,-0.470216,-0.468367,0.311654,100.00,1
49815,0,51957,58176,51708.61,57400.19,248.39,775.81,-0.470226,-0.468394,0.311753,100.00,1
49855,0,51935,58138,51709.07,57401.66,225.93,736.34,-0.470235,-0.468420,0.311851,100.00,1
49895,0,51930,58153,51709.51,57403.17,220.49,749.83,-0.470243,-0.468446,0.311948,100.00,1
49933,0,51935,58173,51709.96,57404.71,225.04,768.29,-0.470252,-0.468473,0.312043,100.00,1
49975,0,51939,58184,51710.42,57406.27,228.58,777.73,-0.470261,-0.468500,0.312136,100.00,1
50016,0,51939,58191,51710.88,57407.84,228.12,783.16,-0.470270,-0.468527,0.312228,100.00,1
50056,0,51936,58199,51711.33,57409.42,224.67,789.58,-0.470278,-0.468555,0.312317,100.00,1
50097,0,51936,58203,51711.78,57411.01,224.22,791.99,-0.470287,-0.468583,0.312404,100.00,1
50136,0,51936,58210,51712.23,57412.61,223.77,797.39,-0.470296,-0.468610,0.312489,100.00,1
50176,0,51941,58220,51712.69,57414.23,228.31,805.77,-0.470305,-0.468639,0.312571,100.00,1
50216,0,51944,58235,51713.15,57415.87,230.85,819.13,-0.470314,-0.468667,0.312652,100.00,1
50256,0,51941,58252,51713.61,57417.54,227.39,834.46,-0.470322,-0.468696,0.312729,100.00,1
50296,0,51946,58267,51714.07,57419.24,231.93,847.76,-0.470331,-0.468726,0.312803,100.00,1
50337,0,51952,58280,51714.55,57420.96,237.45,859.04,-0.470341,-0.468756,0.312875,100.00,1
50377,0,51954,58289,51715.03,57422.70,238.97,866.30,-0.470350,-0.468786,0.312944,100.00,1
50418,0,51955,58297,51715.51,57424.45,239.49,872.55,-0.470359,-0.468817,0.313010,100.00,1
50457,0,51951,58246,51715.98,57426.10,235.02,819.90,-0.470368,-0.468845,0.313076,100.00,1
50496,0,51925,58201,51716.40,57427.65,208.60,773.35,-0.470376,-0.468872,0.313139,100.00,1
50536,0,51918,58212,51716.81,57429.22,201.19,782.78,-0.470384,-0.468900,0.313198,100.00,1
50577,0,51925,58228,51717.23,57430.82,207.77,797.18,-0.470392,-0.468928,0.313256,100.00,1
50616,0,51932,58234,51717.66,57432.43,214.34,801.57,-0.470401,-0.468956,0.313310,100.00,1
50657,0,51936,58237,51718.09,57434.04,217.91,802.96,-0.470409,-0.468984,0.313363,100.00,1
50697,0,51933,58238,51718.52,57435.64,214.48,802.36,-0.470417,-0.469012,0.313414,100.00,1
50737,0,51930,58240,51718.95,57437.25,211.05,802.75,-0.470426,-0.469040,0.313462,100.00,1
50777,0,51928,58241,51719.37,57438.86,208.63,802.14,-0.470434,-0.469068,0.313507,100.00,1
50818,0,51928,58248,51719.79,57440.48,208.21,807.52,-0.470442,-0.469096,0.313550,100.00,1
50857,0,51926,58256,51720.20,57442.12,205.80,813.88,-0.470450,-0.469124,0.313591,100.00,1
50897,0,51932,58269,51720.62,57443.77,211.37,825.23,-0.470458,-0.469153,0.313628,100.00,1
50936,0,51935,58276,51721.05,57445.44,213.95,830.56,-0.470466,-0.469182,0.313663,100.00,1
50977,0,51932,58281,51721.48,57447.11,210.52,833.89,-0.470475,-0.469211,0.313696,100.00,1
51017,0,51933,58293,51721.90,57448.80,211.10,844.20,-0.470483,-0.469241,0.313725,100.00,1
51057,0,51929,58267,51722.32,57450.44,206.68,816.56,-0.470491,-0.469269,0.313752,100.00,1
51097,0,51903,58198,51722.68,57451.93,180.32,746.07,-0.470498,-0.469295,0.313777,100.00,1
51137,0,51886,58179,51723.01,57453.39,162.99,725.61,-0.470504,-0.469321,0.313798,100.00,1
51178,0,51881,58195,51723.32,57454.87,157.68,740.12,-0.470510,-0.469346,0.313816,100.00,1
51218,0,51882,58201,51723.64,57456.37,158.36,744.63,-0.470517,-0.469372,0.313831,100.00,1
51257,0,51888,58202,51723.97,57457.86,164.03,744.14,-0.470523,-0.469398,0.313842,100.00,1
51298,0,51885,58216,51724.30,57459.38,160.70,756.62,-0.470529,-0.469425,0.313849,100.00,1
51337,0,51885,58221,51724.62,57460.90,160.38,760.10,-0.470535,-0.469451,0.313854,100.00,1
51377,0,51878,58224,51724.93,57462.43,153.07,761.57,-0.470541,-0.469478,0.313854,100.00,1
51418,0,51876,58225,51725.23,57463.96,150.77,761.04,-0.470547,-0.469504,0.313850,100.00,1
51458,0,51879,58231,51725.54,57465.49,153.46,765.51,-0.470553,-0.469531,0.313843,100.00,1
51498,0,51887,58249,51725.87,57467.06,161.13,781.94,-0.470560,-0.469558,0.313832,100.00,1
51538,0,51886,58263,51726.19,57468.66,159.81,794.34,-0.470566,-0.469586,0.313817,100.00,1
51579,0,51894,58281,51726.52,57470.28,167.48,810.72,-0.470572,-0.469615,0.313798,100.00,1
51620,0,51892,58290,51726.86,57471.92,165.14,818.08,-0.470579,-0.469643,0.313776,100.00,1
51660,0,51896,58302,51727.20,57473.58,168.80,828.42,-0.470585,-0.469672,0.313750,100.00,1
51700,0,51894,58257,51727.53,57475.15,166.47,781.85,-0.470592,-0.469699,0.313721,100.00,1
51738,0,51867,58177,51727.81,57476.55,139.19,700.45,-0.470597,-0.469724,0.313689,100.00,1
51780,0,51847,58153,51728.05,57477.91,118.95,675.09,-0.470602,-0.469747,0.313654,100.00,1
51818,0,51845,58149,51728.29,57479.25,116.71,669.75,-0.470606,-0.469771,0.313616,100.00,1
51859,0,51841,58152,51728.51,57480.60,112.49,671.40,-0.470611,-0.469794,0.313575,100.00,1
51898,0,51830,58145,51728.71,57481.93,101.29,663.07,-0.470615,-0.469817,0.313531,100.00,1
51939,0,51825,58145,51728.91,57483.26,96.09,661.74,-0.470618,-0.469840,0.313483,100.00,1
51978,0,51827,58140,51729.11,57484.58,97.89,655.42,-0.470622,-0.469863,0.313431,100.00,1
52019,0,51820,58131,51729.29,57485.87,90.71,645.13,-0.470626,-0.469886,0.313377,100.00,1
52093,0,51811,58127,51729.46,57487.16,81.54,639.84,-0.470629,-0.469908,0.313318,100.00,1
52097,0,51808,58130,51729.62,57488.45,78.38,641.55,-0.470632,-0.469930,0.313257,100.00,1
52137,0,51801,58133,51729.76,57489.73,71.24,643.27,-0.470635,-0.469953,0.313191,100.00,1
52175,0,51800,58135,51729.90,57491.03,70.10,643.97,-0.470638,-0.469975,0.313122,100.00,1
52216,0,51801,58143,51730.05,57492.33,70.95,650.67,-0.470640,-0.469998,0.313049,100.00,1
52256,0,51799,58152,51730.19,57493.65,68.81,658.35,-0.470643,-0.470021,0.312972,100.00,1
52300,0,51796,58128,51730.32,57494.92,65.68,633.08,-0.470646,-0.470043,0.312891,100.00,1
52342,0,51768,58040,51730.40,57496.01,37.60,543.99,-0.470647,-0.470062,0.312808,100.00,1
52381,0,51739,57996,51730.42,57497.01,8.58,498.99,-0.470647,-0.470079,0.312722,100.00,1
52420,0,51731,58000,51730.42,57498.02,0.58,501.98,-0.470648,-0.470097,0.312634,100.00,1
52460,0,51731,58003,51730.43,57499.03,0.57,503.97,-0.470648,-0.470115,0.312543,100.00,1
52499,0,51729,58002,51730.43,57500.04,-1.43,501.96,-0.470648,-0.470132,0.312449,100.00,1
52538,0,51726,58010,51730.42,57501.06,-4.42,508.94,-0.470647,-0.470150,0.312353,100.00,1
52579,0,51730,58022,51730.42,57502.10,-0.42,519.90,-0.470647,-0.470168,0.312254,100.00,1
52618,0,51728,58023,51730.41,57503.14,-2.41,519.86,-0.470647,-0.470186,0.312153,100.00,1
52659,0,51731,58032,51730.42,57504.20,0.58,527.80,-0.470647,-0.470205,0.312048,100.00,1
52699,0,51735,58047,51730.43,57505.29,4.57,541.71,-0.470648,-0.470223,0.311941,100.00,1
52739,0,51738,58052,51730.45,57506.38,7.55,545.62,-0.470648,-0.470243,0.311830,100.00,1
52780,0,51743,58061,51730.47,57507.49,12.53,553.51,-0.470649,-0.470262,0.311717,100.00,1
52820,0,51749,58075,51730.51,57508.63,18.49,566.37,-0.470649,-0.470282,0.311600,100.00,1
52860,0,51754,58086,51730.56,57509.79,23.44,576.21,-0.470650,-0.470302,0.311481,100.00,1
52902,0,51758,58080,51730.61,57510.93,27.39,569.07,-0.470651,-0.470321,0.311358,100.00,1
52940,0,51734,57996,51730.62,57511.90,3.38,484.10,-0.470651,-0.470338,0.311233,100.00,1
52978,0,51705,57941,51730.57,57512.76,-25.57,428.24,-0.470650,-0.470353,0.311106,100.00,1
53020,0,51700,57939,51730.51,57513.61,-30.51,425.39,-0.470649,-0.470368,0.310978,100.00,1
53059,0,51697,57949,51730.45,57514.48,-33.45,434.52,-0.470648,-0.470383,0.310848,100.00,1
53099,0,51698,57939,51730.38,57515.34,-32.38,423.66,-0.470647,-0.470398,0.310717,100.00,1
53140,0,51695,57942,51730.31,57516.19,-35.31,425.81,-0.470645,-0.470413,0.310585,100.00,1
53179,0,51693,57940,51730.24,57517.04,-37.24,422.96,-0.470644,-0.470428,0.310451,100.00,1
53220,0,51684,57937,51730.15,57517.88,-46.15,419.12,-0.470642,-0.470442,0.310317,100.00,1
53259,0,51684,57937,51730.06,57518.72,-46.06,418.28,-0.470641,-0.470457,0.310181,100.00,1
53302,0,51688,57944,51729.98,57519.57,-41.98,424.43,-0.470639,-0.470472,0.310043,100.00,1
53341,0,51690,57952,51729.90,57520.44,-39.90,431.56,-0.470637,-0.470487,0.309905,100.00,1
53381,0,51690,57965,51729.82,57521.33,-39.82,443.67,-0.470636,-0.470502,0.309765,100.00,1
53421,0,51695,57982,51729.75,57522.25,-34.75,459.75,-0.470635,-0.470518,0.309623,100.00,1
53462,0,51703,57996,51729.70,57523.20,-26.70,472.80,-0.470634,-0.470535,0.309479,100.00,1
53500,0,51699,57979,51729.64,57524.11,-30.64,454.89,-0.470632,-0.470551,0.309334,100.00,1
53541,0,51682,57885,51729.55,57524.84,-47.55,360.16,-0.470631,-0.470563,0.309188,100.00,1
53581,0,51656,57848,51729.41,57525.48,-73.41,322.52,-0.470628,-0.470575,0.309042,100.00,1
53620,0,51652,57858,51729.25,57526.15,-77.25,331.85,-0.470625,-0.470586,0.308897,100.00,1
53659,0,51651,57866,51729.10,57526.83,-78.10,339.17,-0.470622,-0.470598,0.308752,100.00,1
53700,0,51654,57871,51728.95,57527.52,-74.95,343.48,-0.470619,-0.470610,0.308607,100.00,1
53741,0,51659,57885,51728.81,57528.24,-69.81,356.76,-0.470616,-0.470622,0.308463,100.00,1
53781,0,51662,57884,51728.68,57528.95,-66.68,355.05,-0.470614,-0.470635,0.308318,100.00,1
53821,0,51661,57888,51728.55,57529.67,-67.55,358.33,-0.470611,-0.470647,0.308173,100.00,1
53861,0,51670,57893,51728.43,57530.40,-58.43,362.60,-0.470609,-0.470660,0.308028,100.00,1
