t_ms,phase,red_raw,ir_raw,red_dc,ir_dc,red_dc_init,ir_dc_init,red_ac,ir_ac,OD_red,OD_ir,OD_red_slide,OD_ir_slide,R,spo2,spo2_valid
25,0,53630,57771,53263.87,57453.92,717.91,1001.25,366.13,317.08,-2.818915,-2.561404,-0.349174,-0.353815,0.443826,98.81,1
67,0,53649,57802,53264.64,57454.62,717.91,1001.25,384.36,347.38,-2.818930,-2.561417,-0.348979,-0.353615,0.444165,98.82,1
107,0,53662,57816,53265.44,57455.34,717.91,1001.25,396.56,360.66,-2.818945,-2.561429,-0.348786,-0.353415,0.444533,98.82,1
144,0,53677,57846,53266.26,57456.12,717.91,1001.25,410.74,389.88,-2.818960,-2.561443,-0.348592,-0.353217,0.444930,98.82,1
187,0,53697,57880,53267.12,57456.97,717.91,1001.25,429.87,423.03,-2.818976,-2.561458,-0.348400,-0.353020,0.445355,98.82,1
228,0,53702,57904,53268.00,57457.86,717.91,1001.25,434.00,446.14,-2.818993,-2.561473,-0.348208,-0.352824,0.445809,98.82,1
267,0,53728,57931,53268.92,57458.81,717.91,1001.25,459.08,472.19,-2.819010,-2.561490,-0.348017,-0.352629,0.446292,98.82,1
308,0,53740,57965,53269.86,57459.83,717.91,1001.25,470.14,505.17,-2.819028,-2.561507,-0.347827,-0.352435,0.446804,98.82,1
348,0,53758,58005,53270.84,57460.92,717.91,1001.25,487.16,544.08,-2.819046,-2.561526,-0.347637,-0.352243,0.447344,98.82,1
388,0,53786,58048,53271.87,57462.10,717.91,1001.25,514.13,585.90,-2.819066,-2.561547,-0.347449,-0.352052,0.447911,98.82,1
427,0,53794,58095,53272.92,57463.36,717.91,1001.25,521.08,631.64,-2.819085,-2.561569,-0.347261,-0.351863,0.448503,98.82,1
468,0,53817,58131,53274.01,57464.70,717.91,1001.25,542.99,666.30,-2.819106,-2.561592,-0.347074,-0.351676,0.449119,98.82,1
507,0,53826,58145,53275.11,57466.06,717.91,1001.25,550.89,678.94,-2.819126,-2.561616,-0.346887,-0.351489,0.449757,98.82,1
547,0,53844,58182,53276.25,57467.50,717.91,1001.25,567.75,714.50,-2.819148,-2.561641,-0.346701,-0.351303,0.450415,98.82,1
585,0,53860,58193,53277.42,57468.95,717.91,1001.25,582.58,724.05,-2.819170,-2.561666,-0.346516,-0.351118,0.451095,98.81,1
628,0,53841,58099,53278.55,57470.21,717.91,1001.25,562.45,628.79,-2.819191,-2.561688,-0.346330,-0.350930,0.451800,98.81,1
667,0,53798,58006,53279.59,57471.29,717.91,1001.25,518.41,534.71,-2.819210,-2.561707,-0.346142,-0.350738,0.452527,98.81,1
708,0,53780,58004,53280.59,57472.35,717.91,1001.25,499.41,531.65,-2.819229,-2.561725,-0.345955,-0.350547,0.453272,98.80,1
747,0,53784,58002,53281.60,57473.41,717.91,1001.25,502.40,528.59,-2.819248,-2.561744,-0.345767,-0.350355,0.454037,98.80,1
789,0,53788,57998,53282.62,57474.46,717.91,1001.25,505.38,523.54,-2.819267,-2.561762,-0.345579,-0.350164,0.454819,98.79,1
827,0,53787,58001,53283.63,57475.52,717.91,1001.25,503.37,525.48,-2.819286,-2.561780,-0.345392,-0.349973,0.455620,98.79,1
867,0,53800,58001,53284.66,57476.57,717.91,1001.25,515.34,524.43,-2.819306,-2.561799,-0.345205,-0.349782,0.456438,98.78,1
907,0,53797,58015,53285.69,57477.65,717.91,1001.25,511.31,537.35,-2.819325,-2.561817,-0.345018,-0.349591,0.457274,98.77,1
948,0,53808,58026,53286.74,57478.75,717.91,1001.25,521.26,547.25,-2.819345,-2.561836,-0.344832,-0.349401,0.458125,98.77,1
988,0,53811,58034,53287.79,57479.86,717.91,1001.25,523.21,554.14,-2.819364,-2.561856,-0.344646,-0.349211,0.458992,98.76,1
1029,0,53825,58069,53288.86,57481.04,717.91,1001.25,536.14,587.96,-2.819385,-2.561876,-0.344460,-0.349023,0.459873,98.75,1
1068,0,53821,58057,53289.93,57482.19,717.91,1001.25,531.07,574.81,-2.819404,-2.561896,-0.344275,-0.348834,0.460768,98.74,1
1109,0,53830,58067,53291.01,57483.36,717.91,1001.25,538.99,583.64,-2.819425,-2.561917,-0.344090,-0.348646,0.461677,98.74,1
1148,0,53794,58013,53292.02,57484.43,717.91,1001.25,501.98,528.57,-2.819444,-2.561935,-0.343903,-0.348456,0.462598,98.73,1
1190,0,53795,58027,53293.03,57485.51,717.91,1001.25,501.97,541.49,-2.819463,-2.561954,-0.343717,-0.348266,0.463529,98.72,1
1228,0,53800,58047,53294.04,57486.64,717.91,1001.25,505.96,560.36,-2.819482,-2.561974,-0.343531,-0.348077,0.464469,98.71,1
1269,0,53808,58053,53295.07,57487.77,717.91,1001.25,512.93,565.23,-2.819501,-2.561993,-0.343345,-0.347889,0.465419,98.70,1
1308,0,53794,57970,53296.07,57488.73,717.91,1001.25,497.93,481.27,-2.819520,-2.562010,-0.343159,-0.347698,0.466382,98.69,1
1349,0,53750,57865,53296.98,57489.49,717.91,1001.25,453.02,375.51,-2.819537,-2.562023,-0.342972,-0.347503,0.467358,98.68,1
1389,0,53708,57820,53297.80,57490.15,717.91,1001.25,410.20,329.85,-2.819552,-2.562035,-0.342783,-0.347307,0.468345,98.66,1
1428,0,53705,57819,53298.62,57490.81,717.91,1001.25,406.38,328.19,-2.819567,-2.562046,-0.342593,-0.347111,0.469342,98.65,1
1468,0,53707,57811,53299.44,57491.45,717.91,1001.25,407.56,319.55,-2.819583,-2.562057,-0.342404,-0.346914,0.470350,98.64,1
1509,0,53708,57807,53300.26,57492.09,717.91,1001.25,407.74,314.91,-2.819598,-2.562068,-0.342216,-0.346718,0.471368,98.63,1
1548,0,53711,57800,53301.08,57492.70,717.91,1001.25,409.92,307.30,-2.819614,-2.562079,-0.342027,-0.346522,0.472398,98.61,1
1590,0,53715,57800,53301.91,57493.32,717.91,1001.25,413.09,306.68,-2.819629,-2.562090,-0.341839,-0.346325,0.473439,98.60,1
1628,0,53721,57813,53302.75,57493.96,717.91,1001.25,418.25,319.04,-2.819645,-2.562101,-0.341651,-0.346130,0.474491,98.59,1
1669,0,53713,57813,53303.57,57494.60,717.91,1001.25,409.43,318.40,-2.819660,-2.562112,-0.341463,-0.345934,0.475553,98.57,1
1709,0,53716,57812,53304.40,57495.24,717.91,1001.25,411.60,316.76,-2.819676,-2.562123,-0.341275,-0.345738,0.476626,98.56,1
1749,0,53707,57808,53305.20,57495.87,717.91,1001.25,401.80,312.13,-2.819691,-2.562134,-0.341087,-0.345543,0.477708,98.54,1
1789,0,53700,57798,53305.99,57496.47,717.91,1001.25,394.01,301.53,-2.819706,-2.562145,-0.340898,-0.345347,0.478799,98.53,1
1829,0,53710,57822,53306.80,57497.12,717.91,1001.25,403.20,324.87,-2.819721,-2.562156,-0.340710,-0.345152,0.479899,98.51,1
1869,0,53708,57834,53307.61,57497.80,717.91,1001.25,400.39,336.20,-2.819736,-2.562168,-0.340522,-0.344958,0.481006,98.50,1
1909,0,53703,57833,53308.40,57498.47,717.91,1001.25,394.60,334.53,-2.819751,-2.562180,-0.340334,-0.344764,0.482121,98.48,1
1948,0,53702,57841,53309.19,57499.16,717.91,1001.25,392.81,341.84,-2.819766,-2.562191,-0.340147,-0.344570,0.483243,98.46,1
1989,0,53694,57822,53309.96,57499.81,717.91,1001.25,384.04,322.19,-2.819780,-2.562203,-0.339959,-0.344375,0.484371,98.44,1
2029,0,53659,57746,53310.66,57500.30,717.91,1001.25,348.34,245.70,-2.819793,-2.562211,-0.339769,-0.344178,0.485505,98.43,1
2070,0,53621,57673,53311.28,57500.65,717.91,1001.25,309.72,172.35,-2.819805,-2.562217,-0.339579,-0.343979,0.486646,98.41,1
2109,0,53598,57666,53311.85,57500.98,717.91,1001.25,286.15,165.02,-2.819816,-2.562223,-0.339387,-0.343780,0.487792,98.39,1
2150,0,53601,57681,53312.43,57501.34,717.91,1001.25,288.57,179.66,-2.819827,-2.562230,-0.339196,-0.343581,0.488942,98.37,1
2190,0,53605,57690,53313.02,57501.72,717.91,1001.25,291.98,188.28,-2.819838,-2.562236,-0.339005,-0.343383,0.490096,98.35,1
2230,0,53617,57719,53313.62,57502.16,717.91,1001.25,303.37,216.84,-2.819849,-2.562244,-0.338815,-0.343185,0.491254,98.34,1
2270,0,53624,57735,53314.25,57502.63,717.91,1001.25,309.75,232.37,-2.819861,-2.562252,-0.338625,-0.342989,0.492416,98.32,1
2310,0,53634,57763,53314.89,57503.15,717.91,1001.25,319.11,259.85,-2.819873,-2.562261,-0.338435,-0.342793,0.493582,98.30,1
2350,0,53642,57770,53315.54,57503.69,717.91,1001.25,326.46,266.31,-2.819885,-2.562270,-0.338246,-0.342598,0.494752,98.28,1
2390,0,53657,57848,53316.23,57504.38,717.91,1001.25,340.77,343.62,-2.819898,-2.562282,-0.338058,-0.342406,0.495923,98.26,1
2429,0,53692,57872,53316.98,57505.12,717.91,1001.25,375.02,366.88,-2.819912,-2.562295,-0.337871,-0.342215,0.497097,98.24,1
2471,0,53685,57874,53317.72,57505.86,717.91,1001.25,367.28,368.14,-2.819926,-2.562308,-0.337684,-0.342024,0.498273,98.21,1
2510,0,53686,57892,53318.46,57506.63,717.91,1001.25,367.54,385.37,-2.819940,-2.562321,-0.337497,-0.341833,0.499450,98.19,1
2549,0,53697,57909,53319.21,57507.43,717.91,1001.25,377.79,401.57,-2.819954,-2.562335,-0.337310,-0.341643,0.500627,98.17,1
2590,0,53700,57912,53319.98,57508.25,717.91,1001.25,380.02,403.75,-2.819968,-2.562350,-0.337124,-0.341454,0.501805,98.15,1
2629,0,53693,57926,53320.72,57509.08,717.91,1001.25,372.28,416.92,-2.819982,-2.562364,-0.336938,-0.341265,0.502982,98.13,1
2669,0,53693,57905,53321.47,57509.87,717.91,1001.25,371.53,395.12,-2.819996,-2.562378,-0.336751,-0.341076,0.504159,98.11,1
2710,0,53666,57861,53322.16,57510.58,717.91,1001.25,343.84,350.42,-2.820009,-2.562390,-0.336564,-0.340885,0.505337,98.08,1
2749,0,53641,57818,53322.80,57511.20,717.91,1001.25,318.20,306.80,-2.820021,-2.562401,-0.336376,-0.340692,0.506516,98.06,1
2789,0,53641,57841,53323.44,57511.86,717.91,1001.25,317.56,329.14,-2.820033,-2.562412,-0.336188,-0.340501,0.507694,98.04,1
2829,0,53651,57881,53324.09,57512.59,717.91,1001.25,326.91,368.41,-2.820045,-2.562425,-0.336001,-0.340311,0.508871,98.02,1
2870,0,53675,57915,53324.80,57513.40,717.91,1001.25,350.20,401.60,-2.820059,-2.562439,-0.335814,-0.340122,0.510045,97.99,1
2910,0,53686,57947,53325.52,57514.27,717.91,1001.25,360.48,432.73,-2.820072,-2.562454,-0.335628,-0.339935,0.511216,97.97,1
2950,0,53700,57992,53326.27,57515.22,717.91,1001.25,373.73,476.78,-2.820086,-2.562471,-0.335443,-0.339749,0.512381,97.95,1
2990,0,53731,58057,53327.08,57516.31,717.91,1001.25,403.92,540.69,-2.820101,-2.562490,-0.335259,-0.339566,0.513537,97.92,1
3030,0,53752,58085,53327.93,57517.45,717.91,1001.25,424.07,567.55,-2.820117,-2.562510,-0.335076,-0.339383,0.514685,97.90,1
3071,0,53763,58122,53328.80,57518.66,717.91,1001.25,434.20,603.34,-2.820134,-2.562531,-0.334893,-0.339202,0.515821,97.88,1
3110,0,53775,58149,53329.70,57519.92,717.91,1001.25,445.30,629.08,-2.820150,-2.562552,-0.334711,-0.339022,0.516945,97.85,1
3151,0,53778,58163,53330.60,57521.21,717.91,1001.25,447.40,641.79,-2.820167,-2.562575,-0.334529,-0.338843,0.518057,97.83,1
3189,0,53775,58193,53331.49,57522.55,717.91,1001.25,443.51,670.45,-2.820184,-2.562598,-0.334348,-0.338665,0.519152,97.80,1
3230,0,53802,58244,53332.43,57524.00,717.91,1001.25,469.57,720.00,-2.820202,-2.562624,-0.334167,-0.338488,0.520230,97.78,1
3268,0,53803,58230,53333.37,57525.41,717.91,1001.25,469.63,704.59,-2.820219,-2.562648,-0.333986,-0.338312,0.521292,97.76,1
3309,0,53799,58247,53334.30,57526.86,717.91,1001.25,464.70,720.14,-2.820237,-2.562673,-0.333805,-0.338136,0.522336,97.73,1
3350,0,53808,58270,53335.25,57528.35,717.91,1001.25,472.75,741.65,-2.820255,-2.562699,-0.333625,-0.337960,0.523363,97.71,1
3387,0,53806,58220,53336.20,57529.73,717.91,1001.25,469.80,690.27,-2.820272,-2.562723,-0.333445,-0.337783,0.524378,97.68,1
3427,0,53759,58152,53337.04,57530.98,717.91,1001.25,421.96,621.02,-2.820288,-2.562745,-0.333263,-0.337604,0.525382,97.66,1
3468,0,53743,58157,53337.86,57532.23,717.91,1001.25,405.14,624.77,-2.820303,-2.562767,-0.333080,-0.337425,0.526374,97.63,1
3507,0,53740,58181,53338.66,57533.54,717.91,1001.25,401.34,647.46,-2.820318,-2.562789,-0.332898,-0.337247,0.527352,97.61,1
3547,0,53752,58191,53339.49,57534.85,717.91,1001.25,412.51,656.15,-2.820334,-2.562812,-0.332716,-0.337069,0.528317,97.58,1
3590,0,53750,58167,53340.31,57536.12,717.91,1001.25,409.69,630.88,-2.820349,-2.562834,-0.332534,-0.336891,0.529270,97.56,1
3630,0,53743,58180,53341.12,57537.41,717.91,1001.25,401.88,642.59,-2.820364,-2.562856,-0.332352,-0.336713,0.530211,97.54,1
3670,0,53742,58162,53341.93,57538.66,717.91,1001.25,400.07,623.34,-2.820380,-2.562878,-0.332170,-0.336535,0.531141,97.51,1
3710,0,53726,58146,53342.70,57539.87,717.91,1001.25,383.30,606.13,-2.820394,-2.562899,-0.331987,-0.336356,0.532061,97.49,1
3750,0,53720,58157,53343.45,57541.11,717.91,1001.25,376.55,615.89,-2.820408,-2.562921,-0.331805,-0.336177,0.532969,97.46,1
3790,0,53721,58167,53344.21,57542.36,717.91,1001.25,376.79,624.64,-2.820423,-2.562943,-0.331622,-0.335999,0.533865,97.44,1
3830,0,53720,58165,53344.96,57543.61,717.91,1001.25,375.04,621.39,-2.820437,-2.562964,-0.331440,-0.335821,0.534749,97.41,1
3871,0,53720,58176,53345.71,57544.87,717.91,1001.25,374.29,631.13,-2.820451,-2.562986,-0.331257,-0.335644,0.535621,97.39,1
3911,0,53719,58172,53346.46,57546.12,717.91,1001.25,372.54,625.87,-2.820465,-2.563008,-0.331075,-0.335466,0.536481,97.37,1
3951,0,53704,58159,53347.18,57547.35,717.91,1001.25,356.82,611.65,-2.820478,-2.563029,-0.330892,-0.335288,0.537330,97.34,1
3991,0,53693,58163,53347.87,57548.59,717.91,1001.25,345.13,614.41,-2.820491,-2.563051,-0.330709,-0.335111,0.538166,97.32,1
4032,0,53698,58199,53348.57,57549.89,717.91,1001.25,349.43,649.11,-2.820504,-2.563073,-0.330526,-0.334934,0.538988,97.29,1
4073,0,53693,58131,53349.26,57551.05,717.91,1001.25,343.74,579.95,-2.820517,-2.563094,-0.330343,-0.334756,0.539800,97.27,1
4112,0,53638,58024,53349.84,57552.00,717.91,1001.25,288.16,472.00,-2.820528,-2.563110,-0.330159,-0.334573,0.540606,97.25,1
4152,0,53568,57900,53350.28,57552.70,717.91,1001.25,217.72,347.30,-2.820536,-2.563122,-0.329971,-0.334387,0.541407,97.22,1
4191,0,53503,57817,53350.59,57553.23,717.91,1001.25,152.41,263.77,-2.820542,-2.563132,-0.329782,-0.334198,0.542204,97.20,1
4232,0,53442,57752,53350.77,57553.63,717.91,1001.25,91.23,198.37,-2.820545,-2.563138,-0.329590,-0.334006,0.542998,97.18,1
4272,0,53403,57701,53350.87,57553.93,717.91,1001.25,52.13,147.07,-2.820547,-2.563143,-0.329397,-0.333813,0.543788,97.15,1
4313,0,53383,57673,53350.94,57554.16,717.91,1001.25,32.06,118.84,-2.820549,-2.563148,-0.329203,-0.333619,0.544575,97.13,1
4352,0,53360,57644,53350.96,57554.34,717.91,1001.25,9.04,89.66,-2.820549,-2.563151,-0.329008,-0.333424,0.545359,97.11,1
4392,0,53317,57587,53350.89,57554.41,717.91,1001.25,-33.89,32.59,-2.820548,-2.563152,-0.328812,-0.333227,0.546141,97.08,1
4432,0,53296,57611,53350.79,57554.52,717.91,1001.25,-54.79,56.48,-2.820546,-2.563154,-0.328616,-0.333032,0.546921,97.06,1
4472,0,53301,57606,53350.69,57554.63,717.91,1001.25,-49.69,51.37,-2.820544,-2.563156,-0.328419,-0.332836,0.547698,97.04,1
4514,0,53285,57595,53350.56,57554.71,717.91,1001.25,-65.56,40.29,-2.820542,-2.563157,-0.328223,-0.332640,0.548474,97.02,1
4552,0,53284,57616,53350.43,57554.84,717.91,1001.25,-66.43,61.16,-2.820539,-2.563159,-0.328026,-0.332445,0.549248,96.99,1
4592,0,53297,57601,53350.32,57554.93,717.91,1001.25,-53.32,46.07,-2.820537,-2.563161,-0.327830,-0.332249,0.550019,96.97,1
4632,0,53273,57549,53350.17,57554.92,717.91,1001.25,-77.17,-5.92,-2.820534,-2.563161,-0.327633,-0.332052,0.550789,96.95,1
4673,0,53230,57526,53349.93,57554.86,717.91,1001.25,-119.93,-28.86,-2.820530,-2.563160,-0.327435,-0.331854,0.551558,96.93,1
4711,0,53234,57529,53349.70,57554.81,717.91,1001.25,-115.70,-25.81,-2.820525,-2.563159,-0.327237,-0.331657,0.552326,96.91,1
4753,0,53201,57446,53349.40,57554.60,717.91,1001.25,-148.40,-108.60,-2.820520,-2.563155,-0.327038,-0.331456,0.553094,96.88,1
4792,0,53149,57345,53349.00,57554.18,717.91,1001.25,-200.00,-209.18,-2.820512,-2.563148,-0.326837,-0.331253,0.553861,96.86,1
4833,0,53102,57286,53348.51,57553.64,717.91,1001.25,-246.51,-267.64,-2.820503,-2.563139,-0.326634,-0.331047,0.554628,96.84,1
4873,0,53073,57213,53347.96,57552.96,717.91,1001.25,-274.96,-339.96,-2.820493,-2.563127,-0.326431,-0.330839,0.555394,96.82,1
4912,0,53025,57159,53347.32,57552.18,717.91,1001.25,-322.32,-393.18,-2.820481,-2.563113,-0.326226,-0.330630,0.556160,96.80,1
4952,0,53008,57149,53346.64,57551.37,717.91,1001.25,-338.64,-402.37,-2.820468,-2.563099,-0.326020,-0.330420,0.556926,96.77,1
4993,0,52995,57145,53345.94,57550.56,717.91,1001.25,-350.94,-405.56,-2.820455,-2.563085,-0.325815,-0.330210,0.557694,96.75,1
5033,0,52996,57147,53345.24,57549.76,717.91,1001.25,-349.24,-402.76,-2.820442,-2.563071,-0.325609,-0.330000,0.558463,96.73,1
5075,0,52984,57127,53344.52,57548.91,717.91,1001.25,-360.52,-421.91,-2.820428,-2.563056,-0.325403,-0.329790,0.559232,96.71,1
5113,0,52971,57133,53343.77,57548.08,717.91,1001.25,-372.77,-415.08,-2.820414,-2.563042,-0.325197,-0.329580,0.560005,96.69,1
5155,0,52973,57154,53343.03,57547.30,717.91,1001.25,-370.03,-393.30,-2.820400,-2.563028,-0.324991,-0.329372,0.560780,96.67,1
5193,0,52982,57173,53342.31,57546.55,717.91,1001.25,-360.31,-373.55,-2.820387,-2.563015,-0.324786,-0.329164,0.561559,96.65,1
5233,0,52986,57200,53341.60,57545.86,717.91,1001.25,-355.60,-345.86,-2.820374,-2.563003,-0.324580,-0.328957,0.562342,96.63,1
5274,0,53004,57237,53340.93,57545.24,717.91,1001.25,-336.93,-308.24,-2.820361,-2.562993,-0.324376,-0.328751,0.563130,96.60,1
5313,0,53023,57287,53340.30,57544.73,717.91,1001.25,-317.30,-257.73,-2.820349,-2.562984,-0.324173,-0.328548,0.563923,96.58,1
5352,0,53046,57329,53339.71,57544.30,717.91,1001.25,-293.71,-215.30,-2.820338,-2.562976,-0.323970,-0.328346,0.564720,96.56,1
5394,0,53047,57337,53339.12,57543.88,717.91,1001.25,-292.12,-206.88,-2.820327,-2.562969,-0.323768,-0.328144,0.565522,96.54,1
5433,0,53037,57285,53338.52,57543.37,717.91,1001.25,-301.52,-258.37,-2.820316,-2.562960,-0.323566,-0.327941,0.566328,96.52,1
5474,0,53002,57220,53337.85,57542.72,717.91,1001.25,-335.85,-322.72,-2.820303,-2.562949,-0.323362,-0.327736,0.567137,96.50,1
5514,0,52981,57207,53337.14,57542.05,717.91,1001.25,-356.14,-335.05,-2.820290,-2.562937,-0.323158,-0.327531,0.567951,96.48,1
5554,0,52989,57215,53336.45,57541.40,717.91,1001.25,-347.45,-326.40,-2.820277,-2.562926,-0.322954,-0.327326,0.568769,96.46,1
5593,0,52994,57214,53335.76,57540.75,717.91,1001.25,-341.76,-326.75,-2.820264,-2.562914,-0.322751,-0.327121,0.569591,96.44,1
5633,0,52988,57206,53335.07,57540.08,717.91,1001.25,-347.07,-334.08,-2.820251,-2.562903,-0.322548,-0.326916,0.570417,96.42,1
5673,0,52997,57229,53334.39,57539.46,717.91,1001.25,-337.39,-310.46,-2.820238,-2.562892,-0.322345,-0.326711,0.571247,96.39,1
5714,0,52981,57213,53333.68,57538.80,717.91,1001.25,-352.68,-325.80,-2.820225,-2.562881,-0.322141,-0.326507,0.572081,96.37,1
5753,0,52984,57233,53332.98,57538.20,717.91,1001.25,-348.98,-305.20,-2.820212,-2.562870,-0.321938,-0.326303,0.572921,96.35,1
5794,0,52996,57236,53332.31,57537.59,717.91,1001.25,-336.31,-301.59,-2.820199,-2.562860,-0.321736,-0.326100,0.573765,96.33,1
5833,0,52997,57253,53331.64,57537.03,717.91,1001.25,-334.64,-284.03,-2.820187,-2.562850,-0.321533,-0.325898,0.574614,96.31,1
5874,0,53002,57282,53330.99,57536.52,717.91,1001.25,-328.99,-254.52,-2.820174,-2.562841,-0.321331,-0.325696,0.575468,96.29,1
5914,0,53009,57299,53330.34,57536.05,717.91,1001.25,-321.34,-237.05,-2.820163,-2.562833,-0.321130,-0.325496,0.576329,96.27,1
5953,0,53014,57334,53329.71,57535.64,717.91,1001.25,-315.71,-201.64,-2.820151,-2.562826,-0.320929,-0.325296,0.577195,96.25,1
5994,0,53024,57338,53329.10,57535.25,717.91,1001.25,-305.10,-197.25,-2.820139,-2.562819,-0.320728,-0.325097,0.578068,96.23,1
6036,0,53026,57383,53328.50,57534.95,717.91,1001.25,-302.50,-151.95,-2.820128,-2.562814,-0.320528,-0.324900,0.578947,96.21,1
6075,0,53043,57367,53327.93,57534.61,717.91,1001.25,-284.93,-167.61,-2.820117,-2.562808,-0.320328,-0.324702,0.579831,96.19,1
6114,0,53013,57333,53327.30,57534.21,717.91,1001.25,-314.30,-201.21,-2.820106,-2.562801,-0.320127,-0.324503,0.580722,96.16,1
6156,0,52985,57230,53326.61,57533.60,717.91,1001.25,-341.61,-303.60,-2.820093,-2.562790,-0.319926,-0.324301,0.581617,96.14,1
6195,0,52952,57251,53325.87,57533.04,717.91,1001.25,-373.87,-282.04,-2.820079,-2.562781,-0.319724,-0.324100,0.582520,96.12,1
6235,0,52966,57224,53325.15,57532.42,717.91,1001.25,-359.15,-308.42,-2.820065,-2.562770,-0.319522,-0.323898,0.583429,96.10,1
6275,0,52962,57236,53324.42,57531.83,717.91,1001.25,-362.42,-295.83,-2.820051,-2.562760,-0.319320,-0.323696,0.584344,96.08,1
6314,0,52978,57264,53323.73,57531.30,717.91,1001.25,-345.73,-267.30,-2.820039,-2.562750,-0.319119,-0.323496,0.585265,96.06,1
6355,0,52984,57287,53323.05,57530.81,717.91,1001.25,-339.05,-243.81,-2.820026,-2.562742,-0.318918,-0.323297,0.586193,96.04,1
6394,0,52999,57326,53322.40,57530.40,717.91,1001.25,-323.40,-204.40,-2.820014,-2.562735,-0.318718,-0.323099,0.587128,96.02,1
6435,0,53017,57350,53321.79,57530.04,717.91,1001.25,-304.79,-180.04,-2.820002,-2.562728,-0.318519,-0.322902,0.588068,95.99,1
6474,0,53022,57371,53321.20,57529.73,717.91,1001.25,-299.20,-158.73,-2.819991,-2.562723,-0.318321,-0.322706,0.589016,95.97,1
6514,0,53053,57422,53320.66,57529.51,717.91,1001.25,-267.66,-107.51,-2.819981,-2.562719,-0.318123,-0.322512,0.589968,95.95,1
6555,0,53061,57445,53320.14,57529.34,717.91,1001.25,-259.14,-84.34,-2.819971,-2.562716,-0.317926,-0.322318,0.590926,95.93,1
6594,0,53067,57477,53319.64,57529.24,717.91,1001.25,-252.64,-52.24,-2.819962,-2.562715,-0.317730,-0.322127,0.591888,95.91,1
6634,0,53086,57523,53319.17,57529.23,717.91,1001.25,-233.17,-6.23,-2.819953,-2.562714,-0.317534,-0.321936,0.592855,95.89,1
6675,0,53087,57526,53318.71,57529.23,717.91,1001.25,-231.71,-3.23,-2.819944,-2.562714,-0.317339,-0.321746,0.593827,95.86,1
6714,0,53096,57572,53318.26,57529.31,717.91,1001.25,-222.26,42.69,-2.819936,-2.562716,-0.317144,-0.321558,0.594801,95.84,1
6755,0,53106,57578,53317.84,57529.41,717.91,1001.25,-211.84,48.59,-2.819928,-2.562717,-0.316949,-0.321370,0.595779,95.82,1
6794,0,53099,57538,53317.40,57529.43,717.91,1001.25,-218.40,8.57,-2.819920,-2.562718,-0.316755,-0.321181,0.596760,95.80,1
6835,0,53056,57473,53316.88,57529.32,717.91,1001.25,-260.88,-56.32,-2.819910,-2.562716,-0.316559,-0.320990,0.597747,95.77,1
6873,0,53040,57456,53316.33,57529.17,717.91,1001.25,-276.33,-73.17,-2.819900,-2.562713,-0.316362,-0.320798,0.598741,95.75,1
6915,0,53027,57464,53315.75,57529.04,717.91,1001.25,-288.75,-65.04,-2.819889,-2.562711,-0.316165,-0.320607,0.599743,95.73,1
6955,0,53035,57478,53315.20,57528.94,717.91,1001.25,-280.20,-50.94,-2.819878,-2.562709,-0.315969,-0.320416,0.600753,95.71,1
6994,0,53031,57472,53314.63,57528.83,717.91,1001.25,-283.63,-56.83,-2.819868,-2.562707,-0.315772,-0.320225,0.601771,95.69,1
7035,0,53040,57506,53314.08,57528.79,717.91,1001.25,-274.08,-22.79,-2.819858,-2.562706,-0.315576,-0.320035,0.602796,95.66,1
7074,0,53044,57511,53313.54,57528.75,717.91,1001.25,-269.54,-17.75,-2.819848,-2.562706,-0.315381,-0.319846,0.603828,95.64,1
7114,0,53044,57546,53313.00,57528.79,717.91,1001.25,-269.00,17.21,-2.819837,-2.562706,-0.315185,-0.319659,0.604868,95.62,1
7154,0,53061,57569,53312.50,57528.87,717.91,1001.25,-251.50,40.13,-2.819828,-2.562708,-0.314991,-0.319472,0.605913,95.59,1
7195,0,53067,57596,53312.01,57529.00,717.91,1001.25,-245.01,67.00,-2.819819,-2.562711,-0.314796,-0.319286,0.606963,95.57,1
7235,0,53078,57608,53311.55,57529.16,717.91,1001.25,-233.55,78.84,-2.819810,-2.562713,-0.314603,-0.319101,0.608017,95.55,1
7275,0,53062,57626,53311.05,57529.36,717.91,1001.25,-249.05,96.64,-2.819801,-2.562716,-0.314408,-0.318916,0.609076,95.52,1
7316,0,53087,57675,53310.61,57529.65,717.91,1001.25,-223.61,145.35,-2.819792,-2.562722,-0.314215,-0.318734,0.610137,95.50,1
7355,0,53087,57681,53310.16,57529.96,717.91,1001.25,-223.16,151.04,-2.819784,-2.562727,-0.314023,-0.318551,0.611200,95.48,1
7395,0,53081,57709,53309.70,57530.32,717.91,1001.25,-228.70,178.68,-2.819775,-2.562733,-0.313829,-0.318370,0.612263,95.45,1
7434,0,53110,57748,53309.30,57530.75,717.91,1001.25,-199.30,217.25,-2.819768,-2.562741,-0.313638,-0.318190,0.613323,95.43,1
7475,0,53101,57697,53308.89,57531.09,717.91,1001.25,-207.89,165.91,-2.819760,-2.562747,-0.313446,-0.318008,0.614384,95.41,1
7515,0,53078,57693,53308.43,57531.41,717.91,1001.25,-230.43,161.59,-2.819752,-2.562752,-0.313253,-0.317827,0.615446,95.38,1
7555,0,53077,57697,53307.97,57531.74,717.91,1001.25,-230.97,165.26,-2.819743,-2.562758,-0.313060,-0.317646,0.616509,95.36,1
7595,0,53077,57707,53307.51,57532.09,717.91,1001.25,-230.51,174.91,-2.819734,-2.562764,-0.312868,-0.317465,0.617574,95.34,1
7635,0,53080,57722,53307.05,57532.48,717.91,1001.25,-227.05,189.52,-2.819726,-2.562771,-0.312676,-0.317285,0.618640,95.31,1
7676,0,53079,57728,53306.60,57532.87,717.91,1001.25,-227.60,195.13,-2.819717,-2.562778,-0.312484,-0.317105,0.619705,95.29,1
7715,0,53076,57753,53306.14,57533.31,717.91,1001.25,-230.14,219.69,-2.819709,-2.562785,-0.312292,-0.316926,0.620769,95.26,1
7756,0,53084,57759,53305.70,57533.76,717.91,1001.25,-221.70,225.24,-2.819700,-2.562793,-0.312100,-0.316747,0.621832,95.24,1
7796,0,53079,57783,53305.25,57534.26,717.91,1001.25,-226.25,248.74,-2.819692,-2.562802,-0.311909,-0.316570,0.622891,95.21,1
7836,0,53095,57806,53304.83,57534.81,717.91,1001.25,-209.83,271.19,-2.819684,-2.562811,-0.311718,-0.316393,0.623945,95.19,1
7877,0,53100,57829,53304.42,57535.40,717.91,1001.25,-204.42,293.60,-2.819676,-2.562822,-0.311527,-0.316217,0.624991,95.17,1
7915,0,53092,57833,53304.00,57536.00,717.91,1001.25,-212.00,297.00,-2.819668,-2.562832,-0.311337,-0.316042,0.626030,95.14,1
7956,0,53108,57885,53303.61,57536.70,717.91,1001.25,-195.61,348.30,-2.819661,-2.562844,-0.311147,-0.315868,0.627056,95.12,1
7996,0,53117,57897,53303.23,57537.42,717.91,1001.25,-186.23,359.58,-2.819654,-2.562857,-0.310957,-0.315695,0.628068,95.09,1
8037,0,53123,57926,53302.87,57538.20,717.91,1001.25,-179.87,387.80,-2.819647,-2.562870,-0.310768,-0.315523,0.629063,95.07,1
8076,0,53143,57973,53302.55,57539.07,717.91,1001.25,-159.55,433.93,-2.819641,-2.562885,-0.310580,-0.315353,0.630035,95.04,1
8116,0,53146,57997,53302.24,57539.98,717.91,1001.25,-156.24,457.02,-2.819635,-2.562901,-0.310392,-0.315183,0.630983,95.02,1
8157,0,53147,57999,53301.93,57540.90,717.91,1001.25,-154.93,458.10,-2.819630,-2.562917,-0.310205,-0.315014,0.631906,94.99,1
8196,0,53148,57984,53301.63,57541.79,717.91,1001.25,-153.63,442.21,-2.819624,-2.562933,-0.310017,-0.314844,0.632806,94.97,1
8238,0,53137,57973,53301.30,57542.65,717.91,1001.25,-164.30,430.35,-2.819618,-2.562948,-0.309829,-0.314674,0.633686,94.95,1
8278,0,53132,57983,53300.96,57543.54,717.91,1001.25,-168.96,439.46,-2.819612,-2.562963,-0.309642,-0.314505,0.634546,94.92,1
8317,0,53128,58011,53300.62,57544.47,717.91,1001.25,-172.62,466.53,-2.819605,-2.562979,-0.309454,-0.314336,0.635382,94.90,1
8359,0,53137,58024,53300.30,57545.43,717.91,1001.25,-163.30,478.57,-2.819599,-2.562996,-0.309266,-0.314168,0.636194,94.87,1
8397,0,53120,57984,53299.94,57546.31,717.91,1001.25,-179.94,437.69,-2.819592,-2.563011,-0.309078,-0.313999,0.636987,94.85,1
8436,0,53097,57955,53299.53,57547.13,717.91,1001.25,-202.53,407.87,-2.819585,-2.563025,-0.308890,-0.313829,0.637766,94.82,1
8476,0,53088,57987,53299.11,57548.02,717.91,1001.25,-211.11,438.98,-2.819577,-2.563041,-0.308701,-0.313660,0.638529,94.80,1
8516,0,53106,57992,53298.72,57548.91,717.91,1001.25,-192.72,443.09,-2.819569,-2.563056,-0.308513,-0.313491,0.639274,94.78,1
8556,0,53098,58013,53298.32,57549.84,717.91,1001.25,-200.32,463.16,-2.819562,-2.563072,-0.308325,-0.313323,0.640000,94.75,1
8596,0,53123,58068,53297.98,57550.87,717.91,1001.25,-174.98,517.12,-2.819556,-2.563091,-0.308138,-0.313157,0.640701,94.73,1
8636,0,53126,58059,53297.63,57551.89,717.91,1001.25,-171.63,507.11,-2.819549,-2.563108,-0.307951,-0.312991,0.641377,94.71,1
8676,0,53122,58082,53297.28,57552.96,717.91,1001.25,-175.28,529.04,-2.819542,-2.563127,-0.307764,-0.312826,0.642028,94.69,1
8716,0,53128,58091,53296.95,57554.04,717.91,1001.25,-168.95,536.96,-2.819536,-2.563145,-0.307577,-0.312661,0.642653,94.66,1
8758,0,53129,58095,53296.61,57555.12,717.91,1001.25,-167.61,539.88,-2.819530,-2.563164,-0.307391,-0.312496,0.643253,94.64,1
8797,0,53124,58115,53296.27,57556.24,717.91,1001.25,-172.27,558.76,-2.819523,-2.563184,-0.307205,-0.312333,0.643825,94.62,1
8837,0,53131,58150,53295.94,57557.43,717.91,1001.25,-164.94,592.57,-2.819517,-2.563204,-0.307019,-0.312170,0.644367,94.60,1
8877,0,53136,58137,53295.62,57558.59,717.91,1001.25,-159.62,578.41,-2.819511,-2.563225,-0.306833,-0.312007,0.644882,94.58,1
8918,0,53113,58085,53295.25,57559.64,717.91,1001.25,-182.25,525.36,-2.819504,-2.563243,-0.306647,-0.311842,0.645376,94.55,1
8958,0,53095,58075,53294.86,57560.67,717.91,1001.25,-199.86,514.33,-2.819497,-2.563261,-0.306460,-0.311677,0.645851,94.53,1
8998,0,53088,58071,53294.44,57561.70,717.91,1001.25,-206.44,509.30,-2.819489,-2.563278,-0.306273,-0.311512,0.646310,94.51,1
9038,0,53088,58082,53294.03,57562.74,717.91,1001.25,-206.03,519.26,-2.819481,-2.563297,-0.306086,-0.311348,0.646751,94.49,1
9076,0,53088,58081,53293.62,57563.78,717.91,1001.25,-205.62,517.22,-2.819474,-2.563315,-0.305900,-0.311183,0.647176,94.47,1
9117,0,53082,58078,53293.20,57564.81,717.91,1001.25,-211.20,513.19,-2.819466,-2.563333,-0.305713,-0.311018,0.647584,94.45,1
9156,0,53077,58083,53292.77,57565.85,717.91,1001.25,-215.77,517.15,-2.819458,-2.563351,-0.305526,-0.310854,0.647977,94.43,1
9197,0,53078,58082,53292.34,57566.88,717.91,1001.25,-214.34,515.12,-2.819450,-2.563369,-0.305339,-0.310690,0.648354,94.41,1
9237,0,53072,58085,53291.90,57567.92,717.91,1001.25,-219.90,517.08,-2.819442,-2.563387,-0.305152,-0.310526,0.648717,94.39,1
9277,0,53077,58102,53291.47,57568.99,717.91,1001.25,-214.47,533.01,-2.819433,-2.563405,-0.304966,-0.310362,0.649065,94.38,1
9317,0,53080,58116,53291.05,57570.09,717.91,1001.25,-211.05,545.91,-2.819425,-2.563424,-0.304780,-0.310199,0.649395,94.36,1
9357,0,53078,58128,53290.62,57571.20,717.91,1001.25,-212.62,556.80,-2.819417,-2.563444,-0.304594,-0.310037,0.649708,94.34,1
9397,0,53087,58156,53290.22,57572.37,717.91,1001.25,-203.22,583.62,-2.819410,-2.563464,-0.304408,-0.309875,0.650001,94.32,1
9438,0,53093,58169,53289.82,57573.57,717.91,1001.25,-196.82,595.43,-2.819402,-2.563485,-0.304223,-0.309715,0.650274,94.30,1
9476,0,53101,58194,53289.45,57574.81,717.91,1001.25,-188.45,619.19,-2.819395,-2.563506,-0.304038,-0.309555,0.650525,94.29,1
9517,0,53114,58208,53289.10,57576.08,717.91,1001.25,-175.10,631.92,-2.819389,-2.563528,-0.303854,-0.309395,0.650752,94.27,1
9556,0,53106,58193,53288.74,57577.32,717.91,1001.25,-182.74,615.68,-2.819382,-2.563550,-0.303669,-0.309236,0.650958,94.25,1
9597,0,53094,58177,53288.35,57578.52,717.91,1001.25,-194.35,598.48,-2.819375,-2.563571,-0.303485,-0.309075,0.651146,94.24,1
9637,0,53072,58120,53287.92,57579.60,717.91,1001.25,-215.92,540.40,-2.819367,-2.563590,-0.303300,-0.308913,0.651322,94.22,1
9677,0,53056,58117,53287.46,57580.68,717.91,1001.25,-231.46,536.32,-2.819358,-2.563608,-0.303114,-0.308751,0.651486,94.21,1
9717,0,53047,58093,53286.98,57581.71,717.91,1001.25,-239.98,511.29,-2.819349,-2.563626,-0.302928,-0.308588,0.651642,94.19,1
9758,0,53023,58111,53286.45,57582.77,717.91,1001.25,-263.45,528.23,-2.819339,-2.563645,-0.302741,-0.308425,0.651791,94.18,1
9798,0,53062,58136,53286.00,57583.87,717.91,1001.25,-224.00,552.12,-2.819331,-2.563664,-0.302556,-0.308264,0.651928,94.16,1
9840,0,53048,58124,53285.53,57584.96,717.91,1001.25,-237.53,539.04,-2.819322,-2.563683,-0.302370,-0.308102,0.652055,94.15,1
9877,0,53041,58103,53285.04,57586.00,717.91,1001.25,-244.04,517.00,-2.819313,-2.563701,-0.302185,-0.307940,0.652174,94.14,1
9917,0,53025,58091,53284.52,57587.01,717.91,1001.25,-259.52,503.99,-2.819303,-2.563718,-0.301999,-0.307777,0.652288,94.12,1
9957,0,53012,58091,53283.98,57588.02,717.91,1001.25,-271.98,502.98,-2.819293,-2.563736,-0.301812,-0.307615,0.652397,94.11,1
9998,0,53001,58080,53283.41,57589.00,717.91,1001.25,-282.41,491.00,-2.819282,-2.563753,-0.301626,-0.307452,0.652504,94.10,1
10039,0,52996,58075,53282.84,57589.97,717.91,1001.25,-286.84,485.03,-2.819271,-2.563770,-0.301439,-0.307289,0.652608,94.08,1
10077,0,52974,58050,53282.22,57590.89,717.91,1001.25,-308.22,459.11,-2.819260,-2.563786,-0.301251,-0.307125,0.652713,94.07,1
10117,0,52981,58106,53281.62,57591.93,717.91,1001.25,-300.62,514.07,-2.819248,-2.563804,-0.301064,-0.306963,0.652816,94.06,1
10157,0,52982,58093,53281.02,57592.93,717.91,1001.25,-299.02,500.07,-2.819237,-2.563821,-0.300877,-0.306801,0.652917,94.05,1
10197,0,52983,58120,53280.43,57593.98,717.91,1001.25,-297.43,526.02,-2.819226,-2.563839,-0.300691,-0.306640,0.653014,94.04,1
10237,0,52986,58107,53279.84,57595.01,717.91,1001.25,-293.84,511.99,-2.819215,-2.563857,-0.300504,-0.306478,0.653109,94.03,1
10278,0,52968,58048,53279.22,57595.92,717.91,1001.25,-311.22,452.08,-2.819203,-2.563873,-0.300317,-0.306314,0.653205,94.02,1
10317,0,52931,57996,53278.52,57596.72,717.91,1001.25,-347.52,399.28,-2.819190,-2.563887,-0.300129,-0.306149,0.653309,94.01,1
10357,0,52907,57960,53277.78,57597.45,717.91,1001.25,-370.78,362.55,-2.819176,-2.563900,-0.299940,-0.305983,0.653425,94.00,1
10397,0,52893,57962,53277.01,57598.18,717.91,1001.25,-384.01,363.82,-2.819162,-2.563912,-0.299751,-0.305817,0.653553,93.99,1
10438,0,52885,57947,53276.23,57598.87,717.91,1001.25,-391.23,348.12,-2.819147,-2.563924,-0.299562,-0.305650,0.653696,93.98,1
10477,0,52872,57947,53275.42,57599.57,717.91,1001.25,-403.42,347.43,-2.819132,-2.563936,-0.299372,-0.305483,0.653854,93.97,1
10517,0,52870,57968,53274.61,57600.31,717.91,1001.25,-404.61,367.69,-2.819117,-2.563949,-0.299182,-0.305317,0.654026,93.96,1
10558,0,52889,57983,53273.84,57601.08,717.91,1001.25,-384.84,381.92,-2.819103,-2.563962,-0.298993,-0.305152,0.654209,93.95,1
10598,0,52879,57964,53273.05,57601.80,717.91,1001.25,-394.05,362.20,-2.819088,-2.563975,-0.298804,-0.304986,0.654406,93.94,1
10638,0,52883,57995,53272.28,57602.59,717.91,1001.25,-389.28,392.41,-2.819073,-2.563989,-0.298616,-0.304822,0.654613,93.93,1
10679,0,52890,57989,53271.52,57603.37,717.91,1001.25,-381.52,385.63,-2.819059,-2.564002,-0.298428,-0.304657,0.654831,93.92,1
10718,0,52881,58002,53270.73,57604.16,717.91,1001.25,-389.73,397.84,-2.819044,-2.564016,-0.298239,-0.304493,0.655059,93.91,1
10758,0,52892,58049,53269.98,57605.05,717.91,1001.25,-377.98,443.95,-2.819030,-2.564032,-0.298051,-0.304331,0.655294,93.90,1
10799,0,52911,58069,53269.26,57605.98,717.91,1001.25,-358.26,463.02,-2.819016,-2.564048,-0.297864,-0.304169,0.655532,93.89,1
10838,0,52916,58094,53268.55,57606.96,717.91,1001.25,-352.55,487.04,-2.819003,-2.564065,-0.297677,-0.304008,0.655771,93.88,1
10879,0,52933,58125,53267.89,57608.00,717.91,1001.25,-334.89,517.00,-2.818991,-2.564083,-0.297492,-0.303848,0.656008,93.88,1
10919,0,52941,58138,53267.23,57609.06,717.91,1001.25,-326.23,528.94,-2.818979,-2.564101,-0.297306,-0.303689,0.656242,93.87,1
10959,0,52943,58142,53266.59,57610.13,717.91,1001.25,-323.59,531.87,-2.818966,-2.564120,-0.297121,-0.303530,0.656471,93.86,1
10998,0,52929,58086,53265.91,57611.08,717.91,1001.25,-336.91,474.92,-2.818954,-2.564136,-0.296935,-0.303370,0.656701,93.85,1
11039,0,52901,58057,53265.19,57611.98,717.91,1001.25,-364.19,445.02,-2.818940,-2.564152,-0.296749,-0.303208,0.656936,93.84,1
11077,0,52895,58043,53264.45,57612.84,717.91,1001.25,-369.45,430.16,-2.818926,-2.564167,-0.296563,-0.303046,0.657177,93.83,1
11119,0,52894,58062,53263.71,57613.74,717.91,1001.25,-369.71,448.26,-2.818912,-2.564182,-0.296376,-0.302885,0.657423,93.83,1
11158,0,52898,58052,53262.98,57614.62,717.91,1001.25,-364.98,437.38,-2.818899,-2.564198,-0.296190,-0.302723,0.657675,93.82,1
11198,0,52895,58059,53262.25,57615.51,717.91,1001.25,-367.25,443.49,-2.818885,-2.564213,-0.296004,-0.302562,0.657931,93.81,1
11239,0,52896,58065,53261.52,57616.41,717.91,1001.25,-365.52,448.59,-2.818871,-2.564229,-0.295818,-0.302401,0.658191,93.80,1
11279,0,52902,58064,53260.80,57617.31,717.91,1001.25,-358.80,446.69,-2.818858,-2.564244,-0.295633,-0.302240,0.658455,93.79,1
11321,0,52900,58075,53260.08,57618.23,717.91,1001.25,-360.08,456.77,-2.818844,-2.564260,-0.295447,-0.302079,0.658722,93.79,1
11359,0,52904,58094,53259.37,57619.18,717.91,1001.25,-355.37,474.82,-2.818831,-2.564277,-0.295262,-0.301920,0.658991,93.78,1
11399,0,52908,58089,53258.66,57620.12,717.91,1001.25,-350.66,468.88,-2.818818,-2.564293,-0.295077,-0.301760,0.659262,93.77,1
11439,0,52913,58119,53257.97,57621.12,717.91,1001.25,-344.97,497.88,-2.818805,-2.564310,-0.294892,-0.301601,0.659531,93.76,1
11480,0,52933,58132,53257.32,57622.14,717.91,1001.25,-324.32,509.86,-2.818792,-2.564328,-0.294709,-0.301443,0.659798,93.76,1
11519,0,52936,58154,53256.68,57623.21,717.91,1001.25,-320.68,530.79,-2.818780,-2.564347,-0.294525,-0.301285,0.660060,93.75,1
11559,0,52946,58178,53256.06,57624.32,717.91,1001.25,-310.06,553.68,-2.818769,-2.564366,-0.294342,-0.301129,0.660314,93.74,1
11600,0,52952,58198,53255.46,57625.47,717.91,1001.25,-303.46,572.53,-2.818757,-2.564386,-0.294160,-0.300973,0.660560,93.73,1
11640,0,52962,58214,53254.87,57626.65,717.91,1001.25,-292.87,587.35,-2.818746,-2.564406,-0.293978,-0.300818,0.660796,93.73,1
11679,0,52966,58168,53254.29,57627.73,717.91,1001.25,-288.29,540.27,-2.818736,-2.564425,-0.293796,-0.300661,0.661025,93.72,1
11719,0,52928,58076,53253.64,57628.63,717.91,1001.25,-325.64,447.37,-2.818723,-2.564441,-0.293613,-0.300502,0.661254,93.71,1
11759,0,52908,58056,53252.95,57629.49,717.91,1001.25,-344.95,426.51,-2.818710,-2.564456,-0.293430,-0.300341,0.661487,93.70,1
11799,0,52910,58048,53252.27,57630.33,717.91,1001.25,-342.27,417.67,-2.818697,-2.564470,-0.293246,-0.300181,0.661725,93.70,1
11839,0,52919,58044,53251.60,57631.16,717.91,1001.25,-332.60,412.84,-2.818685,-2.564485,-0.293064,-0.300020,0.661965,93.69,1
11880,0,52918,58035,53250.94,57631.96,717.91,1001.25,-332.94,403.04,-2.818672,-2.564498,-0.292881,-0.299859,0.662209,93.68,1
11919,0,52922,58020,53250.28,57632.74,717.91,1001.25,-328.28,387.26,-2.818660,-2.564512,-0.292699,-0.299698,0.662457,93.67,1
11959,0,52922,58027,53249.62,57633.53,717.91,1001.25,-327.62,393.47,-2.818648,-2.564526,-0.292516,-0.299537,0.662708,93.67,1
12000,0,52924,58011,53248.98,57634.29,717.91,1001.25,-324.98,376.71,-2.818636,-2.564539,-0.292334,-0.299375,0.662963,93.66,1
12038,0,52928,58010,53248.34,57635.04,717.91,1001.25,-320.34,374.96,-2.818624,-2.564552,-0.292153,-0.299214,0.663223,93.65,1
12079,0,52931,58002,53247.70,57635.78,717.91,1001.25,-316.70,366.22,-2.818612,-2.564565,-0.291971,-0.299052,0.663485,93.64,1
12120,0,52935,57997,53247.08,57636.50,717.91,1001.25,-312.08,360.50,-2.818600,-2.564577,-0.291790,-0.298891,0.663752,93.64,1
12158,0,52935,58003,53246.46,57637.23,717.91,1001.25,-311.46,365.77,-2.818588,-2.564590,-0.291609,-0.298729,0.664022,93.63,1
12198,0,52943,58019,53245.85,57638.00,717.91,1001.25,-302.85,381.00,-2.818577,-2.564603,-0.291428,-0.298568,0.664294,93.62,1
12239,0,52950,58019,53245.26,57638.76,717.91,1001.25,-295.26,380.24,-2.818566,-2.564616,-0.291248,-0.298408,0.664567,93.62,1
12281,0,52954,58037,53244.68,57639.56,717.91,1001.25,-290.68,397.44,-2.818555,-2.564630,-0.291068,-0.298248,0.664840,93.61,1
12321,0,52962,58031,53244.12,57640.34,717.91,1001.25,-282.12,390.66,-2.818544,-2.564644,-0.290889,-0.298088,0.665113,93.60,1
12360,0,52956,57987,53243.54,57641.04,717.91,1001.25,-287.54,345.96,-2.818534,-2.564656,-0.290709,-0.297926,0.665389,93.59,1
12400,0,52913,57856,53242.88,57641.47,717.91,1001.25,-329.88,214.53,-2.818521,-2.564663,-0.290528,-0.297760,0.665674,93.59,1
12440,0,52893,57827,53242.18,57641.84,717.91,1001.25,-349.18,185.16,-2.818508,-2.564670,-0.290346,-0.297593,0.665972,93.58,1
12480,0,52888,57795,53241.48,57642.15,717.91,1001.25,-353.48,152.85,-2.818495,-2.564675,-0.290165,-0.297425,0.666284,93.57,1
12520,0,52889,57788,53240.77,57642.44,717.91,1001.25,-351.77,145.56,-2.818482,-2.564680,-0.289983,-0.297257,0.666609,93.57,1
12560,0,52908,57801,53240.11,57642.76,717.91,1001.25,-332.11,158.24,-2.818469,-2.564686,-0.289803,-0.297090,0.666946,93.56,1
12599,0,52912,57785,53239.45,57643.05,717.91,1001.25,-327.45,141.95,-2.818457,-2.564691,-0.289622,-0.296922,0.667294,93.55,1
12639,0,52922,57794,53238.82,57643.35,717.91,1001.25,-316.82,150.65,-2.818445,-2.564696,-0.289442,-0.296754,0.667653,93.54,1
12680,0,52933,57785,53238.21,57643.64,717.91,1001.25,-305.21,141.36,-2.818434,-2.564701,-0.289263,-0.296586,0.668021,93.54,1
12720,0,52929,57760,53237.59,57643.87,717.91,1001.25,-308.59,116.13,-2.818422,-2.564705,-0.289084,-0.296418,0.668400,93.53,1
12761,0,52918,57760,53236.96,57644.11,717.91,1001.25,-318.96,115.89,-2.818410,-2.564709,-0.288905,-0.296249,0.668790,93.52,1
12800,0,52935,57788,53236.36,57644.39,717.91,1001.25,-301.36,143.61,-2.818399,-2.564714,-0.288726,-0.296082,0.669189,93.51,1
12840,0,52946,57773,53235.78,57644.65,717.91,1001.25,-289.78,128.35,-2.818388,-2.564719,-0.288548,-0.295914,0.669597,93.51,1
12880,0,52951,57792,53235.21,57644.95,717.91,1001.25,-284.21,147.05,-2.818377,-2.564724,-0.288370,-0.295747,0.670012,93.50,1
12922,0,52971,57802,53234.68,57645.27,717.91,1001.25,-263.68,156.73,-2.818367,-2.564729,-0.288193,-0.295581,0.670434,93.49,1
12961,0,52976,57804,53234.17,57645.59,717.91,1001.25,-258.17,158.41,-2.818357,-2.564735,-0.288016,-0.295414,0.670862,93.48,1
13001,0,52974,57779,53233.65,57645.86,717.91,1001.25,-259.65,133.14,-2.818348,-2.564739,-0.287839,-0.295247,0.671297,93.48,1
13040,0,52945,57670,53233.07,57645.91,717.91,1001.25,-288.07,24.09,-2.818337,-2.564740,-0.287662,-0.295076,0.671741,93.47,1
13082,0,52909,57586,53232.43,57645.79,717.91,1001.25,-323.43,-59.79,-2.818325,-2.564739,-0.287483,-0.294903,0.672198,93.46,1
13121,0,52898,57555,53231.76,57645.61,717.91,1001.25,-333.76,-90.61,-2.818312,-2.564735,-0.287304,-0.294728,0.672668,93.45,1
13160,0,52894,57550,53231.08,57645.42,717.91,1001.25,-337.08,-95.42,-2.818300,-2.564732,-0.287125,-0.294554,0.673151,93.44,1
13199,0,52915,57555,53230.45,57645.24,717.91,1001.25,-315.45,-90.24,-2.818288,-2.564729,-0.286947,-0.294379,0.673646,93.43,1
13240,0,52929,57556,53229.85,57645.06,717.91,1001.25,-300.85,-89.06,-2.818276,-2.564726,-0.286770,-0.294205,0.674152,93.43,1
13280,0,52936,57563,53229.27,57644.90,717.91,1001.25,-293.27,-81.90,-2.818265,-2.564723,-0.286593,-0.294031,0.674667,93.42,1
13321,0,52944,57558,53228.70,57644.73,717.91,1001.25,-284.70,-86.73,-2.818255,-2.564720,-0.286416,-0.293858,0.675192,93.41,1
13360,0,52945,57556,53228.13,57644.55,717.91,1001.25,-283.13,-88.55,-2.818244,-2.564717,-0.286240,-0.293684,0.675725,93.40,1
13401,0,52949,57565,53227.57,57644.39,717.91,1001.25,-278.57,-79.39,-2.818233,-2.564714,-0.286063,-0.293511,0.676268,93.39,1
13441,0,52961,57588,53227.04,57644.29,717.91,1001.25,-266.04,-56.29,-2.818223,-2.564712,-0.285888,-0.293338,0.676818,93.38,1
13481,0,52985,57612,53226.55,57644.22,717.91,1001.25,-241.55,-32.22,-2.818214,-2.564711,-0.285713,-0.293166,0.677375,93.37,1
13522,0,52996,57635,53226.09,57644.21,717.91,1001.25,-230.09,-9.21,-2.818206,-2.564711,-0.285539,-0.292996,0.677938,93.36,1
13561,0,53012,57675,53225.67,57644.27,717.91,1001.25,-213.67,30.73,-2.818198,-2.564712,-0.285366,-0.292827,0.678506,93.35,1
13601,0,53035,57708,53225.29,57644.40,717.91,1001.25,-190.29,63.60,-2.818191,-2.564714,-0.285194,-0.292659,0.679077,93.34,1
13641,0,53057,57742,53224.95,57644.59,717.91,1001.25,-167.95,97.41,-2.818184,-2.564718,-0.285023,-0.292492,0.679650,93.33,1
13681,0,53071,57707,53224.65,57644.72,717.91,1001.25,-153.65,62.28,-2.818179,-2.564720,-0.284852,-0.292325,0.680224,93.32,1
13721,0,53034,57585,53224.27,57644.60,717.91,1001.25,-190.27,-59.60,-2.818172,-2.564718,-0.284680,-0.292153,0.680802,93.31,1
13761,0,52998,57520,53223.82,57644.36,717.91,1001.25,-225.82,-124.36,-2.818163,-2.564713,-0.284507,-0.291979,0.681384,93.30,1
13801,0,52997,57522,53223.37,57644.11,717.91,1001.25,-226.37,-122.11,-2.818155,-2.564709,-0.284334,-0.291805,0.681970,93.29,1
13841,0,53009,57543,53222.94,57643.91,717.91,1001.25,-213.94,-100.91,-2.818146,-2.564706,-0.284162,-0.291633,0.682561,93.28,1
13882,0,53032,57557,53222.56,57643.74,717.91,1001.25,-190.56,-86.74,-2.818140,-2.564703,-0.283990,-0.291460,0.683155,93.27,1
13923,0,53048,57576,53222.21,57643.61,717.91,1001.25,-174.21,-67.61,-2.818133,-2.564701,-0.283819,-0.291289,0.683751,93.26,1
13961,0,53069,57592,53221.91,57643.51,717.91,1001.25,-152.91,-51.51,-2.818127,-2.564699,-0.283650,-0.291118,0.684349,93.25,1
14003,0,53080,57596,53221.63,57643.41,717.91,1001.25,-141.63,-47.41,-2.818122,-2.564697,-0.283481,-0.290948,0.684948,93.24,1
14041,0,53098,57630,53221.38,57643.39,717.91,1001.25,-123.38,-13.39,-2.818117,-2.564697,-0.283312,-0.290778,0.685548,93.22,1
14081,0,53119,57652,53221.18,57643.41,717.91,1001.25,-102.18,8.59,-2.818114,-2.564697,-0.283145,-0.290610,0.686148,93.21,1
14123,0,53129,57679,53221.00,57643.48,717.91,1001.25,-92.00,35.52,-2.818110,-2.564698,-0.282977,-0.290443,0.686747,93.20,1
14160,0,53146,57720,53220.85,57643.64,717.91,1001.25,-74.85,76.36,-2.818107,-2.564701,-0.282811,-0.290277,0.687344,93.19,1
14201,0,53167,57746,53220.74,57643.85,717.91,1001.25,-53.74,102.15,-2.818105,-2.564705,-0.282646,-0.290112,0.687939,93.18,1
14241,0,53183,57770,53220.67,57644.10,717.91,1001.25,-37.67,125.90,-2.818104,-2.564709,-0.282481,-0.289948,0.688531,93.17,1
14281,0,53193,57797,53220.61,57644.41,717.91,1001.25,-27.61,152.59,-2.818103,-2.564714,-0.282317,-0.289785,0.689119,93.16,1
14322,0,53223,57838,53220.62,57644.80,717.91,1001.25,2.38,193.20,-2.818103,-2.564721,-0.282154,-0.289624,0.689700,93.14,1
14360,0,53225,57822,53220.63,57645.15,717.91,1001.25,4.37,176.85,-2.818103,-2.564727,-0.281991,-0.289462,0.690276,93.13,1
14400,0,53197,57688,53220.59,57645.24,717.91,1001.25,-23.59,42.76,-2.818102,-2.564729,-0.281828,-0.289296,0.690851,93.12,1
14441,0,53144,57605,53220.43,57645.16,717.91,1001.25,-76.43,-40.16,-2.818099,-2.564728,-0.281662,-0.289127,0.691424,93.11,1
14481,0,53136,57581,53220.27,57645.04,717.91,1001.25,-84.27,-64.04,-2.818096,-2.564725,-0.281496,-0.288957,0.691997,93.09,1
14522,0,53138,57589,53220.10,57644.93,717.91,1001.25,-82.10,-55.93,-2.818093,-2.564723,-0.281331,-0.288788,0.692569,93.08,1
14561,0,53156,57598,53219.98,57644.83,717.91,1001.25,-63.98,-46.83,-2.818091,-2.564722,-0.281166,-0.288619,0.693139,93.07,1
14603,0,53166,57607,53219.87,57644.76,717.91,1001.25,-53.87,-37.76,-2.818089,-2.564721,-0.281002,-0.288450,0.693708,93.06,1
14642,0,53179,57634,53219.79,57644.74,717.91,1001.25,-40.79,-10.74,-2.818087,-2.564720,-0.280838,-0.288283,0.694276,93.05,1
14682,0,53188,57637,53219.73,57644.72,717.91,1001.25,-31.73,-7.72,-2.818086,-2.564720,-0.280675,-0.288116,0.694842,93.03,1
14722,0,53199,57646,53219.69,57644.73,717.91,1001.25,-20.69,1.27,-2.818085,-2.564720,-0.280512,-0.287949,0.695407,93.02,1
14762,0,53211,57662,53219.67,57644.76,717.91,1001.25,-8.67,17.24,-2.818085,-2.564721,-0.280350,-0.287782,0.695970,93.01,1
14802,0,53220,57676,53219.68,57644.82,717.91,1001.25,0.32,31.18,-2.818085,-2.564722,-0.280188,-0.287617,0.696531,93.00,1
14842,0,53225,57711,53219.69,57644.96,717.91,1001.25,5.31,66.04,-2.818085,-2.564724,-0.280027,-0.287453,0.697090,92.98,1
14881,0,53251,57743,53219.75,57645.16,717.91,1001.25,31.25,97.84,-2.818087,-2.564727,-0.279866,-0.287290,0.697646,92.97,1
14922,0,53262,57760,53219.84,57645.39,717.91,1001.25,42.16,114.61,-2.818088,-2.564731,-0.279706,-0.287127,0.698199,92.96,1
14963,0,53274,57771,53219.95,57645.64,717.91,1001.25,54.05,125.36,-2.818090,-2.564736,-0.279547,-0.286965,0.698749,92.94,1
15003,0,53282,57805,53220.07,57645.96,717.91,1001.25,61.93,159.04,-2.818093,-2.564741,-0.279388,-0.286805,0.699294,92.93,1
15042,0,53299,57818,53220.23,57646.30,717.91,1001.25,78.77,171.70,-2.818096,-2.564747,-0.279230,-0.286645,0.699836,92.92,1
15082,0,53289,57727,53220.37,57646.47,717.91,1001.25,68.63,80.53,-2.818098,-2.564750,-0.279072,-0.286482,0.700376,92.91,1
15123,0,53229,57584,53220.39,57646.34,717.91,1001.25,8.61,-62.34,-2.818099,-2.564748,-0.278911,-0.286314,0.700914,92.89,1
15162,0,53193,57546,53220.34,57646.14,717.91,1001.25,-27.34,-100.14,-2.818098,-2.564744,-0.278749,-0.286144,0.701448,92.88,1
15202,0,53194,57531,53220.29,57645.91,717.91,1001.25,-26.29,-114.91,-2.818097,-2.564741,-0.278588,-0.285975,0.701980,92.87,1
15242,0,53197,57529,53220.24,57645.68,717.91,1001.25,-23.24,-116.68,-2.818096,-2.564737,-0.278426,-0.285805,0.702508,92.85,1
15282,0,53205,57532,53220.21,57645.46,717.91,1001.25,-15.21,-113.46,-2.818095,-2.564733,-0.278265,-0.285636,0.703033,92.84,1
15323,0,53215,57547,53220.20,57645.26,717.91,1001.25,-5.20,-98.26,-2.818095,-2.564729,-0.278105,-0.285467,0.703555,92.83,1
15361,0,53221,57548,53220.21,57645.07,717.91,1001.25,0.79,-97.07,-2.818095,-2.564726,-0.277944,-0.285299,0.704074,92.82,1
15404,0,53226,57564,53220.22,57644.91,717.91,1001.25,5.78,-80.91,-2.818095,-2.564723,-0.277785,-0.285131,0.704591,92.80,1
15443,0,53231,57566,53220.24,57644.75,717.91,1001.25,10.76,-78.75,-2.818096,-2.564720,-0.277625,-0.284963,0.705105,92.79,1
15483,0,53237,57561,53220.28,57644.59,717.91,1001.25,16.72,-83.59,-2.818097,-2.564718,-0.277466,-0.284796,0.705616,92.78,1
15524,0,53239,57579,53220.32,57644.46,717.91,1001.25,18.68,-65.46,-2.818097,-2.564715,-0.277307,-0.284629,0.706126,92.76,1
15563,0,53253,57615,53220.38,57644.40,717.91,1001.25,32.62,-29.40,-2.818099,-2.564714,-0.277148,-0.284463,0.706634,92.75,1
15603,0,53272,57652,53220.49,57644.42,717.91,1001.25,51.51,7.58,-2.818100,-2.564715,-0.276990,-0.284299,0.707141,92.74,1
15643,0,53290,57671,53220.63,57644.47,717.91,1001.25,69.37,26.53,-2.818103,-2.564716,-0.276833,-0.284136,0.707648,92.73,1
15683,0,53303,57692,53220.80,57644.57,717.91,1001.25,82.20,47.43,-2.818106,-2.564717,-0.276677,-0.283973,0.708154,92.71,1
15723,0,53310,57674,53220.98,57644.63,717.91,1001.25,89.02,29.37,-2.818110,-2.564718,-0.276521,-0.283810,0.708661,92.70,1
15763,0,53279,57539,53221.09,57644.42,717.91,1001.25,57.91,-105.42,-2.818112,-2.564715,-0.276364,-0.283642,0.709165,92.69,1
15804,0,53214,57435,53221.08,57644.00,717.91,1001.25,-7.08,-209.00,-2.818112,-2.564707,-0.276205,-0.283471,0.709660,92.67,1
15843,0,53181,57400,53221.00,57643.51,717.91,1001.25,-40.00,-243.51,-2.818110,-2.564699,-0.276044,-0.283299,0.710146,92.66,1
15884,0,53198,57418,53220.96,57643.06,717.91,1001.25,-22.96,-225.06,-2.818109,-2.564691,-0.275884,-0.283127,0.710622,92.65,1
15923,0,53211,57421,53220.94,57642.62,717.91,1001.25,-9.94,-221.62,-2.818109,-2.564683,-0.275725,-0.282956,0.711088,92.64,1
15963,0,53221,57414,53220.94,57642.16,717.91,1001.25,0.06,-228.16,-2.818109,-2.564676,-0.275567,-0.282784,0.711545,92.62,1
16004,0,53228,57422,53220.96,57641.73,717.91,1001.25,7.04,-219.73,-2.818109,-2.564668,-0.275408,-0.282613,0.711993,92.61,1
16044,0,53231,57412,53220.98,57641.27,717.91,1001.25,10.02,-229.27,-2.818110,-2.564660,-0.275250,-0.282442,0.712432,92.60,1
16083,0,53238,57419,53221.01,57640.83,717.91,1001.25,16.99,-221.83,-2.818110,-2.564652,-0.275092,-0.282272,0.712861,92.58,1
16123,0,53242,57425,53221.05,57640.40,717.91,1001.25,20.95,-215.40,-2.818111,-2.564645,-0.274935,-0.282101,0.713282,92.57,1
16163,0,53248,57456,53221.11,57640.03,717.91,1001.25,26.89,-184.03,-2.818112,-2.564638,-0.274778,-0.281932,0.713696,92.56,1
16205,0,53267,57447,53221.20,57639.65,717.91,1001.25,45.80,-192.65,-2.818114,-2.564632,-0.274622,-0.281762,0.714104,92.55,1
16243,0,53257,57496,53221.28,57639.36,717.91,1001.25,35.72,-143.36,-2.818115,-2.564627,-0.274465,-0.281595,0.714507,92.54,1
16283,0,53300,57534,53221.44,57639.15,717.91,1001.25,78.56,-105.15,-2.818118,-2.564623,-0.274310,-0.281429,0.714909,92.52,1
16324,0,53299,57534,53221.59,57638.95,717.91,1001.25,77.41,-104.95,-2.818121,-2.564620,-0.274155,-0.281263,0.715310,92.51,1
16363,0,53307,57554,53221.77,57638.78,717.91,1001.25,85.23,-84.78,-2.818125,-2.564617,-0.274001,-0.281097,0.715710,92.50,1
16403,0,53304,57464,53221.93,57638.43,717.91,1001.25,82.07,-174.43,-2.818128,-2.564611,-0.273846,-0.280929,0.716106,92.49,1
16444,0,53235,57283,53221.96,57637.72,717.91,1001.25,13.04,-354.72,-2.818128,-2.564598,-0.273689,-0.280754,0.716480,92.47,1
16484,0,53179,57197,53221.87,57636.84,717.91,1001.25,-42.87,-439.84,-2.818126,-2.564583,-0.273530,-0.280577,0.716822,92.46,1
16525,0,53174,57188,53221.78,57635.95,717.91,1001.25,-47.78,-447.95,-2.818125,-2.564568,-0.273371,-0.280400,0.717132,92.45,1
16564,0,53186,57183,53221.71,57635.04,717.91,1001.25,-35.71,-452.04,-2.818123,-2.564552,-0.273213,-0.280222,0.717410,92.44,1
16600,0,53187,57174,53221.64,57634.12,717.91,1001.25,-34.64,-460.12,-2.818122,-2.564536,-0.273055,-0.280044,0.717656,92.43,1
16644,0,53196,57193,53221.59,57633.24,717.91,1001.25,-25.59,-440.24,-2.818121,-2.564521,-0.272897,-0.279868,0.717874,92.42,1
16685,0,53220,57213,53221.59,57632.40,717.91,1001.25,-1.59,-419.40,-2.818121,-2.564506,-0.272740,-0.279692,0.718066,92.41,1
16724,0,53225,57211,53221.60,57631.56,717.91,1001.25,3.40,-420.56,-2.818121,-2.564492,-0.272583,-0.279516,0.718233,92.40,1
16764,0,53246,57260,53221.65,57630.82,717.91,1001.25,24.35,-370.82,-2.818122,-2.564479,-0.272427,-0.279342,0.718381,92.38,1
16804,0,53263,57276,53221.73,57630.11,717.91,1001.25,41.27,-354.11,-2.818124,-2.564466,-0.272273,-0.279168,0.718512,92.37,1
16844,0,53268,57298,53221.83,57629.45,717.91,1001.25,46.17,-331.45,-2.818126,-2.564455,-0.272118,-0.278996,0.718629,92.36,1
16884,0,53299,57345,53221.98,57628.88,717.91,1001.25,77.02,-283.88,-2.818129,-2.564445,-0.271964,-0.278825,0.718736,92.35,1
16924,0,53319,57376,53222.18,57628.37,717.91,1001.25,96.82,-252.37,-2.818132,-2.564436,-0.271812,-0.278656,0.718838,92.34,1
16964,0,53343,57414,53222.42,57627.95,717.91,1001.25,120.58,-213.95,-2.818137,-2.564429,-0.271660,-0.278488,0.718937,92.33,1
17004,0,53361,57434,53222.70,57627.56,717.91,1001.25,138.30,-193.56,-2.818142,-2.564422,-0.271510,-0.278320,0.719035,92.33,1
17044,0,53375,57468,53223.00,57627.25,717.91,1001.25,152.00,-159.25,-2.818148,-2.564417,-0.271359,-0.278154,0.719137,92.32,1
17084,0,53391,57447,53223.34,57626.89,717.91,1001.25,167.66,-179.89,-2.818154,-2.564410,-0.271210,-0.277988,0.719242,92.31,1
17124,0,53351,57270,53223.60,57626.18,717.91,1001.25,127.40,-356.18,-2.818159,-2.564398,-0.271059,-0.277815,0.719333,92.30,1
17165,0,53276,57151,53223.70,57625.23,717.91,1001.25,52.30,-474.23,-2.818161,-2.564382,-0.270905,-0.277639,0.719396,92.29,1
17204,0,53269,57120,53223.80,57624.22,717.91,1001.25,45.20,-504.22,-2.818163,-2.564364,-0.270751,-0.277461,0.719427,92.28,1
17244,0,53281,57125,53223.91,57623.22,717.91,1001.25,57.09,-498.22,-2.818165,-2.564347,-0.270598,-0.277284,0.719427,92.27,1
17283,0,53287,57106,53224.04,57622.19,717.91,1001.25,62.96,-516.19,-2.818167,-2.564329,-0.270445,-0.277106,0.719397,92.27,1
17325,0,53292,57105,53224.18,57621.16,717.91,1001.25,67.82,-516.16,-2.818170,-2.564311,-0.270293,-0.276929,0.719338,92.26,1
17364,0,53308,57139,53224.35,57620.20,717.91,1001.25,83.65,-481.20,-2.818173,-2.564294,-0.270141,-0.276753,0.719254,92.25,1
17405,0,53322,57147,53224.54,57619.25,717.91,1001.25,97.46,-472.25,-2.818177,-2.564278,-0.269989,-0.276577,0.719149,92.24,1
17445,0,53329,57151,53224.75,57618.32,717.91,1001.25,104.25,-467.32,-2.818181,-2.564262,-0.269838,-0.276401,0.719024,92.24,1
17486,0,53338,57170,53224.98,57617.43,717.91,1001.25,113.02,-447.43,-2.818185,-2.564246,-0.269688,-0.276227,0.718882,92.23,1
17525,0,53344,57169,53225.22,57616.53,717.91,1001.25,118.78,-447.53,-2.818189,-2.564231,-0.269537,-0.276052,0.718723,92.23,1
17566,0,53354,57210,53225.48,57615.72,717.91,1001.25,128.52,-405.72,-2.818194,-2.564217,-0.269388,-0.275879,0.718552,92.22,1
17605,0,53374,57237,53225.77,57614.96,717.91,1001.25,148.23,-377.96,-2.818200,-2.564204,-0.269239,-0.275707,0.718374,92.21,1
17645,0,53392,57275,53226.11,57614.28,717.91,1001.25,165.89,-339.28,-2.818206,-2.564192,-0.269090,-0.275537,0.718192,92.21,1
17685,0,53416,57299,53226.49,57613.65,717.91,1001.25,189.51,-314.65,-2.818213,-2.564181,-0.268943,-0.275367,0.718011,92.20,1
17726,0,53426,57324,53226.89,57613.07,717.91,1001.25,199.11,-289.07,-2.818221,-2.564171,-0.268797,-0.275199,0.717832,92.20,1
17765,0,53444,57346,53227.33,57612.54,717.91,1001.25,216.67,-266.54,-2.818229,-2.564162,-0.268651,-0.275031,0.717659,92.20,1
17805,0,53446,57293,53227.77,57611.91,717.91,1001.25,218.23,-318.91,-2.818237,-2.564150,-0.268505,-0.274862,0.717490,92.19,1
17846,0,53390,57084,53228.09,57610.85,717.91,1001.25,161.91,-526.85,-2.818243,-2.564132,-0.268357,-0.274685,0.717300,92.19,1
17886,0,53316,56989,53228.27,57609.61,717.91,1001.25,87.73,-620.61,-2.818247,-2.564111,-0.268206,-0.274506,0.717077,92.18,1
17925,0,53310,56962,53228.43,57608.32,717.91,1001.25,81.57,-646.32,-2.818250,-2.564088,-0.268056,-0.274325,0.716818,92.18,1
17966,0,53315,56954,53228.61,57607.01,717.91,1001.25,86.39,-653.01,-2.818253,-2.564065,-0.267905,-0.274145,0.716525,92.18,1
18006,0,53329,56957,53228.81,57605.71,717.91,1001.25,100.19,-648.71,-2.818257,-2.564043,-0.267756,-0.273965,0.716200,92.18,1
18045,0,53333,56958,53229.02,57604.42,717.91,1001.25,103.98,-646.42,-2.818261,-2.564020,-0.267606,-0.273785,0.715846,92.17,1
18088,0,53340,56986,53229.24,57603.18,717.91,1001.25,110.76,-617.18,-2.818265,-2.563999,-0.267457,-0.273606,0.715467,92.17,1
18124,0,53355,56997,53229.50,57601.97,717.91,1001.25,125.50,-604.97,-2.818270,-2.563978,-0.267308,-0.273427,0.715067,92.17,1
18166,0,53360,56996,53229.76,57600.76,717.91,1001.25,130.24,-604.76,-2.818275,-2.563957,-0.267160,-0.273249,0.714646,92.17,1
18206,0,53365,57003,53230.03,57599.57,717.91,1001.25,134.97,-596.57,-2.818280,-2.563936,-0.267012,-0.273071,0.714206,92.17,1
18245,0,53373,57017,53230.32,57598.40,717.91,1001.25,142.68,-581.40,-2.818285,-2.563916,-0.266865,-0.272894,0.713750,92.17,1
18286,0,53389,57042,53230.64,57597.29,717.91,1001.25,158.36,-555.29,-2.818291,-2.563897,-0.266718,-0.272718,0.713281,92.17,1
18325,0,53402,57069,53230.98,57596.24,717.91,1001.25,171.02,-527.24,-2.818298,-2.563879,-0.266571,-0.272543,0.712803,92.17,1
18365,0,53413,57091,53231.35,57595.23,717.91,1001.25,181.65,-504.23,-2.818305,-2.563861,-0.266425,-0.272369,0.712319,92.17,1
18407,0,53428,57120,53231.75,57594.28,717.91,1001.25,196.25,-474.28,-2.818312,-2.563844,-0.266280,-0.272196,0.711831,92.17,1
18447,0,53437,57115,53232.16,57593.32,717.91,1001.25,204.84,-478.32,-2.818320,-2.563828,-0.266135,-0.272023,0.711340,92.17,1
18488,0,53427,57059,53232.55,57592.26,717.91,1001.25,194.45,-533.26,-2.818327,-2.563809,-0.265990,-0.271849,0.710843,92.17,1
18527,0,53378,56877,53232.84,57590.83,717.91,1001.25,145.16,-713.83,-2.818333,-2.563785,-0.265844,-0.271668,0.710321,92.18,1
18566,0,53313,56776,53233.00,57589.20,717.91,1001.25,80.00,-813.20,-2.818336,-2.563756,-0.265694,-0.271483,0.709766,92.18,1
18606,0,53303,56770,53233.14,57587.56,717.91,1001.25,69.86,-817.56,-2.818338,-2.563728,-0.265545,-0.271299,0.709179,92.18,1
18646,0,53314,56781,53233.30,57585.95,717.91,1001.25,80.70,-804.95,-2.818341,-2.563700,-0.265396,-0.271115,0.708562,92.18,1
18685,0,53324,56781,53233.49,57584.34,717.91,1001.25,90.51,-803.34,-2.818345,-2.563672,-0.265247,-0.270932,0.707918,92.19,1
18726,0,53336,56804,53233.70,57582.78,717.91,1001.25,102.30,-778.78,-2.818349,-2.563645,-0.265099,-0.270749,0.707250,92.19,1
18767,0,53353,56830,53233.93,57581.28,717.91,1001.25,119.07,-751.28,-2.818353,-2.563619,-0.264952,-0.270567,0.706563,92.20,1
18807,0,53363,56863,53234.19,57579.84,717.91,1001.25,128.81,-716.84,-2.818358,-2.563594,-0.264805,-0.270387,0.705861,92.20,1
18846,0,53386,56898,53234.50,57578.48,717.91,1001.25,151.50,-680.48,-2.818364,-2.563570,-0.264659,-0.270208,0.705146,92.21,1
18887,0,53394,56916,53234.82,57577.16,717.91,1001.25,159.18,-661.16,-2.818370,-2.563547,-0.264514,-0.270030,0.704422,92.21,1
18926,0,53412,56943,53235.17,57575.89,717.91,1001.25,176.83,-632.89,-2.818376,-2.563525,-0.264369,-0.269853,0.703690,92.22,1
18967,0,53432,56972,53235.57,57574.68,717.91,1001.25,196.43,-602.68,-2.818384,-2.563504,-0.264225,-0.269677,0.702955,92.22,1
19006,0,53448,57007,53235.99,57573.55,717.91,1001.25,212.01,-566.55,-2.818392,-2.563484,-0.264082,-0.269503,0.702220,92.23,1
19046,0,53457,57023,53236.44,57572.45,717.91,1001.25,220.56,-549.45,-2.818400,-2.563465,-0.263940,-0.269329,0.701486,92.24,1
19087,0,53471,57056,53236.91,57571.42,717.91,1001.25,234.09,-515.42,-2.818409,-2.563447,-0.263797,-0.269157,0.700755,92.24,1
19126,0,53477,57063,53237.39,57570.40,717.91,1001.25,239.61,-507.40,-2.818418,-2.563430,-0.263656,-0.268985,0.700029,92.25,1
19166,0,53459,56915,53237.83,57569.09,717.91,1001.25,221.17,-654.09,-2.818426,-2.563407,-0.263513,-0.268808,0.699299,92.26,1
19207,0,53379,56740,53238.12,57567.44,717.91,1001.25,140.88,-827.44,-2.818432,-2.563378,-0.263368,-0.268625,0.698551,92.27,1
19246,0,53336,56686,53238.31,57565.68,717.91,1001.25,97.69,-879.68,-2.818435,-2.563348,-0.263221,-0.268440,0.697781,92.28,1
19287,0,53337,56696,53238.51,57563.94,717.91,1001.25,98.49,-867.94,-2.818439,-2.563318,-0.263074,-0.268256,0.696990,92.29,1
19326,0,53340,56695,53238.71,57562.20,717.91,1001.25,101.29,-867.20,-2.818443,-2.563287,-0.262927,-0.268072,0.696180,92.30,1
19367,0,53343,56708,53238.93,57560.49,717.91,1001.25,104.07,-852.49,-2.818447,-2.563258,-0.262781,-0.267889,0.695353,92.30,1
19407,0,53363,56746,53239.18,57558.86,717.91,1001.25,123.82,-812.86,-2.818452,-2.563229,-0.262635,-0.267707,0.694512,92.31,1
19448,0,53377,56764,53239.45,57557.27,717.91,1001.25,137.55,-793.27,-2.818457,-2.563202,-0.262490,-0.267526,0.693659,92.33,1
19488,0,53386,56776,53239.75,57555.71,717.91,1001.25,146.25,-779.71,-2.818462,-2.563174,-0.262346,-0.267345,0.692797,92.34,1
19528,0,53400,56813,53240.07,57554.23,717.91,1001.25,159.93,-741.23,-2.818468,-2.563149,-0.262202,-0.267166,0.691927,92.35,1
19567,0,53415,56828,53240.42,57552.78,717.91,1001.25,174.58,-724.78,-2.818475,-2.563124,-0.262059,-0.266988,0.691052,92.36,1
19607,0,53422,56874,53240.78,57551.42,717.91,1001.25,181.22,-677.42,-2.818482,-2.563100,-0.261916,-0.266812,0.690174,92.37,1
19644,0,53450,56920,53241.20,57550.16,717.91,1001.25,208.80,-630.16,-2.818490,-2.563078,-0.261774,-0.266637,0.689297,92.38,1
19684,0,53473,56959,53241.66,57548.98,717.91,1001.25,231.34,-589.98,-2.818498,-2.563058,-0.261633,-0.266464,0.688424,92.39,1
19725,0,53493,57002,53242.17,57547.89,717.91,1001.25,250.83,-545.89,-2.818508,-2.563039,-0.261493,-0.266292,0.687557,92.41,1
19767,0,53514,57065,53242.71,57546.92,717.91,1001.25,271.29,-481.92,-2.818518,-2.563022,-0.261354,-0.266123,0.686700,92.42,1
19808,0,53539,57085,53243.31,57546.00,717.91,1001.25,295.69,-461.00,-2.818529,-2.563006,-0.261216,-0.265954,0.685857,92.43,1
19848,0,53534,57002,53243.89,57544.91,717.91,1001.25,290.11,-542.91,-2.818540,-2.562987,-0.261077,-0.265783,0.685023,92.45,1
19887,0,53473,56812,53244.35,57543.45,717.91,1001.25,228.65,-731.45,-2.818549,-2.562962,-0.260937,-0.265605,0.684188,92.46,1
19928,0,53409,56721,53244.68,57541.80,717.91,1001.25,164.32,-820.80,-2.818555,-2.562933,-0.260794,-0.265425,0.683344,92.47,1
19968,0,53404,56719,53245.00,57540.16,717.91,1001.25,159.00,-821.16,-2.818561,-2.562904,-0.260651,-0.265244,0.682489,92.49,1
20007,0,53408,56717,53245.33,57538.52,717.91,1001.25,162.67,-821.52,-2.818567,-2.562876,-0.260509,-0.265064,0.681627,92.50,1
20047,0,53414,56737,53245.67,57536.91,717.91,1001.25,168.33,-799.91,-2.818574,-2.562848,-0.260366,-0.264884,0.680757,92.52,1
20088,0,53424,56761,53246.03,57535.36,717.91,1001.25,177.97,-774.36,-2.818580,-2.562821,-0.260224,-0.264706,0.679881,92.53,1
20127,0,53440,56797,53246.42,57533.89,717.91,1001.25,193.58,-736.89,-2.818588,-2.562795,-0.260083,-0.264529,0.679002,92.54,1
20167,0,53455,56810,53246.84,57532.44,717.91,1001.25,208.16,-722.44,-2.818595,-2.562770,-0.259942,-0.264352,0.678122,92.56,1
20203,0,53467,56841,53247.28,57531.06,717.91,1001.25,219.72,-690.06,-2.818604,-2.562746,-0.259802,-0.264177,0.677243,92.58,1
20247,0,53475,56860,53247.74,57529.72,717.91,1001.25,227.26,-669.72,-2.818612,-2.562723,-0.259663,-0.264002,0.676365,92.59,1
20287,0,53487,56881,53248.22,57528.42,717.91,1001.25,238.78,-647.42,-2.818621,-2.562700,-0.259523,-0.263829,0.675491,92.61,1
20327,0,53506,56950,53248.73,57527.27,717.91,1001.25,257.27,-577.27,-2.818631,-2.562680,-0.259385,-0.263658,0.674623,92.62,1
20368,0,53531,56983,53249.30,57526.18,717.91,1001.25,281.70,-543.18,-2.818642,-2.562661,-0.259247,-0.263488,0.673764,92.64,1
20408,0,53542,57026,53249.89,57525.18,717.91,1001.25,292.11,-499.18,-2.818653,-2.562644,-0.259111,-0.263320,0.672917,92.65,1
20449,0,53569,57063,53250.53,57524.26,717.91,1001.25,318.47,-461.26,-2.818665,-2.562628,-0.258975,-0.263154,0.672084,92.67,1
20489,0,53577,57095,53251.18,57523.40,717.91,1001.25,325.82,-428.40,-2.818677,-2.562613,-0.258839,-0.262988,0.671267,92.69,1
20529,0,53591,57127,53251.86,57522.61,717.91,1001.25,339.14,-395.61,-2.818690,-2.562599,-0.258704,-0.262824,0.670467,92.70,1
20569,0,53599,57078,53252.56,57521.72,717.91,1001.25,346.44,-443.72,-2.818703,-2.562584,-0.258570,-0.262659,0.669685,92.72,1
20609,0,53527,56873,53253.11,57520.43,717.91,1001.25,273.89,-647.43,-2.818713,-2.562561,-0.258433,-0.262486,0.668907,92.74,1
20648,0,53463,56779,53253.53,57518.95,717.91,1001.25,209.47,-739.95,-2.818721,-2.562536,-0.258293,-0.262310,0.668125,92.75,1
20688,0,53443,56771,53253.91,57517.45,717.91,1001.25,189.09,-746.45,-2.818728,-2.562510,-0.258153,-0.262134,0.667340,92.77,1
20728,0,53443,56790,53254.29,57516.00,717.91,1001.25,188.71,-726.00,-2.818735,-2.562484,-0.258013,-0.261959,0.666550,92.79,1
20768,0,53458,56806,53254.70,57514.58,717.91,1001.25,203.30,-708.58,-2.818743,-2.562460,-0.257873,-0.261785,0.665759,92.80,1
20810,0,53464,56829,53255.12,57513.21,717.91,1001.25,208.88,-684.21,-2.818751,-2.562436,-0.257734,-0.261612,0.664966,92.82,1
20848,0,53475,56853,53255.56,57511.89,717.91,1001.25,219.44,-658.89,-2.818759,-2.562413,-0.257596,-0.261439,0.664174,92.84,1
20887,0,53490,56857,53256.03,57510.58,717.91,1001.25,233.97,-653.58,-2.818768,-2.562390,-0.257457,-0.261267,0.663384,92.86,1
20927,0,53490,56880,53256.50,57509.32,717.91,1001.25,233.50,-629.32,-2.818777,-2.562368,-0.257319,-0.261096,0.662596,92.87,1
20967,0,53501,56901,53256.99,57508.11,717.91,1001.25,244.01,-607.11,-2.818786,-2.562347,-0.257182,-0.260926,0.661812,92.89,1
21007,0,53510,56926,53257.50,57506.94,717.91,1001.25,252.50,-580.94,-2.818796,-2.562327,-0.257045,-0.260756,0.661032,92.91,1
21048,0,53518,56976,53258.02,57505.88,717.91,1001.25,259.98,-529.88,-2.818805,-2.562309,-0.256908,-0.260589,0.660260,92.93,1
21087,0,53541,57012,53258.59,57504.90,717.91,1001.25,282.41,-492.90,-2.818816,-2.562291,-0.256772,-0.260423,0.659496,92.94,1
21128,0,53553,57051,53259.18,57503.99,717.91,1001.25,293.82,-452.99,-2.818827,-2.562276,-0.256637,-0.260259,0.658743,92.96,1
21167,0,53569,57081,53259.80,57503.15,717.91,1001.25,309.20,-422.15,-2.818839,-2.562261,-0.256503,-0.260096,0.658003,92.98,1
21208,0,53582,57115,53260.45,57502.37,717.91,1001.25,321.55,-387.37,-2.818851,-2.562248,-0.256368,-0.259934,0.657277,93.00,1
21247,0,53597,57145,53261.12,57501.66,717.91,1001.25,335.88,-356.66,-2.818864,-2.562235,-0.256235,-0.259773,0.656567,93.01,1
21289,0,53593,57096,53261.79,57500.85,717.91,1001.25,331.21,-404.85,-2.818876,-2.562221,-0.256101,-0.259611,0.655872,93.03,1
21329,0,53534,56913,53262.33,57499.68,717.91,1001.25,271.67,-586.68,-2.818887,-2.562201,-0.255966,-0.259442,0.655181,93.05,1
21369,0,53466,56813,53262.74,57498.30,717.91,1001.25,203.26,-685.30,-2.818894,-2.562177,-0.255828,-0.259270,0.654488,93.07,1
21408,0,53446,56813,53263.11,57496.94,717.91,1001.25,182.89,-683.94,-2.818901,-2.562153,-0.255689,-0.259099,0.653791,93.08,1
21449,0,53458,56826,53263.50,57495.60,717.91,1001.25,194.50,-669.60,-2.818908,-2.562129,-0.255551,-0.258927,0.653093,93.10,1
21489,0,53457,56838,53263.89,57494.29,717.91,1001.25,193.11,-656.29,-2.818916,-2.562107,-0.255412,-0.258757,0.652392,93.12,1
21528,0,53471,56864,53264.30,57493.03,717.91,1001.25,206.70,-629.03,-2.818923,-2.562085,-0.255275,-0.258587,0.651690,93.14,1
21569,0,53477,56882,53264.73,57491.81,717.91,1001.25,212.27,-609.81,-2.818931,-2.562064,-0.255137,-0.258419,0.650990,93.16,1
21608,0,53492,56914,53265.18,57490.66,717.91,1001.25,226.82,-576.66,-2.818940,-2.562044,-0.255001,-0.258251,0.650291,93.17,1
21648,0,53502,56940,53265.66,57489.55,717.91,1001.25,236.34,-549.55,-2.818949,-2.562025,-0.254864,-0.258085,0.649596,93.19,1
21689,0,53516,56962,53266.16,57488.50,717.91,1001.25,249.84,-526.50,-2.818958,-2.562006,-0.254729,-0.257920,0.648906,93.21,1
21729,0,53530,56993,53266.69,57487.51,717.91,1001.25,263.31,-494.51,-2.818968,-2.561989,-0.254593,-0.257755,0.648223,93.23,1
21769,0,53543,57029,53267.25,57486.60,717.91,1001.25,275.75,-457.60,-2.818979,-2.561973,-0.254459,-0.257592,0.647548,93.24,1
21808,0,53561,57071,53267.84,57485.77,717.91,1001.25,293.16,-414.77,-2.818990,-2.561959,-0.254325,-0.257431,0.646884,93.26,1
21850,0,53581,57104,53268.46,57485.01,717.91,1001.25,312.54,-381.01,-2.819002,-2.561945,-0.254192,-0.257271,0.646232,93.28,1
21890,0,53596,57131,53269.12,57484.30,717.91,1001.25,326.88,-353.30,-2.819014,-2.561933,-0.254060,-0.257112,0.645594,93.30,1
21929,0,53609,57168,53269.80,57483.67,717.91,1001.25,339.20,-315.67,-2.819027,-2.561922,-0.253928,-0.256954,0.644972,93.31,1
21970,0,53615,57174,53270.49,57483.05,717.91,1001.25,344.51,-309.05,-2.819040,-2.561911,-0.253796,-0.256797,0.644366,93.33,1
22009,0,53608,57096,53271.17,57482.28,717.91,1001.25,336.83,-386.28,-2.819052,-2.561898,-0.253665,-0.256637,0.643775,93.35,1
22050,0,53547,56924,53271.72,57481.16,717.91,1001.25,275.28,-557.16,-2.819063,-2.561878,-0.253531,-0.256472,0.643188,93.37,1
22089,0,53491,56849,53272.16,57479.90,717.91,1001.25,218.84,-630.90,-2.819071,-2.561857,-0.253395,-0.256304,0.642600,93.38,1
22129,0,53476,56843,53272.57,57478.63,717.91,1001.25,203.43,-635.63,-2.819079,-2.561834,-0.253258,-0.256136,0.642010,93.40,1
22169,0,53486,56851,53273.00,57477.37,717.91,1001.25,213.00,-626.37,-2.819087,-2.561813,-0.253122,-0.255968,0.641419,93.42,1
22210,0,53484,56860,53273.43,57476.14,717.91,1001.25,210.57,-616.14,-2.819095,-2.561791,-0.252986,-0.255801,0.640826,93.43,1
22250,0,53494,56863,53273.87,57474.91,717.91,1001.25,220.13,-611.91,-2.819103,-2.561770,-0.252851,-0.255633,0.640234,93.45,1
22290,0,53494,56880,53274.31,57473.73,717.91,1001.25,219.69,-593.73,-2.819111,-2.561749,-0.252715,-0.255467,0.639641,93.47,1
22330,0,53502,56879,53274.77,57472.54,717.91,1001.25,227.23,-593.54,-2.819120,-2.561728,-0.252580,-0.255301,0.639049,93.48,1
22370,0,53500,56882,53275.22,57471.36,717.91,1001.25,224.78,-589.36,-2.819128,-2.561708,-0.252445,-0.255135,0.638458,93.50,1
22410,0,53500,56898,53275.67,57470.21,717.91,1001.25,224.33,-572.21,-2.819137,-2.561688,-0.252310,-0.254970,0.637868,93.52,1
22451,0,53509,56922,53276.14,57469.12,717.91,1001.25,232.86,-547.12,-2.819145,-2.561669,-0.252175,-0.254806,0.637281,93.53,1
22490,0,53525,56949,53276.64,57468.08,717.91,1001.25,248.36,-519.08,-2.819155,-2.561651,-0.252041,-0.254643,0.636697,93.55,1
22530,0,53533,56960,53277.15,57467.07,717.91,1001.25,255.85,-507.07,-2.819165,-2.561633,-0.251907,-0.254480,0.636118,93.57,1
22569,0,53545,57001,53277.69,57466.14,717.91,1001.25,267.31,-465.14,-2.819175,-2.561617,-0.251774,-0.254319,0.635545,93.58,1
22609,0,53557,57023,53278.25,57465.25,717.91,1001.25,278.75,-442.25,-2.819185,-2.561602,-0.251642,-0.254159,0.634980,93.60,1
22650,0,53554,57008,53278.80,57464.34,717.91,1001.25,275.20,-456.34,-2.819196,-2.561586,-0.251509,-0.253998,0.634423,93.61,1
22691,0,53526,56871,53279.30,57463.15,717.91,1001.25,246.70,-592.15,-2.819205,-2.561565,-0.251375,-0.253833,0.633866,93.63,1
22730,0,53451,56732,53279.64,57461.69,717.91,1001.25,171.36,-729.69,-2.819211,-2.561540,-0.251239,-0.253664,0.633303,93.65,1
22770,0,53413,56689,53279.91,57460.15,717.91,1001.25,133.09,-771.15,-2.819216,-2.561513,-0.251101,-0.253492,0.632731,93.66,1
22810,0,53414,56693,53280.18,57458.62,717.91,1001.25,133.82,-765.62,-2.819221,-2.561486,-0.250964,-0.253322,0.632149,93.68,1
22851,0,53424,56707,53280.47,57457.12,717.91,1001.25,143.53,-750.12,-2.819227,-2.561460,-0.250826,-0.253151,0.631559,93.70,1
22890,0,53425,56724,53280.76,57455.65,717.91,1001.25,144.24,-731.65,-2.819232,-2.561435,-0.250689,-0.252982,0.630962,93.71,1
22930,0,53436,56757,53281.07,57454.26,717.91,1001.25,154.93,-697.26,-2.819238,-2.561410,-0.250553,-0.252814,0.630360,93.73,1
22971,0,53446,56761,53281.40,57452.87,717.91,1001.25,164.60,-691.87,-2.819244,-2.561386,-0.250417,-0.252646,0.629753,93.74,1
23010,0,53443,56772,53281.73,57451.51,717.91,1001.25,161.27,-679.51,-2.819250,-2.561363,-0.250280,-0.252479,0.629141,93.76,1
23049,0,53446,56780,53282.05,57450.17,717.91,1001.25,163.95,-670.17,-2.819257,-2.561339,-0.250144,-0.252312,0.628526,93.77,1
23090,0,53456,56806,53282.40,57448.89,717.91,1001.25,173.60,-642.89,-2.819263,-2.561317,-0.250009,-0.252146,0.627908,93.79,1
23130,0,53467,56836,53282.77,57447.66,717.91,1001.25,184.23,-611.66,-2.819270,-2.561296,-0.249874,-0.251981,0.627288,93.81,1
23171,0,53477,56864,53283.16,57446.50,717.91,1001.25,193.84,-582.50,-2.819278,-2.561275,-0.249739,-0.251818,0.626668,93.82,1
23209,0,53493,56911,53283.59,57445.43,717.91,1001.25,209.41,-534.43,-2.819285,-2.561257,-0.249605,-0.251656,0.626050,93.84,1
23251,0,53501,56940,53284.02,57444.42,717.91,1001.25,216.98,-504.42,-2.819293,-2.561239,-0.249472,-0.251496,0.625436,93.85,1
23290,0,53512,56957,53284.48,57443.45,717.91,1001.25,227.52,-486.45,-2.819302,-2.561222,-0.249339,-0.251336,0.624825,93.87,1
23331,0,53506,56877,53284.93,57442.32,717.91,1001.25,221.07,-565.32,-2.819310,-2.561203,-0.249206,-0.251173,0.624215,93.89,1
23371,0,53430,56713,53285.22,57440.86,717.91,1001.25,144.78,-727.86,-2.819316,-2.561177,-0.249070,-0.251005,0.623600,93.90,1
23411,0,53379,56667,53285.41,57439.31,717.91,1001.25,93.59,-772.31,-2.819319,-2.561150,-0.248932,-0.250835,0.622976,93.92,1
23451,0,53368,56660,53285.57,57437.75,717.91,1001.25,82.43,-777.75,-2.819323,-2.561123,-0.248794,-0.250666,0.622342,93.93,1
23491,0,53372,56673,53285.75,57436.23,717.91,1001.25,86.25,-763.23,-2.819326,-2.561096,-0.248656,-0.250497,0.621700,93.95,1
23532,0,53379,56677,53285.94,57434.71,717.91,1001.25,93.06,-757.71,-2.819330,-2.561070,-0.248518,-0.250328,0.621050,93.96,1
23571,0,53378,56712,53286.12,57433.27,717.91,1001.25,91.88,-721.27,-2.819333,-2.561045,-0.248380,-0.250161,0.620393,93.98,1
23611,0,53401,56753,53286.35,57431.91,717.91,1001.25,114.65,-678.91,-2.819337,-2.561021,-0.248244,-0.249995,0.619731,94.00,1
23652,0,53409,56775,53286.60,57430.59,717.91,1001.25,122.40,-655.59,-2.819342,-2.560998,-0.248108,-0.249830,0.619065,94.01,1
23691,0,53414,56809,53286.86,57429.35,717.91,1001.25,127.14,-620.35,-2.819347,-2.560977,-0.247972,-0.249667,0.618396,94.03,1
23731,0,53434,56840,53287.15,57428.18,717.91,1001.25,146.85,-588.18,-2.819352,-2.560956,-0.247837,-0.249504,0.617726,94.04,1
23771,0,53439,56873,53287.46,57427.07,717.91,1001.25,151.54,-554.07,-2.819358,-2.560937,-0.247702,-0.249343,0.617056,94.06,1
23811,0,53465,56927,53287.81,57426.07,717.91,1001.25,177.19,-499.07,-2.819365,-2.560920,-0.247568,-0.249184,0.616387,94.08,1
23851,0,53480,56977,53288.20,57425.17,717.91,1001.25,191.80,-448.17,-2.819372,-2.560904,-0.247435,-0.249027,0.615721,94.09,1
23891,0,53500,57019,53288.62,57424.36,717.91,1001.25,211.37,-405.36,-2.819380,-2.560890,-0.247302,-0.248872,0.615061,94.11,1
23929,0,53517,57071,53289.08,57423.65,717.91,1001.25,227.92,-352.65,-2.819389,-2.560877,-0.247171,-0.248718,0.614407,94.12,1
23972,0,53537,57105,53289.58,57423.01,717.91,1001.25,247.42,-318.01,-2.819398,-2.560866,-0.247040,-0.248566,0.613762,94.14,1
24011,0,53540,57055,53290.08,57422.28,717.91,1001.25,249.92,-367.28,-2.819407,-2.560853,-0.246909,-0.248412,0.613125,94.15,1
24050,0,53479,56914,53290.46,57421.26,717.91,1001.25,188.54,-507.26,-2.819414,-2.560836,-0.246776,-0.248253,0.612489,94.17,1
24090,0,53419,56844,53290.72,57420.11,717.91,1001.25,128.28,-576.11,-2.819419,-2.560816,-0.246641,-0.248093,0.611852,94.19,1
24131,0,53412,56858,53290.96,57418.99,717.91,1001.25,121.04,-560.99,-2.819424,-2.560796,-0.246506,-0.247932,0.611212,94.20,1
24173,0,53420,56859,53291.22,57417.87,717.91,1001.25,128.78,-558.87,-2.819429,-2.560777,-0.246371,-0.247772,0.610571,94.22,1
24212,0,53412,56869,53291.46,57416.77,717.91,1001.25,120.54,-547.77,-2.819433,-2.560758,-0.246236,-0.247613,0.609927,94.23,1
24252,0,53424,56902,53291.73,57415.75,717.91,1001.25,132.27,-513.75,-2.819438,-2.560740,-0.246101,-0.247454,0.609284,94.25,1
24292,0,53433,56933,53292.01,57414.78,717.91,1001.25,140.99,-481.78,-2.819443,-2.560723,-0.245967,-0.247297,0.608640,94.27,1
24332,0,53439,56964,53292.31,57413.88,717.91,1001.25,146.69,-449.88,-2.819449,-2.560707,-0.245833,-0.247141,0.607998,94.28,1
24372,0,53450,57004,53292.62,57413.07,717.91,1001.25,157.37,-409.07,-2.819455,-2.560693,-0.245700,-0.246987,0.607358,94.30,1
24412,0,53468,57029,53292.98,57412.30,717.91,1001.25,175.02,-383.30,-2.819462,-2.560680,-0.245567,-0.246833,0.606721,94.31,1
24454,0,53467,57051,53293.32,57411.58,717.91,1001.25,173.68,-360.58,-2.819468,-2.560667,-0.245435,-0.246681,0.606088,94.33,1
24492,0,53490,57101,53293.72,57410.96,717.91,1001.25,196.28,-309.96,-2.819476,-2.560656,-0.245303,-0.246530,0.605460,94.35,1
24532,0,53510,57149,53294.15,57410.43,717.91,1001.25,215.85,-261.43,-2.819484,-2.560647,-0.245172,-0.246381,0.604840,94.36,1
24572,0,53524,57194,53294.61,57410.00,717.91,1001.25,229.39,-216.00,-2.819492,-2.560640,-0.245042,-0.246234,0.604228,94.38,1
24613,0,53538,57233,53295.10,57409.65,717.91,1001.25,242.90,-176.65,-2.819501,-2.560634,-0.244912,-0.246089,0.603626,94.39,1
24652,0,53559,57283,53295.63,57409.40,717.91,1001.25,263.37,-126.40,-2.819511,-2.560629,-0.244784,-0.245945,0.603036,94.41,1
24692,0,53575,57297,53296.19,57409.18,717.91,1001.25,278.81,-112.18,-2.819522,-2.560625,-0.244655,-0.245802,0.602458,94.43,1
24732,0,53554,57197,53296.70,57408.76,717.91,1001.25,257.30,-211.76,-2.819531,-2.560618,-0.244527,-0.245655,0.601891,94.44,1
24773,0,53499,57093,53297.11,57408.13,717.91,1001.25,201.89,-315.13,-2.819539,-2.560607,-0.244396,-0.245505,0.601329,94.46,1
24812,0,53465,57066,53297.45,57407.45,717.91,1001.25,167.55,-341.45,-2.819546,-2.560595,-0.244264,-0.245354,0.600771,94.47,1
24852,0,53464,57080,53297.78,57406.79,717.91,1001.25,166.22,-326.79,-2.819552,-2.560584,-0.244132,-0.245203,0.600216,94.49,1
24892,0,53465,57078,53298.12,57406.14,717.91,1001.25,166.88,-328.14,-2.819558,-2.560572,-0.244000,-0.245053,0.599664,94.50,1
24933,0,53472,57092,53298.46,57405.51,717.91,1001.25,173.54,-313.51,-2.819565,-2.560561,-0.243868,-0.244903,0.599116,94.52,1
24971,0,53475,57104,53298.82,57404.91,717.91,1001.25,176.18,-300.91,-2.819571,-2.560551,-0.243737,-0.244754,0.598572,94.54,1
25011,0,53486,57134,53299.20,57404.37,717.91,1001.25,186.80,-270.37,-2.819578,-2.560542,-0.243606,-0.244606,0.598034,94.55,1
25052,0,53485,57145,53299.57,57403.86,717.91,1001.25,185.43,-258.86,-2.819585,-2.560533,-0.243475,-0.244459,0.597501,94.57,1
25092,0,53488,57170,53299.95,57403.39,717.91,1001.25,188.05,-233.39,-2.819592,-2.560524,-0.243344,-0.244312,0.596973,94.58,1
25131,0,53495,57180,53300.34,57402.95,717.91,1001.25,194.66,-222.95,-2.819600,-2.560517,-0.243214,-0.244166,0.596452,94.60,1
25175,0,53495,57215,53300.73,57402.57,717.91,1001.25,194.27,-187.57,-2.819607,-2.560510,-0.243083,-0.244021,0.595937,94.61,1
25213,0,53512,57245,53301.15,57402.26,717.91,1001.25,210.85,-157.26,-2.819615,-2.560505,-0.242954,-0.243878,0.595430,94.63,1
25254,0,53529,57282,53301.61,57402.02,717.91,1001.25,227.39,-120.02,-2.819623,-2.560501,-0.242825,-0.243735,0.594932,94.64,1
25293,0,53538,57314,53302.08,57401.84,717.91,1001.25,235.92,-87.84,-2.819633,-2.560498,-0.242696,-0.243594,0.594444,94.66,1
25334,0,53547,57342,53302.57,57401.73,717.91,1001.25,244.43,-59.73,-2.819642,-2.560496,-0.242568,-0.243454,0.593966,94.67,1
25373,0,53564,57390,53303.10,57401.70,717.91,1001.25,260.90,-11.70,-2.819652,-2.560495,-0.242441,-0.243316,0.593500,94.69,1
25413,0,53578,57398,53303.65,57401.70,717.91,1001.25,274.35,-3.70,-2.819662,-2.560495,-0.242314,-0.243178,0.593048,94.70,1
25454,0,53575,57356,53304.19,57401.61,717.91,1001.25,270.81,-45.61,-2.819672,-2.560493,-0.242187,-0.243039,0.592608,94.72,1
25493,0,53518,57227,53304.62,57401.26,717.91,1001.25,213.38,-174.26,-2.819680,-2.560487,-0.242058,-0.242896,0.592176,94.73,1
25534,0,53472,57173,53304.96,57400.80,717.91,1001.25,167.04,-227.80,-2.819686,-2.560479,-0.241928,-0.242750,0.591748,94.74,1
25574,0,53463,57156,53305.27,57400.32,717.91,1001.25,157.73,-244.32,-2.819692,-2.560471,-0.241797,-0.242605,0.591324,94.76,1
25613,0,53460,57169,53305.59,57399.86,717.91,1001.25,154.41,-230.86,-2.819698,-2.560463,-0.241666,-0.242459,0.590903,94.77,1
25654,0,53467,57164,53305.91,57399.39,717.91,1001.25,161.09,-235.39,-2.819704,-2.560455,-0.241535,-0.242314,0.590487,94.79,1
25692,0,53474,57176,53306.25,57398.94,717.91,1001.25,167.75,-222.94,-2.819710,-2.560447,-0.241405,-0.242169,0.590074,94.80,1
25733,0,53482,57189,53306.60,57398.52,717.91,1001.25,175.40,-209.52,-2.819717,-2.560440,-0.241275,-0.242025,0.589666,94.81,1
25774,0,53483,57198,53306.95,57398.12,717.91,1001.25,176.05,-200.12,-2.819724,-2.560433,-0.241145,-0.241881,0.589264,94.83,1
25813,0,53481,57206,53307.30,57397.74,717.91,1001.25,173.70,-191.74,-2.819730,-2.560426,-0.241016,-0.241738,0.588866,94.84,1
25854,0,53484,57210,53307.66,57397.37,717.91,1001.25,176.34,-187.37,-2.819737,-2.560420,-0.240886,-0.241594,0.588474,94.85,1
25894,0,53492,57232,53308.03,57397.04,717.91,1001.25,183.97,-165.04,-2.819744,-2.560414,-0.240757,-0.241452,0.588088,94.87,1
25933,0,53498,57249,53308.41,57396.75,717.91,1001.25,189.59,-147.75,-2.819751,-2.560409,-0.240628,-0.241310,0.587708,94.88,1
25973,0,53500,57270,53308.79,57396.49,717.91,1001.25,191.21,-126.49,-2.819758,-2.560404,-0.240499,-0.241170,0.587335,94.89,1
26013,0,53508,57291,53309.19,57396.28,717.91,1001.25,198.81,-105.28,-2.819766,-2.560401,-0.240371,-0.241030,0.586969,94.91,1
26053,0,53516,57303,53309.61,57396.10,717.91,1001.25,206.39,-93.10,-2.819774,-2.560397,-0.240243,-0.240890,0.586611,94.92,1
26094,0,53525,57325,53310.04,57395.96,717.91,1001.25,214.96,-70.96,-2.819782,-2.560395,-0.240115,-0.240752,0.586262,94.93,1
26130,0,53517,57306,53310.45,57395.78,717.91,1001.25,206.55,-89.78,-2.819789,-2.560392,-0.239987,-0.240612,0.585921,94.95,1
26172,0,53496,57203,53310.82,57395.39,717.91,1001.25,185.18,-192.39,-2.819796,-2.560385,-0.239859,-0.240470,0.585586,94.96,1
26214,0,53433,57095,53311.07,57394.80,717.91,1001.25,121.93,-299.80,-2.819801,-2.560375,-0.239728,-0.240323,0.585251,94.97,1
26254,0,53403,57060,53311.25,57394.13,717.91,1001.25,91.75,-334.13,-2.819804,-2.560363,-0.239596,-0.240176,0.584915,94.98,1
26294,0,53397,57057,53311.43,57393.46,717.91,1001.25,85.57,-336.46,-2.819808,-2.560351,-0.239463,-0.240029,0.584578,94.99,1
26333,0,53397,57048,53311.60,57392.77,717.91,1001.25,85.40,-344.77,-2.819811,-2.560339,-0.239331,-0.239881,0.584238,95.01,1
26374,0,53396,57064,53311.77,57392.11,717.91,1001.25,84.23,-328.11,-2.819814,-2.560328,-0.239200,-0.239734,0.583898,95.02,1
26413,0,53407,57076,53311.96,57391.48,717.91,1001.25,95.04,-315.48,-2.819818,-2.560317,-0.239068,-0.239588,0.583556,95.03,1
26457,0,53403,57079,53312.14,57390.86,717.91,1001.25,90.86,-311.86,-2.819821,-2.560306,-0.238936,-0.239441,0.583214,95.04,1
26494,0,53397,57091,53312.32,57390.26,717.91,1001.25,84.68,-299.26,-2.819824,-2.560296,-0.238805,-0.239296,0.582871,95.05,1
26534,0,53413,57103,53312.52,57389.69,717.91,1001.25,100.48,-286.69,-2.819828,-2.560286,-0.238674,-0.239151,0.582528,95.06,1
26574,0,53409,57117,53312.71,57389.14,717.91,1001.25,96.29,-272.14,-2.819832,-2.560277,-0.238543,-0.239006,0.582185,95.08,1
26614,0,53426,57133,53312.94,57388.63,717.91,1001.25,113.06,-255.63,-2.819836,-2.560267,-0.238412,-0.238862,0.581843,95.09,1
26654,0,53427,57157,53313.17,57388.17,717.91,1001.25,113.83,-231.17,-2.819840,-2.560259,-0.238282,-0.238719,0.581502,95.10,1
26694,0,53439,57186,53313.43,57387.77,717.91,1001.25,125.57,-201.77,-2.819845,-2.560252,-0.238152,-0.238578,0.581165,95.11,1
26734,0,53443,57200,53313.69,57387.39,717.91,1001.25,129.31,-187.39,-2.819850,-2.560246,-0.238023,-0.238436,0.580830,95.12,1
26774,0,53450,57223,53313.96,57387.07,717.91,1001.25,136.04,-164.07,-2.819855,-2.560240,-0.237894,-0.238296,0.580498,95.13,1
26814,0,53455,57205,53314.25,57386.70,717.91,1001.25,140.75,-181.70,-2.819861,-2.560234,-0.237764,-0.238155,0.580170,95.14,1
26854,0,53428,57088,53314.48,57386.11,717.91,1001.25,113.52,-298.11,-2.819865,-2.560223,-0.237635,-0.238010,0.579843,95.15,1
26895,0,53363,56983,53314.57,57385.30,717.91,1001.25,48.43,-402.30,-2.819867,-2.560209,-0.237502,-0.237862,0.579510,95.16,1
26934,0,53334,56941,53314.61,57384.41,717.91,1001.25,19.39,-443.41,-2.819867,-2.560194,-0.237369,-0.237712,0.579172,95.18,1
26973,0,53322,56937,53314.63,57383.52,717.91,1001.25,7.37,-446.52,-2.819868,-2.560178,-0.237236,-0.237563,0.578827,95.19,1
27015,0,53322,56931,53314.64,57382.62,717.91,1001.25,7.36,-451.62,-2.819868,-2.560163,-0.237102,-0.237413,0.578476,95.20,1
27055,0,53322,56933,53314.66,57381.72,717.91,1001.25,7.34,-448.72,-2.819868,-2.560147,-0.236969,-0.237263,0.578119,95.21,1
27095,0,53325,56957,53314.68,57380.87,717.91,1001.25,10.32,-423.87,-2.819869,-2.560132,-0.236835,-0.237115,0.577757,95.22,1
27135,0,53336,56979,53314.73,57380.07,717.91,1001.25,21.27,-401.07,-2.819870,-2.560118,-0.236702,-0.236967,0.577390,95.23,1
27175,0,53334,56988,53314.77,57379.29,717.91,1001.25,19.23,-391.29,-2.819870,-2.560105,-0.236570,-0.236820,0.577018,95.24,1
27215,0,53345,57014,53314.83,57378.56,717.91,1001.25,30.17,-364.56,-2.819872,-2.560092,-0.236438,-0.236673,0.576643,95.25,1
27256,0,53352,57034,53314.90,57377.87,717.91,1001.25,37.10,-343.87,-2.819873,-2.560080,-0.236306,-0.236528,0.576266,95.26,1
27295,0,53372,57075,53315.02,57377.27,717.91,1001.25,56.98,-302.27,-2.819875,-2.560069,-0.236175,-0.236384,0.575887,95.27,1
27338,0,53387,57109,53315.16,57376.73,717.91,1001.25,71.84,-267.73,-2.819878,-2.560060,-0.236044,-0.236241,0.575507,95.28,1
27375,0,53400,57166,53315.34,57376.31,717.91,1001.25,84.66,-210.31,-2.819881,-2.560053,-0.235914,-0.236101,0.575128,95.29,1
27415,0,53420,57213,53315.55,57375.98,717.91,1001.25,104.45,-162.98,-2.819885,-2.560047,-0.235785,-0.235962,0.574752,95.30,1
27458,0,53435,57241,53315.79,57375.71,717.91,1001.25,119.21,-134.71,-2.819890,-2.560042,-0.235657,-0.235824,0.574380,95.31,1
27495,0,53455,57287,53316.07,57375.54,717.91,1001.25,138.93,-88.54,-2.819895,-2.560039,-0.235529,-0.235688,0.574012,95.32,1
27535,0,53478,57318,53316.39,57375.43,717.91,1001.25,161.61,-57.43,-2.819901,-2.560037,-0.235402,-0.235554,0.573651,95.33,1
27572,0,53469,57255,53316.70,57375.19,717.91,1001.25,152.30,-120.19,-2.819907,-2.560033,-0.235276,-0.235417,0.573295,95.34,1
27612,0,53417,57144,53316.90,57374.73,717.91,1001.25,100.10,-230.73,-2.819911,-2.560025,-0.235147,-0.235276,0.572940,95.35,1
27655,0,53384,57110,53317.04,57374.20,717.91,1001.25,66.96,-264.20,-2.819913,-2.560016,-0.235017,-0.235134,0.572585,95.36,1
27695,0,53379,57105,53317.16,57373.66,717.91,1001.25,61.84,-268.66,-2.819915,-2.560007,-0.234887,-0.234992,0.572229,95.37,1
27736,0,53381,57112,53317.29,57373.14,717.91,1001.25,63.71,-261.14,-2.819918,-2.559998,-0.234757,-0.234851,0.571872,95.38,1
27775,0,53388,57121,53317.44,57372.64,717.91,1001.25,70.56,-251.64,-2.819921,-2.559989,-0.234627,-0.234710,0.571514,95.39,1
27815,0,53389,57135,53317.58,57372.16,717.91,1001.25,71.42,-237.16,-2.819923,-2.559980,-0.234498,-0.234569,0.571157,95.40,1
27855,0,53399,57159,53317.75,57371.74,717.91,1001.25,81.25,-212.74,-2.819926,-2.559973,-0.234369,-0.234430,0.570800,95.41,1
27894,0,53400,57177,53317.91,57371.35,717.91,1001.25,82.09,-194.35,-2.819929,-2.559966,-0.234240,-0.234291,0.570445,95.42,1
27936,0,53409,57203,53318.09,57371.02,717.91,1001.25,90.91,-168.02,-2.819933,-2.559960,-0.234111,-0.234153,0.570091,95.43,1
27977,0,53421,57219,53318.30,57370.71,717.91,1001.25,102.70,-151.71,-2.819937,-2.559955,-0.233983,-0.234016,0.569740,95.44,1
28016,0,53420,57238,53318.50,57370.45,717.91,1001.25,101.50,-132.45,-2.819941,-2.559951,-0.233855,-0.233879,0.569392,95.45,1
28054,0,53429,57262,53318.73,57370.23,717.91,1001.25,110.27,-108.23,-2.819945,-2.559947,-0.233728,-0.233744,0.569047,95.46,1
28097,0,53443,57308,53318.98,57370.11,717.91,1001.25,124.02,-62.11,-2.819949,-2.559945,-0.233601,-0.233610,0.568706,95.47,1
28136,0,53455,57338,53319.25,57370.05,717.91,1001.25,135.75,-32.05,-2.819954,-2.559944,-0.233474,-0.233478,0.568371,95.48,1
28176,0,53459,57365,53319.53,57370.04,717.91,1001.25,139.47,-5.04,-2.819960,-2.559943,-0.233348,-0.233346,0.568041,95.49,1
28216,0,53472,57378,53319.84,57370.06,717.91,1001.25,152.16,7.94,-2.819966,-2.559944,-0.233223,-0.233215,0.567718,95.50,1
28257,0,53482,57418,53320.16,57370.16,717.91,1001.25,161.84,47.84,-2.819972,-2.559945,-0.233097,-0.233085,0.567402,95.51,1
28296,0,53489,57424,53320.50,57370.27,717.91,1001.25,168.50,53.73,-2.819978,-2.559947,-0.232972,-0.232956,0.567094,95.52,1
28336,0,53483,57396,53320.83,57370.32,717.91,1001.25,162.17,25.68,-2.819984,-2.559948,-0.232847,-0.232826,0.566794,95.53,1
28376,0,53437,57289,53321.06,57370.16,717.91,1001.25,115.94,-81.16,-2.819988,-2.559946,-0.232721,-0.232692,0.566497,95.54,1
28416,0,53402,57252,53321.23,57369.93,717.91,1001.25,80.77,-117.93,-2.819992,-2.559941,-0.232593,-0.232557,0.566202,95.55,1
28457,0,53392,57238,53321.37,57369.66,717.91,1001.25,70.63,-131.66,-2.819994,-2.559937,-0.232465,-0.232422,0.565908,95.55,1
28496,0,53391,57234,53321.51,57369.39,717.91,1001.25,69.49,-135.39,-2.819997,-2.559932,-0.232336,-0.232286,0.565615,95.56,1
28537,0,53387,57232,53321.64,57369.12,717.91,1001.25,65.36,-137.12,-2.819999,-2.559927,-0.232208,-0.232150,0.565324,95.57,1
28576,0,53379,57222,53321.76,57368.83,717.91,1001.25,57.24,-146.83,-2.820002,-2.559922,-0.232080,-0.232015,0.565033,95.58,1
28616,0,53371,57248,53321.86,57368.59,717.91,1001.25,49.14,-120.59,-2.820004,-2.559918,-0.231951,-0.231880,0.564743,95.59,1
28656,0,53391,57249,53322.00,57368.35,717.91,1001.25,69.00,-119.35,-2.820006,-2.559914,-0.231823,-0.231745,0.564454,95.60,1
28696,0,53386,57262,53322.13,57368.14,717.91,1001.25,63.87,-106.14,-2.820009,-2.559910,-0.231695,-0.231611,0.564167,95.61,1
28738,0,53385,57248,53322.26,57367.90,717.91,1001.25,62.74,-119.90,-2.820011,-2.559906,-0.231567,-0.231477,0.563881,95.62,1
28776,0,53369,57234,53322.36,57367.64,717.91,1001.25,46.64,-133.64,-2.820013,-2.559901,-0.231439,-0.231342,0.563595,95.63,1
28818,0,53361,57267,53322.43,57367.44,717.91,1001.25,38.57,-100.44,-2.820014,-2.559898,-0.231310,-0.231209,0.563310,95.63,1
28857,0,53376,57282,53322.54,57367.27,717.91,1001.25,53.46,-85.27,-2.820016,-2.559895,-0.231182,-0.231076,0.563027,95.64,1
28898,0,53377,57314,53322.65,57367.16,717.91,1001.25,54.35,-53.16,-2.820018,-2.559893,-0.231054,-0.230944,0.562744,95.65,1
28938,0,53388,57304,53322.79,57367.04,717.91,1001.25,65.21,-63.04,-2.820021,-2.559891,-0.230927,-0.230812,0.562464,95.66,1
28977,0,53371,57289,53322.88,57366.88,717.91,1001.25,48.12,-77.88,-2.820023,-2.559888,-0.230798,-0.230679,0.562185,95.67,1
29017,0,53354,57270,53322.95,57366.69,717.91,1001.25,31.05,-96.69,-2.820024,-2.559885,-0.230670,-0.230546,0.561906,95.68,1
29058,0,53329,57189,53322.96,57366.34,717.91,1001.25,6.04,-177.34,-2.820024,-2.559879,-0.230540,-0.230411,0.561627,95.69,1
29097,0,53277,57106,53322.87,57365.82,717.91,1001.25,-45.87,-259.82,-2.820022,-2.559870,-0.230409,-0.230272,0.561345,95.69,1
29138,0,53250,57048,53322.72,57365.18,717.91,1001.25,-72.72,-317.18,-2.820020,-2.559859,-0.230277,-0.230131,0.561061,95.70,1
29177,0,53209,56989,53322.50,57364.43,717.91,1001.25,-113.50,-375.43,-2.820015,-2.559846,-0.230143,-0.229989,0.560773,95.71,1
29219,0,53177,56963,53322.21,57363.63,717.91,1001.25,-145.21,-400.63,-2.820010,-2.559832,-0.230009,-0.229846,0.560483,95.72,1
29257,0,53172,56960,53321.91,57362.83,717.91,1001.25,-149.91,-402.83,-2.820004,-2.559818,-0.229874,-0.229703,0.560192,95.73,1
29298,0,53163,56963,53321.59,57362.03,717.91,1001.25,-158.59,-399.03,-2.819998,-2.559804,-0.229739,-0.229560,0.559901,95.74,1
29338,0,53173,56993,53321.29,57361.29,717.91,1001.25,-148.29,-368.29,-2.819993,-2.559791,-0.229604,-0.229418,0.559609,95.74,1
29377,0,53189,56999,53321.03,57360.57,717.91,1001.25,-132.03,-361.57,-2.819988,-2.559778,-0.229470,-0.229276,0.559317,95.75,1
29417,0,53181,57002,53320.75,57359.86,717.91,1001.25,-139.75,-357.86,-2.819983,-2.559766,-0.229336,-0.229135,0.559024,95.76,1
29459,0,53190,57035,53320.49,57359.21,717.91,1001.25,-130.49,-324.21,-2.819978,-2.559755,-0.229202,-0.228995,0.558731,95.77,1
29497,0,53199,57048,53320.25,57358.59,717.91,1001.25,-121.25,-310.59,-2.819973,-2.559744,-0.229069,-0.228856,0.558438,95.78,1
29538,0,53190,57056,53319.99,57357.98,717.91,1001.25,-129.99,-301.98,-2.819968,-2.559733,-0.228935,-0.228717,0.558147,95.78,1
29577,0,53188,57073,53319.73,57357.41,717.91,1001.25,-131.73,-284.41,-2.819963,-2.559723,-0.228802,-0.228578,0.557856,95.79,1
29618,0,53182,57071,53319.46,57356.84,717.91,1001.25,-137.46,-285.84,-2.819958,-2.559713,-0.228668,-0.228440,0.557568,95.80,1
29657,0,53175,57053,53319.17,57356.23,717.91,1001.25,-144.17,-303.23,-2.819953,-2.559703,-0.228534,-0.228301,0.557282,95.81,1
29697,0,53162,57039,53318.86,57355.60,717.91,1001.25,-156.86,-316.60,-2.819947,-2.559692,-0.228400,-0.228162,0.556998,95.82,1
29738,0,53138,57002,53318.50,57354.89,717.91,1001.25,-180.50,-352.89,-2.819940,-2.559679,-0.228265,-0.228021,0.556719,95.83,1
29777,0,53108,56936,53318.08,57354.06,717.91,1001.25,-210.08,-418.06,-2.819932,-2.559665,-0.228129,-0.227879,0.556443,95.83,1
29820,0,53081,56890,53317.61,57353.13,717.91,1001.25,-236.61,-463.13,-2.819924,-2.559649,-0.227992,-0.227735,0.556173,95.84,1
29858,0,53062,56877,53317.09,57352.18,717.91,1001.25,-255.09,-475.18,-2.819914,-2.559632,-0.227854,-0.227590,0.555910,95.85,1
29898,0,53054,56862,53316.57,57351.20,717.91,1001.25,-262.57,-489.20,-2.819904,-2.559615,-0.227717,-0.227445,0.555654,95.86,1
29939,0,53053,56878,53316.04,57350.26,717.91,1001.25,-263.04,-472.26,-2.819894,-2.559598,-0.227579,-0.227301,0.555407,95.86,1
29978,0,53066,56907,53315.54,57349.37,717.91,1001.25,-249.54,-442.37,-2.819885,-2.559583,-0.227442,-0.227158,0.555167,95.87,1
30015,0,53072,56909,53315.06,57348.49,717.91,1001.25,-243.06,-439.49,-2.819876,-2.559568,-0.227305,-0.227015,0.554934,95.88,1
30058,0,53069,56935,53314.57,57347.67,717.91,1001.25,-245.57,-412.67,-2.819867,-2.559553,-0.227168,-0.226874,0.554708,95.89,1
30098,0,53099,56970,53314.14,57346.91,717.91,1001.25,-215.14,-376.91,-2.819859,-2.559540,-0.227033,-0.226733,0.554489,95.89,1
30139,0,53100,56985,53313.71,57346.19,717.91,1001.25,-213.71,-361.19,-2.819850,-2.559528,-0.226897,-0.226594,0.554275,95.90,1
30178,0,53100,56987,53313.29,57345.47,717.91,1001.25,-213.29,-358.47,-2.819843,-2.559515,-0.226762,-0.226454,0.554067,95.91,1
30218,0,53103,57025,53312.87,57344.83,717.91,1001.25,-209.87,-319.83,-2.819835,-2.559504,-0.226627,-0.226316,0.553866,95.92,1
30259,0,53114,57042,53312.47,57344.23,717.91,1001.25,-198.47,-302.23,-2.819827,-2.559493,-0.226493,-0.226178,0.553671,95.92,1
30298,0,53117,57072,53312.08,57343.68,717.91,1001.25,-195.08,-271.68,-2.819820,-2.559484,-0.226358,-0.226042,0.553483,95.93,1
30340,0,53123,57065,53311.71,57343.13,717.91,1001.25,-188.71,-278.13,-2.819813,-2.559474,-0.226224,-0.225905,0.553300,95.94,1
30378,0,53098,57036,53311.28,57342.52,717.91,1001.25,-213.28,-306.52,-2.819805,-2.559464,-0.226089,-0.225768,0.553126,95.95,1
30418,0,53079,57020,53310.82,57341.87,717.91,1001.25,-231.82,-321.87,-2.819796,-2.559452,-0.225954,-0.225630,0.552960,95.95,1
30458,0,53066,56991,53310.33,57341.17,717.91,1001.25,-244.33,-350.17,-2.819787,-2.559440,-0.225818,-0.225491,0.552803,95.96,1
30499,0,53045,56951,53309.80,57340.39,717.91,1001.25,-264.80,-389.39,-2.819777,-2.559427,-0.225681,-0.225351,0.552657,95.97,1
30539,0,53020,56891,53309.22,57339.50,717.91,1001.25,-289.22,-448.50,-2.819766,-2.559411,-0.225544,-0.225210,0.552521,95.97,1
30578,0,52993,56864,53308.59,57338.55,717.91,1001.25,-315.59,-474.55,-2.819755,-2.559394,-0.225406,-0.225067,0.552399,95.98,1
30618,0,52974,56842,53307.92,57337.55,717.91,1001.25,-333.92,-495.55,-2.819742,-2.559377,-0.225267,-0.224923,0.552291,95.99,1
30658,0,52966,56845,53307.24,57336.57,717.91,1001.25,-341.24,-491.57,-2.819729,-2.559360,-0.225128,-0.224780,0.552199,95.99,1
30699,0,52957,56824,53306.54,57335.55,717.91,1001.25,-349.54,-511.55,-2.819716,-2.559342,-0.224988,-0.224636,0.552121,96.00,1
30738,0,52950,56834,53305.83,57334.55,717.91,1001.25,-355.83,-500.55,-2.819703,-2.559325,-0.224849,-0.224493,0.552060,96.00,1
30779,0,52950,56842,53305.12,57333.56,717.91,1001.25,-355.12,-491.56,-2.819690,-2.559307,-0.224709,-0.224350,0.552015,96.01,1
30819,0,52951,56851,53304.41,57332.60,717.91,1001.25,-353.41,-481.60,-2.819676,-2.559291,-0.224570,-0.224207,0.551985,96.02,1
30860,0,52942,56844,53303.69,57331.62,717.91,1001.25,-361.69,-487.62,-2.819663,-2.559273,-0.224431,-0.224065,0.551971,96.02,1
30899,0,52935,56833,53302.95,57330.62,717.91,1001.25,-367.95,-497.62,-2.819649,-2.559256,-0.224291,-0.223922,0.551974,96.03,1
30939,0,52922,56853,53302.19,57329.67,717.91,1001.25,-380.19,-476.67,-2.819634,-2.559239,-0.224151,-0.223780,0.551995,96.03,1
30979,0,52933,56873,53301.45,57328.76,717.91,1001.25,-368.45,-455.76,-2.819621,-2.559224,-0.224012,-0.223638,0.552033,96.04,1
31019,0,52942,56885,53300.73,57327.87,717.91,1001.25,-358.73,-442.87,-2.819607,-2.559208,-0.223873,-0.223498,0.552087,96.04,1
31059,0,52937,56886,53300.01,57326.99,717.91,1001.25,-363.01,-440.99,-2.819593,-2.559193,-0.223734,-0.223357,0.552157,96.05,1
31099,0,52935,56896,53299.28,57326.13,717.91,1001.25,-364.28,-430.13,-2.819580,-2.559178,-0.223595,-0.223217,0.552244,96.05,1
31139,0,52928,56882,53298.54,57325.25,717.91,1001.25,-370.54,-443.25,-2.819566,-2.559162,-0.223456,-0.223077,0.552346,96.05,1
31179,0,52906,56814,53297.75,57324.23,717.91,1001.25,-391.75,-510.23,-2.819551,-2.559144,-0.223316,-0.222934,0.552464,96.06,1
31219,0,52854,56717,53296.86,57323.01,717.91,1001.25,-442.86,-606.01,-2.819535,-2.559123,-0.223174,-0.222788,0.552598,96.06,1
31259,0,52825,56684,53295.92,57321.73,717.91,1001.25,-470.92,-637.73,-2.819517,-2.559101,-0.223031,-0.222641,0.552750,96.07,1
31299,0,52808,56657,53294.95,57320.41,717.91,1001.25,-486.95,-663.41,-2.819499,-2.559078,-0.222888,-0.222493,0.552920,96.07,1
31340,0,52798,56643,53293.96,57319.05,717.91,1001.25,-495.96,-676.05,-2.819480,-2.559054,-0.222745,-0.222345,0.553108,96.07,1
31379,0,52787,56618,53292.95,57317.65,717.91,1001.25,-505.95,-699.65,-2.819461,-2.559030,-0.222601,-0.222196,0.553312,96.08,1
31422,0,52780,56634,53291.92,57316.29,717.91,1001.25,-511.92,-682.29,-2.819442,-2.559006,-0.222457,-0.222048,0.553533,96.08,1
31461,0,52776,56604,53290.89,57314.86,717.91,1001.25,-514.89,-710.86,-2.819422,-2.558981,-0.222313,-0.221899,0.553769,96.08,1
31499,0,52766,56607,53289.84,57313.45,717.91,1001.25,-523.84,-706.45,-2.819403,-2.558957,-0.222169,-0.221750,0.554021,96.08,1
31539,0,52769,56611,53288.80,57312.05,717.91,1001.25,-519.80,-701.05,-2.819383,-2.558932,-0.222026,-0.221601,0.554288,96.08,1
31581,0,52765,56614,53287.76,57310.65,717.91,1001.25,-522.76,-696.65,-2.819364,-2.558908,-0.221882,-0.221453,0.554569,96.09,1
31620,0,52765,56621,53286.71,57309.27,717.91,1001.25,-521.71,-688.27,-2.819344,-2.558884,-0.221738,-0.221305,0.554864,96.09,1
31659,0,52764,56619,53285.67,57307.89,717.91,1001.25,-521.67,-688.89,-2.819324,-2.558860,-0.221594,-0.221157,0.555172,96.09,1
31700,0,52754,56623,53284.61,57306.53,717.91,1001.25,-530.61,-683.53,-2.819305,-2.558836,-0.221450,-0.221010,0.555494,96.09,1
31740,0,52758,56637,53283.56,57305.19,717.91,1001.25,-525.56,-668.19,-2.819285,-2.558812,-0.221307,-0.220863,0.555831,96.09,1
31780,0,52761,56644,53282.52,57303.87,717.91,1001.25,-521.52,-659.87,-2.819265,-2.558789,-0.221163,-0.220716,0.556180,96.09,1
31821,0,52754,56637,53281.46,57302.54,717.91,1001.25,-527.46,-665.54,-2.819245,-2.558766,-0.221020,-0.220569,0.556543,96.09,1
31860,0,52729,56554,53280.36,57301.04,717.91,1001.25,-551.36,-747.04,-2.819225,-2.558740,-0.220875,-0.220420,0.556915,96.09,1
31900,0,52684,56469,53279.16,57299.38,717.91,1001.25,-595.16,-830.38,-2.819202,-2.558711,-0.220729,-0.220268,0.557296,96.09,1
31940,0,52653,56439,53277.91,57297.66,717.91,1001.25,-624.91,-858.66,-2.819179,-2.558681,-0.220583,-0.220115,0.557687,96.09,1
31980,0,52661,56429,53276.68,57295.93,717.91,1001.25,-615.68,-866.93,-2.819156,-2.558651,-0.220436,-0.219961,0.558086,96.09,1
32020,0,52651,56432,53275.43,57294.20,717.91,1001.25,-624.43,-862.20,-2.819132,-2.558621,-0.220289,-0.219808,0.558492,96.08,1
32062,0,52662,56436,53274.20,57292.48,717.91,1001.25,-612.20,-856.48,-2.819109,-2.558591,-0.220143,-0.219655,0.558906,96.08,1
32099,0,52661,56454,53272.98,57290.81,717.91,1001.25,-611.98,-836.81,-2.819086,-2.558561,-0.219997,-0.219503,0.559327,96.08,1
32139,0,52672,56466,53271.78,57289.16,717.91,1001.25,-599.78,-823.16,-2.819064,-2.558533,-0.219851,-0.219352,0.559755,96.08,1
32179,0,52677,56480,53270.59,57287.54,717.91,1001.25,-593.59,-807.54,-2.819041,-2.558504,-0.219706,-0.219201,0.560189,96.08,1
32221,0,52683,56491,53269.42,57285.95,717.91,1001.25,-586.42,-794.95,-2.819020,-2.558477,-0.219561,-0.219051,0.560629,96.07,1
32260,0,52691,56501,53268.26,57284.38,717.91,1001.25,-577.26,-783.38,-2.818998,-2.558449,-0.219417,-0.218901,0.561075,96.07,1
32302,0,52691,56523,53267.11,57282.86,717.91,1001.25,-576.11,-759.86,-2.818976,-2.558423,-0.219273,-0.218752,0.561527,96.07,1
32341,0,52701,56542,53265.98,57281.38,717.91,1001.25,-564.98,-739.38,-2.818955,-2.558397,-0.219129,-0.218604,0.561986,96.06,1
32380,0,52705,56528,53264.86,57279.88,717.91,1001.25,-559.86,-751.88,-2.818934,-2.558371,-0.218986,-0.218456,0.562450,96.06,1
32421,0,52670,56533,53263.67,57278.39,717.91,1001.25,-593.67,-745.39,-2.818912,-2.558345,-0.218841,-0.218308,0.562922,96.06,1
32460,0,52702,56577,53262.55,57276.98,717.91,1001.25,-560.55,-699.98,-2.818891,-2.558320,-0.218698,-0.218161,0.563401,96.05,1
32500,0,52719,56590,53261.46,57275.61,717.91,1001.25,-542.46,-685.61,-2.818870,-2.558296,-0.218555,-0.218015,0.563887,96.05,1
32540,0,52703,56521,53260.35,57274.11,717.91,1001.25,-557.35,-753.11,-2.818849,-2.558270,-0.218412,-0.217867,0.564376,96.04,1
32579,0,52658,56442,53259.14,57272.44,717.91,1001.25,-601.14,-830.44,-2.818826,-2.558241,-0.218267,-0.217716,0.564868,96.04,1
32620,0,52624,56404,53257.87,57270.71,717.91,1001.25,-633.87,-866.71,-2.818803,-2.558210,-0.218122,-0.217565,0.565363,96.03,1
32661,0,52627,56406,53256.61,57268.98,717.91,1001.25,-629.61,-862.98,-2.818779,-2.558180,-0.217976,-0.217413,0.565861,96.03,1
32701,0,52628,56421,53255.36,57267.29,717.91,1001.25,-627.36,-846.29,-2.818756,-2.558151,-0.217831,-0.217262,0.566363,96.02,1
32741,0,52649,56438,53254.15,57265.63,717.91,1001.25,-605.15,-827.63,-2.818733,-2.558122,-0.217686,-0.217112,0.566867,96.02,1
32782,0,52657,56476,53252.96,57264.05,717.91,1001.25,-595.96,-788.05,-2.818710,-2.558094,-0.217542,-0.216963,0.567375,96.01,1
32822,0,52679,56505,53251.81,57262.54,717.91,1001.25,-572.81,-757.54,-2.818689,-2.558068,-0.217399,-0.216816,0.567887,96.00,1
32861,0,52695,56540,53250.70,57261.09,717.91,1001.25,-555.70,-721.09,-2.818668,-2.558043,-0.217257,-0.216669,0.568401,96.00,1
32901,0,52711,56576,53249.62,57259.72,717.91,1001.25,-538.62,-683.72,-2.818648,-2.558019,-0.217116,-0.216524,0.568920,95.99,1
32940,0,52733,56605,53248.59,57258.41,717.91,1001.25,-515.59,-653.41,-2.818628,-2.557996,-0.216975,-0.216381,0.569442,95.98,1
32982,0,52744,56638,53247.58,57257.18,717.91,1001.25,-503.58,-619.18,-2.818609,-2.557974,-0.216835,-0.216238,0.569969,95.98,1
33022,0,52767,56692,53246.62,57256.05,717.91,1001.25,-479.62,-564.05,-2.818591,-2.557955,-0.216696,-0.216098,0.570499,95.97,1
33061,0,52788,56744,53245.70,57255.02,717.91,1001.25,-457.70,-511.02,-2.818574,-2.557937,-0.216558,-0.215960,0.571035,95.96,1
33101,0,52811,56786,53244.84,57254.09,717.91,1001.25,-433.84,-468.09,-2.818558,-2.557920,-0.216421,-0.215823,0.571575,95.95,1
33141,0,52839,56849,53244.03,57253.28,717.91,1001.25,-405.03,-404.28,-2.818543,-2.557906,-0.216285,-0.215688,0.572120,95.95,1
33181,0,52862,56868,53243.27,57252.51,717.91,1001.25,-381.27,-384.51,-2.818528,-2.557893,-0.216150,-0.215554,0.572669,95.94,1
33221,0,52874,56898,53242.53,57251.80,717.91,1001.25,-368.53,-353.80,-2.818515,-2.557880,-0.216015,-0.215422,0.573223,95.93,1
33260,0,52881,56904,53241.80,57251.11,717.91,1001.25,-360.80,-347.11,-2.818501,-2.557868,-0.215881,-0.215290,0.573780,95.92,1
33301,0,52867,56816,53241.05,57250.24,717.91,1001.25,-374.05,-434.24,-2.818487,-2.557853,-0.215747,-0.215154,0.574339,95.91,1
33341,0,52811,56740,53240.20,57249.22,717.91,1001.25,-429.20,-509.22,-2.818471,-2.557835,-0.215610,-0.215017,0.574901,95.91,1
33381,0,52800,56712,53239.32,57248.14,717.91,1001.25,-439.32,-536.14,-2.818454,-2.557817,-0.215473,-0.214878,0.575465,95.90,1
33422,0,52802,56718,53238.44,57247.09,717.91,1001.25,-436.44,-529.09,-2.818438,-2.557798,-0.215337,-0.214740,0.576032,95.89,1
33461,0,52808,56705,53237.58,57246.00,717.91,1001.25,-429.58,-541.00,-2.818422,-2.557779,-0.215200,-0.214601,0.576599,95.88,1
33501,0,52812,56698,53236.73,57244.91,717.91,1001.25,-424.73,-546.91,-2.818406,-2.557760,-0.215064,-0.214462,0.577167,95.87,1
33540,0,52812,56712,53235.88,57243.85,717.91,1001.25,-423.88,-531.85,-2.818390,-2.557741,-0.214929,-0.214324,0.577736,95.86,1
33580,0,52826,56725,53235.06,57242.81,717.91,1001.25,-409.06,-517.81,-2.818374,-2.557723,-0.214793,-0.214187,0.578306,95.85,1
33620,0,52822,56731,53234.24,57241.79,717.91,1001.25,-412.24,-510.79,-2.818359,-2.557705,-0.214658,-0.214049,0.578877,95.84,1
33662,0,52834,56748,53233.44,57240.80,717.91,1001.25,-399.44,-492.80,-2.818344,-2.557688,-0.214523,-0.213913,0.579449,95.83,1
33702,0,52845,56763,53232.66,57239.85,717.91,1001.25,-387.66,-476.85,-2.818329,-2.557672,-0.214389,-0.213777,0.580022,95.82,1
33742,0,52849,56785,53231.89,57238.94,717.91,1001.25,-382.89,-453.94,-2.818315,-2.557656,-0.214255,-0.213642,0.580596,95.81,1
33782,0,52869,56831,53231.17,57238.13,717.91,1001.25,-362.17,-407.13,-2.818301,-2.557642,-0.214122,-0.213509,0.581172,95.80,1
33822,0,52884,56868,53230.48,57237.39,717.91,1001.25,-346.48,-369.39,-2.818288,-2.557629,-0.213990,-0.213377,0.581751,95.79,1
33863,0,52905,56899,53229.83,57236.71,717.91,1001.25,-324.83,-337.71,-2.818276,-2.557617,-0.213859,-0.213246,0.582331,95.78,1
33903,0,52923,56937,53229.22,57236.12,717.91,1001.25,-306.22,-299.12,-2.818264,-2.557606,-0.213728,-0.213117,0.582913,95.77,1
33942,0,52945,56963,53228.65,57235.57,717.91,1001.25,-283.65,-272.57,-2.818254,-2.557597,-0.213598,-0.212989,0.583497,95.76,1
33983,0,52956,57002,53228.11,57235.11,717.91,1001.25,-272.11,-233.11,-2.818244,-2.557589,-0.213469,-0.212862,0.584083,95.75,1
34023,0,52965,57003,53227.59,57234.65,717.91,1001.25,-262.59,-231.65,-2.818234,-2.557581,-0.213340,-0.212735,0.584671,95.74,1
34062,0,52947,56904,53227.03,57233.99,717.91,1001.25,-280.03,-329.99,-2.818223,-2.557569,-0.213211,-0.212605,0.585258,95.73,1
34104,0,52897,56818,53226.37,57233.16,717.91,1001.25,-329.37,-415.16,-2.818211,-2.557554,-0.213079,-0.212472,0.585845,95.71,1
34143,0,52888,56791,53225.69,57232.27,717.91,1001.25,-337.69,-441.27,-2.818198,-2.557539,-0.212948,-0.212339,0.586432,95.70,1
34182,0,52889,56792,53225.02,57231.39,717.91,1001.25,-336.02,-439.39,-2.818186,-2.557524,-0.212817,-0.212205,0.587017,95.69,1
34222,0,52897,56783,53224.36,57230.50,717.91,1001.25,-327.36,-447.50,-2.818173,-2.557508,-0.212686,-0.212071,0.587601,95.68,1
34262,0,52902,56782,53223.72,57229.61,717.91,1001.25,-321.72,-447.61,-2.818161,-2.557492,-0.212555,-0.211938,0.588183,95.67,1
34303,0,52902,56780,53223.08,57228.71,717.91,1001.25,-321.08,-448.71,-2.818149,-2.557477,-0.212425,-0.211804,0.588763,95.66,1
34342,0,52905,56766,53222.44,57227.78,717.91,1001.25,-317.44,-461.78,-2.818137,-2.557461,-0.212295,-0.211670,0.589340,95.65,1
34382,0,52910,56788,53221.82,57226.90,717.91,1001.25,-311.82,-438.90,-2.818125,-2.557445,-0.212165,-0.211537,0.589915,95.63,1
34422,0,52925,56789,53221.22,57226.03,717.91,1001.25,-296.22,-437.03,-2.818114,-2.557430,-0.212035,-0.211403,0.590487,95.62,1
34462,0,52923,56789,53220.63,57225.16,717.91,1001.25,-297.63,-436.16,-2.818103,-2.557415,-0.211906,-0.211271,0.591056,95.61,1
34503,0,52927,56826,53220.04,57224.36,717.91,1001.25,-293.04,-398.36,-2.818092,-2.557401,-0.211777,-0.211139,0.591624,95.60,1
34542,0,52952,56862,53219.51,57223.64,717.91,1001.25,-267.51,-361.64,-2.818082,-2.557388,-0.211649,-0.211009,0.592190,95.59,1
34584,0,52969,56892,53219.01,57222.98,717.91,1001.25,-250.01,-330.98,-2.818073,-2.557377,-0.211522,-0.210880,0.592756,95.57,1
34622,0,52989,56923,53218.55,57222.38,717.91,1001.25,-229.55,-299.38,-2.818064,-2.557366,-0.211396,-0.210752,0.593319,95.56,1
34664,0,53003,56945,53218.12,57221.82,717.91,1001.25,-215.12,-276.82,-2.818056,-2.557357,-0.211270,-0.210625,0.593882,95.55,1
34704,0,53009,56961,53217.70,57221.30,717.91,1001.25,-208.70,-260.30,-2.818048,-2.557348,-0.211145,-0.210499,0.594444,95.54,1
34744,0,53024,56969,53217.32,57220.80,717.91,1001.25,-193.32,-251.80,-2.818041,-2.557339,-0.211020,-0.210373,0.595004,95.52,1
34784,0,53018,56929,53216.92,57220.22,717.91,1001.25,-198.92,-291.22,-2.818033,-2.557328,-0.210895,-0.210246,0.595562,95.51,1
34823,0,52984,56807,53216.45,57219.39,717.91,1001.25,-232.45,-412.39,-2.818025,-2.557314,-0.210769,-0.210115,0.596116,95.50,1
34863,0,52933,56716,53215.89,57218.39,717.91,1001.25,-282.89,-502.39,-2.818014,-2.557297,-0.210641,-0.209980,0.596663,95.49,1
34903,0,52927,56702,53215.31,57217.36,717.91,1001.25,-288.31,-515.36,-2.818003,-2.557279,-0.210513,-0.209845,0.597203,95.47,1
34943,0,52926,56689,53214.73,57216.30,717.91,1001.25,-288.73,-527.30,-2.817992,-2.557260,-0.210385,-0.209710,0.597736,95.46,1
34984,0,52927,56679,53214.16,57215.23,717.91,1001.25,-287.16,-536.23,-2.817981,-2.557241,-0.210257,-0.209575,0.598262,95.45,1
35023,0,52933,56688,53213.59,57214.18,717.91,1001.25,-280.59,-526.18,-2.817971,-2.557223,-0.210130,-0.209440,0.598781,95.44,1
35063,0,52951,56707,53213.07,57213.16,717.91,1001.25,-262.07,-506.16,-2.817961,-2.557205,-0.210003,-0.209306,0.599292,95.42,1
35103,0,52962,56700,53212.57,57212.14,717.91,1001.25,-250.57,-512.14,-2.817952,-2.557187,-0.209877,-0.209171,0.599795,95.41,1
35143,0,52971,56707,53212.09,57211.13,717.91,1001.25,-241.09,-504.13,-2.817943,-2.557170,-0.209751,-0.209037,0.600290,95.40,1
35184,0,52976,56710,53211.62,57210.13,717.91,1001.25,-235.62,-500.13,-2.817934,-2.557152,-0.209625,-0.208904,0.600778,95.39,1
35223,0,52988,56725,53211.17,57209.16,717.91,1001.25,-223.17,-484.16,-2.817925,-2.557135,-0.209500,-0.208771,0.601258,95.37,1
35263,0,52998,56750,53210.75,57208.25,717.91,1001.25,-212.75,-458.25,-2.817917,-2.557119,-0.209376,-0.208639,0.601730,95.36,1
35305,0,53020,56774,53210.37,57207.38,717.91,1001.25,-190.37,-433.38,-2.817910,-2.557104,-0.209252,-0.208508,0.602197,95.35,1
35344,0,53027,56784,53210.00,57206.54,717.91,1001.25,-183.00,-422.54,-2.817903,-2.557089,-0.209129,-0.208377,0.602656,95.34,1
35383,0,53046,56795,53209.67,57205.71,717.91,1001.25,-163.67,-410.71,-2.817897,-2.557075,-0.209007,-0.208247,0.603110,95.32,1
35424,0,53043,56790,53209.34,57204.89,717.91,1001.25,-166.34,-414.89,-2.817891,-2.557060,-0.208884,-0.208117,0.603556,95.31,1
35463,0,53038,56796,53209.00,57204.07,717.91,1001.25,-171.00,-408.07,-2.817884,-2.557046,-0.208762,-0.207987,0.603997,95.30,1
35505,0,53048,56725,53208.68,57203.11,717.91,1001.25,-160.68,-478.11,-2.817879,-2.557029,-0.208640,-0.207854,0.604428,95.29,1
35544,0,52982,56565,53208.23,57201.84,717.91,1001.25,-226.23,-636.84,-2.817870,-2.557007,-0.208515,-0.207717,0.604844,95.28,1
35585,0,52934,56512,53207.68,57200.46,717.91,1001.25,-273.68,-688.46,-2.817860,-2.556983,-0.208389,-0.207577,0.605245,95.26,1
35624,0,52939,56522,53207.14,57199.11,717.91,1001.25,-268.14,-677.11,-2.817850,-2.556959,-0.208263,-0.207438,0.605631,95.25,1
35665,0,52955,56515,53206.64,57197.74,717.91,1001.25,-251.64,-682.74,-2.817840,-2.556936,-0.208138,-0.207299,0.606001,95.24,1
35704,0,52953,56521,53206.13,57196.39,717.91,1001.25,-253.13,-675.39,-2.817831,-2.556912,-0.208013,-0.207160,0.606358,95.23,1
35744,0,52968,56547,53205.66,57195.09,717.91,1001.25,-237.66,-648.09,-2.817822,-2.556889,-0.207888,-0.207023,0.606700,95.22,1
35784,0,52978,56546,53205.20,57193.79,717.91,1001.25,-227.20,-647.79,-2.817813,-2.556867,-0.207764,-0.206885,0.607029,95.20,1
35827,0,52991,56559,53204.78,57192.52,717.91,1001.25,-213.78,-633.52,-2.817805,-2.556844,-0.207641,-0.206748,0.607345,95.19,1
35864,0,52997,56572,53204.36,57191.29,717.91,1001.25,-207.36,-619.29,-2.817797,-2.556823,-0.207518,-0.206611,0.607648,95.18,1
35905,0,53006,56599,53203.97,57190.10,717.91,1001.25,-197.97,-591.10,-2.817790,-2.556802,-0.207395,-0.206476,0.607939,95.17,1
35945,0,53025,56644,53203.61,57189.01,717.91,1001.25,-178.61,-545.01,-2.817783,-2.556783,-0.207273,-0.206342,0.608221,95.16,1
35985,0,53049,56679,53203.30,57187.99,717.91,1001.25,-154.30,-508.99,-2.817778,-2.556765,-0.207152,-0.206210,0.608494,95.15,1
36024,0,53075,56716,53203.05,57187.05,717.91,1001.25,-128.05,-471.05,-2.817773,-2.556749,-0.207032,-0.206079,0.608759,95.14,1
36063,0,53095,56754,53202.84,57186.19,717.91,1001.25,-107.84,-432.19,-2.817769,-2.556734,-0.206913,-0.205949,0.609017,95.12,1
36105,0,53111,56771,53202.65,57185.36,717.91,1001.25,-91.65,-414.36,-2.817765,-2.556719,-0.206795,-0.205821,0.609267,95.11,1
36144,0,53115,56746,53202.48,57184.48,717.91,1001.25,-87.48,-438.48,-2.817762,-2.556704,-0.206677,-0.205691,0.609511,95.10,1
36184,0,53081,56606,53202.23,57183.32,717.91,1001.25,-121.23,-577.32,-2.817757,-2.556684,-0.206557,-0.205557,0.609741,95.09,1
36224,0,53013,56480,53201.86,57181.92,717.91,1001.25,-188.86,-701.92,-2.817750,-2.556659,-0.206436,-0.205418,0.609955,95.08,1
36264,0,52986,56447,53201.43,57180.45,717.91,1001.25,-215.43,-733.45,-2.817742,-2.556633,-0.206313,-0.205278,0.610153,95.07,1
36304,0,52993,56451,53201.01,57178.99,717.91,1001.25,-208.01,-727.99,-2.817734,-2.556608,-0.206191,-0.205139,0.610334,95.06,1
36344,0,52999,56448,53200.61,57177.53,717.91,1001.25,-201.61,-729.53,-2.817727,-2.556582,-0.206069,-0.205000,0.610498,95.05,1
36383,0,53001,56450,53200.21,57176.08,717.91,1001.25,-199.21,-726.08,-2.817719,-2.556557,-0.205947,-0.204860,0.610646,95.04,1
36422,0,53005,56456,53199.82,57174.64,717.91,1001.25,-194.82,-718.64,-2.817712,-2.556532,-0.205825,-0.204722,0.610780,95.03,1
36465,0,53007,56465,53199.44,57173.22,717.91,1001.25,-192.44,-708.22,-2.817705,-2.556507,-0.205704,-0.204583,0.610898,95.02,1
36506,0,53012,56478,53199.06,57171.83,717.91,1001.25,-187.06,-693.83,-2.817698,-2.556483,-0.205582,-0.204446,0.611003,95.02,1
36545,0,53022,56499,53198.71,57170.49,717.91,1001.25,-176.71,-671.49,-2.817691,-2.556459,-0.205462,-0.204309,0.611095,95.01,1
36585,0,53046,56552,53198.41,57169.25,717.91,1001.25,-152.41,-617.25,-2.817686,-2.556437,-0.205342,-0.204174,0.611176,95.00,1
36621,0,53067,56600,53198.14,57168.12,717.91,1001.25,-131.14,-568.12,-2.817681,-2.556417,-0.205223,-0.204041,0.611247,94.99,1
36665,0,53085,56630,53197.92,57167.04,717.91,1001.25,-112.92,-537.04,-2.817676,-2.556399,-0.205105,-0.203909,0.611310,94.98,1
36706,0,53107,56674,53197.74,57166.06,717.91,1001.25,-90.74,-492.06,-2.817673,-2.556381,-0.204988,-0.203779,0.611365,94.97,1
36745,0,53126,56704,53197.60,57165.14,717.91,1001.25,-71.60,-461.14,-2.817670,-2.556365,-0.204871,-0.203649,0.611414,94.97,1
36785,0,53143,56753,53197.49,57164.31,717.91,1001.25,-54.49,-411.31,-2.817668,-2.556351,-0.204756,-0.203522,0.611457,94.96,1
36825,0,53158,56766,53197.41,57163.52,717.91,1001.25,-39.41,-397.52,-2.817667,-2.556337,-0.204641,-0.203395,0.611495,94.95,1
36865,0,53137,56615,53197.29,57162.42,717.91,1001.25,-60.29,-547.42,-2.817665,-2.556318,-0.204525,-0.203264,0.611523,94.94,1
36905,0,53051,56448,53197.00,57161.00,717.91,1001.25,-146.00,-713.00,-2.817659,-2.556293,-0.204406,-0.203126,0.611536,94.94,1
36944,0,53015,56388,53196.63,57159.45,717.91,1001.25,-181.63,-771.45,-2.817652,-2.556266,-0.204286,-0.202986,0.611533,94.93,1
36985,0,53006,56371,53196.25,57157.88,717.91,1001.25,-190.25,-786.88,-2.817645,-2.556238,-0.204165,-0.202846,0.611515,94.92,1
37025,0,53013,56378,53195.89,57156.32,717.91,1001.25,-182.89,-778.32,-2.817638,-2.556211,-0.204045,-0.202707,0.611480,94.92,1
37065,0,53015,56369,53195.53,57154.75,717.91,1001.25,-180.53,-785.75,-2.817631,-2.556184,-0.203925,-0.202567,0.611430,94.91,1
37106,0,53019,56397,53195.18,57153.23,717.91,1001.25,-176.18,-756.23,-2.817625,-2.556157,-0.203806,-0.202428,0.611366,94.91,1
37146,0,53044,56445,53194.88,57151.82,717.91,1001.25,-150.88,-706.82,-2.817619,-2.556132,-0.203687,-0.202291,0.611290,94.90,1
37186,0,53051,56447,53194.59,57150.41,717.91,1001.25,-143.59,-703.41,-2.817614,-2.556108,-0.203569,-0.202155,0.611202,94.89,1
37225,0,53065,56484,53194.34,57149.08,717.91,1001.25,-129.34,-665.08,-2.817609,-2.556084,-0.203451,-0.202019,0.611103,94.89,1
37266,0,53081,56500,53194.11,57147.78,717.91,1001.25,-113.11,-647.78,-2.817605,-2.556062,-0.203334,-0.201885,0.610993,94.88,1
37305,0,53096,56533,53193.91,57146.55,717.91,1001.25,-97.91,-613.55,-2.817601,-2.556040,-0.203218,-0.201751,0.610874,94.88,1
37345,0,53114,56574,53193.75,57145.41,717.91,1001.25,-79.75,-571.41,-2.817598,-2.556020,-0.203102,-0.201620,0.610747,94.88,1
37387,0,53134,56611,53193.64,57144.34,717.91,1001.25,-59.64,-533.34,-2.817596,-2.556002,-0.202987,-0.201489,0.610613,94.87,1
37427,0,53151,56651,53193.55,57143.36,717.91,1001.25,-42.55,-492.36,-2.817594,-2.555984,-0.202873,-0.201361,0.610472,94.87,1
37466,0,53168,56679,53193.50,57142.43,717.91,1001.25,-25.50,-463.43,-2.817593,-2.555968,-0.202760,-0.201233,0.610326,94.86,1
37506,0,53188,56713,53193.50,57141.58,717.91,1001.25,-5.50,-428.58,-2.817593,-2.555953,-0.202647,-0.201106,0.610176,94.86,1
37546,0,53198,56687,53193.51,57140.67,717.91,1001.25,4.49,-453.67,-2.817593,-2.555937,-0.202535,-0.200979,0.610020,94.86,1
37586,0,53145,56487,53193.41,57139.37,717.91,1001.25,-48.41,-652.37,-2.817592,-2.555914,-0.202421,-0.200845,0.609853,94.85,1
37626,0,53061,56348,53193.15,57137.79,717.91,1001.25,-132.15,-789.79,-2.817587,-2.555887,-0.202304,-0.200706,0.609671,94.85,1
37666,0,53032,56318,53192.83,57136.15,717.91,1001.25,-160.83,-818.15,-2.817581,-2.555858,-0.202186,-0.200567,0.609475,94.85,1
37707,0,53034,56311,53192.52,57134.50,717.91,1001.25,-158.52,-823.50,-2.817575,-2.555829,-0.202068,-0.200427,0.609264,94.85,1
37746,0,53042,56330,53192.21,57132.89,717.91,1001.25,-150.21,-802.89,-2.817569,-2.555801,-0.201951,-0.200288,0.609039,94.84,1
37786,0,53047,56339,53191.93,57131.30,717.91,1001.25,-144.93,-792.30,-2.817564,-2.555773,-0.201833,-0.200149,0.608802,94.84,1
37826,0,53062,56375,53191.67,57129.79,717.91,1001.25,-129.67,-754.79,-2.817559,-2.555747,-0.201717,-0.200012,0.608552,94.84,1
37868,0,53081,56400,53191.45,57128.34,717.91,1001.25,-110.45,-728.34,-2.817555,-2.555722,-0.201601,-0.199876,0.608292,94.84,1
37908,0,53091,56403,53191.25,57126.89,717.91,1001.25,-100.25,-723.89,-2.817551,-2.555696,-0.201485,-0.199740,0.608021,94.84,1
37946,0,53101,56432,53191.07,57125.50,717.91,1001.25,-90.07,-693.50,-2.817548,-2.555672,-0.201371,-0.199605,0.607741,94.84,1
37987,0,53118,56449,53190.93,57124.15,717.91,1001.25,-72.93,-675.15,-2.817545,-2.555648,-0.201256,-0.199471,0.607451,94.84,1
38025,0,53132,56479,53190.81,57122.86,717.91,1001.25,-58.81,-643.86,-2.817543,-2.555626,-0.201143,-0.199338,0.607152,94.84,1
38066,0,53149,56511,53190.73,57121.64,717.91,1001.25,-41.73,-610.64,-2.817541,-2.555604,-0.201030,-0.199206,0.606846,94.84,1
38107,0,53160,56537,53190.67,57120.47,717.91,1001.25,-30.67,-583.47,-2.817540,-2.555584,-0.200917,-0.199076,0.606534,94.84,1
38144,0,53175,56554,53190.64,57119.34,717.91,1001.25,-15.64,-565.34,-2.817539,-2.555564,-0.200805,-0.198946,0.606214,94.84,1
38186,0,53184,56576,53190.62,57118.25,717.91,1001.25,-6.62,-542.25,-2.817539,-2.555545,-0.200694,-0.198817,0.605890,94.84,1
38227,0,53198,56583,53190.64,57117.18,717.91,1001.25,7.36,-534.18,-2.817539,-2.555526,-0.200583,-0.198688,0.605559,94.84,1
38266,0,53191,56501,53190.64,57115.95,717.91,1001.25,0.36,-614.95,-2.817539,-2.555505,-0.200472,-0.198557,0.605221,94.84,1
38306,0,53110,56293,53190.48,57114.30,717.91,1001.25,-80.48,-821.30,-2.817537,-2.555476,-0.200358,-0.198418,0.604870,94.84,1
38346,0,53036,56186,53190.18,57112.45,717.91,1001.25,-154.18,-926.45,-2.817531,-2.555443,-0.200242,-0.198276,0.604504,94.84,1
38387,0,53018,56166,53189.83,57110.56,717.91,1001.25,-171.83,-944.56,-2.817524,-2.555410,-0.200124,-0.198133,0.604123,94.84,1
38428,0,53020,56170,53189.49,57108.68,717.91,1001.25,-169.49,-938.68,-2.817518,-2.555377,-0.200007,-0.197991,0.603728,94.84,1
38467,0,53027,56171,53189.17,57106.80,717.91,1001.25,-162.17,-935.80,-2.817512,-2.555345,-0.199890,-0.197849,0.603319,94.85,1
38507,0,53033,56196,53188.86,57104.98,717.91,1001.25,-155.86,-908.98,-2.817506,-2.555313,-0.199774,-0.197707,0.602898,94.85,1
