t_ms,trial_id,t_trial_ms,phase,red_raw,ir_raw,red_dc,ir_dc,red_ac,ir_ac,R,spo2,spo2_valid
218194,1,0,0,48714,55136,48227.36,54693.22,486.64,442.78,1.503186,72.08,1
218234,1,40,0,48719,55166,48228.34,54694.17,490.66,471.83,1.502787,72.09,1
218274,1,80,0,48729,55196,48229.35,54695.17,499.65,500.83,1.502383,72.10,1
218314,1,120,0,48748,55223,48230.39,54696.23,517.61,526.77,1.501976,72.11,1
218354,1,160,0,48761,55277,48231.45,54697.39,529.55,579.61,1.501560,72.12,1
218394,1,200,0,48776,55299,48232.54,54698.60,543.46,600.40,1.501137,72.13,1
218434,1,240,0,48777,55245,48233.63,54699.69,543.37,545.31,1.500709,72.14,1
218474,1,280,0,48752,55190,48234.67,54700.67,517.33,489.33,1.500280,72.15,1
218514,1,320,0,48734,55193,48235.67,54701.66,498.33,491.34,1.499848,72.16,1
218554,1,360,0,48736,55192,48236.67,54702.64,499.33,489.36,1.499413,72.17,1
218594,1,400,0,48740,55206,48237.68,54703.64,502.32,502.36,1.498974,72.18,1
218634,1,440,0,48743,55228,48238.69,54704.70,504.31,523.30,1.498531,72.19,1
218674,1,480,0,48750,55253,48239.71,54705.79,510.29,547.21,1.498083,72.20,1
218714,1,520,0,48755,55259,48240.74,54706.90,514.26,552.10,1.497629,72.21,1
218755,1,561,0,48759,55270,48241.78,54708.03,517.22,561.97,1.497168,72.23,1
218795,1,601,0,48765,55297,48242.83,54709.21,522.17,587.79,1.496700,72.24,1
218835,1,641,0,48772,55328,48243.89,54710.45,528.11,617.55,1.496222,72.25,1
218875,1,681,0,48786,55356,48244.97,54711.74,541.03,644.26,1.495733,72.26,1
218915,1,721,0,48800,55397,48246.08,54713.11,553.92,683.89,1.495232,72.27,1
218955,1,761,0,48814,55436,48247.22,54714.56,566.78,721.44,1.494715,72.28,1
218995,1,801,0,48838,55467,48248.40,54716.07,589.60,750.93,1.494181,72.29,1
219035,1,841,0,48851,55495,48249.61,54717.62,601.39,777.37,1.493630,72.30,1
219075,1,881,0,48863,55521,48250.84,54719.23,612.16,801.77,1.493059,72.31,1
219115,1,921,0,48871,55519,48252.08,54720.84,618.92,798.16,1.492471,72.32,1
219155,1,961,0,48851,55447,48253.28,54722.29,597.72,724.71,1.491871,72.34,1
219195,1,1001,0,48818,55396,48254.41,54723.64,563.59,672.36,1.491261,72.35,1
219235,1,1041,0,48797,55375,48255.49,54724.94,541.51,650.06,1.490643,72.36,1
219275,1,1081,0,48792,55375,48256.57,54726.24,535.43,648.76,1.490015,72.37,1
219316,1,1122,0,48798,55379,48257.65,54727.55,540.35,651.45,1.489379,72.38,1
219356,1,1162,0,48795,55392,48258.73,54728.88,536.27,663.12,1.488733,72.39,1
219396,1,1202,0,48800,55406,48259.81,54730.24,540.19,675.76,1.488076,72.41,1
219436,1,1242,0,48806,55427,48260.90,54731.63,545.10,695.37,1.487409,72.42,1
219476,1,1282,0,48806,55426,48261.99,54733.02,544.01,692.98,1.486731,72.43,1
219516,1,1322,0,48816,55457,48263.10,54734.47,552.90,722.53,1.486040,72.44,1
219556,1,1362,0,48818,55473,48264.21,54735.95,553.79,737.05,1.485337,72.46,1
219596,1,1402,0,48837,55505,48265.36,54737.49,571.64,767.51,1.484618,72.47,1
219636,1,1442,0,48844,55517,48266.52,54739.05,577.48,777.95,1.483885,72.48,1
219676,1,1482,0,48854,55545,48267.70,54740.66,586.30,804.34,1.483137,72.49,1
219716,1,1522,0,48853,55554,48268.87,54742.29,584.13,811.71,1.482372,72.51,1
219756,1,1562,0,48860,55567,48270.05,54743.94,589.95,823.06,1.481590,72.52,1
219796,1,1602,0,48861,55580,48271.23,54745.61,589.77,834.39,1.480792,72.54,1
219836,1,1642,0,48867,55588,48272.43,54747.30,594.57,840.70,1.479977,72.55,1
219876,1,1682,0,48853,55518,48273.59,54748.84,579.41,769.16,1.479151,72.56,1
219917,1,1723,0,48818,55455,48274.68,54750.26,543.32,704.74,1.478316,72.58,1
219957,1,1763,0,48793,55441,48275.72,54751.64,517.28,689.36,1.477472,72.59,1
219997,1,1803,0,48786,55439,48276.74,54753.02,509.26,685.98,1.476620,72.61,1
220037,1,1843,0,48790,55429,48277.77,54754.37,512.23,674.63,1.475760,72.62,1
220077,1,1883,0,48781,55439,48278.78,54755.74,502.22,683.26,1.474892,72.64,1
220117,1,1923,0,48789,55455,48279.80,54757.14,509.20,697.86,1.474016,72.65,1
220157,1,1963,0,48790,55453,48280.82,54758.53,509.18,694.47,1.473130,72.67,1
220197,1,2003,0,48799,55452,48281.86,54759.92,517.14,692.08,1.472237,72.68,1
220237,1,2043,0,48791,55452,48282.88,54761.30,508.12,690.70,1.471336,72.70,1
220277,1,2083,0,48785,55446,48283.89,54762.68,501.11,683.32,1.470428,72.72,1
220317,1,2123,0,48792,55456,48284.90,54764.06,507.10,691.94,1.469511,72.73,1
220357,1,2163,0,48791,55470,48285.91,54765.48,505.09,704.52,1.468586,72.75,1
220397,1,2203,0,48792,55485,48286.93,54766.92,505.07,718.08,1.467652,72.77,1
220437,1,2243,0,48793,55498,48287.94,54768.38,505.06,729.62,1.466708,72.78,1
220478,1,2284,0,48792,55511,48288.95,54769.87,503.05,741.13,1.465754,72.80,1
220518,1,2324,0,48799,55521,48289.96,54771.37,509.04,749.62,1.464789,72.82,1
220558,1,2364,0,48797,55534,48290.98,54772.90,506.02,761.10,1.463813,72.84,1
220598,1,2404,0,48793,55496,48291.98,54774.35,501.02,721.65,1.462829,72.85,1
220638,1,2444,0,48770,55437,48292.94,54775.68,477.06,661.32,1.461839,72.87,1
220678,1,2484,0,48748,55420,48293.85,54776.97,454.15,643.03,1.460843,72.89,1
220718,1,2524,0,48746,55423,48294.76,54778.26,451.24,644.74,1.459841,72.91,1
220758,1,2564,0,48752,55425,48295.67,54779.55,456.33,645.45,1.458833,72.93,1
220798,1,2604,0,48755,55426,48296.59,54780.85,458.41,645.15,1.457821,72.95,1
220838,1,2644,0,48755,55437,48297.51,54782.16,457.49,654.84,1.456802,72.96,1
220878,1,2684,0,48758,55444,48298.43,54783.48,459.57,660.52,1.455777,72.98,1
220918,1,2724,0,48761,55455,48299.36,54784.83,461.64,670.17,1.454746,73.00,1
220958,1,2764,0,48766,55454,48300.29,54786.17,465.71,667.83,1.453709,73.02,1
220998,1,2804,0,48757,55456,48301.20,54787.51,455.80,668.49,1.452665,73.04,1
221038,1,2844,0,48764,55467,48302.13,54788.87,461.87,678.13,1.451616,73.06,1
221079,1,2885,0,48762,55469,48303.05,54790.23,458.95,678.77,1.450559,73.08,1
221119,1,2925,0,48765,55477,48303.98,54791.61,461.02,685.39,1.449496,73.10,1
221159,1,2965,0,48756,55482,48304.88,54792.99,451.12,689.01,1.448426,73.12,1
221199,1,3005,0,48760,55486,48305.79,54794.37,454.21,691.62,1.447349,73.14,1
221239,1,3045,0,48758,55484,48306.70,54795.75,451.30,688.25,1.446265,73.17,1
221279,1,3085,0,48756,55491,48307.60,54797.14,448.40,693.86,1.445174,73.19,1
221319,1,3125,0,48749,55461,48308.48,54798.47,440.52,662.53,1.444077,73.21,1
221359,1,3165,0,48727,55359,48309.32,54799.59,417.68,559.41,1.442979,73.23,1
221399,1,3205,0,48684,55301,48310.07,54800.60,373.93,500.40,1.441880,73.25,1
221439,1,3245,0,48667,55268,48310.79,54801.54,356.21,466.46,1.440781,73.27,1
221479,1,3285,0,48655,55249,48311.48,54802.43,343.52,446.57,1.439683,73.30,1
221519,1,3325,0,48645,55233,48312.14,54803.29,332.86,429.71,1.438586,73.32,1
221559,1,3365,0,48642,55238,48312.80,54804.16,329.20,433.84,1.437490,73.34,1
221599,1,3405,0,48641,55246,48313.46,54805.05,327.54,440.95,1.436394,73.36,1
221639,1,3445,0,48644,55250,48314.12,54805.94,329.87,444.06,1.435298,73.38,1
221680,1,3486,0,48648,55260,48314.79,54806.85,333.21,453.15,1.434202,73.41,1
221720,1,3526,0,48647,55271,48315.46,54807.78,331.54,463.22,1.433105,73.43,1
221760,1,3566,0,48650,55290,48316.13,54808.75,333.87,481.25,1.432008,73.45,1
221800,1,3606,0,48663,55309,48316.82,54809.75,346.18,499.25,1.430909,73.48,1
221840,1,3646,0,48667,55321,48317.53,54810.77,349.47,510.23,1.429808,73.50,1
221880,1,3686,0,48671,55345,48318.23,54811.84,352.77,533.16,1.428705,73.52,1
221920,1,3726,0,48681,55363,48318.96,54812.95,362.04,550.05,1.427599,73.55,1
221960,1,3766,0,48690,55367,48319.70,54814.05,370.30,552.95,1.426490,73.57,1
222000,1,3806,0,48696,55390,48320.46,54815.21,375.54,574.79,1.425377,73.59,1
222040,1,3846,0,48698,55372,48321.21,54816.32,376.79,555.68,1.424262,73.62,1
222080,1,3886,0,48675,55313,48321.92,54817.32,353.08,495.68,1.423146,73.64,1
222120,1,3926,0,48654,55256,48322.59,54818.20,331.41,437.80,1.422031,73.67,1
222160,1,3966,0,48636,55246,48323.21,54819.05,312.79,426.95,1.420916,73.69,1
222200,1,4006,0,48627,55233,48323.82,54819.88,303.18,413.12,1.419802,73.72,1
222240,1,4046,0,48620,55217,48324.42,54820.68,295.58,396.32,1.418689,73.74,1
222281,1,4087,0,48615,55212,48325.00,54821.46,290.00,390.54,1.417577,73.76,1
222321,1,4127,0,48613,55212,48325.58,54822.24,287.42,389.76,1.416466,73.79,1
222361,1,4167,0,48606,55205,48326.14,54823.01,279.86,381.99,1.415356,73.81,1
222401,1,4207,0,48604,55195,48326.70,54823.75,277.30,371.25,1.414247,73.84,1
222441,1,4247,0,48597,55186,48327.24,54824.48,269.76,361.52,1.413140,73.86,1
222481,1,4287,0,48598,55200,48327.79,54825.23,270.21,374.77,1.412034,73.89,1
222521,1,4327,0,48602,55217,48328.34,54826.02,273.66,390.98,1.410928,73.91,1
222561,1,4367,0,48612,55226,48328.91,54826.82,283.09,399.18,1.409822,73.94,1
222601,1,4407,0,48620,55232,48329.49,54827.63,290.51,404.37,1.408718,73.96,1
222641,1,4447,0,48614,55241,48330.06,54828.46,283.94,412.54,1.407613,73.99,1
222681,1,4487,0,48616,55231,48330.63,54829.27,285.37,401.73,1.406508,74.02,1
222721,1,4527,0,48618,55235,48331.21,54830.08,286.79,404.92,1.405404,74.04,1
222761,1,4567,0,48608,55214,48331.76,54830.85,276.24,383.15,1.404301,74.07,1
222801,1,4607,0,48589,55145,48332.28,54831.48,256.72,313.52,1.403201,74.09,1
222842,1,4648,0,48558,55099,48332.73,54832.01,225.27,266.99,1.402103,74.12,1
222882,1,4688,0,48548,55095,48333.16,54832.54,214.84,262.46,1.401007,74.14,1
222922,1,4728,0,48541,55088,48333.58,54833.05,207.42,254.95,1.399915,74.17,1
222962,1,4768,0,48537,55075,48333.99,54833.54,203.01,241.46,1.398825,74.20,1
223002,1,4808,0,48534,55074,48334.39,54834.02,199.61,239.98,1.397738,74.22,1
223042,1,4848,0,48531,55068,48334.79,54834.48,196.21,233.52,1.396654,74.25,1
223082,1,4888,0,48533,55076,48335.18,54834.97,197.82,241.03,1.395573,74.27,1
223122,1,4928,0,48532,55077,48335.58,54835.45,196.42,241.55,1.394494,74.30,1
223162,1,4968,0,48546,55093,48336.00,54835.97,210.00,257.03,1.393418,74.32,1
223202,1,5008,0,48551,55114,48336.43,54836.53,214.57,277.47,1.392344,74.35,1
223242,1,5048,0,48565,55141,48336.89,54837.14,228.11,303.86,1.391272,74.38,1
223282,1,5088,0,48571,55164,48337.36,54837.79,233.64,326.21,1.390201,74.40,1
223322,1,5128,0,48579,55181,48337.84,54838.48,241.16,342.52,1.389131,74.43,1
223362,1,5168,0,48584,55185,48338.33,54839.18,245.67,345.82,1.388062,74.46,1
223402,1,5208,0,48579,55181,48338.82,54839.86,240.18,341.14,1.386993,74.48,1
223442,1,5248,0,48573,55154,48339.29,54840.49,233.71,313.51,1.385926,74.51,1
223483,1,5289,0,48545,55073,48339.70,54840.95,205.30,232.05,1.384863,74.53,1
223523,1,5329,0,48505,55000,48340.03,54841.27,164.97,158.73,1.383803,74.56,1
223563,1,5369,0,48480,54960,48340.31,54841.51,139.69,118.49,1.382746,74.59,1
223603,1,5409,0,48457,54933,48340.55,54841.70,116.45,91.30,1.381693,74.61,1
223643,1,5449,0,48441,54901,48340.75,54841.82,100.25,59.18,1.380644,74.64,1
223683,1,5489,0,48431,54889,48340.93,54841.91,90.07,47.09,1.379598,74.66,1
223723,1,5529,0,48429,54885,48341.11,54842.00,87.89,43.00,1.378556,74.69,1
223763,1,5569,0,48433,54883,48341.29,54842.08,91.71,40.92,1.377518,74.72,1
223803,1,5609,0,48431,54866,48341.47,54842.13,89.53,23.87,1.376483,74.74,1
223843,1,5649,0,48421,54867,48341.63,54842.18,79.37,24.82,1.375451,74.77,1
223883,1,5689,0,48424,54879,48341.80,54842.26,82.20,36.74,1.374423,74.79,1
223923,1,5729,0,48427,54890,48341.97,54842.36,85.03,47.64,1.373399,74.82,1
223963,1,5769,0,48430,54905,48342.14,54842.48,87.86,62.52,1.372377,74.85,1
224003,1,5809,0,48428,54912,48342.32,54842.62,85.68,69.38,1.371359,74.87,1
224043,1,5849,0,48431,54923,48342.50,54842.79,88.50,80.21,1.370345,74.90,1
224084,1,5890,0,48435,54952,48342.68,54843.00,92.32,109.00,1.369333,74.93,1
224124,1,5930,0,48443,54950,48342.89,54843.22,100.11,106.78,1.368324,74.95,1
224164,1,5970,0,48428,54914,48343.06,54843.36,84.94,70.64,1.367319,74.98,1
224204,1,6010,0,48422,54913,48343.22,54843.50,78.78,69.50,1.366317,75.00,1
224244,1,6050,0,48425,54938,48343.38,54843.70,81.62,94.30,1.365318,75.03,1
224284,1,6090,0,48442,54966,48343.58,54843.94,98.42,122.06,1.364321,75.05,1
224324,1,6130,0,48451,54988,48343.80,54844.23,107.20,143.77,1.363327,75.08,1
224364,1,6170,0,48468,55011,48344.05,54844.57,123.95,166.43,1.362336,75.11,1
224404,1,6210,0,48471,55022,48344.30,54844.92,126.70,177.08,1.361346,75.13,1
224444,1,6250,0,48469,55029,48344.55,54845.29,124.45,183.71,1.360359,75.16,1
224484,1,6290,0,48470,55030,48344.80,54845.66,125.20,184.34,1.359374,75.18,1
224524,1,6330,0,48475,55057,48345.07,54846.09,129.93,210.91,1.358390,75.21,1
224564,1,6370,0,48485,55084,48345.35,54846.57,139.65,237.43,1.357407,75.24,1
224604,1,6410,0,48493,55109,48345.64,54847.09,147.36,261.91,1.356424,75.26,1
224644,1,6450,0,48505,55133,48345.96,54847.67,159.04,285.33,1.355440,75.29,1
224685,1,6491,0,48512,55161,48346.30,54848.30,165.70,312.70,1.354456,75.31,1
224725,1,6531,0,48514,55174,48346.63,54848.95,167.37,325.05,1.353469,75.34,1
224765,1,6571,0,48506,55135,48346.95,54849.52,159.05,285.48,1.352482,75.36,1
224805,1,6611,0,48494,55109,48347.25,54850.04,146.75,258.96,1.351495,75.39,1
224845,1,6651,0,48491,55124,48347.54,54850.59,143.46,273.41,1.350508,75.41,1
224885,1,6691,0,48490,55130,48347.82,54851.15,142.18,278.85,1.349520,75.44,1
224925,1,6731,0,48505,55159,48348.14,54851.77,156.86,307.23,1.348531,75.46,1
224965,1,6771,0,48512,55172,48348.47,54852.41,163.53,319.59,1.347539,75.49,1
225005,1,6811,0,48523,55185,48348.82,54853.08,174.18,331.92,1.346546,75.52,1
225045,1,6851,0,48519,55184,48349.16,54853.74,169.84,330.26,1.345551,75.54,1
225085,1,6891,0,48516,55195,48349.50,54854.43,166.50,340.57,1.344553,75.57,1
225125,1,6931,0,48520,55206,48349.84,54855.13,170.16,350.87,1.343551,75.59,1
225165,1,6971,0,48524,55224,48350.19,54855.87,173.81,368.13,1.342546,75.62,1
225205,1,7011,0,48532,55253,48350.55,54856.66,181.45,396.34,1.341536,75.64,1
225246,1,7052,0,48540,55272,48350.93,54857.50,189.07,414.50,1.340520,75.67,1
225286,1,7092,0,48551,55295,48351.33,54858.37,199.67,436.63,1.339497,75.69,1
225326,1,7132,0,48551,55280,48351.73,54859.21,199.27,420.79,1.338469,75.72,1
225366,1,7172,0,48533,55238,48352.10,54859.97,180.90,378.03,1.337436,75.74,1
225406,1,7212,0,48522,55227,48352.44,54860.71,169.56,366.29,1.336400,75.77,1
225446,1,7252,0,48522,55239,48352.78,54861.46,169.22,377.54,1.335360,75.79,1
225486,1,7292,0,48534,55260,48353.14,54862.26,180.86,397.74,1.334314,75.82,1
225526,1,7332,0,48537,55267,48353.51,54863.07,183.49,403.93,1.333264,75.85,1
225566,1,7372,0,48547,55288,48353.89,54863.93,193.11,424.07,1.332207,75.87,1
225606,1,7412,0,48558,55305,48354.30,54864.81,203.70,440.19,1.331144,75.90,1
225646,1,7452,0,48558,55314,48354.71,54865.71,203.29,448.29,1.330074,75.92,1
225686,1,7492,0,48565,55328,48355.14,54866.63,209.86,461.37,1.328997,75.95,1
225726,1,7532,0,48575,55348,48355.58,54867.60,219.42,480.40,1.327911,75.97,1
225766,1,7572,0,48577,55353,48356.02,54868.57,220.98,484.43,1.326817,76.00,1
225806,1,7612,0,48578,55381,48356.47,54869.60,221.53,511.40,1.325713,76.02,1
225847,1,7653,0,48584,55390,48356.93,54870.64,227.07,519.36,1.324599,76.05,1
225887,1,7693,0,48587,55414,48357.39,54871.73,229.61,542.27,1.323473,76.08,1
225927,1,7733,0,48592,55409,48357.86,54872.80,234.14,536.20,1.322337,76.10,1
225967,1,7773,0,48583,55358,48358.31,54873.78,224.69,484.22,1.321193,76.13,1
226007,1,7813,0,48563,55328,48358.72,54874.69,204.28,453.31,1.320044,76.15,1
226047,1,7853,0,48562,55337,48359.12,54875.61,202.87,461.39,1.318888,76.18,1
226087,1,7893,0,48564,55332,48359.54,54876.53,204.46,455.47,1.317725,76.21,1
226127,1,7933,0,48562,55325,48359.94,54877.43,202.06,447.57,1.316557,76.23,1
226167,1,7973,0,48570,55340,48360.36,54878.35,209.64,461.65,1.315383,76.26,1
226207,1,8013,0,48572,55354,48360.79,54879.30,211.21,474.70,1.314202,76.29,1
226247,1,8053,0,48573,55356,48361.21,54880.26,211.79,475.74,1.313014,76.31,1
226287,1,8093,0,48578,55366,48361.65,54881.23,216.35,484.77,1.311820,76.34,1
226327,1,8133,0,48576,55376,48362.08,54882.22,213.92,493.78,1.310617,76.37,1
226367,1,8173,0,48581,55386,48362.52,54883.23,218.48,502.77,1.309407,76.39,1
226407,1,8213,0,48586,55412,48362.96,54884.29,223.04,527.71,1.308188,76.42,1
226448,1,8254,0,48594,55436,48363.43,54885.39,230.57,550.61,1.306959,76.45,1
226488,1,8294,0,48602,55456,48363.91,54886.54,238.09,569.46,1.305719,76.48,1
226528,1,8334,0,48607,55480,48364.39,54887.73,242.61,592.27,1.304467,76.50,1
226568,1,8374,0,48620,55495,48364.91,54888.94,255.09,606.06,1.303203,76.53,1
226608,1,8414,0,48624,55502,48365.43,54890.17,258.57,611.83,1.301927,76.56,1
226648,1,8454,0,48612,55457,48365.92,54891.30,246.08,565.70,1.300642,76.59,1
226688,1,8494,0,48602,55439,48366.39,54892.40,235.61,546.60,1.299348,76.61,1
226728,1,8534,0,48602,55443,48366.87,54893.50,235.13,549.50,1.298046,76.64,1
226768,1,8574,0,48606,55448,48367.35,54894.61,238.65,553.39,1.296736,76.67,1
226808,1,8614,0,48605,55445,48367.82,54895.71,237.18,549.29,1.295419,76.70,1
226848,1,8654,0,48613,55469,48368.32,54896.86,244.68,572.14,1.294092,76.73,1
226888,1,8694,0,48619,55488,48368.82,54898.05,250.18,589.95,1.292757,76.76,1
226928,1,8734,0,48622,55502,48369.33,54899.26,252.67,602.74,1.291411,76.78,1
226968,1,8774,0,48633,55518,48369.86,54900.50,263.14,617.50,1.290055,76.81,1
227009,1,8815,0,48638,55538,48370.39,54901.77,267.61,636.23,1.288689,76.84,1
227049,1,8855,0,48648,55567,48370.95,54903.11,277.05,663.89,1.287311,76.87,1
227089,1,8895,0,48655,55601,48371.52,54904.50,283.48,696.50,1.285919,76.90,1
227129,1,8935,0,48667,55625,48372.11,54905.95,294.89,719.05,1.284513,76.93,1
227169,1,8975,0,48683,55659,48372.73,54907.45,310.27,751.55,1.283092,76.96,1
227209,1,9015,0,48696,55690,48373.38,54909.02,322.62,780.98,1.281656,76.99,1
227249,1,9055,0,48711,55721,48374.06,54910.64,336.94,810.36,1.280203,77.02,1
227289,1,9095,0,48729,55748,48374.77,54912.32,354.23,835.68,1.278733,77.05,1
227329,1,9135,0,48733,55765,48375.49,54914.03,357.51,850.97,1.277247,77.08,1
227369,1,9175,0,48733,55729,48376.20,54915.66,356.80,813.34,1.275748,77.11,1
227409,1,9215,0,48718,55706,48376.89,54917.24,341.11,788.76,1.274236,77.14,1
227449,1,9255,0,48716,55712,48377.57,54918.83,338.43,793.17,1.272713,77.17,1
227489,1,9295,0,48717,55719,48378.25,54920.43,338.75,798.57,1.271179,77.21,1
227529,1,9335,0,48715,55715,48378.92,54922.02,336.08,792.98,1.269633,77.24,1
227569,1,9375,0,48717,55726,48379.60,54923.63,337.40,802.37,1.268077,77.27,1
227610,1,9416,0,48718,55739,48380.28,54925.27,337.72,813.73,1.266509,77.30,1
227650,1,9456,0,48726,55763,48380.97,54926.94,345.03,836.06,1.264930,77.33,1
227690,1,9496,0,48728,55775,48381.66,54928.64,346.34,846.36,1.263339,77.37,1
227730,1,9536,0,48739,55794,48382.38,54930.37,356.62,863.63,1.261736,77.40,1
227770,1,9576,0,48743,55816,48383.10,54932.14,359.90,883.86,1.260122,77.43,1
227810,1,9616,0,48758,55849,48383.85,54933.98,374.15,915.02,1.258495,77.46,1
227850,1,9656,0,48771,55876,48384.63,54935.87,386.37,940.13,1.256855,77.50,1
227890,1,9696,0,48784,55898,48385.43,54937.79,398.57,960.21,1.255203,77.53,1
227930,1,9736,0,48791,55916,48386.24,54939.75,404.76,976.25,1.253538,77.57,1
227970,1,9776,0,48797,55942,48387.07,54941.76,409.93,1000.24,1.251862,77.60,1
228010,1,9816,0,48805,55957,48387.90,54943.79,417.10,1013.21,1.250172,77.63,1
228050,1,9856,0,48804,55969,48388.73,54945.84,415.27,1023.16,1.248471,77.67,1
228090,1,9896,0,48812,55992,48389.58,54947.93,422.42,1044.07,1.246758,77.70,1
228130,1,9936,0,48812,56003,48390.43,54950.05,421.57,1052.95,1.245032,77.74,1
228171,1,9977,0,48806,55968,48391.26,54952.09,414.74,1015.91,1.243297,77.77,1
228211,1,10017,0,48789,55941,48392.06,54954.07,396.94,986.93,1.241554,77.81,1
228251,1,10057,0,48773,55940,48392.82,54956.04,380.18,983.96,1.239801,77.85,1
228291,1,10097,0,48777,55942,48393.59,54958.01,383.41,983.99,1.238041,77.88,1
228331,1,10137,0,48781,55940,48394.37,54959.98,386.63,980.02,1.236273,77.92,1
228371,1,10177,0,48769,55946,48395.12,54961.95,373.88,984.05,1.234497,77.95,1
228411,1,10217,0,48785,55963,48395.90,54963.95,389.10,999.05,1.232713,77.99,1
228451,1,10257,0,48789,55979,48396.69,54965.98,392.31,1013.02,1.230923,78.03,1
228491,1,10297,0,48796,55983,48397.49,54968.02,398.51,1014.98,1.229126,78.07,1
228531,1,10337,0,48791,55994,48398.28,54970.07,392.72,1023.93,1.227322,78.10,1
228571,1,10377,0,48798,56012,48399.08,54972.16,398.92,1039.84,1.225511,78.14,1
228611,1,10417,0,48805,56024,48399.89,54974.27,405.11,1049.73,1.223693,78.18,1
228651,1,10457,0,48802,56038,48400.70,54976.39,401.30,1061.61,1.221869,78.22,1
228691,1,10497,0,48805,56057,48401.50,54978.56,403.50,1078.44,1.220038,78.26,1
228731,1,10537,0,48810,56074,48402.32,54980.75,407.68,1093.25,1.218199,78.29,1
228772,1,10578,0,48813,56082,48403.14,54982.95,409.86,1099.05,1.216354,78.33,1
228812,1,10618,0,48817,56102,48403.97,54985.19,413.03,1116.81,1.214503,78.37,1
228852,1,10658,0,48820,56122,48404.80,54987.46,415.20,1134.54,1.212644,78.41,1
228892,1,10698,0,48825,56138,48405.64,54989.77,419.36,1148.23,1.210779,78.45,1
228932,1,10738,0,48831,56161,48406.50,54992.11,424.50,1168.89,1.208907,78.49,1
228972,1,10778,0,48837,56172,48407.36,54994.47,429.64,1177.53,1.207029,78.53,1
229012,1,10818,0,48827,56138,48408.20,54996.76,418.80,1141.24,1.205145,78.57,1
229052,1,10858,0,48820,56108,48409.02,54998.98,410.98,1109.02,1.203257,78.61,1
229092,1,10898,0,48810,56105,48409.83,55001.20,400.17,1103.80,1.201365,78.65,1
229132,1,10938,0,48817,56114,48410.64,55003.42,406.36,1110.58,1.199470,78.69,1
229172,1,10978,0,48806,56101,48411.44,55005.62,394.56,1095.38,1.197571,78.73,1
229212,1,11018,0,48806,56109,48412.23,55007.82,393.77,1101.18,1.195669,78.78,1
229252,1,11058,0,48809,56130,48413.02,55010.07,395.98,1119.93,1.193763,78.82,1
229292,1,11098,0,48812,56132,48413.82,55012.32,398.18,1119.68,1.191854,78.86,1
229332,1,11138,0,48809,56141,48414.61,55014.57,394.39,1126.43,1.189942,78.90,1
229373,1,11179,0,48812,56161,48415.41,55016.87,396.59,1144.13,1.188026,78.94,1
229413,1,11219,0,48819,56183,48416.22,55019.20,402.78,1163.80,1.186107,78.98,1
229453,1,11259,0,48821,56204,48417.03,55021.57,403.97,1182.43,1.184183,79.03,1
229493,1,11299,0,48831,56213,48417.86,55023.95,413.14,1189.05,1.182256,79.07,1
229533,1,11339,0,48831,56228,48418.69,55026.36,412.31,1201.64,1.180326,79.11,1
229573,1,11379,0,48831,56240,48419.51,55028.79,411.49,1211.21,1.178392,79.15,1
229613,1,11419,0,48838,56255,48420.35,55031.25,417.65,1223.75,1.176455,79.20,1
229653,1,11459,0,48841,56262,48421.20,55033.71,419.80,1228.29,1.174515,79.24,1
229693,1,11499,0,48839,56266,48422.03,55036.18,416.97,1229.82,1.172572,79.28,1
229733,1,11539,0,48842,56284,48422.87,55038.67,419.13,1245.33,1.170626,79.33,1
229773,1,11579,0,48843,56287,48423.71,55041.17,419.29,1245.83,1.168678,79.37,1
229813,1,11619,0,48849,56298,48424.56,55043.69,424.44,1254.31,1.166726,79.42,1
229853,1,11659,0,48844,56275,48425.40,55046.15,418.60,1228.85,1.164773,79.46,1
229893,1,11699,0,48817,56223,48426.19,55048.51,390.81,1174.49,1.162819,79.50,1
229933,1,11739,0,48804,56212,48426.95,55050.84,377.05,1161.16,1.160864,79.55,1
229974,1,11780,0,48795,56206,48427.68,55053.15,367.32,1152.85,1.158907,79.59,1
230014,1,11820,0,48790,56201,48428.41,55055.45,361.59,1145.55,1.156949,79.64,1
230054,1,11860,0,48783,56187,48429.12,55057.71,353.88,1129.29,1.154990,79.68,1
230094,1,11900,0,48766,56188,48429.80,55059.97,336.20,1128.03,1.153030,79.73,1
230134,1,11940,0,48772,56170,48430.48,55062.20,341.52,1107.80,1.151068,79.77,1
230174,1,11980,0,48753,56157,48431.13,55064.39,321.87,1092.61,1.149107,79.82,1
230214,1,12020,0,48741,56133,48431.75,55066.52,309.25,1066.48,1.147144,79.86,1
230254,1,12060,0,48735,56128,48432.36,55068.65,302.64,1059.35,1.145181,79.91,1
230294,1,12100,0,48730,56121,48432.96,55070.75,297.04,1050.25,1.143218,79.95,1
230334,1,12140,0,48732,56133,48433.55,55072.88,298.45,1060.12,1.141254,80.00,1
230374,1,12180,0,48726,56134,48434.14,55075.00,291.86,1059.00,1.139289,80.04,1
230414,1,12220,0,48727,56141,48434.73,55077.14,292.27,1063.86,1.137324,80.09,1
230454,1,12260,0,48727,56141,48435.31,55079.27,291.69,1061.73,1.135359,80.13,1
230494,1,12300,0,48724,56156,48435.89,55081.42,288.11,1074.58,1.133393,80.18,1
230534,1,12340,0,48724,56164,48436.47,55083.59,287.53,1080.41,1.131426,80.23,1
230574,1,12380,0,48730,56188,48437.06,55085.80,292.94,1102.20,1.129458,80.27,1
230615,1,12421,0,48735,56212,48437.66,55088.05,297.34,1123.95,1.127489,80.32,1
230655,1,12461,0,48747,56239,48438.28,55090.36,308.72,1148.64,1.125520,80.37,1
230695,1,12501,0,48757,56268,48438.92,55092.71,318.08,1175.29,1.123549,80.41,1
230735,1,12541,0,48758,56233,48439.56,55095.00,318.44,1138.00,1.121577,80.46,1
230775,1,12581,0,48741,56215,48440.16,55097.24,300.84,1117.76,1.119606,80.50,1
230815,1,12621,0,48735,56210,48440.75,55099.46,294.25,1110.54,1.117634,80.55,1
230855,1,12661,0,48737,56210,48441.35,55101.69,295.65,1108.31,1.115662,80.60,1
230895,1,12701,0,48735,56196,48441.94,55103.88,293.06,1092.12,1.113690,80.64,1
230935,1,12741,0,48728,56175,48442.51,55106.02,285.49,1068.98,1.111719,80.69,1
230975,1,12781,0,48721,56187,48443.07,55108.19,277.93,1078.81,1.109748,80.74,1
231015,1,12821,0,48715,56163,48443.62,55110.30,271.38,1052.70,1.107777,80.79,1
231055,1,12861,0,48707,56156,48444.14,55112.39,262.86,1043.61,1.105807,80.83,1
231095,1,12901,0,48695,56153,48444.65,55114.47,250.35,1038.53,1.103837,80.88,1
231135,1,12941,0,48692,56146,48445.14,55116.54,246.86,1029.46,1.101868,80.93,1
231175,1,12981,0,48685,56153,48445.62,55118.61,239.37,1034.39,1.099899,80.97,1
231216,1,13022,0,48686,56156,48446.11,55120.69,239.89,1035.31,1.097931,81.02,1
231256,1,13062,0,48676,56154,48446.57,55122.76,229.43,1031.24,1.095962,81.07,1
231296,1,13102,0,48675,56159,48447.02,55124.83,227.98,1034.17,1.093994,81.12,1
231336,1,13142,0,48683,56176,48447.50,55126.94,235.50,1049.06,1.092026,81.16,1
231376,1,13182,0,48682,56195,48447.96,55129.07,234.04,1065.93,1.090057,81.21,1
231416,1,13222,0,48684,56204,48448.44,55131.23,235.56,1072.77,1.088089,81.26,1
231456,1,13262,0,48697,56214,48448.94,55133.39,248.06,1080.61,1.086121,81.31,1
231496,1,13302,0,48699,56228,48449.44,55135.59,249.56,1092.41,1.084153,81.35,1
231536,1,13342,0,48700,56211,48449.94,55137.74,250.06,1073.26,1.082186,81.40,1
231576,1,13382,0,48684,56164,48450.41,55139.79,233.59,1024.21,1.080219,81.45,1
231616,1,13422,0,48660,56114,48450.83,55141.74,209.17,972.26,1.078254,81.50,1
231656,1,13462,0,48643,56101,48451.22,55143.66,191.78,957.34,1.076290,81.55,1
231696,1,13502,0,48638,56095,48451.59,55145.57,186.41,949.43,1.074327,81.59,1
231736,1,13542,0,48635,56095,48451.96,55147.46,183.04,947.54,1.072365,81.64,1
231776,1,13582,0,48629,56094,48452.32,55149.36,176.68,944.64,1.070403,81.69,1
231817,1,13623,0,48632,56100,48452.68,55151.26,179.32,948.74,1.068443,81.74,1
231857,1,13663,0,48630,56112,48453.03,55153.18,176.97,958.82,1.066484,81.79,1
231897,1,13703,0,48635,56121,48453.39,55155.12,181.61,965.88,1.064526,81.83,1
231937,1,13743,0,48637,56140,48453.76,55157.09,183.24,982.91,1.062569,81.88,1
231977,1,13783,0,48656,56172,48454.17,55159.12,201.83,1012.87,1.060612,81.93,1
232017,1,13823,0,48669,56202,48454.60,55161.21,214.40,1040.79,1.058656,81.98,1
232057,1,13863,0,48682,56226,48455.05,55163.34,226.95,1062.66,1.056701,82.03,1
232097,1,13903,0,48708,56265,48455.56,55165.55,252.44,1099.45,1.054747,82.07,1
232137,1,13943,0,48714,56281,48456.08,55167.78,257.92,1113.22,1.052793,82.12,1
232177,1,13983,0,48726,56311,48456.62,55170.07,269.37,1140.93,1.050841,82.17,1
232217,1,14023,0,48734,56331,48457.18,55172.39,276.82,1158.61,1.048889,82.22,1
232257,1,14063,0,48746,56357,48457.76,55174.76,288.24,1182.24,1.046938,82.27,1
232297,1,14103,0,48750,56361,48458.34,55177.14,291.66,1183.86,1.044989,82.32,1
232337,1,14143,0,48745,56300,48458.92,55179.38,286.08,1120.62,1.043041,82.36,1
232378,1,14184,0,48723,56279,48459.45,55181.58,263.55,1097.42,1.041096,82.41,1
232418,1,14224,0,48719,56271,48459.97,55183.76,259.03,1087.24,1.039152,82.46,1
232458,1,14264,0,48713,56273,48460.48,55185.94,252.52,1087.06,1.037210,82.51,1
232498,1,14304,0,48712,56262,48460.98,55188.09,251.02,1073.91,1.035269,82.56,1
232538,1,14344,0,48712,56268,48461.48,55190.25,250.52,1077.75,1.033330,82.60,1
232578,1,14384,0,48715,56270,48461.99,55192.41,253.01,1077.59,1.031394,82.65,1
232618,1,14424,0,48714,56272,48462.50,55194.57,251.50,1077.43,1.029459,82.70,1
232658,1,14464,0,48722,56272,48463.02,55196.73,258.98,1075.27,1.027526,82.75,1
232698,1,14504,0,48730,56284,48463.55,55198.91,266.45,1085.09,1.025596,82.80,1
232738,1,14544,0,48734,56305,48464.09,55201.12,269.91,1103.88,1.023668,82.85,1
232778,1,14584,0,48743,56320,48464.65,55203.36,278.35,1116.64,1.021742,82.89,1
232818,1,14624,0,48753,56345,48465.23,55205.64,287.77,1139.36,1.019818,82.94,1
232858,1,14664,0,48761,56366,48465.82,55207.96,295.18,1158.04,1.017897,82.99,1
232898,1,14704,0,48770,56380,48466.43,55210.31,303.57,1169.69,1.015979,83.04,1
232938,1,14744,0,48780,56401,48467.06,55212.69,312.94,1188.31,1.014063,83.09,1
232979,1,14785,0,48789,56424,48467.71,55215.12,321.29,1208.88,1.012150,83.14,1
233019,1,14825,0,48798,56447,48468.37,55217.58,329.63,1229.42,1.010239,83.18,1
233059,1,14865,0,48803,56438,48469.04,55220.02,333.96,1217.98,1.008332,83.23,1
233099,1,14905,0,48785,56376,48469.67,55222.34,315.33,1153.66,1.006428,83.28,1
233139,1,14945,0,48778,56357,48470.29,55224.61,307.71,1132.39,1.004527,83.33,1
233179,1,14985,0,48773,56358,48470.89,55226.87,302.11,1131.13,1.002630,83.38,1
233219,1,15025,0,48782,56360,48471.52,55229.14,310.48,1130.86,1.000736,83.43,1
233259,1,15065,0,48787,56361,48472.15,55231.41,314.85,1129.59,0.998846,83.47,1
233299,1,15105,0,48796,56362,48472.80,55233.67,323.20,1128.33,0.996960,83.52,1
233339,1,15145,0,48801,56383,48473.46,55235.97,327.54,1147.03,0.995078,83.57,1
233379,1,15185,0,48805,56388,48474.12,55238.28,330.88,1149.72,0.993200,83.62,1
233419,1,15225,0,48813,56391,48474.80,55240.59,338.20,1150.41,0.991327,83.67,1
233459,1,15265,0,48820,56408,48475.49,55242.92,344.51,1165.08,0.989458,83.71,1
233499,1,15305,0,48823,56418,48476.19,55245.27,346.81,1172.73,0.987593,83.76,1
233539,1,15345,0,48833,56437,48476.90,55247.66,356.10,1189.34,0.985733,83.81,1
233580,1,15386,0,48841,56464,48477.63,55250.09,363.37,1213.91,0.983877,83.86,1
233620,1,15426,0,48849,56483,48478.37,55252.56,370.62,1230.44,0.982026,83.90,1
233660,1,15466,0,48860,56498,48479.14,55255.05,380.86,1242.95,0.980180,83.95,1
233700,1,15506,0,48868,56524,48479.92,55257.59,388.08,1266.41,0.978338,84.00,1
233740,1,15546,0,48875,56543,48480.71,55260.16,394.29,1282.84,0.976501,84.05,1
233780,1,15586,0,48889,56565,48481.53,55262.77,407.47,1302.23,0.974670,84.10,1
233820,1,15626,0,48894,56567,48482.36,55265.38,411.64,1301.62,0.972843,84.14,1
233860,1,15666,0,48890,56484,48483.17,55267.82,406.83,1216.18,0.971023,84.19,1
233900,1,15706,0,48862,56442,48483.93,55270.17,378.07,1171.83,0.969208,84.24,1
233940,1,15746,0,48852,56421,48484.67,55272.48,367.33,1148.52,0.967399,84.29,1
233980,1,15786,0,48854,56416,48485.41,55274.77,368.59,1141.23,0.965595,84.33,1
234020,1,15826,0,48856,56396,48486.15,55277.01,369.85,1118.99,0.963798,84.38,1
234060,1,15866,0,48853,56396,48486.88,55279.25,366.12,1116.75,0.962005,84.43,1
234100,1,15906,0,48851,56405,48487.61,55281.50,363.39,1123.50,0.960219,84.47,1
234141,1,15947,0,48859,56404,48488.36,55283.75,370.64,1120.25,0.958438,84.52,1
234181,1,15987,0,48859,56413,48489.10,55286.01,369.90,1126.99,0.956662,84.57,1
234221,1,16027,0,48860,56415,48489.84,55288.27,370.16,1126.73,0.954893,84.61,1
234261,1,16067,0,48864,56429,48490.59,55290.55,373.41,1138.45,0.953129,84.66,1
234301,1,16107,0,48873,56439,48491.36,55292.84,381.64,1146.16,0.951370,84.71,1
234341,1,16147,0,48881,56465,48492.14,55295.19,388.86,1169.81,0.949618,84.75,1
234381,1,16187,0,48894,56482,48492.94,55297.57,401.06,1184.43,0.947871,84.80,1
234421,1,16227,0,48906,56497,48493.77,55299.96,412.23,1197.04,0.946131,84.85,1
234461,1,16267,0,48908,56505,48494.60,55302.37,413.40,1202.63,0.944397,84.89,1
234501,1,16307,0,48919,56517,48495.45,55304.80,423.55,1212.20,0.942670,84.94,1
234541,1,16347,0,48913,56525,48496.29,55307.25,416.71,1217.75,0.940949,84.99,1
234581,1,16387,0,48928,56537,48497.15,55309.71,430.85,1227.29,0.939234,85.03,1
234621,1,16427,0,48925,56522,48498.00,55312.13,427.00,1209.87,0.937526,85.08,1
234661,1,16467,0,48900,56430,48498.81,55314.37,401.19,1115.63,0.935824,85.12,1
234701,1,16507,0,48866,56372,48499.54,55316.49,366.46,1055.51,0.934129,85.17,1
234742,1,16548,0,48851,56341,48500.25,55318.54,350.75,1022.46,0.932439,85.21,1
234782,1,16588,0,48846,56332,48500.94,55320.57,345.06,1011.43,0.930754,85.26,1
234822,1,16628,0,48838,56319,48501.61,55322.57,336.39,996.43,0.929076,85.31,1
234862,1,16668,0,48835,56313,48502.28,55324.55,332.72,988.45,0.927402,85.35,1
234902,1,16708,0,48840,56320,48502.96,55326.54,337.04,993.46,0.925734,85.40,1
234942,1,16748,0,48845,56337,48503.64,55328.56,341.36,1008.44,0.924072,85.44,1
234982,1,16788,0,48850,56333,48504.34,55330.57,345.66,1002.43,0.922415,85.49,1
235022,1,16828,0,48855,56337,48505.04,55332.59,349.96,1004.41,0.920764,85.53,1
235062,1,16868,0,48860,56345,48505.75,55334.62,354.25,1010.38,0.919118,85.58,1
235102,1,16908,0,48868,56356,48506.48,55336.66,361.52,1019.34,0.917479,85.62,1
235142,1,16948,0,48870,56371,48507.20,55338.73,362.80,1032.27,0.915845,85.66,1
235182,1,16988,0,48879,56376,48507.95,55340.80,371.05,1035.20,0.914218,85.71,1
235222,1,17028,0,48879,56390,48508.69,55342.91,370.31,1047.09,0.912596,85.75,1
235262,1,17068,0,48881,56400,48509.44,55345.02,371.56,1054.98,0.910980,85.80,1
235302,1,17108,0,48887,56413,48510.20,55347.16,376.80,1065.84,0.909370,85.84,1
235343,1,17149,0,48889,56427,48510.95,55349.32,378.05,1077.68,0.907765,85.89,1
235383,1,17189,0,48896,56401,48511.72,55351.43,384.28,1049.57,0.906167,85.93,1
235423,1,17229,0,48867,56333,48512.43,55353.39,354.57,979.61,0.904575,85.97,1
235463,1,17269,0,48851,56295,48513.11,55355.27,337.89,939.73,0.902988,86.02,1
235503,1,17309,0,48852,56299,48513.79,55357.16,338.21,941.84,0.901407,86.06,1
235543,1,17349,0,48855,56305,48514.48,55359.06,340.52,945.94,0.899832,86.10,1
235583,1,17389,0,48857,56304,48515.16,55360.95,341.84,943.05,0.898262,86.15,1
235623,1,17429,0,48868,56312,48515.87,55362.86,352.13,949.14,0.896698,86.19,1
235663,1,17469,0,48874,56317,48516.59,55364.77,357.41,952.23,0.895141,86.23,1
235703,1,17509,0,48882,56312,48517.32,55366.66,364.68,945.34,0.893590,86.28,1
235743,1,17549,0,48871,56303,48518.03,55368.54,352.97,934.46,0.892045,86.32,1
235783,1,17589,0,48883,56311,48518.76,55370.42,364.24,940.58,0.890506,86.36,1
235823,1,17629,0,48878,56323,48519.48,55372.33,358.52,950.67,0.888973,86.40,1
235863,1,17669,0,48888,56336,48520.21,55374.26,367.79,961.74,0.887447,86.45,1
235903,1,17709,0,48892,56352,48520.96,55376.21,371.04,975.79,0.885926,86.49,1
235944,1,17750,0,48898,56359,48521.71,55378.18,376.29,980.82,0.884412,86.53,1
235984,1,17790,0,48901,56383,48522.48,55380.20,378.52,1002.80,0.882904,86.57,1
236024,1,17830,0,48911,56404,48523.25,55382.25,387.75,1021.75,0.881402,86.61,1
236064,1,17870,0,48924,56391,48524.06,55384.27,399.94,1006.73,0.879907,86.66,1
236104,1,17910,0,48908,56324,48524.83,55386.15,383.17,937.85,0.878418,86.70,1
236144,1,17950,0,48892,56280,48525.56,55387.94,366.44,892.06,0.876936,86.74,1
236184,1,17990,0,48892,56284,48526.30,55389.73,365.70,894.27,0.875461,86.78,1
236224,1,18030,0,48907,56283,48527.06,55391.52,379.94,891.48,0.873993,86.82,1
236264,1,18070,0,48913,56281,48527.83,55393.30,385.17,887.70,0.872532,86.86,1
236304,1,18110,0,48915,56297,48528.61,55395.11,386.39,901.89,0.871078,86.90,1
236344,1,18150,0,48927,56293,48529.41,55396.91,397.59,896.09,0.869631,86.94,1
236384,1,18190,0,48931,56292,48530.21,55398.70,400.79,893.30,0.868192,86.98,1
236424,1,18230,0,48930,56282,48531.01,55400.47,398.99,881.53,0.866761,87.02,1
236464,1,18270,0,48931,56291,48531.81,55402.25,399.19,888.75,0.865337,87.06,1
236505,1,18311,0,48938,56303,48532.62,55404.05,405.37,898.95,0.863921,87.10,1
236545,1,18351,0,48948,56327,48533.46,55405.90,414.54,921.10,0.862513,87.14,1
236585,1,18391,0,48963,56348,48534.32,55407.79,428.68,940.21,0.861112,87.18,1
236625,1,18431,0,48975,56375,48535.20,55409.73,439.80,965.27,0.859720,87.22,1
236665,1,18471,0,48987,56393,48536.11,55411.70,450.89,981.30,0.858336,87.26,1
236705,1,18511,0,49011,56430,48537.05,55413.73,473.95,1016.27,0.856960,87.30,1
236745,1,18551,0,49020,56416,48538.02,55415.74,481.98,1000.26,0.855595,87.34,1
236785,1,18591,0,49006,56319,48538.96,55417.55,467.04,901.45,0.854238,87.38,1
236825,1,18631,0,48981,56258,48539.85,55419.23,441.15,838.77,0.852891,87.42,1
236865,1,18671,0,48974,56235,48540.72,55420.87,433.28,814.13,0.851553,87.46,1
236905,1,18711,0,48973,56219,48541.59,55422.46,431.41,796.54,0.850224,87.50,1
236945,1,18751,0,48974,56197,48542.45,55424.02,431.55,772.98,0.848903,87.54,1
236985,1,18791,0,48969,56198,48543.31,55425.57,425.69,772.43,0.847592,87.57,1
237025,1,18831,0,48984,56207,48544.19,55427.13,439.81,779.87,0.846290,87.61,1
237065,1,18871,0,48987,56211,48545.08,55428.70,441.92,782.30,0.844998,87.65,1
237106,1,18912,0,48996,56199,48545.98,55430.24,450.02,768.76,0.843715,87.69,1
237146,1,18952,0,48997,56216,48546.88,55431.82,450.12,784.18,0.842441,87.73,1
237186,1,18992,0,49007,56226,48547.80,55433.41,459.20,792.59,0.841178,87.76,1
237226,1,19032,0,49014,56246,48548.74,55435.03,465.26,810.97,0.839924,87.80,1
237266,1,19072,0,49034,56267,48549.71,55436.70,484.29,830.30,0.838680,87.84,1
237306,1,19112,0,49045,56297,48550.70,55438.42,494.30,858.58,0.837447,87.87,1
237346,1,19152,0,49058,56314,48551.72,55440.17,506.28,873.83,0.836225,87.91,1
237386,1,19192,0,49074,56337,48552.77,55441.97,521.23,895.03,0.835013,87.95,1
237426,1,19232,0,49087,56337,48553.84,55443.76,533.16,893.24,0.833813,87.98,1
237466,1,19272,0,49079,56261,48554.89,55445.40,524.11,815.60,0.832625,88.02,1
237506,1,19312,0,49050,56191,48555.88,55446.89,494.12,744.11,0.831447,88.05,1
237546,1,19352,0,49033,56161,48556.84,55448.32,476.16,712.68,0.830280,88.09,1
237586,1,19392,0,49034,56144,48557.79,55449.71,476.21,694.29,0.829124,88.13,1
237626,1,19432,0,49025,56119,48558.73,55451.05,466.27,667.95,0.827978,88.16,1
237666,1,19472,0,49022,56106,48559.66,55452.37,462.34,653.63,0.826843,88.20,1
237707,1,19513,0,49023,56115,48560.59,55453.70,462.41,661.30,0.825717,88.23,1
237747,1,19553,0,49027,56103,48561.52,55455.00,465.48,648.00,0.824602,88.27,1
237787,1,19593,0,49025,56113,48562.45,55456.31,462.55,656.69,0.823497,88.30,1
237827,1,19633,0,49026,56103,48563.38,55457.61,462.62,645.39,0.822402,88.33,1
237867,1,19673,0,49030,56121,48564.32,55458.93,465.68,662.07,0.821317,88.37,1
237907,1,19713,0,49038,56132,48565.27,55460.28,472.73,671.72,0.820242,88.40,1
237947,1,19753,0,49047,56154,48566.23,55461.67,480.77,692.33,0.819177,88.44,1
237987,1,19793,0,49058,56160,48567.21,55463.07,490.79,696.93,0.818123,88.47,1
238027,1,19833,0,49072,56178,48568.23,55464.50,503.77,713.50,0.817080,88.50,1
238067,1,19873,0,49084,56197,48569.26,55465.96,514.74,731.04,0.816048,88.53,1
238107,1,19913,0,49087,56208,48570.29,55467.45,516.71,740.55,0.815027,88.57,1
238147,1,19953,0,49082,56141,48571.32,55468.80,510.68,672.20,0.814017,88.60,1
238187,1,19993,0,49052,56066,48572.28,55469.99,479.72,596.01,0.813018,88.63,1
238227,1,20033,0,49029,56043,48573.19,55471.14,455.81,571.86,0.812029,88.66,1
238267,1,20073,1,49026,56023,48574.10,55472.25,451.90,550.75,0.811050,88.70,1
238307,1,20113,1,49014,56002,48574.98,55473.31,439.02,528.69,0.810080,88.73,1
238348,1,20154,1,49008,55991,48575.85,55474.34,432.15,516.66,0.809120,88.76,1
238388,1,20194,1,49005,55988,48576.71,55475.37,428.29,512.63,0.808168,88.79,1
238428,1,20234,1,49000,55986,48577.55,55476.39,422.45,509.61,0.807226,88.82,1
238468,1,20274,1,49005,55969,48578.41,55477.38,426.59,491.62,0.806293,88.85,1
238508,1,20314,1,49000,55972,48579.25,55478.37,420.75,493.62,0.805368,88.88,1
238548,1,20354,1,49001,55977,48580.10,55479.37,420.90,497.62,0.804453,88.91,1
238588,1,20394,1,49004,55992,48580.95,55480.40,423.05,511.60,0.803546,88.94,1
238628,1,20434,1,49011,55989,48581.81,55481.42,429.19,507.58,0.802648,88.97,1
238668,1,20474,1,49019,55998,48582.68,55482.46,436.32,515.54,0.801760,89.00,1
238708,1,20514,1,49014,56003,48583.55,55483.50,430.45,519.50,0.800881,89.03,1
238748,1,20554,1,49021,56011,48584.42,55484.55,436.58,526.45,0.800010,89.06,1
238788,1,20594,1,49022,56010,48585.30,55485.61,436.70,524.39,0.799149,89.09,1
238828,1,20634,1,49008,55957,48586.14,55486.55,421.86,470.45,0.798296,89.12,1
238868,1,20674,1,48983,55902,48586.94,55487.38,396.06,414.62,0.797452,89.15,1
238909,1,20715,1,48971,55881,48587.71,55488.17,383.29,392.83,0.796616,89.17,1
238949,1,20755,1,48967,55872,48588.47,55488.94,378.53,383.06,0.795789,89.20,1
238989,1,20795,1,48959,55855,48589.21,55489.68,369.79,365.32,0.794968,89.23,1
239029,1,20835,1,48959,55863,48589.96,55490.43,369.04,372.57,0.794156,89.26,1
239069,1,20875,1,48960,55868,48590.70,55491.18,369.30,376.82,0.793351,89.28,1
239109,1,20915,1,48964,55873,48591.45,55491.95,372.55,381.05,0.792554,89.31,1
239149,1,20955,1,48965,55861,48592.20,55492.69,372.80,368.31,0.791764,89.34,1
239189,1,20995,1,48964,55861,48592.94,55493.43,371.06,367.57,0.790983,89.36,1
239229,1,21035,1,48967,55857,48593.69,55494.16,373.31,362.84,0.790209,89.39,1
239269,1,21075,1,48966,55870,48594.44,55494.91,371.56,375.09,0.789443,89.42,1
239309,1,21115,1,48965,55869,48595.18,55495.66,369.82,373.34,0.788685,89.44,1
239349,1,21155,1,48967,55883,48595.93,55496.44,371.07,386.56,0.787934,89.47,1
239389,1,21195,1,48972,55887,48596.68,55497.22,375.32,389.78,0.787191,89.49,1
239429,1,21235,1,48970,55901,48597.43,55498.03,372.57,402.97,0.786456,89.52,1
239469,1,21275,1,48975,55907,48598.18,55498.85,376.82,408.15,0.785728,89.55,1
239510,1,21316,1,48970,55866,48598.93,55499.58,371.07,366.42,0.785008,89.57,1
239550,1,21356,1,48938,55806,48599.61,55500.20,338.39,305.80,0.784294,89.59,1
239590,1,21396,1,48922,55783,48600.25,55500.76,321.75,282.24,0.783588,89.62,1
239630,1,21436,1,48914,55767,48600.88,55501.30,313.12,265.70,0.782887,89.64,1
239670,1,21476,1,48910,55744,48601.50,55501.79,308.50,242.21,0.782193,89.67,1
239710,1,21516,1,48900,55738,48602.10,55502.26,297.90,235.74,0.781506,89.69,1
239750,1,21556,1,48901,55748,48602.70,55502.75,298.30,245.25,0.780824,89.71,1
239790,1,21596,1,48906,55740,48603.31,55503.23,302.69,236.77,0.780149,89.74,1
239830,1,21636,1,48906,55745,48603.91,55503.71,302.09,241.29,0.779479,89.76,1
239870,1,21676,1,48908,55735,48604.52,55504.18,303.48,230.82,0.778816,89.78,1
239910,1,21716,1,48900,55739,48605.12,55504.65,294.88,234.35,0.778160,89.81,1
239950,1,21756,1,48898,55745,48605.70,55505.13,292.30,239.87,0.777509,89.83,1
239990,1,21796,1,48904,55753,48606.30,55505.62,297.70,247.37,0.776864,89.85,1
240030,1,21836,1,48902,55762,48606.89,55506.14,295.11,255.86,0.776225,89.87,1
240070,1,21876,1,48902,55767,48607.48,55506.66,294.52,260.34,0.775592,89.90,1
240111,1,21917,1,48904,55774,48608.08,55507.20,295.92,266.80,0.774965,89.92,1
240151,1,21957,1,48900,55788,48608.66,55507.76,291.34,280.24,0.774344,89.94,1
240191,1,21997,1,48905,55806,48609.26,55508.36,295.74,297.64,0.773728,89.96,1
240231,1,22037,1,48912,55804,48609.86,55508.95,302.14,295.05,0.773118,89.98,1
240271,1,22077,1,48897,55754,48610.44,55509.45,286.56,244.55,0.772514,90.00,1
240311,1,22117,1,48873,55713,48610.96,55509.86,262.04,203.14,0.771915,90.03,1
240351,1,22157,1,48862,55698,48611.47,55510.23,250.53,187.77,0.771321,90.05,1
240391,1,22197,1,48865,55681,48611.98,55510.58,253.02,170.42,0.770732,90.07,1
240431,1,22237,1,48861,55665,48612.48,55510.89,248.52,154.11,0.770148,90.09,1
240471,1,22277,1,48853,55662,48612.96,55511.19,240.04,150.81,0.769569,90.11,1
240511,1,22317,1,48853,55661,48613.44,55511.49,239.56,149.51,0.768995,90.13,1
240551,1,22357,1,48852,55669,48613.91,55511.81,238.09,157.19,0.768426,90.15,1
240591,1,22397,1,48855,55666,48614.40,55512.12,240.60,153.88,0.767862,90.17,1
240631,1,22437,1,48846,55670,48614.86,55512.43,231.14,157.57,0.767303,90.19,1
240671,1,22477,1,48846,55675,48615.33,55512.76,230.67,162.24,0.766748,90.21,1
240712,1,22518,1,48851,55692,48615.80,55513.12,235.20,178.88,0.766197,90.22,1
240752,1,22558,1,48848,55714,48616.27,55513.52,231.73,200.48,0.765651,90.24,1
240792,1,22598,1,48859,55720,48616.75,55513.94,242.25,206.06,0.765110,90.26,1
240832,1,22638,1,48867,55738,48617.25,55514.39,249.75,223.61,0.764574,90.28,1
240872,1,22678,1,48867,55755,48617.75,55514.87,249.25,240.13,0.764042,90.30,1
240912,1,22718,1,48881,55778,48618.28,55515.40,262.72,262.60,0.763515,90.32,1
240952,1,22758,1,48893,55793,48618.83,55515.95,274.17,277.05,0.762994,90.34,1
240992,1,22798,1,48900,55807,48619.39,55516.54,280.61,290.46,0.762477,90.35,1
241032,1,22838,1,48905,55821,48619.97,55517.14,285.03,303.86,0.761967,90.37,1
241072,1,22878,1,48899,55777,48620.53,55517.66,278.47,259.34,0.761461,90.39,1
241112,1,22918,1,48881,55735,48621.05,55518.10,259.95,216.90,0.760961,90.41,1
241152,1,22958,1,48872,55724,48621.55,55518.52,250.45,205.48,0.760466,90.43,1
241192,1,22998,1,48863,55718,48622.04,55518.92,240.96,199.08,0.759976,90.44,1
241232,1,23038,1,48859,55699,48622.52,55519.28,236.48,179.72,0.759490,90.46,1
241273,1,23079,1,48851,55697,48622.97,55519.64,228.03,177.36,0.759009,90.48,1
241313,1,23119,1,48859,55707,48623.45,55520.01,235.55,186.99,0.758533,90.49,1
241353,1,23159,1,48859,55724,48623.92,55520.42,235.08,203.58,0.758061,90.51,1
241393,1,23199,1,48862,55725,48624.39,55520.83,237.61,204.17,0.757593,90.53,1
241433,1,23239,1,48866,55735,48624.88,55521.26,241.12,213.74,0.757131,90.54,1
241473,1,23279,1,48873,55757,48625.37,55521.73,247.62,235.27,0.756673,90.56,1
241513,1,23319,1,48877,55769,48625.88,55522.23,251.12,246.77,0.756220,90.58,1
241553,1,23359,1,48894,55789,48626.42,55522.77,267.58,266.23,0.755772,90.59,1
241593,1,23399,1,48901,55803,48626.97,55523.33,274.03,279.67,0.755329,90.61,1
241633,1,23439,1,48903,55818,48627.52,55523.92,275.48,294.08,0.754892,90.62,1
241673,1,23479,1,48908,55833,48628.09,55524.54,279.91,308.46,0.754459,90.64,1
241713,1,23519,1,48918,55845,48628.67,55525.18,289.33,319.82,0.754032,90.65,1
241753,1,23559,1,48917,55861,48629.25,55525.85,287.75,335.15,0.753610,90.67,1
241793,1,23599,1,48914,55868,48629.82,55526.54,284.18,341.46,0.753193,90.68,1
241833,1,23639,1,48924,55884,48630.41,55527.25,293.59,356.75,0.752781,90.70,1
241874,1,23680,1,48928,55896,48631.00,55527.99,297.00,368.01,0.752374,90.71,1
241914,1,23720,1,48929,55881,48631.60,55528.70,297.40,352.30,0.751973,90.73,1
241954,1,23760,1,48905,55834,48632.15,55529.31,272.85,304.69,0.751576,90.74,1
241994,1,23800,1,48898,55820,48632.68,55529.89,265.32,290.11,0.751184,90.76,1
242034,1,23840,1,48895,55819,48633.21,55530.47,261.79,288.53,0.750796,90.77,1
242074,1,23880,1,48897,55822,48633.73,55531.06,263.27,290.94,0.750414,90.78,1
242114,1,23920,1,48900,55811,48634.27,55531.62,265.73,279.38,0.750036,90.80,1
242154,1,23960,1,48904,55826,48634.81,55532.21,269.19,293.79,0.749663,90.81,1
242194,1,24000,1,48903,55831,48635.35,55532.81,267.65,298.19,0.749294,90.83,1
242234,1,24040,1,48905,55839,48635.89,55533.42,269.11,305.58,0.748931,90.84,1
242274,1,24080,1,48906,55836,48636.43,55534.03,269.57,301.97,0.748572,90.85,1
242314,1,24120,1,48907,55852,48636.97,55534.66,270.03,317.34,0.748218,90.87,1
242354,1,24160,1,48910,55860,48637.52,55535.32,272.48,324.68,0.747868,90.88,1
242394,1,24200,1,48912,55875,48638.07,55536.00,273.93,339.00,0.747523,90.89,1
242435,1,24241,1,48915,55881,48638.62,55536.69,276.37,344.31,0.747182,90.91,1
242475,1,24281,1,48916,55895,48639.18,55537.41,276.82,357.59,0.746845,90.92,1
242515,1,24321,1,48917,55910,48639.74,55538.15,277.26,371.85,0.746512,90.93,1
242555,1,24361,1,48923,55922,48640.30,55538.92,282.70,383.08,0.746183,90.94,1
242595,1,24401,1,48927,55944,48640.88,55539.73,286.12,404.27,0.745857,90.96,1
242635,1,24441,1,48932,55966,48641.46,55540.59,290.54,425.41,0.745535,90.97,1
242675,1,24481,1,48938,55984,48642.05,55541.48,295.95,442.52,0.745217,90.98,1
242715,1,24521,1,48949,55992,48642.67,55542.38,306.33,449.62,0.744901,90.99,1
242755,1,24561,1,48954,55998,48643.29,55543.29,310.71,454.71,0.744590,91.00,1
242795,1,24601,1,48945,55960,48643.90,55544.13,301.10,415.87,0.744282,91.02,1
242835,1,24641,1,48931,55920,48644.47,55544.88,286.53,375.12,0.743979,91.03,1
242875,1,24681,1,48923,55924,48645.03,55545.64,277.97,378.36,0.743679,91.04,1
242915,1,24721,1,48920,55912,48645.58,55546.37,274.42,365.62,0.743383,91.05,1
242955,1,24761,1,48915,55906,48646.12,55547.09,268.88,358.91,0.743091,91.06,1
242995,1,24801,1,48904,55900,48646.64,55547.80,257.36,352.20,0.742802,91.07,1
243036,1,24842,1,48906,55909,48647.16,55548.52,258.84,360.48,0.742516,91.08,1
243076,1,24882,1,48905,55923,48647.67,55549.27,257.33,373.73,0.742233,91.09,1
243116,1,24922,1,48907,55929,48648.19,55550.04,258.81,378.96,0.741952,91.10,1
243156,1,24962,1,48910,55935,48648.71,55550.80,261.29,384.20,0.741674,91.11,1
243196,1,25002,1,48913,55947,48649.25,55551.60,263.75,395.40,0.741399,91.13,1
243236,1,25042,1,48913,55964,48649.77,55552.43,263.23,411.57,0.741126,91.14,1
243276,1,25082,1,48923,55976,48650.32,55553.27,272.68,422.73,0.740855,91.15,1
243316,1,25122,1,48926,55986,48650.87,55554.14,275.13,431.86,0.740587,91.16,1
243356,1,25162,1,48927,55997,48651.43,55555.03,275.57,441.97,0.740320,91.17,1
243396,1,25202,1,48930,56010,48651.98,55555.94,278.02,454.06,0.740056,91.18,1
243436,1,25242,1,48931,56018,48652.54,55556.86,278.46,461.14,0.739792,91.19,1
243476,1,25282,1,48937,56029,48653.11,55557.81,283.89,471.19,0.739531,91.20,1
243516,1,25322,1,48937,56043,48653.68,55558.78,283.32,484.22,0.739270,91.21,1
243556,1,25362,1,48937,56052,48654.25,55559.77,282.75,492.23,0.739010,91.22,1
243597,1,25403,1,48941,56073,48654.82,55560.80,286.18,512.20,0.738751,91.22,1
243637,1,25443,1,48943,56079,48655.40,55561.84,287.60,517.16,0.738492,91.23,1
243677,1,25483,1,48927,56040,48655.95,55562.79,271.05,477.21,0.738234,91.24,1
243717,1,25523,1,48915,56006,48656.46,55563.68,258.54,442.32,0.737977,91.25,1
243757,1,25563,1,48909,56016,48656.97,55564.59,252.03,451.41,0.737720,91.26,1
243797,1,25603,1,48914,56017,48657.49,55565.49,256.51,451.51,0.737464,91.27,1
243837,1,25643,1,48910,56016,48658.00,55566.39,252.00,449.61,0.737209,91.28,1
243877,1,25683,1,48910,56010,48658.50,55567.28,251.50,442.72,0.736954,91.29,1
243917,1,25723,1,48912,56024,48659.01,55568.20,252.99,455.80,0.736700,91.30,1
243957,1,25763,1,48908,56023,48659.51,55569.11,248.49,453.89,0.736446,91.31,1
243997,1,25803,1,48910,56031,48660.01,55570.03,249.99,460.97,0.736192,91.31,1
244037,1,25843,1,48914,56034,48660.52,55570.96,253.48,463.04,0.735938,91.32,1
244077,1,25883,1,48907,56043,48661.02,55571.91,245.98,471.09,0.735684,91.33,1
244117,1,25923,1,48907,56050,48661.51,55572.86,245.49,477.14,0.735429,91.34,1
244158,1,25964,1,48913,56070,48662.01,55573.86,250.99,496.14,0.735174,91.35,1
244198,1,26004,1,48911,56079,48662.51,55574.87,248.49,504.13,0.734917,91.36,1
244238,1,26044,1,48908,56097,48663.00,55575.92,245.00,521.08,0.734659,91.37,1
244278,1,26084,1,48914,56104,48663.51,55576.98,250.49,527.02,0.734398,91.37,1
244318,1,26124,1,48917,56128,48664.02,55578.08,252.98,549.92,0.734135,91.38,1
244358,1,26164,1,48922,56137,48664.53,55579.20,257.47,557.80,0.733869,91.39,1
244398,1,26204,1,48929,56155,48665.06,55580.35,263.94,574.65,0.733601,91.40,1
244438,1,26244,1,48933,56163,48665.60,55581.52,267.40,581.48,0.733330,91.41,1
244478,1,26284,1,48936,56176,48666.14,55582.71,269.86,593.29,0.733056,91.41,1
244518,1,26324,1,48940,56189,48666.70,55583.93,273.30,605.07,0.732779,91.42,1
244558,1,26364,1,48942,56174,48667.25,55585.11,274.75,588.89,0.732499,91.43,1
244598,1,26404,1,48923,56124,48667.76,55586.18,255.24,537.82,0.732218,91.44,1
244638,1,26444,1,48906,56108,48668.23,55587.23,237.77,520.77,0.731934,91.45,1
244678,1,26484,1,48902,56110,48668.70,55588.28,233.30,521.72,0.731649,91.45,1
244719,1,26525,1,48893,56100,48669.15,55589.30,223.85,510.70,0.731361,91.46,1
244759,1,26565,1,48890,56107,48669.59,55590.34,220.41,516.66,0.731071,91.47,1
244799,1,26605,1,48886,56112,48670.03,55591.38,215.97,520.62,0.730778,91.48,1
244839,1,26645,1,48891,56128,48670.47,55592.45,220.53,535.55,0.730482,91.49,1
244879,1,26685,1,48894,56132,48670.92,55593.54,223.08,538.46,0.730182,91.49,1
244919,1,26725,1,48891,56148,48671.36,55594.64,219.64,553.36,0.729879,91.50,1
244959,1,26765,1,48903,56162,48671.82,55595.78,231.18,566.22,0.729573,91.51,1
244999,1,26805,1,48911,56186,48672.30,55596.96,238.70,589.04,0.729262,91.52,1
245039,1,26845,1,48915,56204,48672.79,55598.18,242.21,605.82,0.728948,91.52,1
245079,1,26885,1,48924,56222,48673.30,55599.43,250.70,622.57,0.728629,91.53,1
245119,1,26925,1,48927,56224,48673.80,55600.68,253.20,623.32,0.728305,91.54,1
245159,1,26965,1,48914,56229,48674.29,55601.94,239.71,627.06,0.727977,91.55,1
245199,1,27005,1,48920,56236,48674.78,55603.21,245.22,632.79,0.727644,91.56,1
245240,1,27046,1,48916,56241,48675.26,55604.48,240.74,636.52,0.727305,91.56,1
245280,1,27086,1,48918,56253,48675.75,55605.78,242.25,647.22,0.726961,91.57,1
245320,1,27126,1,48917,56274,48676.23,55607.12,240.77,666.88,0.726612,91.58,1
245360,1,27166,1,48926,56290,48676.73,55608.48,249.27,681.52,0.726256,91.59,1
245400,1,27206,1,48924,56310,48677.23,55609.89,246.77,700.11,0.725893,91.60,1
245440,1,27246,1,48931,56311,48677.74,55611.29,253.26,699.71,0.725524,91.60,1
245480,1,27286,1,48925,56265,48678.23,55612.60,246.77,652.40,0.725150,91.61,1
245520,1,27326,1,48905,56224,48678.69,55613.82,226.31,610.18,0.724772,91.62,1
245560,1,27366,1,48898,56223,48679.13,55615.04,218.87,607.96,0.724390,91.63,1
245600,1,27406,1,48890,56217,48679.55,55616.25,210.45,600.75,0.724003,91.64,1
245640,1,27446,1,48889,56209,48679.97,55617.44,209.03,591.56,0.723613,91.64,1
245680,1,27486,1,48879,56205,48680.37,55618.61,198.63,586.39,0.723218,91.65,1
245720,1,27526,1,48878,56204,48680.77,55619.79,197.23,584.21,0.722818,91.66,1
245760,1,27566,1,48866,56203,48681.14,55620.95,184.86,582.05,0.722415,91.67,1
245801,1,27607,1,48864,56194,48681.51,55622.10,182.49,571.90,0.722006,91.68,1
245841,1,27647,1,48857,56200,48681.86,55623.26,175.14,576.74,0.721594,91.69,1
245881,1,27687,1,48853,56204,48682.20,55624.42,170.80,579.58,0.721176,91.69,1
245921,1,27727,1,48859,56218,48682.56,55625.61,176.44,592.39,0.720754,91.70,1
245961,1,27767,1,48855,56228,48682.91,55626.82,172.09,601.18,0.720326,91.71,1
246001,1,27807,1,48862,56233,48683.27,55628.03,178.73,604.97,0.719892,91.72,1
246041,1,27847,1,48856,56242,48683.61,55629.26,172.39,612.74,0.719454,91.73,1
246081,1,27887,1,48861,56234,48683.97,55630.47,177.03,603.53,0.719010,91.74,1
246121,1,27927,1,48858,56241,48684.32,55631.70,173.68,609.30,0.718561,91.75,1
246161,1,27967,1,48853,56247,48684.66,55632.93,168.34,614.07,0.718106,91.76,1
246201,1,28007,1,48855,56247,48685.00,55634.16,170.00,612.84,0.717647,91.77,1
246241,1,28047,1,48853,56262,48685.34,55635.41,167.66,626.59,0.717181,91.77,1
246281,1,28087,1,48853,56275,48685.67,55636.70,167.33,638.30,0.716709,91.78,1
246322,1,28128,1,48852,56278,48686.00,55637.98,166.00,640.02,0.716231,91.79,1
246362,1,28168,1,48841,56230,48686.32,55639.16,154.68,590.84,0.715748,91.80,1
246402,1,28208,1,48818,56198,48686.58,55640.28,131.42,557.72,0.715261,91.81,1
246442,1,28248,1,48804,56176,48686.82,55641.36,117.18,534.64,0.714769,91.82,1
246482,1,28288,1,48804,56175,48687.05,55642.43,116.95,532.57,0.714273,91.83,1
246522,1,28328,1,48795,56174,48687.27,55643.49,107.73,530.51,0.713773,91.84,1
246562,1,28368,1,48800,56171,48687.50,55644.55,112.50,526.45,0.713269,91.85,1
246602,1,28408,1,48799,56174,48687.72,55645.61,111.28,528.39,0.712761,91.86,1
246642,1,28448,1,48802,56172,48687.95,55646.66,114.05,525.34,0.712248,91.87,1
246682,1,28488,1,48795,56173,48688.16,55647.71,106.84,525.29,0.711732,91.88,1
246722,1,28528,1,48795,56169,48688.38,55648.76,106.62,520.24,0.711211,91.89,1
246762,1,28568,1,48794,56172,48688.59,55649.80,105.41,522.20,0.710687,91.90,1
246802,1,28608,1,48787,56181,48688.79,55650.87,98.21,530.13,0.710159,91.91,1
246842,1,28648,1,48788,56188,48688.99,55651.94,99.01,536.06,0.709625,91.92,1
246883,1,28689,1,48788,56198,48689.19,55653.04,98.81,544.96,0.709088,91.93,1
246923,1,28729,1,48789,56201,48689.39,55654.13,99.61,546.87,0.708546,91.94,1
246963,1,28769,1,48785,56224,48689.58,55655.27,95.42,568.73,0.707998,91.95,1
247003,1,28809,1,48788,56221,48689.78,55656.41,98.22,564.59,0.707446,91.96,1
247043,1,28849,1,48794,56246,48689.99,55657.59,104.01,588.41,0.706887,91.98,1
247083,1,28889,1,48793,56256,48690.20,55658.79,102.80,597.21,0.706324,91.99,1
247123,1,28929,1,48804,56278,48690.43,55660.02,113.57,617.98,0.705754,92.00,1
247163,1,28969,1,48815,56293,48690.68,55661.29,124.32,631.71,0.705178,92.01,1
247203,1,29009,1,48816,56300,48690.93,55662.57,125.07,637.43,0.704596,92.02,1
247243,1,29049,1,48811,56261,48691.17,55663.77,119.83,597.23,0.704010,92.03,1
247283,1,29089,1,48783,56193,48691.35,55664.82,91.65,528.18,0.703419,92.04,1
247323,1,29129,1,48770,56165,48691.51,55665.82,78.49,499.18,0.702825,92.05,1
247363,1,29169,1,48758,56165,48691.64,55666.82,66.36,498.18,0.702228,92.07,1
247403,1,29209,1,48754,56154,48691.77,55667.80,62.23,486.20,0.701627,92.08,1
247443,1,29249,1,48751,56142,48691.89,55668.75,59.11,473.25,0.701023,92.09,1
247484,1,29290,1,48744,56143,48692.00,55669.70,52.00,473.30,0.700417,92.10,1
247524,1,29330,1,48743,56145,48692.10,55670.65,50.90,474.35,0.699807,92.11,1
247564,1,29370,1,48743,56142,48692.20,55671.60,50.80,470.40,0.699194,92.13,1
247604,1,29410,1,48743,56143,48692.30,55672.54,50.70,470.46,0.698578,92.14,1
247644,1,29450,1,48747,56152,48692.41,55673.50,54.59,478.50,0.697959,92.15,1
247684,1,29490,1,48753,56168,48692.53,55674.50,60.47,493.50,0.697337,92.16,1
247724,1,29530,1,48757,56186,48692.66,55675.52,64.34,510.48,0.696711,92.18,1
247764,1,29570,1,48764,56195,48692.80,55676.56,71.20,518.44,0.696081,92.19,1
247804,1,29610,1,48771,56208,48692.96,55677.62,78.04,530.38,0.695448,92.20,1
247844,1,29650,1,48778,56214,48693.13,55678.70,84.87,535.30,0.694810,92.21,1
247884,1,29690,1,48778,56226,48693.30,55679.79,84.70,546.21,0.694169,92.23,1
247924,1,29730,1,48778,56231,48693.48,55680.90,84.52,550.10,0.693524,92.24,1
247964,1,29770,1,48785,56241,48693.66,55682.02,91.34,558.98,0.692874,92.25,1
248004,1,29810,1,48779,56247,48693.83,55683.15,85.17,563.85,0.692220,92.27,1
248044,1,29850,1,48783,56258,48694.01,55684.30,88.99,573.70,0.691562,92.28,1
248085,1,29891,1,48779,56252,48694.18,55685.44,84.82,566.56,0.690899,92.29,1
248125,1,29931,1,48769,56182,48694.34,55686.44,74.66,495.56,0.690234,92.31,1
248165,1,29971,1,48737,56135,48694.42,55687.34,42.58,447.66,0.689566,92.32,1
248205,1,30011,1,48733,56125,48694.50,55688.21,38.50,436.79,0.688896,92.33,1
248245,1,30051,1,48735,56120,48694.58,55689.07,40.42,430.93,0.688225,92.35,1
248285,1,30091,1,48733,56130,48694.66,55689.96,38.34,440.04,0.687551,92.36,1
248325,1,30131,1,48741,56126,48694.75,55690.83,46.25,435.17,0.686875,92.38,1
248365,1,30171,1,48746,56134,48694.86,55691.72,51.14,442.28,0.686197,92.39,1
248405,1,30211,1,48753,56127,48694.98,55692.59,58.02,434.41,0.685518,92.40,1
248445,1,30251,1,48750,56132,48695.09,55693.47,54.91,438.53,0.684836,92.42,1
248485,1,30291,1,48755,56130,48695.21,55694.34,59.79,435.66,0.684153,92.43,1
248525,1,30331,1,48756,56132,48695.33,55695.22,60.67,436.78,0.683468,92.45,1
248565,1,30371,1,48753,56142,48695.45,55696.11,57.55,445.89,0.682781,92.46,1
248605,1,30411,1,48761,56143,48695.58,55697.01,65.42,445.99,0.682093,92.48,1
248645,1,30451,1,48755,56152,48695.70,55697.92,59.30,454.08,0.681402,92.49,1
248686,1,30492,1,48762,56164,48695.83,55698.85,66.17,465.15,0.680709,92.51,1
248726,1,30532,1,48762,56167,48695.96,55699.79,66.04,467.21,0.680014,92.52,1
248766,1,30572,1,48766,56197,48696.11,55700.79,69.89,496.21,0.679316,92.54,1
248806,1,30612,1,48780,56218,48696.27,55701.82,83.73,516.18,0.678615,92.55,1
248846,1,30652,1,48789,56237,48696.46,55702.89,92.54,534.11,0.677911,92.57,1
248886,1,30692,1,48800,56250,48696.67,55703.98,103.33,546.02,0.677204,92.58,1
248926,1,30732,1,48800,56233,48696.87,55705.04,103.12,527.96,0.676494,92.60,1
248966,1,30772,1,48788,56157,48697.06,55705.95,90.94,451.05,0.675784,92.61,1
249006,1,30812,1,48771,56132,48697.21,55706.80,73.79,425.20,0.675072,92.63,1
249046,1,30852,1,48769,56120,48697.35,55707.63,71.65,412.37,0.674360,92.64,1
249086,1,30892,1,48768,56123,48697.49,55708.46,70.51,414.54,0.673646,92.66,1
249126,1,30932,1,48777,56120,48697.65,55709.29,79.35,410.71,0.672932,92.67,1
249166,1,30972,1,48776,56139,48697.81,55710.15,78.19,428.85,0.672217,92.69,1
249206,1,31012,1,48785,56144,48697.98,55711.02,87.02,432.98,0.671501,92.70,1
249246,1,31052,1,48788,56147,48698.16,55711.89,89.84,435.11,0.670784,92.72,1
249287,1,31093,1,48793,56141,48698.36,55712.75,94.64,428.25,0.670066,92.74,1
249327,1,31133,1,48793,56154,48698.55,55713.63,94.45,440.37,0.669348,92.75,1
249367,1,31173,1,48789,56160,48698.73,55714.53,90.27,445.47,0.668629,92.77,1
249407,1,31213,1,48805,56172,48698.95,55715.45,106.05,456.55,0.667908,92.78,1
249447,1,31253,1,48810,56188,48699.17,55716.39,110.83,471.61,0.667188,92.80,1
249487,1,31293,1,48815,56206,48699.40,55717.37,115.60,488.63,0.666465,92.82,1
249527,1,31333,1,48825,56216,48699.66,55718.37,125.34,497.63,0.665743,92.83,1
249567,1,31373,1,48829,56222,48699.92,55719.38,129.08,502.62,0.665019,92.85,1
249607,1,31413,1,48839,56236,48700.20,55720.41,138.80,515.59,0.664294,92.86,1
249647,1,31453,1,48843,56243,48700.48,55721.46,142.52,521.54,0.663569,92.88,1
249687,1,31493,1,48846,56260,48700.78,55722.54,145.22,537.46,0.662844,92.90,1
249727,1,31533,1,48851,56228,48701.08,55723.55,149.92,504.45,0.662118,92.91,1
249767,1,31573,1,48823,56156,48701.32,55724.42,121.68,431.58,0.661393,92.93,1
249807,1,31613,1,48801,56117,48701.52,55725.20,99.48,391.80,0.660668,92.95,1
249847,1,31653,1,48801,56109,48701.72,55725.97,99.28,383.03,0.659944,92.96,1
249888,1,31694,1,48805,56103,48701.93,55726.73,103.07,376.27,0.659220,92.98,1
249928,1,31734,1,48804,56106,48702.14,55727.49,101.86,378.51,0.658498,93.00,1
249968,1,31774,1,48803,56117,48702.34,55728.27,100.66,388.73,0.657775,93.01,1
250008,1,31814,1,48814,56117,48702.56,55729.05,111.44,387.95,0.657054,93.03,1
250048,1,31854,1,48816,56123,48702.79,55729.84,113.21,393.16,0.656333,93.05,1
250088,1,31894,1,48821,56124,48703.03,55730.62,117.97,393.37,0.655613,93.06,1
250128,1,31934,1,48825,56133,48703.27,55731.43,121.73,401.57,0.654895,93.08,1
250168,1,31974,1,48834,56140,48703.54,55732.25,130.46,407.75,0.654177,93.10,1
250208,1,32014,1,48841,56150,48703.81,55733.09,137.19,416.91,0.653461,93.12,1
250248,1,32054,1,48849,56166,48704.11,55733.95,144.89,432.05,0.652747,93.13,1
250288,1,32094,1,48853,56170,48704.41,55734.83,148.59,435.17,0.652034,93.15,1
250328,1,32134,1,48857,56177,48704.71,55735.71,152.29,441.29,0.651323,93.17,1
250368,1,32174,1,48859,56195,48705.02,55736.64,153.98,458.36,0.650614,93.18,1
250408,1,32214,1,48868,56193,48705.35,55737.55,162.65,455.45,0.649906,93.20,1
250449,1,32255,1,48870,56216,48705.68,55738.51,164.32,477.49,0.649200,93.22,1
250489,1,32295,1,48875,56210,48706.02,55739.45,168.98,470.55,0.648496,93.23,1
250529,1,32335,1,48860,56150,48706.33,55740.28,153.67,409.72,0.647795,93.25,1
250569,1,32375,1,48839,56085,48706.59,55740.97,132.41,344.03,0.647096,93.27,1
250609,1,32415,1,48830,56077,48706.84,55741.64,123.16,335.36,0.646399,93.29,1
250649,1,32455,1,48834,56074,48707.10,55742.31,126.90,331.69,0.645704,93.30,1
250689,1,32495,1,48829,56066,48707.34,55742.96,121.66,323.04,0.645012,93.32,1
250729,1,32535,1,48836,56061,48707.60,55743.59,128.40,317.41,0.644323,93.34,1
250769,1,32575,1,48841,56066,48707.87,55744.24,133.13,321.76,0.643636,93.35,1
250809,1,32615,1,48841,56064,48708.14,55744.88,132.86,319.12,0.642952,93.37,1
250849,1,32655,1,48844,56071,48708.41,55745.53,135.59,325.47,0.642271,93.39,1
250889,1,32695,1,48851,56066,48708.70,55746.17,142.30,319.83,0.641594,93.41,1
250929,1,32735,1,48859,56078,48709.00,55746.84,150.00,331.16,0.640920,93.42,1
250969,1,32775,1,48858,56083,48709.30,55747.51,148.70,335.49,0.640249,93.44,1
251009,1,32815,1,48869,56097,48709.62,55748.21,159.38,348.79,0.639582,93.46,1
251050,1,32856,1,48866,56102,48709.93,55748.92,156.07,353.08,0.638919,93.47,1
251090,1,32896,1,48876,56122,48710.26,55749.66,165.74,372.34,0.638260,93.49,1
251130,1,32936,1,48875,56136,48710.59,55750.44,164.41,385.56,0.637603,93.51,1
251170,1,32976,1,48888,56145,48710.95,55751.23,177.05,393.77,0.636951,93.53,1
251210,1,33016,1,48895,56166,48711.32,55752.06,183.68,413.94,0.636303,93.54,1
251250,1,33056,1,48905,56182,48711.71,55752.92,193.29,429.08,0.635659,93.56,1
251290,1,33096,1,48903,56146,48712.09,55753.71,190.91,392.29,0.635020,93.58,1
251330,1,33136,1,48886,56078,48712.44,55754.36,173.56,323.64,0.634387,93.59,1
251370,1,33176,1,48872,56053,48712.76,55754.95,159.24,298.05,0.633757,93.61,1
251410,1,33216,1,48874,56060,48713.08,55755.57,160.92,304.43,0.633132,93.63,1
251450,1,33256,1,48875,56054,48713.41,55756.16,161.59,297.84,0.632512,93.64,1
251490,1,33296,1,48875,56043,48713.73,55756.74,161.27,286.26,0.631897,93.66,1
251530,1,33336,1,48874,56046,48714.05,55757.32,159.95,288.68,0.631286,93.68,1
251570,1,33376,1,48877,56050,48714.38,55757.90,162.62,292.10,0.630680,93.69,1
251610,1,33416,1,48877,56047,48714.71,55758.48,162.29,288.52,0.630079,93.71,1
251651,1,33457,1,48877,56053,48715.03,55759.07,161.97,293.93,0.629482,93.73,1
251691,1,33497,1,48879,56057,48715.36,55759.67,163.64,297.33,0.628890,93.74,1
251731,1,33537,1,48882,56083,48715.70,55760.32,166.30,322.68,0.628303,93.76,1
251771,1,33577,1,48888,56091,48716.04,55760.98,171.96,330.02,0.627720,93.78,1
251811,1,33617,1,48902,56109,48716.42,55761.68,185.58,347.32,0.627142,93.79,1
251851,1,33657,1,48908,56132,48716.80,55762.42,191.20,369.58,0.626569,93.81,1
251891,1,33697,1,48913,56152,48717.20,55763.20,195.80,388.80,0.626002,93.83,1
251931,1,33737,1,48929,56165,48717.62,55764.01,211.38,400.99,0.625441,93.84,1
251971,1,33777,1,48941,56179,48718.07,55764.84,222.93,414.16,0.624886,93.86,1
252011,1,33817,1,48948,56206,48718.53,55765.72,229.47,440.28,0.624338,93.87,1
252051,1,33857,1,48954,56199,48719.00,55766.59,235.00,432.41,0.623797,93.89,1
252091,1,33897,1,48940,56134,48719.45,55767.32,220.55,366.68,0.623263,93.91,1
252131,1,33937,1,48918,56096,48719.84,55767.98,198.16,328.02,0.622736,93.92,1
252171,1,33977,1,48919,56091,48720.24,55768.63,198.76,322.37,0.622215,93.94,1
252211,1,34017,1,48914,56092,48720.63,55769.28,193.37,322.72,0.621700,93.95,1
252252,1,34058,1,48917,56084,48721.03,55769.91,195.97,314.09,0.621192,93.97,1
252292,1,34098,1,48916,56093,48721.42,55770.56,194.58,322.44,0.620689,93.98,1
252332,1,34138,1,48919,56107,48721.81,55771.24,197.19,335.76,0.620192,94.00,1
252372,1,34178,1,48921,56113,48722.21,55771.92,198.79,341.08,0.619702,94.01,1
252412,1,34218,1,48934,56120,48722.64,55772.62,211.36,347.38,0.619217,94.03,1
252452,1,34258,1,48935,56137,48723.06,55773.35,211.94,363.65,0.618739,94.04,1
252492,1,34298,1,48949,56155,48723.52,55774.12,225.48,380.88,0.618269,94.06,1
252532,1,34338,1,48960,56169,48723.99,55774.91,236.01,394.09,0.617806,94.07,1
252572,1,34378,1,48969,56182,48724.48,55775.73,244.52,406.27,0.617351,94.09,1
252612,1,34418,1,48975,56201,48724.98,55776.58,250.02,424.42,0.616904,94.10,1
252652,1,34458,1,48978,56200,48725.49,55777.43,252.51,422.57,0.616465,94.12,1
252692,1,34498,1,48983,56219,48726.01,55778.31,256.99,440.69,0.616034,94.13,1
252732,1,34538,1,48985,56228,48726.53,55779.21,258.47,448.79,0.615611,94.15,1
252772,1,34578,1,48990,56250,48727.05,55780.15,262.95,469.85,0.615196,94.16,1
252812,1,34618,1,48994,56244,48727.59,55781.08,266.41,462.92,0.614789,94.18,1
252853,1,34659,1,48988,56203,48728.11,55781.93,259.89,421.07,0.614390,94.19,1
252893,1,34699,1,48973,56166,48728.61,55782.70,244.39,383.30,0.613999,94.20,1
252933,1,34739,1,48964,56161,48729.08,55783.45,234.92,377.55,0.613615,94.22,1
252973,1,34779,1,48972,56168,48729.57,55784.22,242.43,383.78,0.613238,94.23,1
253013,1,34819,1,48970,56162,48730.05,55784.98,239.95,377.02,0.612870,94.24,1
253053,1,34859,1,48972,56170,48730.53,55785.75,241.47,384.25,0.612508,94.26,1
253093,1,34899,1,48979,56179,48731.03,55786.54,247.97,392.46,0.612154,94.27,1
253133,1,34939,1,48986,56179,48731.54,55787.32,254.46,391.68,0.611808,94.28,1
253173,1,34979,1,48992,56187,48732.07,55788.12,259.93,398.87,0.611470,94.30,1
253213,1,35019,1,48992,56194,48732.59,55788.94,259.41,405.06,0.611141,94.31,1
253253,1,35059,1,49003,56206,48733.13,55789.77,269.87,416.23,0.610820,94.32,1
253293,1,35099,1,49010,56213,48733.68,55790.62,276.32,422.38,0.610508,94.33,1
253333,1,35139,1,49013,56229,48734.24,55791.50,278.76,437.50,0.610205,94.35,1
253373,1,35179,1,49014,56236,48734.80,55792.39,279.20,443.61,0.609911,94.36,1
253413,1,35219,1,49015,56240,48735.37,55793.29,279.63,446.71,0.609625,94.37,1
253454,1,35260,1,49015,56249,48735.93,55794.20,279.07,454.80,0.609346,94.38,1
253494,1,35300,1,49020,56261,48736.50,55795.14,283.50,465.86,0.609075,94.39,1
253534,1,35340,1,49022,56284,48737.07,55796.12,284.93,487.88,0.608811,94.41,1
253574,1,35380,1,49033,56287,48737.66,55797.10,295.34,489.90,0.608555,94.42,1
253614,1,35420,1,49034,56264,48738.26,55798.04,295.74,465.96,0.608307,94.43,1
253654,1,35460,1,49012,56217,48738.80,55798.87,273.20,418.12,0.608067,94.44,1
253694,1,35500,1,49003,56202,48739.34,55799.68,263.66,402.32,0.607835,94.45,1
253734,1,35540,1,49012,56203,48739.88,55800.49,272.12,402.51,0.607610,94.46,1
253774,1,35580,1,49015,56202,48740.43,55801.30,274.57,400.70,0.607393,94.47,1
253814,1,35620,1,49015,56200,48740.98,55802.10,274.02,397.90,0.607185,94.48,1
253854,1,35660,1,49019,56212,48741.54,55802.92,277.46,409.08,0.606984,94.49,1
253894,1,35700,1,49023,56212,48742.11,55803.74,280.89,408.26,0.606792,94.50,1
253934,1,35740,1,49019,56210,48742.66,55804.55,276.34,405.45,0.606608,94.51,1
253974,1,35780,1,49024,56214,48743.22,55805.37,280.78,408.63,0.606431,94.52,1
254014,1,35820,1,49026,56224,48743.79,55806.21,282.21,417.79,0.606262,94.53,1
254055,1,35861,1,49027,56229,48744.36,55807.06,282.64,421.94,0.606101,94.54,1
254095,1,35901,1,49034,56242,48744.94,55807.93,289.06,434.07,0.605947,94.55,1
254135,1,35941,1,49031,56252,48745.51,55808.82,285.49,443.18,0.605800,94.56,1
254175,1,35981,1,49039,56264,48746.10,55809.73,292.90,454.27,0.605660,94.57,1
254215,1,36021,1,49042,56276,48746.70,55810.66,295.30,465.34,0.605527,94.58,1
254255,1,36061,1,49051,56298,48747.30,55811.64,303.70,486.36,0.605401,94.59,1
254295,1,36101,1,49056,56313,48747.92,55812.64,308.08,500.36,0.605281,94.59,1
254335,1,36141,1,49069,56328,48748.57,55813.68,320.43,514.32,0.605167,94.60,1
254375,1,36181,1,49073,56308,48749.21,55814.66,323.79,493.34,0.605062,94.61,1
254415,1,36221,1,49056,56245,48749.83,55815.53,306.17,429.47,0.604966,94.62,1
254455,1,36261,1,49037,56226,48750.40,55816.35,286.60,409.65,0.604877,94.63,1
254495,1,36301,1,49032,56217,48750.97,55817.16,281.03,399.84,0.604795,94.63,1
254535,1,36341,1,49039,56215,48751.55,55817.95,287.45,397.05,0.604720,94.64,1
254575,1,36381,1,49035,56213,48752.11,55818.75,282.89,394.25,0.604652,94.65,1
254615,1,36421,1,49035,56220,48752.68,55819.55,282.32,400.45,0.604591,94.66,1
254656,1,36462,1,49037,56227,48753.25,55820.37,283.75,406.63,0.604537,94.66,1
254696,1,36502,1,49039,56222,48753.82,55821.17,285.18,400.83,0.604489,94.67,1
254736,1,36542,1,49038,56234,48754.39,55822.00,283.61,412.00,0.604448,94.68,1
254776,1,36582,1,49043,56244,48754.97,55822.84,288.03,421.16,0.604412,94.68,1
254816,1,36622,1,49051,56254,48755.57,55823.71,295.43,430.29,0.604383,94.69,1
254856,1,36662,1,49051,56274,48756.16,55824.61,294.84,449.39,0.604360,94.70,1
254896,1,36702,1,49064,56286,48756.78,55825.54,307.22,460.46,0.604343,94.70,1
254936,1,36742,1,49072,56306,48757.41,55826.50,314.59,479.50,0.604332,94.71,1
254976,1,36782,1,49081,56313,48758.06,55827.47,322.94,485.53,0.604328,94.71,1
255016,1,36822,1,49082,56331,48758.71,55828.48,323.29,502.52,0.604329,94.72,1
255056,1,36862,1,49086,56343,48759.36,55829.51,326.64,513.49,0.604336,94.72,1
255096,1,36902,1,49096,56347,48760.04,55830.54,335.96,516.46,0.604348,94.73,1
255136,1,36942,1,49085,56304,48760.69,55831.49,324.31,472.51,0.604368,94.73,1
255176,1,36982,1,49065,56248,48761.30,55832.33,303.70,415.67,0.604395,94.74,1
255216,1,37022,1,49052,56241,48761.88,55833.15,290.12,407.85,0.604427,94.74,1
255257,1,37063,1,49052,56232,48762.46,55833.95,289.54,398.05,0.604465,94.75,1
255297,1,37103,1,49052,56242,48763.05,55834.77,288.95,407.23,0.604509,94.75,1
255337,1,37143,1,49048,56243,48763.62,55835.58,284.38,407.42,0.604558,94.75,1
255377,1,37183,1,49055,56256,48764.20,55836.43,290.80,419.57,0.604612,94.76,1
255417,1,37223,1,49062,56258,48764.80,55837.27,297.20,420.73,0.604672,94.76,1
255457,1,37263,1,49057,56264,48765.39,55838.12,291.61,425.87,0.604736,94.77,1
255497,1,37303,1,49062,56278,48765.98,55839.01,296.02,438.99,0.604805,94.77,1
255537,1,37343,1,49073,56279,48766.60,55839.89,306.40,439.11,0.604880,94.77,1
255577,1,37383,1,49075,56292,48767.21,55840.80,307.79,451.20,0.604959,94.78,1
255617,1,37423,1,49083,56310,48767.85,55841.74,315.15,468.26,0.605044,94.78,1
255657,1,37463,1,49081,56319,48768.48,55842.70,312.52,476.30,0.605132,94.78,1
255697,1,37503,1,49089,56321,48769.12,55843.65,319.88,477.35,0.605226,94.78,1
255737,1,37543,1,49082,56326,48769.75,55844.62,312.25,481.38,0.605323,94.79,1
255777,1,37583,1,49083,56324,48770.37,55845.58,312.62,478.42,0.605424,94.79,1
255817,1,37623,1,49075,56316,48770.98,55846.52,304.02,469.48,0.605528,94.79,1
255858,1,37664,1,49062,56269,48771.57,55847.37,290.43,421.63,0.605637,94.79,1
255898,1,37704,1,49039,56220,48772.10,55848.11,266.90,371.89,0.605749,94.80,1
255938,1,37744,1,49027,56227,48772.61,55848.87,254.39,378.13,0.605864,94.80,1
255978,1,37784,1,49033,56231,48773.14,55849.64,259.86,381.36,0.605983,94.80,1
256018,1,37824,1,49042,56243,48773.68,55850.43,268.32,392.57,0.606104,94.80,1
256058,1,37864,1,49043,56252,48774.21,55851.23,268.79,400.77,0.606228,94.80,1
256098,1,37904,1,49055,56275,48774.78,55852.08,280.22,422.92,0.606356,94.80,1
256138,1,37944,1,49061,56285,48775.35,55852.95,285.65,432.05,0.606486,94.80,1
256178,1,37984,1,49070,56286,48775.94,55853.81,294.06,432.19,0.606620,94.80,1
256218,1,38024,1,49068,56293,48776.53,55854.69,291.47,438.31,0.606757,94.81,1
256258,1,38064,1,49068,56304,48777.11,55855.59,290.89,448.41,0.606896,94.81,1
256298,1,38104,1,49078,56313,48777.71,55856.51,300.29,456.49,0.607039,94.81,1
256338,1,38144,1,49071,56324,48778.30,55857.45,292.70,466.55,0.607184,94.81,1
256378,1,38184,1,49074,56333,48778.89,55858.40,295.11,474.60,0.607330,94.81,1
256418,1,38224,1,49074,56342,48779.48,55859.37,294.52,482.63,0.607477,94.81,1
256459,1,38265,1,49081,56354,48780.09,55860.36,300.91,493.64,0.607625,94.81,1
256499,1,38305,1,49078,56366,48780.69,55861.37,297.31,504.63,0.607774,94.81,1
256539,1,38345,1,49084,56377,48781.30,55862.40,302.70,514.60,0.607923,94.81,1
256579,1,38385,1,49078,56331,48781.89,55863.34,296.11,467.66,0.608073,94.81,1
256619,1,38425,1,49065,56308,48782.46,55864.23,282.54,443.77,0.608226,94.81,1
256659,1,38465,1,49062,56315,48783.02,55865.13,278.98,449.87,0.608380,94.81,1
256699,1,38505,1,49067,56321,48783.59,55866.05,283.41,454.95,0.608535,94.81,1
256739,1,38545,1,49075,56316,48784.17,55866.95,290.83,449.05,0.608692,94.80,1
256779,1,38585,1,49075,56329,48784.75,55867.87,290.25,461.12,0.608850,94.80,1
256819,1,38625,1,49079,56333,48785.34,55868.81,293.66,464.19,0.609011,94.80,1
256859,1,38665,1,49078,56337,48785.93,55869.75,292.07,467.25,0.609173,94.80,1
256899,1,38705,1,49078,56334,48786.52,55870.68,291.48,463.32,0.609336,94.80,1
256939,1,38745,1,49074,56335,48787.09,55871.61,286.91,463.39,0.609500,94.80,1
256979,1,38785,1,49072,56346,48787.66,55872.55,284.34,473.45,0.609665,94.80,1
257019,1,38825,1,49079,56350,48788.25,55873.51,290.75,476.49,0.609830,94.80,1
257060,1,38866,1,49081,56367,48788.83,55874.50,292.17,492.50,0.609995,94.80,1
257100,1,38906,1,49079,56373,48789.41,55875.50,289.59,497.50,0.610160,94.79,1
257140,1,38946,1,49081,56395,48790.00,55876.54,291.00,518.46,0.610324,94.79,1
257180,1,38986,1,49089,56403,48790.60,55877.59,298.40,525.41,0.610486,94.79,1
257220,1,39026,1,49086,56420,48791.19,55878.68,294.81,541.32,0.610647,94.79,1
257260,1,39066,1,49099,56438,48791.81,55879.80,307.19,558.20,0.610805,94.79,1
257300,1,39106,1,49104,56426,48792.43,55880.89,311.57,545.11,0.610963,94.79,1
257340,1,39146,1,49094,56369,48793.04,55881.87,300.96,487.13,0.611121,94.78,1
257380,1,39186,1,49081,56360,48793.62,55882.83,287.38,477.17,0.611280,94.78,1
257420,1,39226,1,49078,56366,48794.19,55883.80,283.81,482.20,0.611439,94.78,1
257460,1,39266,1,49078,56360,48794.76,55884.75,283.24,475.25,0.611598,94.78,1
257500,1,39306,1,49080,56361,48795.33,55885.70,284.67,475.30,0.611758,94.78,1
257540,1,39346,1,49077,56368,48795.89,55886.67,281.11,481.33,0.611917,94.77,1
257580,1,39386,1,49081,56367,48796.46,55887.63,284.54,479.37,0.612076,94.77,1
257621,1,39427,1,49078,56365,48797.03,55888.59,280.97,476.41,0.612234,94.77,1
257661,1,39467,1,49075,56378,48797.59,55889.57,277.41,488.43,0.612392,94.77,1
257701,1,39507,1,49080,56377,48798.15,55890.54,281.85,486.46,0.612550,94.76,1
257741,1,39547,1,49083,56403,48798.72,55891.57,284.28,511.43,0.612706,94.76,1
257781,1,39587,1,49090,56415,48799.30,55892.62,290.70,522.38,0.612860,94.76,1
257821,1,39627,1,49098,56430,48799.90,55893.70,298.10,536.30,0.613013,94.76,1
257861,1,39667,1,49100,56451,48800.50,55894.81,299.50,556.19,0.613164,94.75,1
257901,1,39707,1,49117,56468,48801.14,55895.96,315.86,572.04,0.613312,94.75,1
257941,1,39747,1,49122,56483,48801.78,55897.14,320.22,585.86,0.613459,94.75,1
257981,1,39787,1,49130,56497,48802.44,55898.34,327.56,598.66,0.613603,94.75,1
258021,1,39827,1,49127,56515,48803.09,55899.57,323.91,615.43,0.613744,94.74,1
258061,1,39867,1,49141,56512,48803.76,55900.80,337.24,611.20,0.613883,94.74,1
258101,1,39907,1,49129,56470,48804.41,55901.94,324.59,568.06,0.614022,94.74,1
258141,1,39947,1,49111,56437,48805.03,55903.01,305.97,533.99,0.614159,94.74,1
258181,1,39987,1,49103,56431,48805.62,55904.07,297.37,526.93,0.614296,94.73,1
258222,1,40028,1,49103,56427,48806.22,55905.11,296.78,521.89,0.614433,94.73,1
258262,1,40068,1,49095,56429,48806.80,55906.16,288.20,522.84,0.614568,94.73,1
258302,1,40108,1,49095,56438,48807.38,55907.23,287.62,530.77,0.614701,94.72,1
258342,1,40148,1,49104,56446,48807.97,55908.31,296.03,537.69,0.614832,94.72,1
258382,1,40188,1,49106,56457,48808.57,55909.41,297.43,547.59,0.614962,94.72,1
258422,1,40228,1,49108,56465,48809.17,55910.52,298.83,554.48,0.615090,94.72,1
258462,1,40268,1,49118,56485,48809.79,55911.67,308.21,573.33,0.615216,94.71,1
258502,1,40308,1,49127,56498,48810.43,55912.85,316.57,585.15,0.615339,94.71,1
258542,1,40348,1,49139,56512,48811.09,55914.05,327.91,597.95,0.615461,94.71,1
258582,1,40388,1,49134,56523,48811.73,55915.27,322.27,607.73,0.615581,94.70,1
258622,1,40428,1,49142,56537,48812.39,55916.51,329.61,620.49,0.615697,94.70,1
258662,1,40468,1,49142,56542,48813.05,55917.77,328.95,624.23,0.615811,94.70,1
258702,1,40508,1,49148,56559,48813.73,55919.05,334.27,639.95,0.615922,94.70,1
258742,1,40548,1,49151,56565,48814.40,55920.34,336.60,644.66,0.616030,94.69,1
258783,1,40589,1,49153,56575,48815.08,55921.66,337.92,653.34,0.616135,94.69,1
258823,1,40629,1,49154,56587,48815.76,55922.99,338.24,664.01,0.616235,94.69,1
258863,1,40669,1,49155,56582,48816.44,55924.31,338.56,657.69,0.616332,94.68,1
258903,1,40709,1,49139,56532,48817.09,55925.53,321.91,606.47,0.616428,94.68,1
258943,1,40749,1,49134,56523,48817.72,55926.72,316.28,596.28,0.616521,94.68,1
258983,1,40789,1,49138,56531,48818.36,55927.93,319.64,603.07,0.616612,94.68,1
259023,1,40829,1,49140,56538,48819.01,55929.16,320.99,608.84,0.616701,94.67,1
259063,1,40869,1,49141,56539,48819.65,55930.38,321.35,608.62,0.616788,94.67,1
259103,1,40909,1,49148,56548,48820.31,55931.62,327.69,616.38,0.616873,94.67,1
259143,1,40949,1,49148,56548,48820.96,55932.85,327.04,615.15,0.616957,94.66,1
259183,1,40989,1,49148,56559,48821.62,55934.11,326.38,624.89,0.617038,94.66,1
259223,1,41029,1,49152,56561,48822.28,55935.36,329.72,625.64,0.617117,94.66,1
259263,1,41069,1,49156,56566,48822.95,55936.62,333.05,629.38,0.617194,94.66,1
259303,1,41109,1,49151,56578,48823.61,55937.91,327.39,640.09,0.617268,94.65,1
259343,1,41149,1,49153,56585,48824.27,55939.20,328.73,645.80,0.617340,94.65,1
259384,1,41190,1,49155,56587,48824.93,55940.50,330.07,646.50,0.617408,94.65,1
259424,1,41230,1,49153,56601,48825.59,55941.82,327.41,659.18,0.617473,94.65,1
259464,1,41270,1,49154,56610,48826.24,55943.16,327.76,666.84,0.617534,94.64,1
259504,1,41310,1,49156,56624,48826.90,55944.52,329.10,679.48,0.617592,94.64,1
259544,1,41350,1,49166,56633,48827.58,55945.90,338.42,687.10,0.617645,94.64,1
259584,1,41390,1,49167,56657,48828.26,55947.32,338.74,709.68,0.617693,94.64,1
259624,1,41430,1,49173,56648,48828.95,55948.73,344.05,699.27,0.617738,94.63,1
259664,1,41470,1,49167,56610,48829.63,55950.05,337.37,659.95,0.617781,94.63,1
259704,1,41510,1,49159,56583,48830.29,55951.32,328.71,631.68,0.617821,94.63,1
259744,1,41550,1,49158,56591,48830.95,55952.60,327.05,638.40,0.617860,94.63,1
259784,1,41590,1,49155,56588,48831.59,55953.87,323.41,634.13,0.617897,94.62,1
259824,1,41630,1,49157,56588,48832.25,55955.14,324.75,632.86,0.617932,94.62,1
259864,1,41670,1,49156,56589,48832.89,55956.41,323.11,632.59,0.617965,94.62,1
259904,1,41710,1,49149,56594,48833.53,55957.69,315.47,636.31,0.617996,94.62,1
259944,1,41750,1,49153,56593,48834.17,55958.96,318.83,634.04,0.618024,94.62,1
259985,1,41791,1,49150,56590,48834.80,55960.22,315.20,629.78,0.618050,94.61,1
260025,1,41831,1,49151,56606,48835.43,55961.52,315.57,644.48,0.618073,94.61,1
260065,1,41871,1,49151,56614,48836.07,55962.82,314.93,651.18,0.618093,94.61,1
260105,1,41911,1,49158,56631,48836.71,55964.16,321.29,666.84,0.618110,94.61,1
260145,1,41951,1,49162,56642,48837.36,55965.51,324.64,676.49,0.618124,94.61,1
260185,1,41991,1,49167,56662,48838.02,55966.91,328.98,695.09,0.618134,94.60,1
260225,1,42031,1,49174,56663,48838.70,55968.30,335.30,694.70,0.618141,94.60,1
260265,1,42071,1,49183,56686,48839.39,55969.74,343.61,716.26,0.618144,94.60,1
260305,1,42111,1,49187,56689,48840.08,55971.18,346.92,717.82,0.618144,94.60,1
260345,1,42151,1,49188,56711,48840.78,55972.66,347.22,738.34,0.618140,94.60,1
260385,1,42191,1,49188,56683,48841.47,55974.08,346.53,708.92,0.618133,94.60,1
260425,1,42231,1,49173,56629,48842.14,55975.39,330.86,653.61,0.618125,94.59,1
260465,1,42271,1,49155,56608,48842.77,55976.66,312.23,631.34,0.618115,94.59,1
260505,1,42311,1,49151,56602,48843.38,55977.91,307.62,624.09,0.618104,94.59,1
260545,1,42351,1,49147,56589,48843.99,55979.14,303.01,609.86,0.618090,94.59,1
260586,1,42392,1,49142,56584,48844.59,55980.35,297.41,603.65,0.618075,94.59,1
260626,1,42432,1,49133,56588,48845.17,55981.56,287.83,606.44,0.618058,94.59,1
260666,1,42472,1,49132,56592,48845.74,55982.79,286.26,609.21,0.618039,94.59,1
260706,1,42512,1,49138,56594,48846.33,55984.01,291.67,609.99,0.618017,94.59,1
260746,1,42552,1,49140,56604,48846.92,55985.25,293.08,618.75,0.617993,94.58,1
260786,1,42592,1,49139,56615,48847.50,55986.51,291.50,628.49,0.617966,94.58,1
260826,1,42632,1,49154,56635,48848.12,55987.81,305.88,647.19,0.617937,94.58,1
260866,1,42672,1,49164,56651,48848.75,55989.14,315.25,661.86,0.617906,94.58,1
260906,1,42712,1,49171,56670,48849.39,55990.50,321.61,679.50,0.617872,94.58,1
260946,1,42752,1,49172,56672,48850.04,55991.86,321.96,680.14,0.617835,94.58,1
260986,1,42792,1,49171,56681,48850.68,55993.24,320.32,687.76,0.617795,94.58,1
261026,1,42832,1,49174,56683,48851.33,55994.62,322.67,688.37,0.617753,94.58,1
261066,1,42872,1,49171,56688,48851.97,55996.01,319.03,691.99,0.617708,94.58,1
261106,1,42912,1,49167,56656,48852.61,55997.33,314.39,658.67,0.617660,94.58,1
261147,1,42953,1,49148,56613,48853.20,55998.57,294.80,614.43,0.617611,94.58,1
261187,1,42993,1,49146,56597,48853.79,55999.77,292.21,597.23,0.617561,94.58,1
261227,1,43033,1,49138,56603,48854.36,56000.97,283.64,602.03,0.617509,94.58,1
261267,1,43073,1,49136,56594,48854.92,56002.16,281.08,591.84,0.617456,94.58,1
261307,1,43113,1,49134,56588,48855.48,56003.33,278.52,584.67,0.617401,94.58,1
261347,1,43153,1,49131,56598,48856.03,56004.52,274.97,593.48,0.617344,94.58,1
261387,1,43193,1,49132,56609,48856.59,56005.73,275.41,603.27,0.617286,94.58,1
261427,1,43233,1,49142,56608,48857.16,56006.94,284.84,601.06,0.617225,94.57,1
261467,1,43273,1,49148,56618,48857.74,56008.16,290.26,609.84,0.617163,94.57,1
261507,1,43313,1,49150,56619,48858.32,56009.39,291.68,609.61,0.617100,94.57,1
261547,1,43353,1,49146,56626,48858.90,56010.62,287.10,615.38,0.617034,94.57,1
261587,1,43393,1,49148,56627,48859.48,56011.86,288.52,615.14,0.616968,94.57,1
261627,1,43433,1,49150,56631,48860.06,56013.09,289.94,617.91,0.616899,94.57,1
261667,1,43473,1,49145,56638,48860.63,56014.34,284.37,623.66,0.616828,94.57,1
261707,1,43513,1,49147,56646,48861.21,56015.61,285.79,630.39,0.616755,94.58,1
261748,1,43554,1,49146,56650,48861.78,56016.88,284.22,633.12,0.616680,94.58,1
261788,1,43594,1,49141,56625,48862.34,56018.10,278.66,606.90,0.616603,94.58,1
261828,1,43634,1,49120,56576,48862.85,56019.21,257.15,556.79,0.616524,94.58,1
261868,1,43674,1,49110,56563,48863.35,56020.30,246.65,542.70,0.616444,94.58,1
261908,1,43714,1,49115,56564,48863.85,56021.39,251.15,542.61,0.616362,94.58,1
261948,1,43754,1,49113,56573,48864.35,56022.50,248.65,550.50,0.616279,94.58,1
261988,1,43794,1,49114,56559,48864.85,56023.57,249.15,535.43,0.616195,94.58,1
262028,1,43834,1,49114,56569,48865.35,56024.67,248.65,544.33,0.616110,94.58,1
262068,1,43874,1,49118,56564,48865.86,56025.75,252.14,538.25,0.616023,94.58,1
262108,1,43914,1,49118,56565,48866.36,56026.83,251.64,538.17,0.615936,94.58,1
262148,1,43954,1,49113,56566,48866.86,56027.91,246.14,538.09,0.615847,94.58,1
262188,1,43994,1,49119,56575,48867.36,56029.00,251.64,546.00,0.615757,94.58,1
262228,1,44034,1,49113,56586,48867.86,56030.12,245.14,555.88,0.615665,94.58,1
262268,1,44074,1,49115,56599,48868.35,56031.26,246.65,567.74,0.615570,94.58,1
262308,1,44114,1,49116,56611,48868.85,56032.42,247.15,578.58,0.615474,94.58,1
262349,1,44155,1,49121,56617,48869.35,56033.59,251.65,583.41,0.615375,94.58,1
262389,1,44195,1,49121,56623,48869.86,56034.77,251.14,588.23,0.615274,94.59,1
262429,1,44235,1,49123,56637,48870.36,56035.98,252.64,601.02,0.615170,94.59,1
262469,1,44275,1,49123,56620,48870.87,56037.14,252.13,582.86,0.615065,94.59,1
262509,1,44315,1,49111,56586,48871.35,56038.24,239.65,547.76,0.614957,94.59,1
262549,1,44355,1,49104,56582,48871.82,56039.33,232.18,542.67,0.614847,94.59,1
262589,1,44395,1,49107,56593,48872.29,56040.44,234.71,552.56,0.614736,94.59,1
262629,1,44435,1,49117,56584,48872.78,56041.53,244.22,542.47,0.614623,94.59,1
262669,1,44475,1,49105,56581,48873.25,56042.61,231.75,538.39,0.614509,94.59,1
262709,1,44515,1,49106,56590,48873.71,56043.71,232.29,546.29,0.614392,94.60,1
262749,1,44555,1,49108,56589,48874.18,56044.80,233.82,544.20,0.614274,94.60,1
262789,1,44595,1,49105,56592,48874.64,56045.90,230.36,546.10,0.614154,94.60,1
262829,1,44635,1,49107,56596,48875.11,56047.00,231.89,549.00,0.614032,94.60,1
262870,1,44676,1,49103,56597,48875.57,56048.11,227.43,548.89,0.613908,94.60,1
262910,1,44716,1,49101,56582,48876.02,56049.18,224.98,532.82,0.613782,94.60,1
262950,1,44756,1,49089,56596,48876.45,56050.27,212.55,545.73,0.613653,94.60,1
262990,1,44796,1,49094,56603,48876.88,56051.37,217.12,551.62,0.613522,94.61,1
263030,1,44836,1,49098,56626,48877.33,56052.53,220.67,573.47,0.613388,94.61,1
263070,1,44876,1,49105,56638,48877.79,56053.70,227.21,584.30,0.613251,94.61,1
263110,1,44916,1,49116,56656,48878.26,56054.91,237.74,601.09,0.613110,94.61,1
263150,1,44956,1,49122,56647,48878.75,56056.09,243.25,590.91,0.612968,94.61,1
263190,1,44996,1,49111,56599,48879.21,56057.18,231.79,541.82,0.612823,94.62,1
263230,1,45036,1,49092,56589,48879.64,56058.25,212.36,530.75,0.612677,94.62,1
263270,1,45076,1,49093,56590,48880.07,56059.31,212.93,530.69,0.612529,94.62,1
263310,1,45116,1,49097,56585,48880.50,56060.37,216.50,524.63,0.612379,94.62,1
263350,1,45156,1,49089,56577,48880.92,56061.40,208.08,515.60,0.612227,94.62,1
263390,1,45196,1,49088,56582,48881.34,56062.45,206.66,519.55,0.612074,94.63,1
263430,1,45236,1,49086,56580,48881.75,56063.48,204.25,516.52,0.611918,94.63,1
263471,1,45277,1,49078,56566,48882.14,56064.49,195.86,501.51,0.611760,94.63,1
263511,1,45317,1,49069,56568,48882.52,56065.50,186.48,502.50,0.611601,94.63,1
263551,1,45357,1,49073,56578,48882.90,56066.52,190.10,511.48,0.611439,94.64,1
263591,1,45397,1,49082,56594,48883.30,56067.58,198.70,526.42,0.611274,94.64,1
263631,1,45437,1,49087,56616,48883.71,56068.68,203.29,547.32,0.611107,94.64,1
263671,1,45477,1,49093,56634,48884.12,56069.81,208.87,564.19,0.610936,94.64,1
263711,1,45517,1,49105,56647,48884.57,56070.96,220.43,576.04,0.610763,94.65,1
263751,1,45557,1,49111,56656,48885.02,56072.14,225.98,583.86,0.610588,94.65,1
263791,1,45597,1,49117,56674,48885.48,56073.34,231.52,600.66,0.610409,94.65,1
263831,1,45637,1,49116,56678,48885.95,56074.55,230.05,603.45,0.610228,94.65,1
263871,1,45677,1,49108,56618,48886.39,56075.64,221.61,542.36,0.610045,94.66,1
263911,1,45717,1,49089,56594,48886.80,56076.68,202.20,517.32,0.609860,94.66,1
263951,1,45757,1,49077,56572,48887.18,56077.68,189.82,494.32,0.609674,94.66,1
263992,1,45798,1,49069,56562,48887.54,56078.64,181.46,483.36,0.609486,94.67,1
264032,1,45838,1,49060,56558,48887.89,56079.61,172.11,478.39,0.609296,94.67,1
264072,1,45878,1,49060,56578,48888.23,56080.61,171.77,497.39,0.609103,94.67,1
264112,1,45918,1,49071,56582,48888.60,56081.61,182.40,500.39,0.608909,94.68,1
264152,1,45958,1,49076,56589,48888.98,56082.62,187.02,506.37,0.608712,94.68,1
264192,1,45998,1,49074,56603,48889.35,56083.67,184.65,519.33,0.608513,94.68,1
264232,1,46038,1,49078,56608,48889.73,56084.72,188.27,523.28,0.608312,94.69,1
264272,1,46078,1,49082,56612,48890.11,56085.77,191.89,526.23,0.608108,94.69,1
264312,1,46118,1,49088,56615,48890.51,56086.83,197.49,528.17,0.607902,94.69,1
264352,1,46158,1,49088,56626,48890.91,56087.91,197.09,538.09,0.607694,94.70,1
264392,1,46198,1,49089,56631,48891.30,56089.00,197.70,542.00,0.607484,94.70,1
264432,1,46238,1,49092,56641,48891.71,56090.10,200.29,550.90,0.607271,94.70,1
264472,1,46278,1,49094,56665,48892.11,56091.25,201.89,573.75,0.607055,94.71,1
264512,1,46318,1,49104,56669,48892.54,56092.41,211.46,576.59,0.606836,94.71,1
264553,1,46359,1,49094,56631,48892.94,56093.49,201.06,537.51,0.606616,94.71,1
264593,1,46399,1,49076,56593,48893.31,56094.49,182.69,498.51,0.606393,94.72,1
264633,1,46439,1,49069,56599,48893.66,56095.50,175.34,503.50,0.606169,94.72,1
264673,1,46479,1,49076,56599,48894.03,56096.51,181.97,502.49,0.605943,94.73,1
264713,1,46519,1,49078,56604,48894.40,56097.52,183.60,506.48,0.605715,94.73,1
264753,1,46559,1,49079,56610,48894.77,56098.55,184.23,511.45,0.605484,94.73,1
264793,1,46599,1,49087,56629,48895.16,56099.61,191.84,529.39,0.605252,94.74,1
264833,1,46639,1,49091,56633,48895.55,56100.68,195.45,532.32,0.605018,94.74,1
264873,1,46679,1,49095,56633,48895.95,56101.75,199.05,531.25,0.604783,94.75,1
264913,1,46719,1,49097,56637,48896.35,56102.82,200.65,534.18,0.604545,94.75,1
264953,1,46759,1,49100,56649,48896.76,56103.91,203.24,545.09,0.604306,94.75,1
264993,1,46799,1,49101,56652,48897.17,56105.01,203.83,546.99,0.604065,94.76,1
265033,1,46839,1,49107,56670,48897.59,56106.14,209.41,563.86,0.603822,94.76,1
265073,1,46879,1,49106,56678,48898.01,56107.29,207.99,570.71,0.603576,94.77,1
265113,1,46919,1,49113,56686,48898.44,56108.45,214.56,577.55,0.603329,94.77,1
265154,1,46960,1,49107,56691,48898.86,56109.61,208.14,581.39,0.603079,94.78,1
265194,1,47000,1,49114,56713,48899.29,56110.82,214.71,602.18,0.602826,94.78,1
265234,1,47040,1,49109,56679,48899.71,56111.96,209.29,567.04,0.602572,94.79,1
265274,1,47080,1,49097,56633,48900.11,56113.00,196.89,520.00,0.602316,94.79,1
265314,1,47120,1,49076,56621,48900.46,56114.02,175.54,506.98,0.602058,94.79,1
265354,1,47160,1,49079,56620,48900.82,56115.03,178.18,504.97,0.601799,94.80,1
265394,1,47200,1,49084,56617,48901.18,56116.03,182.82,500.97,0.601538,94.80,1
265434,1,47240,1,49084,56609,48901.55,56117.02,182.45,491.98,0.601277,94.81,1
265474,1,47280,1,49079,56621,48901.91,56118.03,177.09,502.97,0.601013,94.81,1
265514,1,47320,1,49086,56616,48902.28,56119.02,183.72,496.98,0.600748,94.82,1
265554,1,47360,1,49085,56613,48902.64,56120.01,182.36,492.99,0.600483,94.82,1
265594,1,47400,1,49081,56621,48903.00,56121.02,178.00,499.98,0.600216,94.83,1
265634,1,47440,1,49077,56624,48903.35,56122.02,173.65,501.98,0.599947,94.83,1
265675,1,47481,1,49082,56627,48903.71,56123.04,178.29,503.96,0.599676,94.84,1
265715,1,47521,1,49077,56645,48904.06,56124.08,172.94,520.92,0.599403,94.85,1
265755,1,47561,1,49081,56657,48904.41,56125.15,176.59,531.85,0.599128,94.85,1
265795,1,47601,1,49086,56663,48904.78,56126.23,181.22,536.77,0.598851,94.86,1
265835,1,47641,1,49094,56678,48905.16,56127.33,188.84,550.67,0.598572,94.86,1
265875,1,47681,1,49098,56700,48905.54,56128.48,192.46,571.52,0.598290,94.87,1
265915,1,47721,1,49102,56694,48905.94,56129.61,196.06,564.39,0.598006,94.87,1
265955,1,47761,1,49096,56643,48906.32,56130.64,189.68,512.36,0.597721,94.88,1
265995,1,47801,1,49084,56622,48906.68,56131.62,177.32,490.37,0.597435,94.88,1
266035,1,47841,1,49079,56616,48907.02,56132.59,171.98,483.41,0.597148,94.89,1
266075,1,47881,1,49070,56624,48907.35,56133.58,162.65,490.42,0.596859,94.89,1
266115,1,47921,1,49073,56607,48907.68,56134.53,165.32,472.47,0.596569,94.90,1
266155,1,47961,1,49074,56612,48908.02,56135.48,165.98,476.52,0.596278,94.91,1
266195,1,48001,1,49069,56612,48908.34,56136.44,160.66,475.56,0.595985,94.91,1
266235,1,48041,1,49063,56604,48908.65,56137.37,154.35,466.62,0.595692,94.92,1
266276,1,48082,1,49054,56608,48908.95,56138.32,145.05,469.68,0.595396,94.92,1
266316,1,48122,1,49062,56615,48909.25,56139.27,152.75,475.73,0.595098,94.93,1
266356,1,48162,1,49057,56625,48909.55,56140.24,147.45,484.76,0.594799,94.94,1
266396,1,48202,1,49066,56638,48909.86,56141.24,156.14,496.76,0.594497,94.94,1
266436,1,48242,1,49067,56656,48910.18,56142.27,156.82,513.73,0.594194,94.95,1
266476,1,48282,1,49071,56668,48910.50,56143.32,160.50,524.68,0.593887,94.95,1
266516,1,48322,1,49088,56675,48910.86,56144.39,177.14,530.61,0.593579,94.96,1
266556,1,48362,1,49086,56692,48911.21,56145.49,174.79,546.51,0.593268,94.97,1
266596,1,48402,1,49092,56689,48911.57,56146.58,180.43,542.42,0.592956,94.97,1
266636,1,48442,1,49076,56644,48911.91,56147.57,164.09,496.43,0.592642,94.98,1
266676,1,48482,1,49063,56603,48912.21,56148.49,150.79,454.51,0.592327,94.99,1
266716,1,48522,1,49052,56605,48912.49,56149.40,139.51,455.60,0.592010,94.99,1
266756,1,48562,1,49053,56597,48912.77,56150.30,140.23,446.70,0.591692,95.00,1
266796,1,48602,1,49047,56584,48913.04,56151.17,133.96,432.83,0.591373,95.00,1
266837,1,48643,1,49038,56598,48913.29,56152.06,124.71,445.94,0.591052,95.01,1
266877,1,48683,1,49045,56605,48913.56,56152.97,131.44,452.03,0.590730,95.02,1
266917,1,48723,1,49047,56615,48913.83,56153.89,133.17,461.11,0.590405,95.02,1
266957,1,48763,1,49050,56626,48914.10,56154.84,135.90,471.16,0.590079,95.03,1
266997,1,48803,1,49057,56642,48914.39,56155.82,142.61,486.18,0.589750,95.04,1
267037,1,48843,1,49062,56654,48914.68,56156.81,147.32,497.19,0.589419,95.05,1
267077,1,48883,1,49073,56670,48915.00,56157.84,158.00,512.16,0.589087,95.05,1
267117,1,48923,1,49078,56682,48915.33,56158.89,162.67,523.11,0.588752,95.06,1
267157,1,48963,1,49079,56686,48915.66,56159.95,163.34,526.05,0.588415,95.07,1
267197,1,49003,1,49080,56703,48915.98,56161.03,164.02,541.97,0.588076,95.07,1
267237,1,49043,1,49087,56704,48916.33,56162.12,170.67,541.88,0.587735,95.08,1
267277,1,49083,1,49083,56707,48916.66,56163.21,166.34,543.79,0.587391,95.09,1
267317,1,49123,1,49079,56660,48916.99,56164.20,162.01,495.80,0.587047,95.09,1
267358,1,49164,1,49051,56623,48917.26,56165.12,133.74,457.88,0.586701,95.10,1
267398,1,49204,1,49048,56619,48917.52,56166.03,130.48,452.97,0.586353,95.11,1
267438,1,49244,1,49043,56617,48917.77,56166.93,125.23,450.07,0.586003,95.12,1
267478,1,49284,1,49038,56619,48918.02,56167.84,119.98,451.16,0.585652,95.12,1
267518,1,49324,1,49045,56630,48918.27,56168.77,126.73,461.23,0.585299,95.13,1
267558,1,49364,1,49050,56648,48918.54,56169.73,131.46,478.27,0.584944,95.14,1
267598,1,49404,1,49057,56654,48918.81,56170.70,138.19,483.30,0.584587,95.14,1
267638,1,49444,1,49063,56663,48919.10,56171.68,143.90,491.32,0.584228,95.15,1
267678,1,49484,1,49067,56669,48919.40,56172.68,147.60,496.32,0.583867,95.16,1
267718,1,49524,1,49069,56676,48919.70,56173.68,149.30,502.32,0.583505,95.17,1
267758,1,49564,1,49068,56684,48920.00,56174.71,148.00,509.29,0.583140,95.18,1
267798,1,49604,1,49069,56701,48920.30,56175.76,148.70,525.24,0.582774,95.18,1
267838,1,49644,1,49072,56700,48920.60,56176.81,151.40,523.19,0.582405,95.19,1
267879,1,49685,1,49072,56711,48920.91,56177.88,151.09,533.12,0.582034,95.20,1
267919,1,49725,1,49067,56722,48921.20,56178.97,145.80,543.03,0.581660,95.21,1
267959,1,49765,1,49074,56732,48921.51,56180.08,152.49,551.92,0.581283,95.21,1
267999,1,49805,1,49067,56693,48921.80,56181.11,145.20,511.89,0.580904,95.22,1
268039,1,49845,1,49052,56664,48922.06,56182.08,129.94,481.92,0.580523,95.23,1
268079,1,49885,1,49045,56669,48922.31,56183.05,122.69,485.95,0.580140,95.24,1
268119,1,49925,1,49055,56668,48922.57,56184.03,132.43,483.97,0.579756,95.25,1
268159,1,49965,1,49057,56670,48922.84,56185.00,134.16,485.00,0.579369,95.25,1
268199,1,50005,1,49054,56676,48923.11,56185.98,130.89,490.02,0.578981,95.26,1
268239,1,50045,1,49055,56677,48923.37,56186.97,131.63,490.03,0.578590,95.27,1
268279,1,50085,1,49059,56684,48923.64,56187.96,135.36,496.04,0.578198,95.28,1
268319,1,50125,1,49055,56674,48923.91,56188.94,131.09,485.06,0.577804,95.29,1
268359,1,50165,1,49052,56683,48924.17,56189.93,127.83,493.07,0.577408,95.30,1
268400,1,50206,1,49050,56685,48924.42,56190.92,125.58,494.08,0.577009,95.30,1
268440,1,50246,1,49053,56698,48924.68,56191.93,128.32,506.07,0.576609,95.31,1
268480,1,50286,1,49052,56714,48924.94,56192.98,127.06,521.02,0.576205,95.32,1
268520,1,50326,1,49057,56719,48925.20,56194.04,131.80,524.96,0.575799,95.33,1
268560,1,50366,1,49061,56733,48925.48,56195.11,135.52,537.89,0.575391,95.34,1
268600,1,50406,1,49062,56747,48925.75,56196.22,136.25,550.78,0.574979,95.35,1
268640,1,50446,1,49071,56755,48926.04,56197.34,144.96,557.66,0.574565,95.35,1
268680,1,50486,1,49070,56719,48926.33,56198.38,143.67,520.62,0.574149,95.36,1
268720,1,50526,1,49054,56686,48926.59,56199.36,127.41,486.64,0.573731,95.37,1
268760,1,50566,1,49046,56683,48926.83,56200.32,119.17,482.68,0.573311,95.38,1
268800,1,50606,1,49047,56677,48927.07,56201.28,119.93,475.72,0.572890,95.39,1
268840,1,50646,1,49042,56674,48927.30,56202.22,114.70,471.78,0.572466,95.40,1
268880,1,50686,1,49041,56680,48927.53,56203.18,113.47,476.82,0.572041,95.41,1
268920,1,50726,1,49040,56687,48927.76,56204.15,112.24,482.85,0.571614,95.42,1
268961,1,50767,1,49042,56696,48927.99,56205.13,114.01,490.87,0.571185,95.43,1
269001,1,50807,1,49038,56698,48928.21,56206.12,109.79,491.88,0.570753,95.44,1
269041,1,50847,1,49041,56710,48928.44,56207.13,112.56,502.87,0.570319,95.44,1
269081,1,50887,1,49046,56721,48928.68,56208.16,117.32,512.84,0.569882,95.45,1
269121,1,50927,1,49051,56738,48928.92,56209.22,122.08,528.78,0.569442,95.46,1
269161,1,50967,1,49058,56754,48929.18,56210.31,128.82,543.69,0.569000,95.47,1
269201,1,51007,1,49065,56757,48929.45,56211.40,135.55,545.60,0.568556,95.48,1
269241,1,51047,1,49071,56771,48929.74,56212.52,141.26,558.48,0.568109,95.49,1
269281,1,51087,1,49068,56777,48930.02,56213.65,137.98,563.35,0.567659,95.50,1
269321,1,51127,1,49076,56795,48930.31,56214.82,145.69,580.18,0.567207,95.51,1
269361,1,51167,1,49072,56761,48930.59,56215.91,141.41,545.09,0.566752,95.52,1
269401,1,51207,1,49061,56730,48930.86,56216.94,130.14,513.06,0.566296,95.53,1
269441,1,51247,1,49049,56728,48931.09,56217.96,117.91,510.04,0.565838,95.54,1
269481,1,51287,1,49051,56730,48931.34,56218.99,119.66,511.01,0.565378,95.55,1
269522,1,51328,1,49051,56726,48931.58,56220.01,119.42,505.99,0.564916,95.56,1
269562,1,51368,1,49048,56732,48931.81,56221.04,116.19,510.96,0.564452,95.57,1
269602,1,51408,1,49053,56745,48932.05,56222.09,120.95,522.91,0.563986,95.58,1
269642,1,51448,1,49056,56753,48932.30,56223.15,123.70,529.85,0.563518,95.59,1
269682,1,51488,1,49062,56763,48932.57,56224.23,129.43,538.77,0.563047,95.60,1
269722,1,51528,1,49064,56772,48932.83,56225.33,131.17,546.67,0.562575,95.61,1
269762,1,51568,1,49069,56795,48933.11,56226.47,135.89,568.53,0.562100,95.62,1
269802,1,51608,1,49078,56803,48933.40,56227.62,144.60,575.37,0.561623,95.63,1
269842,1,51648,1,49085,56818,48933.70,56228.81,151.30,589.19,0.561143,95.64,1
269882,1,51688,1,49088,56821,48934.01,56230.00,153.99,591.00,0.560662,95.65,1
269922,1,51728,1,49086,56833,48934.32,56231.20,151.68,601.80,0.560179,95.66,1
269962,1,51768,1,49091,56832,48934.63,56232.41,156.37,599.59,0.559693,95.67,1
270002,1,51808,1,49090,56824,48934.95,56233.59,155.05,590.41,0.559206,95.68,1
270042,1,51848,1,49068,56777,48935.21,56234.68,132.79,542.32,0.558718,95.69,1
270082,1,51888,1,49051,56742,48935.45,56235.70,115.55,506.30,0.558227,95.70,1
270123,1,51929,1,49046,56729,48935.67,56236.68,110.33,492.32,0.557736,95.71,1
270163,1,51969,1,49033,56719,48935.86,56237.65,97.14,481.35,0.557242,95.72,1
270203,1,52009,1,49028,56722,48936.05,56238.62,91.95,483.38,0.556747,95.73,1
270243,1,52049,1,49029,56728,48936.23,56239.60,92.77,488.40,0.556249,95.75,1
270283,1,52089,1,49037,56745,48936.44,56240.61,100.56,504.39,0.555750,95.76,1
270323,1,52129,1,49037,56753,48936.64,56241.64,100.36,511.36,0.555248,95.77,1
270363,1,52169,1,49046,56774,48936.86,56242.70,109.14,531.30,0.554744,95.78,1
270403,1,52209,1,49057,56784,48937.10,56243.79,119.90,540.21,0.554238,95.79,1
270443,1,52249,1,49064,56788,48937.36,56244.88,126.64,543.12,0.553731,95.80,1
270483,1,52289,1,49063,56788,48937.61,56245.96,125.39,542.04,0.553222,95.81,1
270523,1,52329,1,49054,56774,48937.84,56247.02,116.16,526.98,0.552711,95.82,1
270563,1,52369,1,49055,56763,48938.08,56248.06,116.92,514.94,0.552199,95.83,1
270603,1,52409,1,49043,56775,48938.29,56249.11,104.71,525.89,0.551684,95.84,1
270643,1,52449,1,49043,56762,48938.50,56250.14,104.50,511.86,0.551168,95.86,1
270683,1,52489,1,49024,56727,48938.67,56251.10,85.33,475.90,0.550650,95.87,1
270724,1,52530,1,49011,56686,48938.82,56251.97,72.18,434.03,0.550131,95.88,1
270764,1,52570,1,49005,56684,48938.95,56252.84,66.05,431.16,0.549611,95.89,1
270804,1,52610,1,48996,56676,48939.07,56253.68,56.93,422.32,0.549089,95.90,1
270844,1,52650,1,48992,56671,48939.17,56254.52,52.83,416.48,0.548565,95.91,1
270884,1,52690,1,48992,56667,48939.28,56255.35,52.72,411.65,0.548040,95.92,1
270924,1,52730,1,48990,56676,48939.38,56256.19,50.62,419.81,0.547514,95.94,1
270964,1,52770,1,48988,56679,48939.48,56257.04,48.52,421.96,0.546986,95.95,1
271004,1,52810,1,48998,56670,48939.59,56257.87,58.41,412.13,0.546456,95.96,1
271044,1,52850,1,48997,56677,48939.71,56258.71,57.29,418.29,0.545926,95.97,1
271084,1,52890,1,48994,56684,48939.82,56259.56,54.18,424.44,0.545393,95.98,1
271124,1,52930,1,48995,56691,48939.93,56260.42,55.07,430.58,0.544860,96.00,1
271164,1,52970,1,49002,56706,48940.06,56261.32,61.94,444.68,0.544324,96.01,1
271204,1,53010,1,49005,56713,48940.19,56262.22,64.81,450.78,0.543787,96.02,1
271244,1,53050,1,49003,56723,48940.32,56263.14,62.68,459.86,0.543247,96.03,1
271284,1,53090,1,49006,56712,48940.45,56264.04,65.55,447.96,0.542707,96.04,1
271325,1,53131,1,48990,56657,48940.55,56264.83,49.45,392.17,0.542165,96.06,1
271365,1,53171,1,48973,56638,48940.62,56265.58,32.38,372.42,0.541622,96.07,1
271405,1,53211,1,48960,56624,48940.66,56266.30,19.34,357.70,0.541078,96.08,1
271445,1,53251,1,48955,56619,48940.69,56267.00,14.31,352.00,0.540533,96.09,1
271485,1,53291,1,48951,56608,48940.71,56267.69,10.29,340.31,0.539987,96.10,1
271525,1,53331,1,48949,56618,48940.73,56268.39,8.27,349.61,0.539441,96.12,1
271565,1,53371,1,48951,56605,48940.75,56269.07,10.25,335.93,0.538894,96.13,1
271605,1,53411,1,48946,56596,48940.77,56269.72,5.23,326.28,0.538346,96.14,1
271645,1,53451,1,48941,56579,48940.77,56270.34,0.23,308.66,0.537798,96.15,1
271685,1,53491,1,48935,56582,48940.75,56270.97,-5.75,311.03,0.537249,96.17,1
271725,1,53531,1,48931,56578,48940.73,56271.59,-9.73,306.41,0.536701,96.18,1
271765,1,53571,1,48934,56585,48940.72,56272.21,-6.72,312.79,0.536151,96.19,1
271805,1,53611,1,48933,56588,48940.71,56272.85,-7.71,315.15,0.535602,96.20,1
271845,1,53651,1,48925,56572,48940.68,56273.45,-15.68,298.55,0.535052,96.22,1
271885,1,53691,1,48910,56560,48940.62,56274.02,-30.62,285.98,0.534502,96.23,1
271926,1,53732,1,48898,56513,48940.54,56274.50,-42.54,238.50,0.533953,96.24,1
271966,1,53772,1,48875,56460,48940.41,56274.87,-65.41,185.12,0.533406,96.25,1
272006,1,53812,1,48849,56436,48940.23,56275.20,-91.23,160.80,0.532862,96.27,1
272046,1,53852,1,48840,56405,48940.03,56275.46,-100.03,129.54,0.532321,96.28,1
272086,1,53892,1,48831,56375,48939.81,56275.66,-108.81,99.34,0.531785,96.29,1
272126,1,53932,1,48809,56347,48939.55,56275.80,-130.55,71.20,0.531255,96.31,1
272166,1,53972,1,48802,56332,48939.28,56275.92,-137.28,56.08,0.530730,96.32,1
272206,1,54012,1,48786,56306,48938.97,56275.98,-152.97,30.02,0.530213,96.33,1
272246,1,54052,1,48784,56287,48938.66,56276.00,-154.66,11.00,0.529704,96.34,1
272286,1,54092,1,48768,56285,48938.32,56276.02,-170.32,8.98,0.529203,96.36,1
272326,1,54132,1,48769,56282,48937.99,56276.04,-168.99,5.96,0.528711,96.37,1
272366,1,54172,1,48769,56288,48937.65,56276.06,-168.65,11.94,0.528227,96.38,1
272406,1,54212,1,48768,56299,48937.31,56276.11,-169.31,22.89,0.527752,96.39,1
272446,1,54252,1,48768,56311,48936.98,56276.18,-168.98,34.82,0.527286,96.41,1
272487,1,54293,1,48773,56324,48936.65,56276.27,-163.65,47.73,0.526828,96.42,1
272527,1,54333,1,48779,56333,48936.34,56276.39,-157.34,56.61,0.526377,96.43,1
272567,1,54373,1,48778,56307,48936.02,56276.45,-158.02,30.55,0.525934,96.45,1
272607,1,54413,1,48761,56279,48935.67,56276.46,-174.67,2.54,0.525500,96.46,1
272647,1,54453,1,48760,56280,48935.32,56276.46,-175.32,3.54,0.525076,96.47,1
272687,1,54493,1,48761,56289,48934.97,56276.49,-173.97,12.51,0.524660,96.48,1
272727,1,54533,1,48764,56285,48934.63,56276.51,-170.63,8.49,0.524254,96.49,1
272767,1,54573,1,48767,56289,48934.30,56276.54,-167.30,12.46,0.523855,96.51,1
272807,1,54613,1,48774,56299,48933.98,56276.59,-159.98,22.41,0.523465,96.52,1
272847,1,54653,1,48772,56303,48933.65,56276.64,-161.65,26.36,0.523083,96.53,1
272887,1,54693,1,48776,56308,48933.34,56276.70,-157.34,31.30,0.522708,96.54,1
272927,1,54733,1,48777,56309,48933.03,56276.77,-156.03,32.23,0.522341,96.56,1
272967,1,54773,1,48776,56316,48932.71,56276.85,-156.71,39.15,0.521981,96.57,1
273007,1,54813,1,48774,56322,48932.40,56276.94,-158.40,45.06,0.521629,96.58,1
273047,1,54853,1,48769,56309,48932.07,56277.00,-163.07,32.00,0.521286,96.59,1
273088,1,54894,1,48771,56319,48931.75,56277.09,-160.75,41.91,0.520950,96.60,1
273128,1,54934,1,48755,56301,48931.40,56277.14,-176.40,23.86,0.520623,96.61,1
273168,1,54974,1,48748,56293,48931.04,56277.17,-183.04,15.83,0.520307,96.63,1
273208,1,55014,1,48741,56249,48930.66,56277.12,-189.66,-28.12,0.520001,96.64,1
273248,1,55054,1,48722,56217,48930.24,56277.00,-208.24,-60.00,0.519708,96.65,1
273288,1,55094,1,48707,56204,48929.79,56276.86,-222.79,-72.86,0.519429,96.66,1
273328,1,55134,1,48713,56201,48929.36,56276.71,-216.36,-75.71,0.519164,96.67,1
273368,1,55174,1,48710,56186,48928.92,56276.53,-218.92,-90.53,0.518912,96.68,1
273408,1,55214,1,48702,56175,48928.47,56276.32,-226.47,-101.32,0.518674,96.69,1
273448,1,55254,1,48697,56171,48928.01,56276.11,-231.01,-105.11,0.518451,96.70,1
273488,1,55294,1,48689,56150,48927.53,56275.86,-238.53,-125.86,0.518243,96.71,1
273528,1,55334,1,48682,56138,48927.04,56275.59,-245.04,-137.59,0.518052,96.72,1
273568,1,55374,1,48669,56132,48926.53,56275.30,-257.53,-143.30,0.517878,96.73,1
273608,1,55414,1,48663,56120,48926.00,56275.00,-263.00,-155.00,0.517722,96.74,1
273649,1,55455,1,48663,56117,48925.48,56274.68,-262.48,-157.68,0.517584,96.75,1
273689,1,55495,1,48656,56114,48924.94,56274.36,-268.94,-160.36,0.517464,96.76,1
273729,1,55535,1,48650,56113,48924.39,56274.04,-274.39,-161.04,0.517363,96.77,1
273769,1,55575,1,48643,56103,48923.83,56273.70,-280.83,-170.70,0.517283,96.78,1
273809,1,55615,1,48642,56109,48923.27,56273.37,-281.27,-164.37,0.517222,96.79,1
273849,1,55655,1,48641,56107,48922.70,56273.04,-281.70,-166.04,0.517180,96.80,1
273889,1,55695,1,48633,56056,48922.12,56272.61,-289.12,-216.61,0.517158,96.80,1
273929,1,55735,1,48613,56032,48921.51,56272.12,-308.51,-240.12,0.517158,96.81,1
273969,1,55775,1,48613,56020,48920.89,56271.62,-307.89,-251.62,0.517178,96.82,1
274009,1,55815,1,48611,56029,48920.27,56271.14,-309.27,-242.14,0.517220,96.83,1
274049,1,55855,1,48606,56015,48919.64,56270.62,-313.64,-255.62,0.517283,96.83,1
274089,1,55895,1,48599,56014,48919.00,56270.11,-320.00,-256.11,0.517368,96.84,1
274129,1,55935,1,48596,56006,48918.36,56269.59,-322.36,-263.59,0.517474,96.85,1
274169,1,55975,1,48590,55959,48917.70,56268.96,-327.70,-309.96,0.517601,96.85,1
274210,1,56016,1,48562,55926,48916.99,56268.28,-354.99,-342.28,0.517751,96.86,1
274250,1,56056,1,48545,55922,48916.25,56267.59,-371.25,-345.59,0.517927,96.87,1
274290,1,56096,1,48542,55912,48915.50,56266.88,-373.50,-354.88,0.518128,96.87,1
274330,1,56136,1,48535,55923,48914.75,56266.19,-379.75,-343.19,0.518355,96.88,1
274370,1,56176,1,48539,55914,48914.00,56265.49,-375.00,-351.49,0.518606,96.88,1
274410,1,56216,1,48531,55927,48913.23,56264.81,-382.23,-337.81,0.518882,96.89,1
274450,1,56256,1,48545,55940,48912.50,56264.16,-367.50,-324.16,0.519182,96.89,1
274490,1,56296,1,48544,55948,48911.76,56263.53,-367.76,-315.53,0.519504,96.89,1
274530,1,56336,1,48549,55935,48911.04,56262.87,-362.04,-327.87,0.519847,96.90,1
274570,1,56376,1,48536,55893,48910.29,56262.14,-374.29,-369.14,0.520210,96.90,1
274610,1,56416,1,48519,55864,48909.51,56261.34,-390.51,-397.34,0.520595,96.90,1
274650,1,56456,1,48514,55866,48908.72,56260.55,-394.72,-394.55,0.521001,96.90,1
274690,1,56496,1,48504,55857,48907.91,56259.75,-403.91,-402.75,0.521429,96.91,1
274730,1,56536,1,48505,55852,48907.11,56258.94,-402.11,-406.94,0.521879,96.91,1
274771,1,56577,1,48502,55870,48906.30,56258.16,-404.30,-388.16,0.522349,96.91,1
274811,1,56617,1,48507,55882,48905.50,56257.41,-398.50,-375.41,0.522841,96.91,1
274851,1,56657,1,48511,55909,48904.71,56256.71,-393.71,-347.71,0.523353,96.91,1
274891,1,56697,1,48524,55916,48903.95,56256.04,-379.95,-340.04,0.523885,96.91,1
274931,1,56737,1,48527,55925,48903.20,56255.37,-376.20,-330.37,0.524435,96.91,1
274971,1,56777,1,48525,55936,48902.44,56254.74,-377.44,-318.74,0.525004,96.91,1
275011,1,56817,1,48527,55931,48901.69,56254.09,-374.69,-323.09,0.525590,96.91,1
275051,1,56857,1,48529,55932,48900.95,56253.45,-371.95,-321.45,0.526194,96.90,1
275091,1,56897,1,48529,55940,48900.21,56252.82,-371.21,-312.82,0.526815,96.90,1
275131,1,56937,1,48532,55935,48899.47,56252.19,-367.47,-317.19,0.527452,96.90,1
275171,1,56977,1,48528,55940,48898.73,56251.57,-370.73,-311.57,0.528106,96.90,1
275211,1,57017,1,48525,55903,48897.98,56250.87,-372.98,-347.87,0.528775,96.89,1
275251,1,57057,1,48496,55854,48897.18,56250.08,-401.18,-396.08,0.529459,96.89,1
275291,1,57097,1,48479,55834,48896.35,56249.25,-417.35,-415.25,0.530160,96.88,1
275331,1,57137,1,48474,55835,48895.50,56248.42,-421.50,-413.42,0.530878,96.88,1
275372,1,57178,1,48472,55839,48894.66,56247.61,-422.66,-408.61,0.531612,96.88,1
275412,1,57218,1,48472,55847,48893.81,56246.80,-421.81,-399.80,0.532363,96.87,1
275452,1,57258,1,48474,55858,48892.97,56246.03,-418.97,-388.03,0.533131,96.86,1
275492,1,57298,1,48477,55862,48892.14,56245.26,-415.14,-383.26,0.533915,96.86,1
275532,1,57338,1,48482,55883,48891.32,56244.54,-409.32,-361.54,0.534715,96.85,1
275572,1,57378,1,48493,55906,48890.52,56243.86,-397.52,-337.86,0.535531,96.84,1
275612,1,57418,1,48500,55927,48889.74,56243.23,-389.74,-316.23,0.536363,96.84,1
275652,1,57458,1,48508,55938,48888.98,56242.62,-380.98,-304.62,0.537209,96.83,1
275692,1,57498,1,48520,55951,48888.24,56242.04,-368.24,-291.04,0.538068,96.82,1
275732,1,57538,1,48523,55966,48887.51,56241.49,-364.51,-275.49,0.538941,96.81,1
275772,1,57578,1,48526,55974,48886.79,56240.95,-360.79,-266.95,0.539828,96.80,1
275812,1,57618,1,48534,55980,48886.09,56240.43,-352.09,-260.43,0.540727,96.79,1
275852,1,57658,1,48531,55986,48885.38,56239.93,-354.38,-253.93,0.541640,96.78,1
275892,1,57698,1,48524,55958,48884.66,56239.36,-360.66,-281.36,0.542565,96.77,1
275932,1,57738,1,48508,55942,48883.90,56238.77,-375.90,-296.77,0.543502,96.76,1
275973,1,57779,1,48515,55953,48883.16,56238.20,-368.16,-285.20,0.544453,96.75,1
276013,1,57819,1,48515,55977,48882.43,56237.68,-367.43,-260.68,0.545417,96.74,1
276053,1,57859,1,48521,55990,48881.71,56237.19,-360.71,-247.19,0.546395,96.73,1
276093,1,57899,1,48532,56004,48881.01,56236.72,-349.01,-232.72,0.547386,96.71,1
276133,1,57939,1,48538,56012,48880.32,56236.27,-342.32,-224.27,0.548388,96.70,1
276173,1,57979,1,48532,56024,48879.63,56235.85,-347.63,-211.85,0.549404,96.69,1
276213,1,58019,1,48542,56018,48878.95,56235.42,-336.95,-217.42,0.550431,96.67,1
276253,1,58059,1,48540,56020,48878.28,56234.99,-338.28,-214.99,0.551470,96.66,1
276293,1,58099,1,48543,56006,48877.61,56234.53,-334.61,-228.53,0.552520,96.65,1
276333,1,58139,1,48525,55995,48876.91,56234.05,-351.91,-239.05,0.553582,96.63,1
276373,1,58179,1,48515,55979,48876.18,56233.55,-361.18,-254.55,0.554656,96.62,1
276413,1,58219,1,48509,55974,48875.45,56233.03,-366.45,-259.03,0.555742,96.60,1
276453,1,58259,1,48504,55966,48874.71,56232.50,-370.71,-266.50,0.556842,96.59,1
276493,1,58299,1,48502,55973,48873.96,56231.98,-371.96,-258.98,0.557954,96.57,1
276534,1,58340,1,48494,55951,48873.20,56231.42,-379.20,-280.42,0.559078,96.55,1
276574,1,58380,1,48481,55922,48872.42,56230.80,-391.42,-308.80,0.560215,96.54,1
276614,1,58420,1,48471,55919,48871.62,56230.18,-400.62,-311.18,0.561365,96.52,1
276654,1,58460,1,48469,55929,48870.82,56229.58,-401.82,-300.58,0.562528,96.50,1
276694,1,58500,1,48477,55936,48870.03,56229.00,-393.03,-293.00,0.563704,96.48,1
276734,1,58540,1,48484,55953,48869.26,56228.45,-385.26,-275.45,0.564892,96.47,1
276774,1,58580,1,48482,55962,48868.49,56227.91,-386.49,-265.91,0.566094,96.45,1
276814,1,58620,1,48484,55965,48867.72,56227.39,-383.72,-262.39,0.567309,96.43,1
276854,1,58660,1,48492,55966,48866.97,56226.87,-374.97,-260.87,0.568535,96.41,1
276894,1,58700,1,48496,55995,48866.23,56226.41,-370.23,-231.41,0.569775,96.39,1
276934,1,58740,1,48502,56001,48865.50,56225.96,-363.50,-224.96,0.571027,96.37,1
276974,1,58780,1,48507,56013,48864.79,56225.54,-357.79,-212.54,0.572290,96.35,1
277014,1,58820,1,48511,56025,48864.08,56225.14,-353.08,-200.14,0.573566,96.33,1
277054,1,58860,1,48507,56030,48863.37,56224.75,-356.37,-194.75,0.574855,96.31,1
277094,1,58900,1,48505,56029,48862.65,56224.36,-357.65,-195.36,0.576156,96.29,1
277135,1,58941,1,48505,56030,48861.94,56223.97,-356.94,-193.97,0.577471,96.26,1
277175,1,58981,1,48497,56011,48861.21,56223.54,-364.21,-212.54,0.578798,96.24,1
277215,1,59021,1,48482,55985,48860.45,56223.07,-378.45,-238.07,0.580137,96.22,1
277255,1,59061,1,48481,55981,48859.69,56222.58,-378.69,-241.58,0.581489,96.20,1
277295,1,59101,1,48482,55983,48858.94,56222.11,-376.94,-239.11,0.582853,96.17,1
277335,1,59141,1,48481,55998,48858.18,56221.66,-377.18,-223.66,0.584230,96.15,1
277375,1,59181,1,48486,56008,48857.44,56221.23,-371.44,-213.23,0.585620,96.13,1
277415,1,59221,1,48488,55997,48856.70,56220.79,-368.70,-223.79,0.587022,96.10,1
277455,1,59261,1,48489,55997,48855.97,56220.34,-366.97,-223.34,0.588435,96.08,1
277495,1,59301,1,48479,55992,48855.21,56219.89,-376.21,-227.89,0.589861,96.05,1
277535,1,59341,1,48479,55993,48854.46,56219.43,-375.46,-226.43,0.591298,96.03,1
277575,1,59381,1,48475,55988,48853.71,56218.97,-378.71,-230.97,0.592748,96.00,1
277615,1,59421,1,48472,55989,48852.95,56218.52,-380.95,-229.52,0.594211,95.98,1
277655,1,59461,1,48467,55982,48852.18,56218.04,-385.18,-236.04,0.595685,95.95,1
277695,1,59501,1,48459,55974,48851.39,56217.55,-392.39,-243.55,0.597173,95.93,1
277736,1,59542,1,48454,55964,48850.60,56217.05,-396.60,-253.05,0.598672,95.90,1
277776,1,59582,1,48445,55931,48849.79,56216.48,-404.79,-285.48,0.600183,95.87,1
277816,1,59622,1,48421,55899,48848.93,56215.85,-427.93,-316.85,0.601704,95.84,1
277856,1,59662,1,48417,55902,48848.07,56215.22,-431.07,-313.22,0.603236,95.82,1
277896,1,59702,1,48428,55910,48847.23,56214.61,-419.23,-304.61,0.604779,95.79,1
277936,1,59742,1,48420,55921,48846.38,56214.03,-426.38,-293.03,0.606334,95.76,1
277976,1,59782,1,48431,55939,48845.55,56213.48,-414.55,-274.48,0.607901,95.73,1
278016,1,59822,1,48439,55945,48844.74,56212.95,-405.74,-267.95,0.609478,95.70,1
278056,1,59862,1,48452,55965,48843.95,56212.45,-391.95,-247.45,0.611067,95.67,1
278096,1,59902,1,48449,55961,48843.16,56211.95,-394.16,-250.95,0.612666,95.64,1
278136,1,59942,1,48449,55951,48842.38,56211.43,-393.38,-260.43,0.614276,95.61,1
278176,1,59982,1,48444,55941,48841.58,56210.89,-397.58,-269.89,0.615894,95.58,1
278216,1,60022,1,48433,55934,48840.77,56210.34,-407.77,-276.34,0.617522,95.55,1
278256,1,60062,1,48423,55925,48839.93,56209.77,-416.93,-284.77,0.619161,95.52,1
278296,1,60102,1,48418,55918,48839.09,56209.19,-421.09,-291.19,0.620809,95.49,1
278337,1,60143,1,48414,55920,48838.24,56208.61,-424.24,-288.61,0.622468,95.46,1
278377,1,60183,1,48398,55871,48837.36,56207.94,-439.36,-336.94,0.624135,95.43,1
278417,1,60223,1,48379,55850,48836.45,56207.22,-457.45,-357.22,0.625808,95.39,1
278457,1,60263,1,48383,55850,48835.54,56206.51,-452.54,-356.51,0.627488,95.36,1
278497,1,60303,1,48385,55873,48834.64,56205.84,-449.64,-332.84,0.629176,95.33,1
278537,1,60343,1,48388,55867,48833.75,56205.17,-445.75,-338.17,0.630872,95.30,1
278577,1,60383,1,48389,55863,48832.86,56204.48,-443.86,-341.48,0.632574,95.26,1
278617,1,60423,1,48383,55844,48831.96,56203.77,-448.96,-359.77,0.634280,95.23,1
278657,1,60463,1,48373,55840,48831.05,56203.04,-458.05,-363.04,0.635992,95.20,1
278697,1,60503,1,48363,55821,48830.11,56202.28,-467.11,-381.28,0.637708,95.16,1
278737,1,60543,1,48361,55824,48829.18,56201.52,-468.18,-377.52,0.639428,95.13,1
278777,1,60583,1,48353,55819,48828.23,56200.76,-475.23,-381.76,0.641153,95.09,1
278817,1,60623,1,48354,55826,48827.28,56200.01,-473.28,-374.01,0.642884,95.06,1
278858,1,60664,1,48346,55818,48826.32,56199.25,-480.32,-381.25,0.644619,95.02,1
278898,1,60704,1,48343,55823,48825.36,56198.50,-482.36,-375.50,0.646361,94.99,1
278938,1,60744,1,48335,55805,48824.37,56197.71,-489.37,-392.71,0.648107,94.95,1
278978,1,60784,1,48319,55768,48823.37,56196.86,-504.37,-428.86,0.649854,94.92,1
279018,1,60824,1,48313,55756,48822.35,56195.98,-509.35,-439.98,0.651603,94.88,1
279058,1,60864,1,48304,55758,48821.31,56195.10,-517.31,-437.10,0.653352,94.84,1
279098,1,60904,1,48311,55759,48820.29,56194.23,-509.29,-435.23,0.655103,94.81,1
279138,1,60944,1,48313,55755,48819.28,56193.35,-506.28,-438.35,0.656853,94.77,1
279178,1,60984,1,48315,55771,48818.27,56192.51,-503.27,-421.51,0.658605,94.73,1
279218,1,61024,1,48314,55772,48817.27,56191.67,-503.27,-419.67,0.660359,94.69,1
279258,1,61064,1,48317,55762,48816.27,56190.81,-499.27,-428.81,0.662112,94.66,1
279298,1,61104,1,48301,55762,48815.24,56189.95,-514.24,-427.95,0.663867,94.62,1
279338,1,61144,1,48299,55753,48814.21,56189.08,-515.21,-436.08,0.665623,94.58,1
279378,1,61184,1,48300,55768,48813.18,56188.24,-513.18,-420.24,0.667380,94.54,1
279418,1,61224,1,48301,55765,48812.16,56187.40,-511.16,-422.40,0.669140,94.51,1
279459,1,61265,1,48300,55769,48811.13,56186.56,-511.13,-417.56,0.670902,94.47,1
279499,1,61305,1,48291,55765,48810.09,56185.72,-519.09,-420.72,0.672666,94.43,1
279539,1,61345,1,48274,55699,48809.02,56184.75,-535.02,-485.75,0.674425,94.39,1
279579,1,61385,1,48248,55670,48807.90,56183.72,-559.90,-513.72,0.676179,94.35,1
279619,1,61425,1,48238,55649,48806.77,56182.66,-568.77,-533.66,0.677925,94.31,1
279659,1,61465,1,48231,55633,48805.62,56181.56,-574.62,-548.56,0.679663,94.27,1
279699,1,61505,1,48222,55617,48804.45,56180.43,-582.45,-563.43,0.681390,94.23,1
