t_ms,phase,red_raw,ir_raw,red_dc,ir_dc,red_dc_init,ir_dc_init,red_ac,ir_ac,OD_red,OD_ir,OD_red_slide,OD_ir_slide,R,spo2,spo2_valid
44,0,52192,56045,4686.76,5023.66,0.00,0.00,47505.23,51021.34,0.000000,0.000000,-3.384860,-3.387019,nan,nan,0
85,0,52189,56045,4781.77,5125.71,0.00,0.00,47407.23,50919.29,0.000000,0.000000,-3.390477,-3.392644,nan,nan,0
123,0,52195,56063,4876.60,5227.58,0.00,0.00,47318.41,50835.42,0.000000,0.000000,-3.395586,-3.397763,nan,nan,0
162,0,52200,56070,4971.24,5329.27,0.00,0.00,47228.76,50740.73,0.000000,0.000000,-3.400210,-3.402396,nan,nan,0
203,0,52205,56093,5065.71,5430.79,0.00,0.00,47139.29,50662.21,0.000000,0.000000,-3.404372,-3.406573,nan,nan,0
244,0,52210,56117,5160.00,5532.17,0.00,0.00,47050.00,50584.83,0.000000,0.000000,-3.408095,-3.410314,nan,nan,0
284,0,52223,56151,5254.12,5633.40,0.00,0.00,46968.87,50517.59,0.000000,0.000000,-3.411403,-3.413644,nan,nan,0
322,0,52237,56178,5348.09,5734.49,0.00,0.00,46888.91,50443.51,0.000000,0.000000,-3.414315,-3.416580,nan,nan,0
364,0,52250,56196,5441.89,5835.42,0.00,0.00,46808.11,50360.58,0.000000,0.000000,-3.416848,-3.419137,nan,nan,0
403,0,52265,56224,5535.54,5936.19,0.00,0.00,46729.46,50287.80,0.000000,0.000000,-3.419023,-3.421336,nan,nan,0
443,0,52274,56248,5629.02,6036.82,0.00,0.00,46644.98,50211.18,0.000000,0.000000,-3.420853,-3.423193,nan,nan,0
483,0,52278,56271,5722.32,6137.29,0.00,0.00,46555.68,50133.71,0.000000,0.000000,-3.422353,-3.424722,nan,nan,0
524,0,52290,56305,5815.45,6237.62,0.00,0.00,46474.55,50067.38,0.000000,0.000000,-3.423540,-3.425944,nan,nan,0
563,0,52302,56330,5908.43,6337.81,0.00,0.00,46393.57,49992.19,0.000000,0.000000,-3.424429,-3.426868,nan,nan,0
604,0,52298,56278,6001.20,6437.69,0.00,0.00,46296.80,49840.31,0.000000,0.000000,-3.425029,-3.427485,nan,nan,0
647,0,52270,56249,6093.74,6537.31,0.00,0.00,46176.26,49711.69,0.000000,0.000000,-3.425345,-3.427817,nan,nan,0
683,0,52270,56261,6186.09,6636.76,0.00,0.00,46083.91,49624.24,0.000000,0.000000,-3.425400,-3.427890,nan,nan,0
723,0,52278,56291,6278.28,6736.07,0.00,0.00,45999.72,49554.93,0.000000,0.000000,-3.425209,-3.427719,nan,nan,0
764,0,52283,56302,6370.29,6835.20,0.00,0.00,45912.71,49466.80,0.000000,0.000000,-3.424781,-3.427312,nan,nan,0
803,0,52289,56328,6462.13,6934.18,0.00,0.00,45826.87,49393.82,0.000000,0.000000,-3.424128,-3.426683,nan,nan,0
844,0,52301,56340,6553.80,7033.00,0.00,0.00,45747.20,49307.00,0.000000,0.000000,-3.423261,-3.425839,nan,nan,0
885,0,52300,56332,6645.30,7131.59,0.00,0.00,45654.70,49200.41,0.000000,0.000000,-3.422189,-3.424784,nan,nan,0
924,0,52293,56317,6736.59,7229.97,0.00,0.00,45556.41,49087.04,0.000000,0.000000,-3.420917,-3.423526,nan,nan,0
964,0,52280,56270,6827.68,7328.05,0.00,0.00,45452.32,48941.95,0.000000,0.000000,-3.419453,-3.422066,nan,nan,0
1005,0,52256,56238,6918.54,7425.87,0.00,0.00,45337.46,48812.13,0.000000,0.000000,-3.417804,-3.420418,nan,nan,0
1044,0,52237,56208,7009.17,7523.43,0.00,0.00,45227.83,48684.57,0.000000,0.000000,-3.415979,-3.418590,nan,nan,0
1084,0,52227,56185,7099.61,7620.75,0.00,0.00,45127.39,48564.25,0.000000,0.000000,-3.413990,-3.416593,nan,nan,0
1124,0,52210,56156,7189.83,7717.82,0.00,0.00,45020.17,48438.18,0.000000,0.000000,-3.411841,-3.414434,nan,nan,0
1164,0,52200,56155,7279.85,7814.70,7279.85,7814.70,44920.15,48340.30,0.000000,0.000000,-3.409543,-3.412127,nan,nan,0
1206,0,52210,56191,7369.71,7911.45,7279.85,7814.70,44840.29,48279.55,0.000000,0.000000,-3.407107,-3.409688,nan,nan,0
1248,0,52224,56206,7459.42,8008.04,7279.85,7814.70,44764.58,48197.96,0.000000,0.000000,-3.404542,-3.407119,nan,nan,0
1284,0,52220,56178,7548.94,8104.38,7279.85,7814.70,44671.06,48073.62,0.000000,0.000000,-3.401848,-3.404415,nan,nan,0
1324,0,52196,56138,7638.24,8200.45,7279.85,7814.70,44557.77,47937.55,0.000000,0.000000,-3.399027,-3.401580,nan,nan,0
1363,0,52191,56120,7727.34,8296.29,7279.85,7814.70,44463.66,47823.71,0.000000,0.000000,-3.396089,-3.398625,nan,nan,0
1402,0,52185,56119,7816.26,8391.93,7279.85,7814.70,44368.74,47727.07,0.000000,0.000000,-3.393040,-3.395560,nan,nan,0
1445,0,52189,56119,7905.00,8487.39,7279.85,7814.70,44284.00,47631.61,0.000000,0.000000,-3.389888,-3.392390,nan,nan,0
1486,0,52187,56110,7993.57,8582.63,7279.85,7814.70,44193.43,47527.37,0.000000,0.000000,-3.386636,-3.389119,nan,nan,0
1524,0,52189,56133,8081.96,8677.73,7279.85,7814.70,44107.04,47455.27,0.000000,0.000000,-3.383290,-3.385759,nan,nan,0
1564,0,52193,56152,8170.18,8772.68,7279.85,7814.70,44022.82,47379.32,0.000000,0.000000,-3.379855,-3.382312,nan,nan,0
1604,0,52204,56165,8258.25,8867.47,7279.85,7814.70,43945.75,47297.53,0.000000,0.000000,-3.376336,-3.378783,nan,nan,0
1646,0,52205,56190,8346.14,8962.11,7279.85,7814.70,43858.86,47227.89,0.000000,0.000000,-3.372737,-3.375177,nan,nan,0
1685,0,52215,56209,8433.88,9056.61,7279.85,7814.70,43781.12,47152.39,0.000000,0.000000,-3.369063,-3.371498,nan,nan,0
1725,0,52220,56221,8521.45,9150.94,7279.85,7814.70,43698.55,47070.06,0.000000,0.000000,-3.365315,-3.367747,nan,nan,0
1765,0,52218,56214,8608.85,9245.06,7279.85,7814.70,43609.16,46968.94,0.000000,0.000000,-3.361498,-3.363924,nan,nan,0
1805,0,52211,56220,8696.05,9339.01,7279.85,7814.70,43514.95,46880.99,0.000000,0.000000,-3.357612,-3.360035,nan,nan,0
1845,0,52217,56234,8783.09,9432.80,7279.85,7814.70,43433.91,46801.20,0.000000,0.000000,-3.353665,-3.356086,nan,nan,0
1886,0,52217,56241,8869.96,9526.42,7279.85,7814.70,43347.04,46714.58,0.000000,0.000000,-3.349658,-3.352078,nan,nan,0
1925,0,52215,56252,8956.65,9619.87,7279.85,7814.70,43258.35,46632.13,0.000000,0.000000,-3.345594,-3.348015,nan,nan,0
1967,0,52216,56226,9043.17,9713.08,7279.85,7814.70,43172.83,46512.92,0.000000,0.000000,-3.341476,-3.343892,nan,nan,0
2005,0,52195,56182,9129.47,9806.02,7279.85,7814.70,43065.53,46375.98,0.000000,0.000000,-3.337303,-3.339709,nan,nan,0
2046,0,52186,56187,9215.59,9898.78,7279.85,7814.70,42970.41,46288.21,0.000000,0.000000,-3.333080,-3.335479,nan,nan,0
2086,0,52191,56220,9301.54,9991.43,7279.85,7814.70,42889.46,46228.57,0.000000,0.000000,-3.328813,-3.331210,nan,nan,0
2126,0,52203,56253,9387.34,10083.95,7279.85,7814.70,42815.66,46169.05,0.000000,0.000000,-3.324506,-3.326904,nan,nan,0
2165,0,52230,56322,9473.03,10176.43,7279.85,7814.70,42756.98,46145.57,0.000000,0.000000,-3.320163,-3.322570,nan,nan,0
2206,0,52263,56392,9558.61,10268.86,7279.85,7814.70,42704.39,46123.14,0.000000,0.000000,-3.315789,-3.318210,nan,nan,0
2247,0,52279,56420,9644.05,10361.16,7279.85,7814.70,42634.95,46058.84,0.000000,0.000000,-3.311382,-3.313819,nan,nan,0
2289,0,52295,56457,9729.35,10453.35,7279.85,7814.70,42565.65,46003.65,0.000000,0.000000,-3.306943,-3.309399,nan,nan,0
2327,0,52312,56499,9814.51,10545.45,7279.85,7814.70,42497.48,45953.55,0.000000,0.000000,-3.302476,-3.304953,nan,nan,0
2366,0,52334,56533,9899.55,10637.42,7279.85,7814.70,42434.45,45895.58,0.000000,0.000000,-3.297982,-3.300481,nan,nan,0
2405,0,52349,56553,9984.45,10729.25,7279.85,7814.70,42364.55,45823.75,0.000000,0.000000,-3.293462,-3.295983,nan,nan,0
2446,0,52351,56565,10069.19,10820.92,7279.85,7814.70,42281.81,45744.08,0.000000,0.000000,-3.288915,-3.291459,nan,nan,0
2486,0,52354,56583,10153.76,10912.45,7279.85,7814.70,42200.24,45670.55,0.000000,0.000000,-3.284344,-3.286911,nan,nan,0
2526,0,52355,56590,10238.16,11003.80,7279.85,7814.70,42116.84,45586.20,0.000000,0.000000,-3.279748,-3.282340,nan,nan,0
2565,0,52361,56604,10322.41,11095.00,7279.85,7814.70,42038.59,45509.00,0.000000,0.000000,-3.275132,-3.277747,nan,nan,0
2606,0,52364,56601,10406.49,11186.02,7279.85,7814.70,41957.51,45414.98,0.000000,0.000000,-3.270495,-3.273132,nan,nan,0
2646,0,52346,56531,10490.37,11276.71,7279.85,7814.70,41855.63,45254.29,0.000000,0.000000,-3.265836,-3.268484,nan,nan,0
2687,0,52318,56477,10574.02,11367.11,7279.85,7814.70,41743.98,45109.89,0.000000,0.000000,-3.261153,-3.263808,nan,nan,0
2726,0,52298,56464,10657.47,11457.30,7279.85,7814.70,41640.53,45006.70,0.000000,0.000000,-3.256450,-3.259113,nan,nan,0
2766,0,52297,56459,10740.75,11547.31,7279.85,7814.70,41556.25,44911.70,0.000000,0.000000,-3.251733,-3.254402,nan,nan,0
2807,0,52290,56440,10823.85,11637.09,7279.85,7814.70,41466.15,44802.91,0.000000,0.000000,-3.247000,-3.249672,nan,nan,0
2848,0,52279,56423,10906.76,11726.67,7279.85,7814.70,41372.24,44696.34,0.000000,0.000000,-3.242253,-3.244927,nan,nan,0
2886,0,52273,56423,10989.49,11816.06,7279.85,7814.70,41283.51,44606.94,0.000000,0.000000,-3.237493,-3.240170,nan,nan,0
2928,0,52274,56421,11072.06,11905.27,7279.85,7814.70,41201.94,44515.73,0.000000,0.000000,-3.232723,-3.235402,nan,nan,0
2966,0,52268,56426,11154.45,11994.31,7279.85,7814.70,41113.55,44431.69,0.000000,0.000000,-3.227943,-3.230625,nan,nan,0
3008,0,52269,56432,11236.68,12083.19,7279.85,7814.70,41032.32,44348.81,0.000000,0.000000,-3.223155,-3.225841,nan,nan,0
3047,0,52270,56440,11318.75,12171.90,7279.85,7814.70,40951.25,44268.10,0.000000,0.000000,-3.218360,-3.221050,nan,nan,0
3087,0,52271,56453,11400.66,12260.46,7279.85,7814.70,40870.34,44192.54,0.000000,0.000000,-3.213559,-3.216254,nan,nan,0
3128,0,52277,56460,11482.41,12348.86,7279.85,7814.70,40794.59,44111.14,0.000000,0.000000,-3.208753,-3.211453,nan,nan,0
3166,0,52275,56465,11563.99,12437.09,7279.85,7814.70,40711.01,44027.91,0.000000,0.000000,-3.203942,-3.206648,nan,nan,0
3206,0,52273,56481,11645.41,12525.18,7279.85,7814.70,40627.59,43955.82,0.000000,0.000000,-3.199127,-3.201841,nan,nan,0
3247,0,52277,56497,11726.68,12613.13,7279.85,7814.70,40550.32,43883.87,0.000000,0.000000,-3.194309,-3.197032,nan,nan,0
3286,0,52283,56506,11807.79,12700.91,7279.85,7814.70,40475.21,43805.09,0.000000,0.000000,-3.189490,-3.192223,nan,nan,0
3328,0,52274,56450,11888.72,12788.41,7279.85,7814.70,40385.28,43661.59,0.000000,0.000000,-3.184668,-3.187402,nan,nan,0
3366,0,52245,56390,11969.43,12875.61,7279.85,7814.70,40275.57,43514.39,0.000000,0.000000,-3.179840,-3.182570,nan,nan,0
3407,0,52235,56374,12049.97,12962.61,7279.85,7814.70,40185.04,43411.39,0.000000,0.000000,-3.175010,-3.177735,nan,nan,0
3448,0,52229,56380,12130.32,13049.45,7279.85,7814.70,40098.68,43330.55,0.000000,0.000000,-3.170180,-3.172902,nan,nan,0
3487,0,52228,56376,12210.52,13136.10,7279.85,7814.70,40017.48,43239.90,0.000000,0.000000,-3.165350,-3.168069,nan,nan,0
3526,0,52218,56366,12290.54,13222.56,7279.85,7814.70,39927.46,43143.44,0.000000,0.000000,-3.160520,-3.163235,nan,nan,0
3567,0,52219,56374,12370.39,13308.86,7279.85,7814.70,39848.61,43065.14,0.000000,0.000000,-3.155693,-3.158405,nan,nan,0
3607,0,52218,56376,12450.09,13395.00,7279.85,7814.70,39767.91,42981.00,0.000000,0.000000,-3.150868,-3.153577,nan,nan,0
3648,0,52214,56370,12529.62,13480.95,7279.85,7814.70,39684.38,42889.05,0.000000,0.000000,-3.146045,-3.148751,nan,nan,0
3686,0,52210,56381,12608.98,13566.75,7279.85,7814.70,39601.02,42814.25,0.000000,0.000000,-3.141226,-3.143931,nan,nan,0
3727,0,52213,56388,12688.19,13652.39,7279.85,7814.70,39524.81,42735.61,0.000000,0.000000,-3.136411,-3.139115,nan,nan,0
3767,0,52207,56395,12767.22,13737.88,7279.85,7814.70,39439.78,42657.12,0.000000,0.000000,-3.131599,-3.134305,nan,nan,0
3811,0,52210,56407,12846.11,13823.21,7279.85,7814.70,39363.89,42583.79,0.000000,0.000000,-3.126793,-3.129500,nan,nan,0
3848,0,52210,56412,12924.84,13908.39,7279.85,7814.70,39285.16,42503.61,0.000000,0.000000,-3.121993,-3.124701,nan,nan,0
3888,0,52209,56424,13003.41,13993.42,7279.85,7814.70,39205.59,42430.58,0.000000,0.000000,-3.117198,-3.119910,nan,nan,0
3927,0,52212,56434,13081.82,14078.31,7279.85,7814.70,39130.18,42355.70,0.000000,0.000000,-3.112409,-3.115126,nan,nan,0
3970,0,52209,56443,13160.08,14163.04,7279.85,7814.70,39048.92,42279.96,0.000000,0.000000,-3.107626,-3.110348,nan,nan,0
4007,0,52202,56441,13238.16,14247.59,7279.85,7814.70,38963.84,42193.41,0.000000,0.000000,-3.102849,-3.105577,nan,nan,0
4045,0,52189,56379,13316.07,14331.86,7279.85,7814.70,38872.93,42047.14,0.000000,0.000000,-3.098078,-3.100804,nan,nan,0
4086,0,52159,56340,13393.75,14415.87,7279.85,7814.70,38765.25,41924.13,0.000000,0.000000,-3.093309,-3.096033,nan,nan,0
4129,0,52153,56335,13471.27,14499.71,7279.85,7814.70,38681.73,41835.29,0.000000,0.000000,-3.088547,-3.091268,nan,nan,0
4167,0,52154,56344,13548.64,14583.40,7279.85,7814.70,38605.36,41760.60,0.000000,0.000000,-3.083793,-3.086513,nan,nan,0
4209,0,52151,56344,13625.84,14666.92,7279.85,7814.70,38525.16,41677.08,0.000000,0.000000,-3.079047,-3.081766,nan,nan,0
4251,0,52147,56350,13702.88,14750.29,7279.85,7814.70,38444.12,41599.71,0.000000,0.000000,-3.074309,-3.077028,nan,nan,0
4288,0,52144,56357,13779.77,14833.50,7279.85,7814.70,38364.23,41523.50,0.000000,0.000000,-3.069579,-3.072299,nan,nan,0
4327,0,52145,56353,13856.50,14916.54,7279.85,7814.70,38288.50,41436.46,0.000000,0.000000,-3.064859,-3.067579,nan,nan,0
4368,0,52144,56355,13933.07,14999.42,7279.85,7814.70,38210.93,41355.58,0.000000,0.000000,-3.060147,-3.062867,nan,nan,0
4408,0,52141,56350,14009.49,15082.12,7279.85,7814.70,38131.51,41267.88,0.000000,0.000000,-3.055445,-3.058165,nan,nan,0
4449,0,52136,56351,14085.74,15164.66,7279.85,7814.70,38050.26,41186.34,0.000000,0.000000,-3.050751,-3.053471,nan,nan,0
4487,0,52132,56354,14161.83,15247.04,7279.85,7814.70,37970.16,41106.96,0.000000,0.000000,-3.046067,-3.048788,nan,nan,0
4527,0,52123,56355,14237.76,15329.25,7279.85,7814.70,37885.24,41025.75,0.000000,0.000000,-3.041392,-3.044115,nan,nan,0
4568,0,52120,56359,14313.52,15411.31,7279.85,7814.70,37806.48,40947.69,0.000000,0.000000,-3.036726,-3.039452,nan,nan,0
4604,0,52118,56362,14389.13,15493.21,7279.85,7814.70,37728.87,40868.79,0.000000,0.000000,-3.032070,-3.034800,nan,nan,0
4649,0,52112,56357,14464.58,15574.94,7279.85,7814.70,37647.42,40782.06,0.000000,0.000000,-3.027425,-3.030157,nan,nan,0
4688,0,52109,56362,14539.87,15656.51,7279.85,7814.70,37569.13,40705.48,0.000000,0.000000,-3.022789,-3.025525,nan,nan,0
4727,0,52101,56367,14614.99,15737.94,7279.85,7814.70,37486.01,40629.06,0.000000,0.000000,-3.018163,-3.020905,nan,nan,0
4768,0,52096,56315,14689.95,15819.09,7279.85,7814.70,37406.05,40495.91,0.000000,0.000000,-3.013547,-3.016288,nan,nan,0
4813,0,52064,56275,14764.70,15900.00,7279.85,7814.70,37299.30,40375.00,0.000000,0.000000,-3.008938,-3.011677,nan,nan,0
4851,0,52061,56279,14839.29,15980.76,7279.85,7814.70,37221.71,40298.24,0.000000,0.000000,-3.004340,-3.007078,nan,nan,0
4888,0,52058,56285,14913.73,16061.37,7279.85,7814.70,37144.27,40223.63,0.000000,0.000000,-2.999753,-3.002491,nan,nan,0
4930,0,52058,56289,14988.02,16141.83,7279.85,7814.70,37069.98,40147.17,0.000000,0.000000,-2.995177,-2.997915,nan,nan,0
4969,0,52054,56293,15062.15,16222.13,7279.85,7814.70,36991.85,40070.87,0.000000,0.000000,-2.990613,-2.993351,nan,nan,0
5009,0,52053,56307,15136.13,16302.30,7279.85,7814.70,36916.87,40004.70,0.000000,0.000000,-2.986059,-2.988801,nan,nan,0
5051,0,52052,56309,15209.97,16382.31,7279.85,7814.70,36842.03,39926.69,0.000000,0.000000,-2.981518,-2.984262,nan,nan,0
5089,0,52052,56314,15283.65,16462.18,7279.85,7814.70,36768.35,39851.82,0.000000,0.000000,-2.976988,-2.979735,nan,nan,0
5128,0,52051,56324,15357.19,16541.90,7279.85,7814.70,36693.81,39782.10,0.000000,0.000000,-2.972470,-2.975221,nan,nan,0
5170,0,52054,56341,15430.58,16621.50,7279.85,7814.70,36623.42,39719.50,0.000000,0.000000,-2.967964,-2.970721,nan,nan,0
5209,0,52058,56356,15503.83,16700.97,7279.85,7814.70,36554.16,39655.03,0.000000,0.000000,-2.963470,-2.966234,nan,nan,0
5251,0,52058,56381,15576.94,16780.33,7279.85,7814.70,36481.05,39600.67,0.000000,0.000000,-2.958989,-2.961762,nan,nan,0
5288,0,52073,56388,15649.94,16859.54,7279.85,7814.70,36423.06,39528.46,0.000000,0.000000,-2.954521,-2.957302,nan,nan,0
5329,0,52071,56388,15722.78,16938.60,7279.85,7814.70,36348.22,39449.40,0.000000,0.000000,-2.950066,-2.952854,nan,nan,0
5369,0,52064,56389,15795.46,17017.50,7279.85,7814.70,36268.54,39371.50,0.000000,0.000000,-2.945621,-2.948418,nan,nan,0
5410,0,52063,56390,15868.00,17096.25,7279.85,7814.70,36195.00,39293.75,0.000000,0.000000,-2.941189,-2.943993,nan,nan,0
5451,0,52062,56380,15940.38,17174.81,7279.85,7814.70,36121.62,39205.19,0.000000,0.000000,-2.936769,-2.939580,nan,nan,0
5490,0,52041,56328,16012.59,17253.12,7279.85,7814.70,36028.41,39074.88,0.000000,0.000000,-2.932358,-2.935172,nan,nan,0
5529,0,52020,56323,16084.60,17331.26,7279.85,7814.70,35935.40,38991.74,0.000000,0.000000,-2.927957,-2.930776,nan,nan,0
5569,0,52028,56340,16156.49,17409.28,7279.85,7814.70,35871.51,38930.72,0.000000,0.000000,-2.923569,-2.926394,nan,nan,0
5610,0,52037,56356,16228.25,17487.17,7279.85,7814.70,35808.75,38868.83,0.000000,0.000000,-2.919194,-2.922025,nan,nan,0
5650,0,52043,56363,16299.88,17564.93,7279.85,7814.70,35743.12,38798.07,0.000000,0.000000,-2.914833,-2.917669,nan,nan,0
5689,0,52040,56374,16371.36,17642.54,7279.85,7814.70,35668.64,38731.45,0.000000,0.000000,-2.910484,-2.913327,nan,nan,0
5729,0,52041,56378,16442.70,17720.02,7279.85,7814.70,35598.30,38657.98,0.000000,0.000000,-2.906147,-2.908997,nan,nan,0
5769,0,52040,56391,16513.90,17797.36,7279.85,7814.70,35526.10,38593.64,0.000000,0.000000,-2.901822,-2.904681,nan,nan,0
5810,0,52040,56395,16584.95,17874.55,7279.85,7814.70,35455.05,38520.45,0.000000,0.000000,-2.897510,-2.900377,nan,nan,0
5849,0,52044,56413,16655.87,17951.63,7279.85,7814.70,35388.13,38461.37,0.000000,0.000000,-2.893210,-2.896087,nan,nan,0
5889,0,52054,56434,16726.66,18028.60,7279.85,7814.70,35327.34,38405.41,0.000000,0.000000,-2.888925,-2.891812,nan,nan,0
5929,0,52053,56457,16797.32,18105.45,7279.85,7814.70,35255.68,38351.55,0.000000,0.000000,-2.884651,-2.887551,nan,nan,0
5972,0,52063,56477,16867.85,18182.20,7279.85,7814.70,35195.15,38294.80,0.000000,0.000000,-2.880390,-2.883304,nan,nan,0
6010,0,52066,56494,16938.24,18258.82,7279.85,7814.70,35127.76,38235.18,0.000000,0.000000,-2.876143,-2.879071,nan,nan,0
6050,0,52077,56510,17008.52,18335.32,7279.85,7814.70,35068.48,38174.68,0.000000,0.000000,-2.871909,-2.874851,nan,nan,0
6089,0,52082,56524,17078.67,18411.70,7279.85,7814.70,35003.33,38112.30,0.000000,0.000000,-2.867688,-2.870645,nan,nan,0
6130,0,52082,56496,17148.68,18487.87,7279.85,7814.70,34933.32,38008.13,0.000000,0.000000,-2.863479,-2.866447,nan,nan,0
6170,0,52064,56461,17218.51,18563.82,7279.85,7814.70,34845.49,37897.18,0.000000,0.000000,-2.859280,-2.862258,nan,nan,0
6210,0,52056,56462,17288.18,18639.62,7279.85,7814.70,34767.82,37822.38,0.000000,0.000000,-2.855093,-2.858081,nan,nan,0
6249,0,52063,56487,17357.73,18715.31,7279.85,7814.70,34705.27,37771.69,0.000000,0.000000,-2.850918,-2.853918,nan,nan,0
6290,0,52070,56493,17427.16,18790.87,7279.85,7814.70,34642.84,37702.13,0.000000,0.000000,-2.846757,-2.849768,nan,nan,0
6330,0,52071,56495,17496.45,18866.28,7279.85,7814.70,34574.55,37628.73,0.000000,0.000000,-2.842608,-2.845630,nan,nan,0
6367,0,52076,56507,17565.61,18941.56,7279.85,7814.70,34510.39,37565.45,0.000000,0.000000,-2.838471,-2.841504,nan,nan,0
6410,0,52080,56512,17634.64,19016.70,7279.85,7814.70,34445.36,37495.30,0.000000,0.000000,-2.834347,-2.837391,nan,nan,0
6450,0,52081,56516,17703.53,19091.70,7279.85,7814.70,34377.47,37424.30,0.000000,0.000000,-2.830236,-2.833291,nan,nan,0
6490,0,52078,56520,17772.28,19166.55,7279.85,7814.70,34305.72,37353.45,0.000000,0.000000,-2.826136,-2.829202,nan,nan,0
6531,0,52077,56531,17840.89,19241.28,7279.85,7814.70,34236.11,37289.72,0.000000,0.000000,-2.822048,-2.825126,nan,nan,0
6570,0,52078,56535,17909.37,19315.87,7279.85,7814.70,34168.63,37219.13,0.000000,0.000000,-2.817972,-2.821063,nan,nan,0
6609,0,52081,56544,17977.71,19390.33,7279.85,7814.70,34103.29,37153.67,0.000000,0.000000,-2.813909,-2.817011,nan,nan,0
6652,0,52076,56543,18045.91,19464.63,7279.85,7814.70,34030.09,37078.37,0.000000,0.000000,-2.809857,-2.812972,nan,nan,0
6690,0,52073,56547,18113.96,19538.80,7279.85,7814.70,33959.04,37008.20,0.000000,0.000000,-2.805816,-2.808944,nan,nan,0
6729,0,52066,56548,18181.87,19612.82,7279.85,7814.70,33884.13,36935.18,0.000000,0.000000,-2.801787,-2.804928,nan,nan,0
6769,0,52063,56538,18249.63,19686.67,7279.85,7814.70,33813.37,36851.33,0.000000,0.000000,-2.797770,-2.800923,nan,nan,0
6810,0,52041,56466,18317.21,19760.23,7279.85,7814.70,33723.79,36705.77,0.000000,0.000000,-2.793761,-2.796921,nan,nan,0
6853,0,52018,56439,18384.62,19833.59,7279.85,7814.70,33633.38,36605.41,0.000000,0.000000,-2.789762,-2.792929,nan,nan,0
6890,0,52015,56439,18451.88,19906.80,7279.85,7814.70,33563.12,36532.20,0.000000,0.000000,-2.785775,-2.788949,nan,nan,0
6932,0,52017,56443,18519.01,19979.87,7279.85,7814.70,33497.99,36463.13,0.000000,0.000000,-2.781800,-2.784980,nan,nan,0
6971,0,52015,56441,18586.00,20052.79,7279.85,7814.70,33429.00,36388.21,0.000000,0.000000,-2.777837,-2.781023,nan,nan,0
7011,0,52007,56438,18652.84,20125.56,7279.85,7814.70,33354.16,36312.44,0.000000,0.000000,-2.773884,-2.777077,nan,nan,0
7053,0,52007,56440,18719.55,20198.19,7279.85,7814.70,33287.45,36241.80,0.000000,0.000000,-2.769943,-2.773143,nan,nan,0
7090,0,52005,56436,18786.12,20270.67,7279.85,7814.70,33218.87,36165.33,0.000000,0.000000,-2.766014,-2.769220,nan,nan,0
7131,0,51999,56430,18852.55,20342.99,7279.85,7814.70,33146.45,36087.01,0.000000,0.000000,-2.762096,-2.765307,nan,nan,0
7171,0,52001,56440,18918.85,20415.18,7279.85,7814.70,33082.16,36024.82,0.000000,0.000000,-2.758190,-2.761408,nan,nan,0
7210,0,52001,56450,18985.01,20487.25,7279.85,7814.70,33015.99,35962.75,0.000000,0.000000,-2.754295,-2.757520,nan,nan,0
7253,0,52000,56459,19051.04,20559.20,7279.85,7814.70,32948.96,35899.80,0.000000,0.000000,-2.750412,-2.753645,nan,nan,0
7290,0,52009,56463,19116.96,20631.01,7279.85,7814.70,32892.04,35831.99,0.000000,0.000000,-2.746541,-2.749782,nan,nan,0
7331,0,52008,56473,19182.74,20702.69,7279.85,7814.70,32825.26,35770.31,0.000000,0.000000,-2.742682,-2.745930,nan,nan,0
7371,0,52009,56477,19248.39,20774.24,7279.85,7814.70,32760.61,35702.76,0.000000,0.000000,-2.738834,-2.742090,nan,nan,0
7411,0,52009,56454,19313.91,20845.60,7279.85,7814.70,32695.09,35608.40,0.000000,0.000000,-2.734998,-2.738260,nan,nan,0
7453,0,51985,56381,19379.26,20916.67,7279.85,7814.70,32605.74,35464.33,0.000000,0.000000,-2.731171,-2.734433,nan,nan,0
7492,0,51966,56345,19444.43,20987.53,7279.85,7814.70,32521.57,35357.47,0.000000,0.000000,-2.727353,-2.730614,nan,nan,0
7531,0,51959,56347,19509.46,21058.25,7279.85,7814.70,32449.54,35288.75,0.000000,0.000000,-2.723545,-2.726807,nan,nan,0
7571,0,51965,56343,19574.37,21128.82,7279.85,7814.70,32390.63,35214.18,0.000000,0.000000,-2.719750,-2.723011,nan,nan,0
7613,0,51956,56338,19639.13,21199.23,7279.85,7814.70,32316.87,35138.77,0.000000,0.000000,-2.715965,-2.719225,nan,nan,0
7652,0,51961,56328,19703.78,21269.49,7279.85,7814.70,32257.22,35058.51,0.000000,0.000000,-2.712192,-2.715449,nan,nan,0
7690,0,51955,56329,19768.28,21339.61,7279.85,7814.70,32186.72,34989.39,0.000000,0.000000,-2.708429,-2.711685,nan,nan,0
7729,0,51956,56326,19832.66,21409.58,7279.85,7814.70,32123.34,34916.41,0.000000,0.000000,-2.704678,-2.707931,nan,nan,0
7771,0,51952,56330,19896.90,21479.43,7279.85,7814.70,32055.10,34850.57,0.000000,0.000000,-2.700937,-2.704189,nan,nan,0
7808,0,51951,56341,19961.01,21549.15,7279.85,7814.70,31989.99,34791.85,0.000000,0.000000,-2.697207,-2.700459,nan,nan,0
7852,0,51954,56342,20024.99,21618.74,7279.85,7814.70,31929.01,34723.27,0.000000,0.000000,-2.693489,-2.696740,nan,nan,0
7891,0,51954,56344,20088.85,21688.19,7279.85,7814.70,31865.15,34655.81,0.000000,0.000000,-2.689781,-2.693032,nan,nan,0
7931,0,51951,56346,20152.58,21757.50,7279.85,7814.70,31798.42,34588.50,0.000000,0.000000,-2.686084,-2.689335,nan,nan,0
7972,0,51953,56355,20216.18,21826.70,7279.85,7814.70,31736.82,34528.30,0.000000,0.000000,-2.682399,-2.685649,nan,nan,0
8012,0,51953,56364,20279.65,21895.77,7279.85,7814.70,31673.35,34468.23,0.000000,0.000000,-2.678724,-2.681975,nan,nan,0
8052,0,51952,56338,20343.00,21964.66,7279.85,7814.70,31609.00,34373.34,0.000000,0.000000,-2.675060,-2.678310,nan,nan,0
8091,0,51926,56264,20406.16,22033.26,7279.85,7814.70,31519.84,34230.74,0.000000,0.000000,-2.671404,-2.674648,nan,nan,0
8133,0,51911,56238,20469.17,22101.67,7279.85,7814.70,31441.83,34136.33,0.000000,0.000000,-2.667757,-2.670995,nan,nan,0
8172,0,51916,56245,20532.07,22169.96,7279.85,7814.70,31383.93,34075.05,0.000000,0.000000,-2.664121,-2.667353,nan,nan,0
8212,0,51923,56255,20594.85,22238.13,7279.85,7814.70,31328.15,34016.87,0.000000,0.000000,-2.660497,-2.663723,nan,nan,0
8251,0,51923,56252,20657.51,22306.15,7279.85,7814.70,31265.49,33945.84,0.000000,0.000000,-2.656884,-2.660103,nan,nan,0
8292,0,51922,56261,20720.04,22374.06,7279.85,7814.70,31201.96,33886.94,0.000000,0.000000,-2.653281,-2.656494,nan,nan,0
8334,0,51931,56261,20782.46,22441.84,7279.85,7814.70,31148.54,33819.16,0.000000,0.000000,-2.649689,-2.652896,nan,nan,0
8373,0,51939,56265,20844.77,22509.49,7279.85,7814.70,31094.23,33755.52,0.000000,0.000000,-2.646109,-2.649308,nan,nan,0
8412,0,51940,56268,20906.96,22577.00,7279.85,7814.70,31033.04,33691.00,0.000000,0.000000,-2.642539,-2.645732,nan,nan,0
8452,0,51942,56277,20969.04,22644.40,7279.85,7814.70,30972.96,33632.59,0.000000,0.000000,-2.638979,-2.642166,nan,nan,0
8492,0,51949,56284,21031.00,22711.68,7279.85,7814.70,30918.00,33572.32,0.000000,0.000000,-2.635431,-2.638612,nan,nan,0
8532,0,51953,56293,21092.84,22778.85,7279.85,7814.70,30860.16,33514.15,0.000000,0.000000,-2.631893,-2.635068,nan,nan,0
8572,0,51951,56300,21154.56,22845.89,7279.85,7814.70,30796.44,33454.11,0.000000,0.000000,-2.628365,-2.631536,nan,nan,0
8613,0,51950,56305,21216.15,22912.81,7279.85,7814.70,30733.85,33392.19,0.000000,0.000000,-2.624847,-2.628013,nan,nan,0
8653,0,51954,56315,21277.63,22979.61,7279.85,7814.70,30676.38,33335.39,0.000000,0.000000,-2.621340,-2.624502,nan,nan,0
8693,0,51958,56293,21338.99,23046.24,7279.85,7814.70,30619.01,33246.76,0.000000,0.000000,-2.617843,-2.620999,nan,nan,0
8731,0,51931,56206,21400.17,23112.56,7279.85,7814.70,30530.83,33093.44,0.000000,0.000000,-2.614354,-2.617498,nan,nan,0
8773,0,51904,56170,21461.18,23178.68,7279.85,7814.70,30442.82,32991.32,0.000000,0.000000,-2.610872,-2.614005,nan,nan,0
8812,0,51903,56172,21522.06,23244.66,7279.85,7814.70,30380.94,32927.34,0.000000,0.000000,-2.607400,-2.610522,nan,nan,0
8853,0,51902,56172,21582.82,23310.52,7279.85,7814.70,30319.18,32861.48,0.000000,0.000000,-2.603938,-2.607048,nan,nan,0
8893,0,51902,56166,21643.46,23376.23,7279.85,7814.70,30258.54,32789.77,0.000000,0.000000,-2.600486,-2.603584,nan,nan,0
8933,0,51903,56174,21703.98,23441.82,7279.85,7814.70,30199.02,32732.18,0.000000,0.000000,-2.597044,-2.600131,nan,nan,0
8973,0,51908,56172,21764.39,23507.29,7279.85,7814.70,30143.61,32664.71,0.000000,0.000000,-2.593612,-2.596688,nan,nan,0
9014,0,51900,56170,21824.66,23572.61,7279.85,7814.70,30075.34,32597.39,0.000000,0.000000,-2.590189,-2.593254,nan,nan,0
9052,0,51906,56176,21884.83,23637.82,7279.85,7814.70,30021.17,32538.18,0.000000,0.000000,-2.586776,-2.589830,nan,nan,0
9093,0,51906,56181,21944.87,23702.91,7279.85,7814.70,29961.13,32478.09,0.000000,0.000000,-2.583374,-2.586417,nan,nan,0
9133,0,51911,56187,22004.80,23767.88,7279.85,7814.70,29906.20,32419.13,0.000000,0.000000,-2.579981,-2.583014,nan,nan,0
9173,0,51918,56200,22064.63,23832.74,7279.85,7814.70,29853.37,32367.26,0.000000,0.000000,-2.576598,-2.579622,nan,nan,0
9213,0,51915,56208,22124.33,23897.49,7279.85,7814.70,29790.67,32310.51,0.000000,0.000000,-2.573225,-2.576240,nan,nan,0
9255,0,51914,56214,22183.91,23962.13,7279.85,7814.70,29730.09,32251.88,0.000000,0.000000,-2.569861,-2.572867,nan,nan,0
9294,0,51916,56227,22243.38,24026.66,7279.85,7814.70,29672.63,32200.34,0.000000,0.000000,-2.566507,-2.569506,nan,nan,0
9333,0,51921,56227,22302.73,24091.06,7279.85,7814.70,29618.27,32135.94,0.000000,0.000000,-2.563162,-2.566154,nan,nan,0
9375,0,51914,56160,22361.95,24155.20,7279.85,7814.70,29552.05,32004.80,0.000000,0.000000,-2.559826,-2.562805,nan,nan,0
9413,0,51884,56101,22421.00,24219.09,7279.85,7814.70,29463.00,31881.91,0.000000,0.000000,-2.556497,-2.559462,nan,nan,0
9454,0,51878,56090,22479.91,24282.83,7279.85,7814.70,29398.09,31807.17,0.000000,0.000000,-2.553177,-2.556127,nan,nan,0
9493,0,51877,56089,22538.71,24346.44,7279.85,7814.70,29338.29,31742.56,0.000000,0.000000,-2.549866,-2.552801,nan,nan,0
9533,0,51877,56077,22597.38,24409.90,7279.85,7814.70,29279.62,31667.10,0.000000,0.000000,-2.546564,-2.549483,nan,nan,0
9573,0,51873,56078,22655.94,24473.24,7279.85,7814.70,29217.06,31604.76,0.000000,0.000000,-2.543271,-2.546175,nan,nan,0
9613,0,51878,56078,22714.38,24536.45,7279.85,7814.70,29163.62,31541.55,0.000000,0.000000,-2.539988,-2.542876,nan,nan,0
9654,0,51875,56071,22772.71,24599.52,7279.85,7814.70,29102.29,31471.48,0.000000,0.000000,-2.536713,-2.539587,nan,nan,0
9693,0,51874,56065,22830.91,24662.45,7279.85,7814.70,29043.09,31402.55,0.000000,0.000000,-2.533448,-2.536305,nan,nan,0
9734,0,51875,56069,22889.00,24725.27,7279.85,7814.70,28986.00,31343.73,0.000000,0.000000,-2.530191,-2.533033,nan,nan,0
9773,0,51877,56072,22946.97,24787.96,7279.85,7814.70,28930.03,31284.04,0.000000,0.000000,-2.526944,-2.529771,nan,nan,0
9814,0,51870,56078,23004.82,24850.54,7279.85,7814.70,28865.18,31227.46,0.000000,0.000000,-2.523705,-2.526518,nan,nan,0
9853,0,51874,56086,23062.56,24913.01,7279.85,7814.70,28811.44,31172.99,0.000000,0.000000,-2.520475,-2.523274,nan,nan,0
9896,0,51881,56095,23120.19,24975.38,7279.85,7814.70,28760.81,31119.62,0.000000,0.000000,-2.517254,-2.520041,nan,nan,0
9934,0,51882,56104,23177.72,25037.63,7279.85,7814.70,28704.28,31066.37,0.000000,0.000000,-2.514043,-2.516817,nan,nan,0
9974,0,51889,56120,23235.14,25099.80,7279.85,7814.70,28653.86,31020.20,0.000000,0.000000,-2.510841,-2.513603,nan,nan,0
10014,0,51893,56121,23292.46,25161.84,7279.85,7814.70,28600.54,30959.16,0.000000,0.000000,-2.507648,-2.510398,nan,nan,0
10055,0,51880,56059,23349.63,25223.64,7279.85,7814.70,28530.37,30835.36,0.000000,0.000000,-2.504462,-2.507197,nan,nan,0
10094,0,51860,56027,23406.65,25285.25,7279.85,7814.70,28453.35,30741.75,0.000000,0.000000,-2.501284,-2.504002,nan,nan,0
10135,0,51867,56040,23463.58,25346.76,7279.85,7814.70,28403.42,30693.24,0.000000,0.000000,-2.498115,-2.500817,nan,nan,0
10174,0,51879,56056,23520.41,25408.18,7279.85,7814.70,28358.59,30647.82,0.000000,0.000000,-2.494955,-2.497642,nan,nan,0
10217,0,51897,56073,23577.16,25469.51,7279.85,7814.70,28319.84,30603.49,0.000000,0.000000,-2.491805,-2.494477,nan,nan,0
10255,0,51906,56095,23633.82,25530.76,7279.85,7814.70,28272.18,30564.24,0.000000,0.000000,-2.488665,-2.491322,nan,nan,0
10293,0,51915,56103,23690.38,25591.90,7279.85,7814.70,28224.62,30511.10,0.000000,0.000000,-2.485533,-2.488176,nan,nan,0
10333,0,51918,56107,23746.84,25652.93,7279.85,7814.70,28171.16,30454.07,0.000000,0.000000,-2.482411,-2.485040,nan,nan,0
10373,0,51927,56123,23803.20,25713.88,7279.85,7814.70,28123.80,30409.13,0.000000,0.000000,-2.479297,-2.481913,nan,nan,0
10414,0,51944,56135,23859.48,25774.72,7279.85,7814.70,28084.52,30360.28,0.000000,0.000000,-2.476193,-2.478795,nan,nan,0
10454,0,51957,56150,23915.68,25835.47,7279.85,7814.70,28041.32,30314.53,0.000000,0.000000,-2.473099,-2.475687,nan,nan,0
10494,0,51964,56166,23971.77,25896.13,7279.85,7814.70,27992.23,30269.87,0.000000,0.000000,-2.470013,-2.472588,nan,nan,0
10536,0,51971,56183,24027.77,25956.71,7279.85,7814.70,27943.23,30226.29,0.000000,0.000000,-2.466936,-2.469499,nan,nan,0
10574,0,51983,56201,24083.68,26017.20,7279.85,7814.70,27899.32,30183.80,0.000000,0.000000,-2.463868,-2.466419,nan,nan,0
10615,0,51990,56220,24139.50,26077.60,7279.85,7814.70,27850.50,30142.40,0.000000,0.000000,-2.460808,-2.463349,nan,nan,0
10654,0,51999,56226,24195.21,26137.90,7279.85,7814.70,27803.79,30088.10,0.000000,0.000000,-2.457758,-2.460287,nan,nan,0
10694,0,52003,56172,24250.83,26197.97,7279.85,7814.70,27752.17,29974.03,0.000000,0.000000,-2.454715,-2.457229,nan,nan,0
10735,0,51974,56122,24306.28,26257.82,7279.85,7814.70,27667.72,29864.18,0.000000,0.000000,-2.451678,-2.454176,nan,nan,0
10774,0,51977,56119,24361.62,26317.54,7279.85,7814.70,27615.38,29801.46,0.000000,0.000000,-2.448650,-2.451130,nan,nan,0
10814,0,51984,56138,24416.87,26377.18,7279.85,7814.70,27567.13,29760.82,0.000000,0.000000,-2.445629,-2.448094,nan,nan,0
10854,0,51999,56152,24472.03,26436.73,7279.85,7814.70,27526.97,29715.27,0.000000,0.000000,-2.442618,-2.445067,nan,nan,0
10895,0,52006,56165,24527.10,26496.19,7279.85,7814.70,27478.90,29668.81,0.000000,0.000000,-2.439615,-2.442049,nan,nan,0
10932,0,52023,56169,24582.09,26555.54,7279.85,7814.70,27440.91,29613.46,0.000000,0.000000,-2.436621,-2.439039,nan,nan,0
10973,0,52031,56171,24636.99,26614.77,7279.85,7814.70,27394.01,29556.23,0.000000,0.000000,-2.433636,-2.436037,nan,nan,0
11016,0,52031,56184,24691.78,26673.91,7279.85,7814.70,27339.22,29510.09,0.000000,0.000000,-2.430658,-2.433044,nan,nan,0
11055,0,52042,56203,24746.48,26732.97,7279.85,7814.70,27295.52,29470.03,0.000000,0.000000,-2.427689,-2.430060,nan,nan,0
11096,0,52053,56220,24801.09,26791.94,7279.85,7814.70,27251.91,29428.06,0.000000,0.000000,-2.424728,-2.427084,nan,nan,0
11135,0,52067,56236,24855.63,26850.83,7279.85,7814.70,27211.38,29385.17,0.000000,0.000000,-2.421775,-2.424118,nan,nan,0
11175,0,52076,56253,24910.07,26909.63,7279.85,7814.70,27165.93,29343.37,0.000000,0.000000,-2.418831,-2.421160,nan,nan,0
11214,0,52085,56267,24964.42,26968.35,7279.85,7814.70,27120.58,29298.65,0.000000,0.000000,-2.415895,-2.418211,nan,nan,0
11255,0,52095,56275,25018.68,27026.96,7279.85,7814.70,27076.32,29248.04,0.000000,0.000000,-2.412967,-2.415271,nan,nan,0
11295,0,52102,56293,25072.85,27085.50,7279.85,7814.70,27029.15,29207.50,0.000000,0.000000,-2.410048,-2.412338,nan,nan,0
11336,0,52098,56263,25126.90,27143.85,7279.85,7814.70,26971.10,29119.15,0.000000,0.000000,-2.407135,-2.409411,nan,nan,0
11375,0,52084,56182,25180.81,27201.93,7279.85,7814.70,26903.19,28980.07,0.000000,0.000000,-2.404228,-2.406486,nan,nan,0
11415,0,52068,56151,25234.59,27259.83,7279.85,7814.70,26833.41,28891.17,0.000000,0.000000,-2.401327,-2.403566,nan,nan,0
11454,0,52076,56150,25288.27,27317.61,7279.85,7814.70,26787.73,28832.39,0.000000,0.000000,-2.398434,-2.400653,nan,nan,0
11496,0,52084,56150,25341.86,27375.27,7279.85,7814.70,26742.14,28774.73,0.000000,0.000000,-2.395549,-2.397747,nan,nan,0
11534,0,52086,56149,25395.35,27432.82,7279.85,7814.70,26690.65,28716.18,0.000000,0.000000,-2.392671,-2.394849,nan,nan,0
11575,0,52094,56154,25448.75,27490.27,7279.85,7814.70,26645.25,28663.73,0.000000,0.000000,-2.389801,-2.391958,nan,nan,0
11615,0,52097,56147,25502.04,27547.58,7279.85,7814.70,26594.96,28599.42,0.000000,0.000000,-2.386939,-2.389075,nan,nan,0
11655,0,52098,56146,25555.24,27604.78,7279.85,7814.70,26542.76,28541.22,0.000000,0.000000,-2.384083,-2.386198,nan,nan,0
11695,0,52104,56144,25608.34,27661.86,7279.85,7814.70,26495.66,28482.14,0.000000,0.000000,-2.381235,-2.383329,nan,nan,0
11734,0,52110,56148,25661.34,27718.83,7279.85,7814.70,26448.66,28429.17,0.000000,0.000000,-2.378394,-2.380467,nan,nan,0
11779,0,52112,56154,25714.24,27775.70,7279.85,7814.70,26397.76,28378.30,0.000000,0.000000,-2.375561,-2.377612,nan,nan,0
11815,0,52112,56160,25767.04,27832.47,7279.85,7814.70,26344.96,28327.53,0.000000,0.000000,-2.372735,-2.374766,nan,nan,0
11854,0,52116,56167,25819.74,27889.14,7279.85,7814.70,26296.26,28277.86,0.000000,0.000000,-2.369915,-2.371926,nan,nan,0
11899,0,52117,56170,25872.33,27945.70,7279.85,7814.70,26244.67,28224.30,0.000000,0.000000,-2.367103,-2.369094,nan,nan,0
11937,0,52120,56169,25924.83,28002.15,7279.85,7814.70,26195.17,28166.85,0.000000,0.000000,-2.364297,-2.366269,nan,nan,0
11976,0,52123,56181,25977.23,28058.51,7279.85,7814.70,26145.77,28122.49,0.000000,0.000000,-2.361499,-2.363452,nan,nan,0
12017,0,52125,56156,26029.52,28114.71,7279.85,7814.70,26095.48,28041.29,0.000000,0.000000,-2.358708,-2.360640,nan,nan,0
12056,0,52102,56066,26081.67,28170.61,7279.85,7814.70,26020.33,27895.39,0.000000,0.000000,-2.355921,-2.357829,nan,nan,0
12096,0,52072,56000,26133.65,28226.27,7279.85,7814.70,25938.35,27773.73,0.000000,0.000000,-2.353139,-2.355020,nan,nan,0
12136,0,52072,55994,26185.53,28281.80,7279.85,7814.70,25886.47,27712.20,0.000000,0.000000,-2.350364,-2.352217,nan,nan,0
12177,0,52076,55993,26237.31,28337.23,7279.85,7814.70,25838.69,27655.77,0.000000,0.000000,-2.347596,-2.349422,nan,nan,0
12217,0,52083,55974,26289.00,28392.50,7279.85,7814.70,25794.00,27581.50,0.000000,0.000000,-2.344835,-2.346632,nan,nan,0
12255,0,52088,55970,26340.60,28447.66,7279.85,7814.70,25747.40,27522.34,0.000000,0.000000,-2.342081,-2.343848,nan,nan,0
12296,0,52087,55975,26392.09,28502.71,7279.85,7814.70,25694.91,27472.29,0.000000,0.000000,-2.339334,-2.341072,nan,nan,0
12336,0,52097,55982,26443.50,28557.67,7279.85,7814.70,25653.50,27424.33,0.000000,0.000000,-2.336593,-2.338303,nan,nan,0
12375,0,52103,55985,26494.82,28612.53,7279.85,7814.70,25608.18,27372.47,0.000000,0.000000,-2.333860,-2.335541,nan,nan,0
12418,0,52110,55999,26546.05,28667.30,7279.85,7814.70,25563.95,27331.70,0.000000,0.000000,-2.331134,-2.332788,nan,nan,0
12456,0,52124,56004,26597.21,28721.97,7279.85,7814.70,25526.79,27282.03,0.000000,0.000000,-2.328415,-2.330040,nan,nan,0
12496,0,52131,56013,26648.28,28776.56,7279.85,7814.70,25482.72,27236.44,0.000000,0.000000,-2.325704,-2.327301,nan,nan,0
12536,0,52135,56018,26699.25,28831.04,7279.85,7814.70,25435.75,27186.96,0.000000,0.000000,-2.322999,-2.324568,nan,nan,0
12577,0,52142,56025,26750.14,28885.43,7279.85,7814.70,25391.86,27139.57,0.000000,0.000000,-2.320300,-2.321843,nan,nan,0
12616,0,52143,56034,26800.93,28939.73,7279.85,7814.70,25342.07,27094.27,0.000000,0.000000,-2.317609,-2.319125,nan,nan,0
12656,0,52149,56038,26851.63,28993.93,7279.85,7814.70,25297.38,27044.07,0.000000,0.000000,-2.314924,-2.316413,nan,nan,0
12696,0,52149,56042,26902.22,29048.02,7279.85,7814.70,25246.78,26993.98,0.000000,0.000000,-2.312245,-2.313709,nan,nan,0
12736,0,52158,56047,26952.73,29102.02,7279.85,7814.70,25205.27,26944.98,0.000000,0.000000,-2.309573,-2.311011,nan,nan,0
12776,0,52150,55979,27003.13,29155.78,7279.85,7814.70,25146.87,26823.22,0.000000,0.000000,-2.306907,-2.308315,nan,nan,0
12817,0,52112,55889,27053.35,29209.24,7279.85,7814.70,25058.65,26679.76,0.000000,0.000000,-2.304244,-2.305620,nan,nan,0
12856,0,52100,55862,27103.44,29262.55,7279.85,7814.70,24996.56,26599.45,0.000000,0.000000,-2.301587,-2.302929,nan,nan,0
12901,0,52102,55862,27153.44,29315.75,7279.85,7814.70,24948.56,26546.25,0.000000,0.000000,-2.298936,-2.300245,nan,nan,0
12937,0,52108,55851,27203.35,29368.82,7279.85,7814.70,24904.65,26482.18,0.000000,0.000000,-2.296291,-2.297566,nan,nan,0
12978,0,52108,55840,27253.16,29421.76,7279.85,7814.70,24854.84,26418.24,0.000000,0.000000,-2.293653,-2.294894,nan,nan,0
13017,0,52107,55844,27302.87,29474.61,7279.85,7814.70,24804.13,26369.39,0.000000,0.000000,-2.291021,-2.292227,nan,nan,0
13057,0,52114,55849,27352.49,29527.36,7279.85,7814.70,24761.51,26321.64,0.000000,0.000000,-2.288395,-2.289568,nan,nan,0
13098,0,52112,55853,27402.01,29580.01,7279.85,7814.70,24709.99,26272.99,0.000000,0.000000,-2.285775,-2.286915,nan,nan,0
13139,0,52122,55862,27451.45,29632.57,7279.85,7814.70,24670.55,26229.43,0.000000,0.000000,-2.283162,-2.284270,nan,nan,0
13176,0,52133,55869,27500.81,29685.05,7279.85,7814.70,24632.19,26183.95,0.000000,0.000000,-2.280556,-2.281631,nan,nan,0
13218,0,52139,55882,27550.09,29737.44,7279.85,7814.70,24588.91,26144.56,0.000000,0.000000,-2.277956,-2.278999,nan,nan,0
13257,0,52144,55902,27599.28,29789.77,7279.85,7814.70,24544.72,26112.23,0.000000,0.000000,-2.275362,-2.276375,nan,nan,0
13298,0,52153,55913,27648.39,29842.02,7279.85,7814.70,24504.61,26070.98,0.000000,0.000000,-2.272775,-2.273757,nan,nan,0
13337,0,52156,55925,27697.40,29894.19,7279.85,7814.70,24458.60,26030.81,0.000000,0.000000,-2.270194,-2.271147,nan,nan,0
13377,0,52164,55933,27746.34,29946.26,7279.85,7814.70,24417.66,25986.74,0.000000,0.000000,-2.267620,-2.268543,nan,nan,0
13417,0,52173,55947,27795.19,29998.27,7279.85,7814.70,24377.81,25948.73,0.000000,0.000000,-2.265051,-2.265947,nan,nan,0
13458,0,52180,55963,27843.96,30050.20,7279.85,7814.70,24336.04,25912.80,0.000000,0.000000,-2.262490,-2.263357,nan,nan,0
13496,0,52190,55985,27892.65,30102.07,7279.85,7814.70,24297.35,25882.93,0.000000,0.000000,-2.259934,-2.260775,nan,nan,0
13537,0,52200,55973,27941.27,30153.81,7279.85,7814.70,24258.73,25819.19,0.000000,0.000000,-2.257385,-2.258198,nan,nan,0
13576,0,52176,55890,27989.74,30205.28,7279.85,7814.70,24186.26,25684.72,0.000000,0.000000,-2.254840,-2.255622,nan,nan,0
13617,0,52149,55852,28038.06,30256.58,7279.85,7814.70,24110.94,25595.42,0.000000,0.000000,-2.252299,-2.253049,nan,nan,0
13657,0,52161,55865,28086.30,30307.79,7279.85,7814.70,24074.70,25557.21,0.000000,0.000000,-2.249765,-2.250483,nan,nan,0
13697,0,52165,55873,28134.46,30358.92,7279.85,7814.70,24030.54,25514.08,0.000000,0.000000,-2.247236,-2.247924,nan,nan,0
13737,0,52175,55881,28182.54,30409.97,7279.85,7814.70,23992.46,25471.03,0.000000,0.000000,-2.244714,-2.245371,nan,nan,0
13776,0,52180,55893,28230.54,30460.94,7279.85,7814.70,23949.46,25432.06,0.000000,0.000000,-2.242197,-2.242824,nan,nan,0
13821,0,52190,55901,28278.46,30511.82,7279.85,7814.70,23911.54,25389.18,0.000000,0.000000,-2.239687,-2.240284,nan,nan,0
13857,0,52193,55907,28326.29,30562.61,7279.85,7814.70,23866.71,25344.39,0.000000,0.000000,-2.237183,-2.237751,nan,nan,0
13901,0,52198,55916,28374.04,30613.31,7279.85,7814.70,23823.96,25302.69,0.000000,0.000000,-2.234684,-2.235223,nan,nan,0
13938,0,52209,55935,28421.71,30663.96,7279.85,7814.70,23787.29,25271.04,0.000000,0.000000,-2.232192,-2.232703,nan,nan,0
13977,0,52224,55956,28469.31,30714.54,7279.85,7814.70,23754.69,25241.46,0.000000,0.000000,-2.229707,-2.230190,nan,nan,0
14017,0,52228,55977,28516.83,30765.07,7279.85,7814.70,23711.17,25211.93,0.000000,0.000000,-2.227226,-2.227684,nan,nan,0
14057,0,52237,55993,28564.27,30815.53,7279.85,7814.70,23672.73,25177.47,0.000000,0.000000,-2.224752,-2.225184,nan,nan,0
14094,0,52248,56012,28611.64,30865.92,7279.85,7814.70,23636.36,25146.08,0.000000,0.000000,-2.222285,-2.222692,nan,nan,0
14137,0,52255,56026,28658.93,30916.24,7279.85,7814.70,23596.07,25109.76,0.000000,0.000000,-2.219823,-2.220205,nan,nan,0
14178,0,52263,56044,28706.13,30966.50,7279.85,7814.70,23556.87,25077.50,0.000000,0.000000,-2.217367,-2.217726,nan,nan,0
14218,0,52272,56061,28753.27,31016.69,7279.85,7814.70,23518.73,25044.31,0.000000,0.000000,-2.214917,-2.215253,nan,nan,0
14258,0,52286,56089,28800.33,31066.83,7279.85,7814.70,23485.67,25022.17,0.000000,0.000000,-2.212473,-2.212788,nan,nan,0
14299,0,52283,56047,28847.30,31116.79,7279.85,7814.70,23435.70,24930.21,0.000000,0.000000,-2.210034,-2.210325,nan,nan,0
14339,0,52260,55983,28894.13,31166.52,7279.85,7814.70,23365.87,24816.48,0.000000,0.000000,-2.207599,-2.207863,nan,nan,0
14378,0,52253,55976,28940.85,31216.14,7279.85,7814.70,23312.15,24759.86,0.000000,0.000000,-2.205168,-2.205407,nan,nan,0
14419,0,52267,55996,28987.50,31265.70,7279.85,7814.70,23279.50,24730.30,0.000000,0.000000,-2.202744,-2.202958,nan,nan,0
14458,0,52282,56014,29034.09,31315.20,7279.85,7814.70,23247.91,24698.80,0.000000,0.000000,-2.200326,-2.200515,nan,nan,0
14498,0,52293,56033,29080.61,31364.64,7279.85,7814.70,23212.39,24668.36,0.000000,0.000000,-2.197914,-2.198078,nan,nan,0
14538,0,52310,56050,29127.07,31414.01,7279.85,7814.70,23182.93,24635.99,0.000000,0.000000,-2.195508,-2.195648,nan,nan,0
14577,0,52312,56057,29173.44,31463.29,7279.85,7814.70,23138.56,24593.71,0.000000,0.000000,-2.193107,-2.193224,nan,nan,0
14619,0,52322,56063,29219.74,31512.50,7279.85,7814.70,23102.26,24550.50,0.000000,0.000000,-2.190712,-2.190805,nan,nan,0
14659,0,52329,56090,29265.96,31561.65,7279.85,7814.70,23063.04,24528.35,0.000000,0.000000,-2.188323,-2.188394,nan,nan,0
14697,0,52342,56110,29312.11,31610.75,7279.85,7814.70,23029.89,24499.25,0.000000,0.000000,-2.185939,-2.185989,nan,nan,0
14738,0,52355,56131,29358.19,31659.79,7279.85,7814.70,22996.81,24471.21,0.000000,0.000000,-2.183562,-2.183590,nan,nan,0
14777,0,52368,56149,29404.21,31708.77,7279.85,7814.70,22963.79,24440.23,0.000000,0.000000,-2.181190,-2.181198,nan,nan,0
14818,0,52371,56166,29450.15,31757.69,7279.85,7814.70,22920.85,24408.31,0.000000,0.000000,-2.178823,-2.178812,nan,nan,0
14858,0,52376,56178,29496.00,31806.53,7279.85,7814.70,22880.00,24371.47,0.000000,0.000000,-2.176462,-2.176431,nan,nan,0
14901,0,52384,56191,29541.78,31855.30,7279.85,7814.70,22842.22,24335.70,0.000000,0.000000,-2.174106,-2.174057,nan,nan,0
14940,0,52394,56205,29587.48,31904.00,7279.85,7814.70,22806.52,24301.00,0.000000,0.000000,-2.171755,-2.171689,nan,nan,0
14979,0,52399,56218,29633.10,31952.63,7279.85,7814.70,22765.90,24265.37,0.000000,0.000000,-2.169410,-2.169326,nan,nan,0
15018,0,52406,56217,29678.65,32001.16,7279.85,7814.70,22727.35,24215.84,0.000000,0.000000,-2.167070,-2.166969,nan,nan,0
15059,0,52384,56126,29724.06,32049.41,7279.85,7814.70,22659.94,24076.59,0.000000,0.000000,-2.164734,-2.164610,nan,nan,0
15099,0,52357,56084,29769.33,32097.48,7279.85,7814.70,22587.67,23986.52,0.000000,0.000000,-2.162400,-2.162254,nan,nan,0
15138,0,52358,56088,29814.51,32145.46,7279.85,7814.70,22543.49,23942.54,0.000000,0.000000,-2.160071,-2.159904,nan,nan,0
15179,0,52367,56102,29859.61,32193.37,7279.85,7814.70,22507.39,23908.63,0.000000,0.000000,-2.157748,-2.157559,nan,nan,0
15219,0,52375,56099,29904.64,32241.19,7279.85,7814.70,22470.36,23857.81,0.000000,0.000000,-2.155430,-2.155219,nan,nan,0
15260,0,52378,56107,29949.59,32288.92,7279.85,7814.70,22428.41,23818.08,0.000000,0.000000,-2.153117,-2.152884,nan,nan,0
15300,0,52387,56116,29994.47,32336.57,7279.85,7814.70,22392.53,23779.43,0.000000,0.000000,-2.150809,-2.150555,nan,nan,0
15339,0,52389,56122,30039.26,32384.14,7279.85,7814.70,22349.74,23737.86,0.000000,0.000000,-2.148506,-2.148232,nan,nan,0
15378,0,52397,56132,30083.97,32431.64,7279.85,7814.70,22313.03,23700.36,0.000000,0.000000,-2.146209,-2.145913,nan,nan,0
15419,0,52404,56145,30128.61,32479.07,7279.85,7814.70,22275.39,23665.93,0.000000,0.000000,-2.143916,-2.143600,nan,nan,0
15460,0,52418,56159,30173.19,32526.43,7279.85,7814.70,22244.81,23632.57,0.000000,0.000000,-2.141629,-2.141294,nan,nan,0
15499,0,52424,56170,30217.70,32573.72,7279.85,7814.70,22206.30,23596.28,0.000000,0.000000,-2.139347,-2.138992,nan,nan,0
15537,0,52426,56179,30262.11,32620.93,7279.85,7814.70,22163.89,23558.07,0.000000,0.000000,-2.137069,-2.136696,nan,nan,0
15579,0,52434,56187,30306.46,32668.06,7279.85,7814.70,22127.54,23518.94,0.000000,0.000000,-2.134797,-2.134404,nan,nan,0
15617,0,52432,56194,30350.71,32715.11,7279.85,7814.70,22081.29,23478.89,0.000000,0.000000,-2.132529,-2.132119,nan,nan,0
15657,0,52440,56203,30394.89,32762.09,7279.85,7814.70,22045.11,23440.91,0.000000,0.000000,-2.130267,-2.129838,nan,nan,0
15696,0,52442,56206,30438.98,32808.98,7279.85,7814.70,22003.02,23397.02,0.000000,0.000000,-2.128009,-2.127562,nan,nan,0
15737,0,52445,56220,30483.00,32855.80,7279.85,7814.70,21962.00,23364.20,0.000000,0.000000,-2.125756,-2.125292,nan,nan,0
15780,0,52452,56231,30526.94,32902.55,7279.85,7814.70,21925.06,23328.45,0.000000,0.000000,-2.123507,-2.123027,nan,nan,0
15820,0,52449,56185,30570.78,32949.12,7279.85,7814.70,21878.22,23235.88,0.000000,0.000000,-2.121263,-2.120764,nan,nan,0
15859,0,52416,56089,30614.47,32995.40,7279.85,7814.70,21801.53,23093.60,0.000000,0.000000,-2.119021,-2.118500,nan,nan,0
15898,0,52392,56068,30658.03,33041.54,7279.85,7814.70,21733.97,23026.46,0.000000,0.000000,-2.116782,-2.116239,nan,nan,0
15940,0,52402,56079,30701.52,33087.62,7279.85,7814.70,21700.48,22991.38,0.000000,0.000000,-2.114548,-2.113984,nan,nan,0
15980,0,52407,56079,30744.93,33133.60,7279.85,7814.70,21662.07,22945.40,0.000000,0.000000,-2.112319,-2.111733,nan,nan,0
16021,0,52412,56073,30788.27,33179.48,7279.85,7814.70,21623.73,22893.52,0.000000,0.000000,-2.110095,-2.109486,nan,nan,0
16060,0,52408,56076,30831.51,33225.27,7279.85,7814.70,21576.49,22850.73,0.000000,0.000000,-2.107874,-2.107244,nan,nan,0
16100,0,52413,56077,30874.67,33270.98,7279.85,7814.70,21538.33,22806.02,0.000000,0.000000,-2.105659,-2.105007,nan,nan,0
16139,0,52415,56081,30917.75,33316.60,7279.85,7814.70,21497.25,22764.40,0.000000,0.000000,-2.103448,-2.102774,nan,nan,0
16180,0,52418,56093,30960.75,33362.15,7279.85,7814.70,21457.25,22730.85,0.000000,0.000000,-2.101241,-2.100547,nan,nan,0
16220,0,52423,56101,31003.68,33407.63,7279.85,7814.70,21419.32,22693.37,0.000000,0.000000,-2.099040,-2.098325,nan,nan,0
16260,0,52431,56115,31046.54,33453.05,7279.85,7814.70,21384.46,22661.95,0.000000,0.000000,-2.096842,-2.096108,nan,nan,0
16299,0,52439,56128,31089.32,33498.40,7279.85,7814.70,21349.68,22629.60,0.000000,0.000000,-2.094650,-2.093897,nan,nan,0
16341,0,52444,56144,31132.03,33543.69,7279.85,7814.70,21311.97,22600.31,0.000000,0.000000,-2.092463,-2.091691,nan,nan,0
16382,0,52446,56157,31174.66,33588.92,7279.85,7814.70,21271.34,22568.08,0.000000,0.000000,-2.090279,-2.089489,nan,nan,0
16422,0,52457,56171,31217.23,33634.08,7279.85,7814.70,21239.77,22536.92,0.000000,0.000000,-2.088101,-2.087293,nan,nan,0
16459,0,52460,56176,31259.71,33679.17,7279.85,7814.70,21200.29,22496.83,0.000000,0.000000,-2.085927,-2.085102,nan,nan,0
16500,0,52469,56188,31302.13,33724.19,7279.85,7814.70,21166.87,22463.81,0.000000,0.000000,-2.083758,-2.082916,nan,nan,0
16539,0,52475,56197,31344.48,33769.13,7279.85,7814.70,21130.52,22427.87,0.000000,0.000000,-2.081593,-2.080735,nan,nan,0
16580,0,52477,56213,31386.74,33814.02,7279.85,7814.70,21090.26,22398.98,0.000000,0.000000,-2.079433,-2.078559,nan,nan,0
16620,0,52480,56212,31428.93,33858.82,7279.85,7814.70,21051.07,22353.18,0.000000,0.000000,-2.077277,-2.076387,nan,nan,0
16660,0,52462,56124,31471.00,33903.35,7279.85,7814.70,20991.00,22220.65,0.000000,0.000000,-2.075124,-2.074215,nan,nan,0
16700,0,52429,56080,31512.91,33947.70,7279.85,7814.70,20916.09,22132.30,0.000000,0.000000,-2.072973,-2.072044,nan,nan,0
16740,0,52429,56088,31554.75,33991.98,7279.85,7814.70,20874.25,22096.02,0.000000,0.000000,-2.070826,-2.069878,nan,nan,0
16780,0,52444,56102,31596.53,34036.21,7279.85,7814.70,20847.47,22065.79,0.000000,0.000000,-2.068684,-2.067717,nan,nan,0
16821,0,52443,56106,31638.22,34080.35,7279.85,7814.70,20804.78,22025.65,0.000000,0.000000,-2.066546,-2.065560,nan,nan,0
16860,0,52447,56113,31679.84,34124.41,7279.85,7814.70,20767.16,21988.59,0.000000,0.000000,-2.064413,-2.063409,nan,nan,0
16900,0,52452,56123,31721.38,34168.41,7279.85,7814.70,20730.62,21954.59,0.000000,0.000000,-2.062284,-2.061262,nan,nan,0
16943,0,52456,56121,31762.85,34212.32,7279.85,7814.70,20693.15,21908.68,0.000000,0.000000,-2.060159,-2.059119,nan,nan,0
16981,0,52453,56129,31804.23,34256.16,7279.85,7814.70,20648.77,21872.84,0.000000,0.000000,-2.058039,-2.056981,nan,nan,0
17021,0,52460,56140,31845.55,34299.93,7279.85,7814.70,20614.45,21840.07,0.000000,0.000000,-2.055922,-2.054847,nan,nan,0
17061,0,52462,56149,31886.78,34343.62,7279.85,7814.70,20575.22,21805.38,0.000000,0.000000,-2.053810,-2.052718,nan,nan,0
17101,0,52467,56169,31927.94,34387.28,7279.85,7814.70,20539.06,21781.72,0.000000,0.000000,-2.051702,-2.050595,nan,nan,0
17142,0,52476,56187,31969.04,34430.88,7279.85,7814.70,20506.96,21756.12,0.000000,0.000000,-2.049599,-2.048477,nan,nan,0
17180,0,52478,56197,32010.06,34474.41,7279.85,7814.70,20467.94,21722.59,0.000000,0.000000,-2.047499,-2.046363,nan,nan,0
17221,0,52483,56218,32051.01,34517.90,7279.85,7814.70,20431.99,21700.10,0.000000,0.000000,-2.045404,-2.044255,nan,nan,0
17261,0,52492,56226,32091.89,34561.32,7279.85,7814.70,20400.11,21664.68,0.000000,0.000000,-2.043314,-2.042151,nan,nan,0
17301,0,52495,56242,32132.70,34604.68,7279.85,7814.70,20362.30,21637.32,0.000000,0.000000,-2.041227,-2.040052,nan,nan,0
17341,0,52500,56257,32173.43,34647.98,7279.85,7814.70,20326.57,21609.02,0.000000,0.000000,-2.039145,-2.037958,nan,nan,0
17381,0,52510,56282,32214.11,34691.25,7279.85,7814.70,20295.89,21590.75,0.000000,0.000000,-2.037067,-2.035869,nan,nan,0
17421,0,52514,56284,32254.71,34734.44,7279.85,7814.70,20259.29,21549.56,0.000000,0.000000,-2.034993,-2.033785,nan,nan,0
17460,0,52501,56205,32295.20,34777.38,7279.85,7814.70,20205.80,21427.62,0.000000,0.000000,-2.032922,-2.031699,nan,nan,0
17501,0,52474,56167,32335.56,34820.16,7279.85,7814.70,20138.44,21346.84,0.000000,0.000000,-2.030854,-2.029616,nan,nan,0
17541,0,52475,56174,32375.84,34862.87,7279.85,7814.70,20099.16,21311.13,0.000000,0.000000,-2.028789,-2.027537,nan,nan,0
17582,0,52487,56197,32416.06,34905.54,7279.85,7814.70,20070.94,21291.46,0.000000,0.000000,-2.026729,-2.025463,nan,nan,0
17621,0,52495,56212,32456.22,34948.15,7279.85,7814.70,20038.78,21263.85,0.000000,0.000000,-2.024673,-2.023395,nan,nan,0
17661,0,52502,56230,32496.31,34990.72,7279.85,7814.70,20005.69,21239.28,0.000000,0.000000,-2.022622,-2.021331,nan,nan,0
17701,0,52508,56238,32536.34,35033.21,7279.85,7814.70,19971.66,21204.79,0.000000,0.000000,-2.020574,-2.019271,nan,nan,0
17741,0,52511,56243,32576.29,35075.64,7279.85,7814.70,19934.71,21167.36,0.000000,0.000000,-2.018531,-2.017215,nan,nan,0
17781,0,52518,56251,32616.17,35117.99,7279.85,7814.70,19901.83,21133.01,0.000000,0.000000,-2.016491,-2.015164,nan,nan,0
17821,0,52523,56271,32655.99,35160.30,7279.85,7814.70,19867.01,21110.70,0.000000,0.000000,-2.014456,-2.013118,nan,nan,0
17861,0,52531,56289,32695.74,35202.55,7279.85,7814.70,19835.26,21086.45,0.000000,0.000000,-2.012425,-2.011077,nan,nan,0
17901,0,52539,56305,32735.42,35244.76,7279.85,7814.70,19803.58,21060.24,0.000000,0.000000,-2.010398,-2.009040,nan,nan,0
17940,0,52545,56320,32775.04,35286.91,7279.85,7814.70,19769.96,21033.09,0.000000,0.000000,-2.008375,-2.007008,nan,nan,0
17982,0,52552,56338,32814.60,35329.02,7279.85,7814.70,19737.40,21008.98,0.000000,0.000000,-2.006356,-2.004981,nan,nan,0
18021,0,52557,56348,32854.08,35371.05,7279.85,7814.70,19702.92,20976.95,0.000000,0.000000,-2.004342,-2.002958,nan,nan,0
18062,0,52562,56360,32893.50,35413.04,7279.85,7814.70,19668.50,20946.96,0.000000,0.000000,-2.002331,-2.000939,nan,nan,0
18102,0,52564,56374,32932.84,35454.96,7279.85,7814.70,19631.16,20919.04,0.000000,0.000000,-2.000324,-1.998925,nan,nan,0
18142,0,52567,56392,32972.11,35496.83,7279.85,7814.70,19594.89,20895.17,0.000000,0.000000,-1.998321,-1.996916,nan,nan,0
18182,0,52572,56409,33011.31,35538.66,7279.85,7814.70,19560.69,20870.34,0.000000,0.000000,-1.996321,-1.994911,nan,nan,0
18224,0,52573,56388,33050.44,35580.36,7279.85,7814.70,19522.56,20807.64,0.000000,0.000000,-1.994325,-1.992908,nan,nan,0
18261,0,52550,56297,33089.44,35621.79,7279.85,7814.70,19460.56,20675.21,0.000000,0.000000,-1.992332,-1.990905,nan,nan,0
18302,0,52526,56270,33128.31,35663.09,7279.85,7814.70,19397.69,20606.91,0.000000,0.000000,-1.990340,-1.988903,nan,nan,0
18342,0,52527,56283,33167.11,35704.33,7279.85,7814.70,19359.89,20578.67,0.000000,0.000000,-1.988353,-1.986906,nan,nan,0
18382,0,52533,56301,33205.84,35745.52,7279.85,7814.70,19327.16,20555.48,0.000000,0.000000,-1.986369,-1.984913,nan,nan,0
18421,0,52548,56306,33244.53,35786.64,7279.85,7814.70,19303.47,20519.36,0.000000,0.000000,-1.984389,-1.982924,nan,nan,0
18463,0,52552,56317,33283.14,35827.71,7279.85,7814.70,19268.86,20489.29,0.000000,0.000000,-1.982414,-1.980940,nan,nan,0
18501,0,52560,56321,33321.70,35868.70,7279.85,7814.70,19238.30,20452.30,0.000000,0.000000,-1.980442,-1.978959,nan,nan,0
18542,0,52562,56324,33360.18,35909.61,7279.85,7814.70,19201.82,20414.39,0.000000,0.000000,-1.978474,-1.976982,nan,nan,0
18582,0,52566,56324,33398.59,35950.43,7279.85,7814.70,19167.41,20373.57,0.000000,0.000000,-1.976510,-1.975009,nan,nan,0
18622,0,52570,56342,33436.94,35991.22,7279.85,7814.70,19133.06,20350.78,0.000000,0.000000,-1.974549,-1.973040,nan,nan,0
18661,0,52577,56351,33475.22,36031.94,7279.85,7814.70,19101.78,20319.06,0.000000,0.000000,-1.972592,-1.971075,nan,nan,0
18703,0,52578,56362,33513.43,36072.60,7279.85,7814.70,19064.57,20289.40,0.000000,0.000000,-1.970639,-1.969115,nan,nan,0
18742,0,52585,56375,33551.57,36113.20,7279.85,7814.70,19033.43,20261.80,0.000000,0.000000,-1.968689,-1.967158,nan,nan,0
18785,0,52591,56377,33589.65,36153.73,7279.85,7814.70,19001.35,20223.27,0.000000,0.000000,-1.966744,-1.965206,nan,nan,0
18822,0,52589,56385,33627.65,36194.20,7279.85,7814.70,18961.35,20190.80,0.000000,0.000000,-1.964802,-1.963257,nan,nan,0
18862,0,52593,56389,33665.58,36234.59,7279.85,7814.70,18927.42,20154.41,0.000000,0.000000,-1.962863,-1.961312,nan,nan,0
18902,0,52596,56396,33703.44,36274.91,7279.85,7814.70,18892.56,20121.09,0.000000,0.000000,-1.960928,-1.959370,nan,nan,0
18942,0,52593,56405,33741.22,36315.17,7279.85,7814.70,18851.78,20089.83,0.000000,0.000000,-1.958996,-1.957433,nan,nan,0
18983,0,52596,56418,33778.93,36355.38,7279.85,7814.70,18817.07,20062.62,0.000000,0.000000,-1.957067,-1.955499,nan,nan,0
19023,0,52601,56420,33816.58,36395.51,7279.85,7814.70,18784.42,20024.49,0.000000,0.000000,-1.955143,-1.953570,nan,nan,0
19063,0,52587,56329,33854.12,36435.37,7279.85,7814.70,18732.88,19893.63,0.000000,0.000000,-1.953220,-1.951638,nan,nan,0
19103,0,52549,56271,33891.51,36475.05,7279.85,7814.70,18657.49,19795.95,0.000000,0.000000,-1.951299,-1.949707,nan,nan,0
19142,0,52541,56267,33928.81,36514.63,7279.85,7814.70,18612.19,19752.37,0.000000,0.000000,-1.949381,-1.947779,nan,nan,0
19183,0,52547,56278,33966.05,36554.16,7279.85,7814.70,18580.95,19723.84,0.000000,0.000000,-1.947467,-1.945855,nan,nan,0
19223,0,52552,56278,34003.22,36593.61,7279.85,7814.70,18548.78,19684.39,0.000000,0.000000,-1.945556,-1.943935,nan,nan,0
19263,0,52554,56276,34040.32,36632.98,7279.85,7814.70,18513.68,19643.02,0.000000,0.000000,-1.943648,-1.942018,nan,nan,0
19304,0,52555,56285,34077.36,36672.28,7279.85,7814.70,18477.64,19612.72,0.000000,0.000000,-1.941744,-1.940105,nan,nan,0
19343,0,52553,56283,34114.31,36711.50,7279.85,7814.70,18438.69,19571.50,0.000000,0.000000,-1.939843,-1.938195,nan,nan,0
19382,0,52564,56291,34151.21,36750.66,7279.85,7814.70,18412.79,19540.34,0.000000,0.000000,-1.937946,-1.936288,nan,nan,0
19423,0,52563,56297,34188.03,36789.76,7279.85,7814.70,18374.97,19507.24,0.000000,0.000000,-1.936052,-1.934386,nan,nan,0
19466,0,52572,56311,34224.80,36828.80,7279.85,7814.70,18347.20,19482.20,0.000000,0.000000,-1.934162,-1.932487,nan,nan,0
19503,0,52578,56318,34261.51,36867.78,7279.85,7814.70,18316.49,19450.22,0.000000,0.000000,-1.932276,-1.930593,nan,nan,0
19542,0,52583,56323,34298.15,36906.69,7279.85,7814.70,18284.85,19416.31,0.000000,0.000000,-1.930393,-1.928702,nan,nan,0
19583,0,52588,56336,34334.73,36945.55,7279.85,7814.70,18253.27,19390.45,0.000000,0.000000,-1.928513,-1.926814,nan,nan,0
19622,0,52590,56343,34371.25,36984.35,7279.85,7814.70,18218.75,19358.65,0.000000,0.000000,-1.926637,-1.924931,nan,nan,0
19664,0,52595,56350,34407.70,37023.08,7279.85,7814.70,18187.30,19326.92,0.000000,0.000000,-1.924765,-1.923051,nan,nan,0
19705,0,52598,56362,34444.08,37061.76,7279.85,7814.70,18153.92,19300.24,0.000000,0.000000,-1.922895,-1.921175,nan,nan,0
19743,0,52599,56368,34480.39,37100.37,7279.85,7814.70,18118.61,19267.63,0.000000,0.000000,-1.921029,-1.919302,nan,nan,0
19783,0,52601,56375,34516.63,37138.92,7279.85,7814.70,18084.37,19236.08,0.000000,0.000000,-1.919167,-1.917434,nan,nan,0
19823,0,52606,56382,34552.81,37177.41,7279.85,7814.70,18053.19,19204.59,0.000000,0.000000,-1.917307,-1.915568,nan,nan,0
19863,0,52603,56351,34588.91,37215.76,7279.85,7814.70,18014.09,19135.24,0.000000,0.000000,-1.915451,-1.913705,nan,nan,0
19903,0,52566,56253,34624.87,37253.83,7279.85,7814.70,17941.13,18999.17,0.000000,0.000000,-1.913595,-1.911839,nan,nan,0
19942,0,52540,56212,34660.70,37291.75,7279.85,7814.70,17879.30,18920.25,0.000000,0.000000,-1.911742,-1.909974,nan,nan,0
19985,0,52537,56218,34696.45,37329.60,7279.85,7814.70,17840.55,18888.40,0.000000,0.000000,-1.909891,-1.908113,nan,nan,0
20024,0,52547,56227,34732.16,37367.40,7279.85,7814.70,17814.84,18859.60,0.000000,0.000000,-1.908044,-1.906255,nan,nan,0
20065,0,52549,56229,34767.79,37405.12,7279.85,7814.70,17781.21,18823.88,0.000000,0.000000,-1.906200,-1.904401,nan,nan,0
20103,0,52555,56238,34803.36,37442.79,7279.85,7814.70,17751.64,18795.21,0.000000,0.000000,-1.904360,-1.902551,nan,nan,0
20144,0,52560,56238,34838.88,37480.38,7279.85,7814.70,17721.12,18757.62,0.000000,0.000000,-1.902523,-1.900703,nan,nan,0
20183,0,52556,56240,34874.31,37517.90,7279.85,7814.70,17681.69,18722.10,0.000000,0.000000,-1.900689,-1.898860,nan,nan,0
20225,0,52560,56244,34909.68,37555.35,7279.85,7814.70,17650.32,18688.65,0.000000,0.000000,-1.898858,-1.897019,nan,nan,0
20263,0,52565,56253,34945.00,37592.75,7279.85,7814.70,17620.00,18660.25,0.000000,0.000000,-1.897030,-1.895182,nan,nan,0
20304,0,52572,56269,34980.25,37630.10,7279.85,7814.70,17591.75,18638.90,0.000000,0.000000,-1.895206,-1.893349,nan,nan,0
20345,0,52581,56282,35015.45,37667.40,7279.85,7814.70,17565.55,18614.60,0.000000,0.000000,-1.893386,-1.891519,nan,nan,0
20383,0,52584,56300,35050.59,37704.67,7279.85,7814.70,17533.41,18595.33,0.000000,0.000000,-1.891569,-1.889694,nan,nan,0
20422,0,52593,56310,35085.68,37741.88,7279.85,7814.70,17507.32,18568.12,0.000000,0.000000,-1.889755,-1.887873,nan,nan,0
20466,0,52597,56318,35120.70,37779.03,7279.85,7814.70,17476.30,18538.97,0.000000,0.000000,-1.887944,-1.886055,nan,nan,0
20504,0,52608,56325,35155.68,37816.12,7279.85,7814.70,17452.32,18508.88,0.000000,0.000000,-1.886138,-1.884240,nan,nan,0
20542,0,52615,56340,35190.59,37853.17,7279.85,7814.70,17424.41,18486.83,0.000000,0.000000,-1.884334,-1.882429,nan,nan,0
20584,0,52619,56352,35225.45,37890.17,7279.85,7814.70,17393.55,18461.83,0.000000,0.000000,-1.882534,-1.880622,nan,nan,0
20624,0,52622,56350,35260.25,37927.09,7279.85,7814.70,17361.75,18422.91,0.000000,0.000000,-1.880737,-1.878818,nan,nan,0
20664,0,52601,56263,35294.93,37963.77,7279.85,7814.70,17306.07,18299.23,0.000000,0.000000,-1.878941,-1.877012,nan,nan,0
20704,0,52571,56211,35329.48,38000.26,7279.85,7814.70,17241.52,18210.74,0.000000,0.000000,-1.877147,-1.875207,nan,nan,0
20743,0,52570,56224,35363.96,38036.71,7279.85,7814.70,17206.04,18187.29,0.000000,0.000000,-1.875356,-1.873405,nan,nan,0
20785,0,52585,56239,35398.41,38073.12,7279.85,7814.70,17186.59,18165.88,0.000000,0.000000,-1.873569,-1.871608,nan,nan,0
20823,0,52591,56251,35432.79,38109.47,7279.85,7814.70,17158.21,18141.53,0.000000,0.000000,-1.871785,-1.869813,nan,nan,0
20864,0,52600,56263,35467.13,38145.78,7279.85,7814.70,17132.87,18117.22,0.000000,0.000000,-1.870004,-1.868023,nan,nan,0
20903,0,52599,56267,35501.39,38182.02,7279.85,7814.70,17097.61,18084.98,0.000000,0.000000,-1.868226,-1.866235,nan,nan,0
20944,0,52604,56257,35535.60,38218.18,7279.85,7814.70,17068.40,18038.82,0.000000,0.000000,-1.866451,-1.864450,nan,nan,0
20987,0,52604,56263,35569.74,38254.27,7279.85,7814.70,17034.26,18008.73,0.000000,0.000000,-1.864679,-1.862669,nan,nan,0
21025,0,52612,56282,35603.82,38290.32,7279.85,7814.70,17008.18,17991.68,0.000000,0.000000,-1.862911,-1.860891,nan,nan,0
21069,0,52625,56299,35637.87,38326.34,7279.85,7814.70,16987.13,17972.66,0.000000,0.000000,-1.861146,-1.859117,nan,nan,0
21105,0,52629,56322,35671.85,38362.33,7279.85,7814.70,16957.15,17959.67,0.000000,0.000000,-1.859384,-1.857348,nan,nan,0
21145,0,52639,56338,35705.79,38398.29,7279.85,7814.70,16933.21,17939.71,0.000000,0.000000,-1.857626,-1.855582,nan,nan,0
21186,0,52649,56355,35739.67,38434.20,7279.85,7814.70,16909.33,17920.80,0.000000,0.000000,-1.855871,-1.853820,nan,nan,0
21225,0,52653,56368,35773.50,38470.07,7279.85,7814.70,16879.50,17897.93,0.000000,0.000000,-1.854119,-1.852061,nan,nan,0
21265,0,52658,56380,35807.27,38505.89,7279.85,7814.70,16850.73,17874.11,0.000000,0.000000,-1.852370,-1.850306,nan,nan,0
21305,0,52668,56399,35840.99,38541.68,7279.85,7814.70,16827.01,17857.32,0.000000,0.000000,-1.850625,-1.848555,nan,nan,0
21345,0,52672,56409,35874.66,38577.41,7279.85,7814.70,16797.34,17831.59,0.000000,0.000000,-1.848882,-1.846807,nan,nan,0
21385,0,52663,56324,35908.23,38612.91,7279.85,7814.70,16754.77,17711.09,0.000000,0.000000,-1.847142,-1.845057,nan,nan,0
21425,0,52622,56256,35941.66,38648.20,7279.85,7814.70,16680.34,17607.80,0.000000,0.000000,-1.845402,-1.843307,nan,nan,0
21464,0,52622,56252,35975.03,38683.40,7279.85,7814.70,16646.97,17568.60,0.000000,0.000000,-1.843666,-1.841560,nan,nan,0
21504,0,52634,56269,36008.35,38718.57,7279.85,7814.70,16625.65,17550.43,0.000000,0.000000,-1.841932,-1.839816,nan,nan,0
21544,0,52647,56277,36041.62,38753.69,7279.85,7814.70,16605.38,17523.31,0.000000,0.000000,-1.840202,-1.838076,nan,nan,0
21585,0,52655,56287,36074.85,38788.76,7279.85,7814.70,16580.15,17498.24,0.000000,0.000000,-1.838475,-1.836339,nan,nan,0
21624,0,52663,56302,36108.03,38823.79,7279.85,7814.70,16554.97,17478.21,0.000000,0.000000,-1.836752,-1.834605,nan,nan,0
21665,0,52668,56298,36141.15,38858.73,7279.85,7814.70,16526.85,17439.27,0.000000,0.000000,-1.835031,-1.832874,nan,nan,0
21707,0,52672,56305,36174.21,38893.63,7279.85,7814.70,16497.79,17411.37,0.000000,0.000000,-1.833314,-1.831147,nan,nan,0
21745,0,52676,56323,36207.21,38928.49,7279.85,7814.70,16468.79,17394.51,0.000000,0.000000,-1.831599,-1.829423,nan,nan,0
21784,0,52685,56336,36240.17,38963.30,7279.85,7814.70,16444.83,17372.70,0.000000,0.000000,-1.829887,-1.827702,nan,nan,0
21826,0,52700,56356,36273.09,38998.09,7279.85,7814.70,16426.91,17357.91,0.000000,0.000000,-1.828179,-1.825985,nan,nan,0
21865,0,52702,56371,36305.95,39032.84,7279.85,7814.70,16396.05,17338.16,0.000000,0.000000,-1.826474,-1.824272,nan,nan,0
21905,0,52713,56380,36338.77,39067.53,7279.85,7814.70,16374.23,17312.47,0.000000,0.000000,-1.824772,-1.822562,nan,nan,0
21944,0,52716,56388,36371.52,39102.17,7279.85,7814.70,16344.48,17285.83,0.000000,0.000000,-1.823073,-1.820855,nan,nan,0
21986,0,52716,56393,36404.21,39136.75,7279.85,7814.70,16311.79,17256.25,0.000000,0.000000,-1.821377,-1.819151,nan,nan,0
22025,0,52720,56399,36436.85,39171.28,7279.85,7814.70,16283.15,17227.72,0.000000,0.000000,-1.819683,-1.817450,nan,nan,0
22066,0,52726,56419,36469.43,39205.78,7279.85,7814.70,16256.57,17213.22,0.000000,0.000000,-1.817993,-1.815753,nan,nan,0
22106,0,52733,56403,36501.95,39240.17,7279.85,7814.70,16231.05,17162.83,0.000000,0.000000,-1.816305,-1.814058,nan,nan,0
22146,0,52706,56288,36534.36,39274.27,7279.85,7814.70,16171.64,17013.73,0.000000,0.000000,-1.814618,-1.812359,nan,nan,0
22185,0,52662,56220,36566.62,39308.16,7279.85,7814.70,16095.38,16911.84,0.000000,0.000000,-1.812932,-1.810660,nan,nan,0
22226,0,52651,56218,36598.79,39341.98,7279.85,7814.70,16052.21,16876.02,0.000000,0.000000,-1.811248,-1.808964,nan,nan,0
22265,0,52663,56229,36630.92,39375.75,7279.85,7814.70,16032.08,16853.25,0.000000,0.000000,-1.809567,-1.807270,nan,nan,0
22306,0,52669,56221,36663.00,39409.45,7279.85,7814.70,16006.00,16811.55,0.000000,0.000000,-1.807889,-1.805579,nan,nan,0
22349,0,52673,56224,36695.02,39443.07,7279.85,7814.70,15977.98,16780.93,0.000000,0.000000,-1.806214,-1.803891,nan,nan,0
22386,0,52684,56236,36727.00,39476.66,7279.85,7814.70,15957.00,16759.34,0.000000,0.000000,-1.804542,-1.802206,nan,nan,0
22425,0,52684,56238,36758.91,39510.18,7279.85,7814.70,15925.09,16727.82,0.000000,0.000000,-1.802873,-1.800524,nan,nan,0
22465,0,52685,56239,36790.76,39543.64,7279.85,7814.70,15894.24,16695.36,0.000000,0.000000,-1.801206,-1.798845,nan,nan,0
22505,0,52699,56260,36822.58,39577.07,7279.85,7814.70,15876.42,16682.93,0.000000,0.000000,-1.799542,-1.797170,nan,nan,0
22546,0,52706,56269,36854.35,39610.46,7279.85,7814.70,15851.65,16658.54,0.000000,0.000000,-1.797882,-1.795497,nan,nan,0
22585,0,52712,56286,36886.06,39643.81,7279.85,7814.70,15825.94,16642.19,0.000000,0.000000,-1.796224,-1.793828,nan,nan,0
22626,0,52718,56295,36917.73,39677.12,7279.85,7814.70,15800.27,16617.88,0.000000,0.000000,-1.794570,-1.792162,nan,nan,0
22666,0,52722,56312,36949.34,39710.39,7279.85,7814.70,15772.66,16601.61,0.000000,0.000000,-1.792917,-1.790500,nan,nan,0
22705,0,52730,56321,36980.90,39743.61,7279.85,7814.70,15749.10,16577.39,0.000000,0.000000,-1.791269,-1.788841,nan,nan,0
22746,0,52734,56326,37012.41,39776.77,7279.85,7814.70,15721.59,16549.23,0.000000,0.000000,-1.789622,-1.787184,nan,nan,0
22786,0,52737,56336,37043.86,39809.89,7279.85,7814.70,15693.14,16526.11,0.000000,0.000000,-1.787979,-1.785531,nan,nan,0
22823,0,52738,56343,37075.25,39842.96,7279.85,7814.70,15662.75,16500.04,0.000000,0.000000,-1.786337,-1.783880,nan,nan,0
22866,0,52746,56353,37106.59,39875.98,7279.85,7814.70,15639.41,16477.02,0.000000,0.000000,-1.784699,-1.782233,nan,nan,0
22907,0,52737,56270,37137.85,39908.77,7279.85,7814.70,15599.15,16361.23,0.000000,0.000000,-1.783063,-1.780584,nan,nan,0
22946,0,52684,56166,37168.95,39941.29,7279.85,7814.70,15515.05,16224.71,0.000000,0.000000,-1.781427,-1.778932,nan,nan,0
22990,0,52657,56146,37199.92,39973.70,7279.85,7814.70,15457.08,16172.30,0.000000,0.000000,-1.779791,-1.777282,nan,nan,0
23026,0,52659,56153,37230.84,40006.05,7279.85,7814.70,15428.16,16146.95,0.000000,0.000000,-1.778158,-1.775635,nan,nan,0
23066,0,52665,56152,37261.71,40038.35,7279.85,7814.70,15403.29,16113.65,0.000000,0.000000,-1.776528,-1.773991,nan,nan,0
23107,0,52669,56144,37292.53,40070.56,7279.85,7814.70,15376.47,16073.44,0.000000,0.000000,-1.774901,-1.772349,nan,nan,0
23147,0,52669,56155,37323.28,40102.73,7279.85,7814.70,15345.72,16052.27,0.000000,0.000000,-1.773276,-1.770709,nan,nan,0
23188,0,52669,56165,37353.97,40134.85,7279.85,7814.70,15315.03,16030.15,0.000000,0.000000,-1.771653,-1.769073,nan,nan,0
23227,0,52672,56171,37384.61,40166.93,7279.85,7814.70,15287.39,16004.07,0.000000,0.000000,-1.770034,-1.767440,nan,nan,0
23267,0,52675,56184,37415.19,40198.96,7279.85,7814.70,15259.81,15985.04,0.000000,0.000000,-1.768416,-1.765810,nan,nan,0
23306,0,52683,56201,37445.73,40230.96,7279.85,7814.70,15237.27,15970.04,0.000000,0.000000,-1.766802,-1.764183,nan,nan,0
23347,0,52691,56214,37476.22,40262.93,7279.85,7814.70,15214.78,15951.07,0.000000,0.000000,-1.765190,-1.762560,nan,nan,0
23392,0,52697,56235,37506.66,40294.88,7279.85,7814.70,15190.34,15940.12,0.000000,0.000000,-1.763582,-1.760940,nan,nan,0
23426,0,52703,56252,37537.05,40326.79,7279.85,7814.70,15165.95,15925.21,0.000000,0.000000,-1.761976,-1.759323,nan,nan,0
23466,0,52708,56262,37567.40,40358.66,7279.85,7814.70,15140.60,15903.34,0.000000,0.000000,-1.760372,-1.757710,nan,nan,0
23507,0,52711,56274,37597.69,40390.50,7279.85,7814.70,15113.31,15883.50,0.000000,0.000000,-1.758771,-1.756099,nan,nan,0
23551,0,52722,56278,37627.94,40422.27,7279.85,7814.70,15094.06,15855.73,0.000000,0.000000,-1.757174,-1.754491,nan,nan,0
23586,0,52725,56290,37658.13,40454.01,7279.85,7814.70,15066.87,15835.99,0.000000,0.000000,-1.755578,-1.752886,nan,nan,0
23626,0,52724,56305,37688.27,40485.71,7279.85,7814.70,15035.73,15819.29,0.000000,0.000000,-1.753985,-1.751285,nan,nan,0
23663,0,52730,56316,37718.35,40517.37,7279.85,7814.70,15011.65,15798.62,0.000000,0.000000,-1.752395,-1.749686,nan,nan,0
23703,0,52722,56247,37748.36,40548.84,7279.85,7814.70,14973.64,15698.16,0.000000,0.000000,-1.750807,-1.748086,nan,nan,0
23746,0,52679,56155,37778.22,40580.05,7279.85,7814.70,14900.78,15574.95,0.000000,0.000000,-1.749218,-1.746485,nan,nan,0
23786,0,52659,56146,37807.98,40611.18,7279.85,7814.70,14851.02,15534.82,0.000000,0.000000,-1.747631,-1.744885,nan,nan,0
23828,0,52668,56159,37837.71,40642.28,7279.85,7814.70,14830.29,15516.72,0.000000,0.000000,-1.746047,-1.743289,nan,nan,0
23867,0,52671,56165,37867.37,40673.33,7279.85,7814.70,14803.62,15491.67,0.000000,0.000000,-1.744466,-1.741695,nan,nan,0
23910,0,52672,56172,37896.98,40704.33,7279.85,7814.70,14775.02,15467.67,0.000000,0.000000,-1.742886,-1.740104,nan,nan,0
23946,0,52679,56188,37926.55,40735.30,7279.85,7814.70,14752.45,15452.70,0.000000,0.000000,-1.741310,-1.738516,nan,nan,0
23987,0,52680,56184,37956.06,40766.20,7279.85,7814.70,14723.94,15417.80,0.000000,0.000000,-1.739736,-1.736930,nan,nan,0
24027,0,52679,56188,37985.50,40797.04,7279.85,7814.70,14693.50,15390.96,0.000000,0.000000,-1.738164,-1.735347,nan,nan,0
24071,0,52683,56199,38014.90,40827.84,7279.85,7814.70,14668.10,15371.16,0.000000,0.000000,-1.736595,-1.733767,nan,nan,0
24108,0,52684,56220,38044.24,40858.63,7279.85,7814.70,14639.76,15361.37,0.000000,0.000000,-1.735028,-1.732191,nan,nan,0
24147,0,52695,56236,38073.54,40889.38,7279.85,7814.70,14621.46,15346.62,0.000000,0.000000,-1.733464,-1.730617,nan,nan,0
24187,0,52701,56256,38102.80,40920.12,7279.85,7814.70,14598.20,15335.88,0.000000,0.000000,-1.731902,-1.729047,nan,nan,0
24228,0,52704,56272,38132.00,40950.82,7279.85,7814.70,14572.00,15321.18,0.000000,0.000000,-1.730343,-1.727480,nan,nan,0
24271,0,52710,56283,38161.16,40981.48,7279.85,7814.70,14548.84,15301.52,0.000000,0.000000,-1.728787,-1.725916,nan,nan,0
24308,0,52717,56292,38190.27,41012.11,7279.85,7814.70,14526.73,15279.89,0.000000,0.000000,-1.727233,-1.724355,nan,nan,0
24347,0,52721,56310,38219.33,41042.70,7279.85,7814.70,14501.67,15267.30,0.000000,0.000000,-1.725682,-1.722797,nan,nan,0
24388,0,52727,56332,38248.35,41073.28,7279.85,7814.70,14478.65,15258.72,0.000000,0.000000,-1.724133,-1.721242,nan,nan,0
24427,0,52736,56348,38277.32,41103.83,7279.85,7814.70,14458.68,15244.17,0.000000,0.000000,-1.722587,-1.719690,nan,nan,0
24468,0,52732,56301,38306.23,41134.23,7279.85,7814.70,14425.77,15166.77,0.000000,0.000000,-1.721043,-1.718139,nan,nan,0
24507,0,52699,56211,38335.02,41164.38,7279.85,7814.70,14363.98,15046.62,0.000000,0.000000,-1.719500,-1.716585,nan,nan,0
24548,0,52680,56200,38363.71,41194.46,7279.85,7814.70,14316.29,15005.54,0.000000,0.000000,-1.717958,-1.715033,nan,nan,0
24587,0,52690,56216,38392.36,41224.50,7279.85,7814.70,14297.64,14991.50,0.000000,0.000000,-1.716418,-1.713484,nan,nan,0
24628,0,52702,56231,38420.98,41254.52,7279.85,7814.70,14281.02,14976.48,0.000000,0.000000,-1.714882,-1.711939,nan,nan,0
24668,0,52705,56251,38449.55,41284.51,7279.85,7814.70,14255.45,14966.49,0.000000,0.000000,-1.713347,-1.710396,nan,nan,0
24708,0,52713,56265,38478.08,41314.47,7279.85,7814.70,14234.92,14950.53,0.000000,0.000000,-1.711816,-1.708857,nan,nan,0
24747,0,52718,56262,38506.56,41344.36,7279.85,7814.70,14211.44,14917.64,0.000000,0.000000,-1.710287,-1.707319,nan,nan,0
24787,0,52722,56275,38535.00,41374.23,7279.85,7814.70,14187.00,14900.77,0.000000,0.000000,-1.708760,-1.705785,nan,nan,0
24827,0,52730,56287,38563.39,41404.05,7279.85,7814.70,14166.61,14882.95,0.000000,0.000000,-1.707236,-1.704253,nan,nan,0
24867,0,52733,56306,38591.73,41433.86,7279.85,7814.70,14141.27,14872.14,0.000000,0.000000,-1.705715,-1.702725,nan,nan,0
24908,0,52743,56327,38620.03,41463.65,7279.85,7814.70,14122.97,14863.35,0.000000,0.000000,-1.704196,-1.701199,nan,nan,0
24948,0,52752,56347,38648.30,41493.42,7279.85,7814.70,14103.70,14853.58,0.000000,0.000000,-1.702679,-1.699677,nan,nan,0
24990,0,52759,56366,38676.52,41523.16,7279.85,7814.70,14082.48,14842.84,0.000000,0.000000,-1.701166,-1.698159,nan,nan,0
25029,0,52767,56375,38704.70,41552.87,7279.85,7814.70,14062.30,14822.13,0.000000,0.000000,-1.699654,-1.696642,nan,nan,0
25069,0,52773,56388,38732.84,41582.54,7279.85,7814.70,14040.16,14805.46,0.000000,0.000000,-1.698146,-1.695129,nan,nan,0
25108,0,52774,56401,38760.92,41612.18,7279.85,7814.70,14013.08,14788.82,0.000000,0.000000,-1.696639,-1.693618,nan,nan,0
25150,0,52783,56418,38788.97,41641.79,7279.85,7814.70,13994.03,14776.21,0.000000,0.000000,-1.695135,-1.692111,nan,nan,0
25188,0,52786,56415,38816.96,41671.34,7279.85,7814.70,13969.04,14743.66,0.000000,0.000000,-1.693633,-1.690605,nan,nan,0
25229,0,52763,56312,38844.86,41700.62,7279.85,7814.70,13918.14,14611.38,0.000000,0.000000,-1.692132,-1.689096,nan,nan,0
25268,0,52724,56247,38872.62,41729.71,7279.85,7814.70,13851.38,14517.29,0.000000,0.000000,-1.690632,-1.687587,nan,nan,0
25308,0,52715,56248,38900.30,41758.75,7279.85,7814.70,13814.70,14489.25,0.000000,0.000000,-1.689133,-1.686080,nan,nan,0
25351,0,52724,56262,38927.95,41787.76,7279.85,7814.70,13796.05,14474.24,0.000000,0.000000,-1.687637,-1.684576,nan,nan,0
25389,0,52731,56264,38955.56,41816.71,7279.85,7814.70,13775.44,14447.29,0.000000,0.000000,-1.686143,-1.683074,nan,nan,0
25429,0,52731,56280,38983.11,41845.64,7279.85,7814.70,13747.89,14434.36,0.000000,0.000000,-1.684651,-1.681575,nan,nan,0
25473,0,52746,56295,39010.64,41874.54,7279.85,7814.70,13735.36,14420.46,0.000000,0.000000,-1.683162,-1.680079,nan,nan,0
25508,0,52748,56297,39038.11,41903.38,7279.85,7814.70,13709.89,14393.62,0.000000,0.000000,-1.681676,-1.678585,nan,nan,0
25549,0,52756,56305,39065.55,41932.19,7279.85,7814.70,13690.45,14372.81,0.000000,0.000000,-1.680191,-1.677094,nan,nan,0
25589,0,52767,56317,39092.95,41960.96,7279.85,7814.70,13674.05,14356.04,0.000000,0.000000,-1.678710,-1.675605,nan,nan,0
25630,0,52775,56334,39120.32,41989.70,7279.85,7814.70,13654.68,14344.30,0.000000,0.000000,-1.677231,-1.674120,nan,nan,0
25668,0,52779,56351,39147.64,42018.43,7279.85,7814.70,13631.36,14332.57,0.000000,0.000000,-1.675754,-1.672637,nan,nan,0
25709,0,52784,56361,39174.91,42047.11,7279.85,7814.70,13609.09,14313.89,0.000000,0.000000,-1.674280,-1.671157,nan,nan,0
25750,0,52786,56371,39202.13,42075.76,7279.85,7814.70,13583.87,14295.24,0.000000,0.000000,-1.672807,-1.669679,nan,nan,0
25788,0,52789,56378,39229.31,42104.37,7279.85,7814.70,13559.69,14273.63,0.000000,0.000000,-1.671337,-1.668204,nan,nan,0
25832,0,52796,56388,39256.44,42132.93,7279.85,7814.70,13539.56,14255.07,0.000000,0.000000,-1.669870,-1.666732,nan,nan,0
25868,0,52795,56388,39283.52,42161.45,7279.85,7814.70,13511.48,14226.55,0.000000,0.000000,-1.668404,-1.665262,nan,nan,0
25911,0,52797,56401,39310.55,42189.93,7279.85,7814.70,13486.45,14211.07,0.000000,0.000000,-1.666940,-1.663794,nan,nan,0
25949,0,52800,56409,39337.53,42218.36,7279.85,7814.70,13462.47,14190.64,0.000000,0.000000,-1.665479,-1.662328,nan,nan,0
25990,0,52794,56331,39364.44,42246.59,7279.85,7814.70,13429.56,14084.41,0.000000,0.000000,-1.664019,-1.660861,nan,nan,0
26029,0,52738,56223,39391.19,42274.54,7279.85,7814.70,13346.81,13948.46,0.000000,0.000000,-1.662559,-1.659392,nan,nan,0
26069,0,52714,56185,39417.84,42302.36,7279.85,7814.70,13296.16,13882.64,0.000000,0.000000,-1.661099,-1.657922,nan,nan,0
26110,0,52709,56189,39444.42,42330.14,7279.85,7814.70,13264.58,13858.86,0.000000,0.000000,-1.659641,-1.656455,nan,nan,0
26149,0,52716,56184,39470.96,42357.84,7279.85,7814.70,13245.04,13826.16,0.000000,0.000000,-1.658186,-1.654989,nan,nan,0
26189,0,52708,56178,39497.44,42385.48,7279.85,7814.70,13210.56,13792.52,0.000000,0.000000,-1.656732,-1.653526,nan,nan,0
26230,0,52707,56180,39523.86,42413.07,7279.85,7814.70,13183.14,13766.93,0.000000,0.000000,-1.655280,-1.652064,nan,nan,0
26270,0,52714,56186,39550.25,42440.62,7279.85,7814.70,13163.75,13745.38,0.000000,0.000000,-1.653831,-1.650605,nan,nan,0
26310,0,52712,56194,39576.57,42468.13,7279.85,7814.70,13135.43,13725.87,0.000000,0.000000,-1.652383,-1.649149,nan,nan,0
26349,0,52719,56199,39602.86,42495.59,7279.85,7814.70,13116.14,13703.41,0.000000,0.000000,-1.650938,-1.647694,nan,nan,0
26390,0,52721,56216,39629.09,42523.03,7279.85,7814.70,13091.91,13692.97,0.000000,0.000000,-1.649495,-1.646243,nan,nan,0
26429,0,52734,56233,39655.30,42550.45,7279.85,7814.70,13078.70,13682.55,0.000000,0.000000,-1.648054,-1.644794,nan,nan,0
26473,0,52737,56255,39681.47,42577.86,7279.85,7814.70,13055.53,13677.14,0.000000,0.000000,-1.646616,-1.643349,nan,nan,0
26510,0,52747,56266,39707.60,42605.24,7279.85,7814.70,13039.40,13660.76,0.000000,0.000000,-1.645180,-1.641906,nan,nan,0
26549,0,52749,56279,39733.68,42632.59,7279.85,7814.70,13015.32,13646.41,0.000000,0.000000,-1.643746,-1.640466,nan,nan,0
26590,0,52758,56288,39759.73,42659.90,7279.85,7814.70,12998.27,13628.10,0.000000,0.000000,-1.642315,-1.639028,nan,nan,0
26630,0,52762,56295,39785.74,42687.17,7279.85,7814.70,12976.26,13607.83,0.000000,0.000000,-1.640886,-1.637592,nan,nan,0
26670,0,52767,56302,39811.70,42714.40,7279.85,7814.70,12955.30,13587.60,0.000000,0.000000,-1.639459,-1.636159,nan,nan,0
26710,0,52771,56319,39837.62,42741.61,7279.85,7814.70,12933.38,13577.39,0.000000,0.000000,-1.638034,-1.634729,nan,nan,0
26748,0,52777,56329,39863.50,42768.79,7279.85,7814.70,12913.50,13560.21,0.000000,0.000000,-1.636611,-1.633301,nan,nan,0
26786,0,52770,56267,39889.31,42795.79,7279.85,7814.70,12880.69,13471.21,0.000000,0.000000,-1.635190,-1.631872,nan,nan,0
26829,0,52719,56141,39914.97,42822.48,7279.85,7814.70,12804.03,13318.52,0.000000,0.000000,-1.633769,-1.630440,nan,nan,0
26867,0,52685,56102,39940.52,42849.04,7279.85,7814.70,12744.48,13252.96,0.000000,0.000000,-1.632347,-1.629007,nan,nan,0
26908,0,52684,56105,39966.00,42875.55,7279.85,7814.70,12718.00,13229.45,0.000000,0.000000,-1.630928,-1.627577,nan,nan,0
26949,0,52687,56104,39991.45,42902.00,7279.85,7814.70,12695.55,13202.00,0.000000,0.000000,-1.629510,-1.626148,nan,nan,0
26990,0,52685,56090,40016.83,42928.38,7279.85,7814.70,12668.17,13161.62,0.000000,0.000000,-1.628095,-1.624721,nan,nan,0
27029,0,52680,56097,40042.16,42954.72,7279.85,7814.70,12637.84,13142.28,0.000000,0.000000,-1.626681,-1.623297,nan,nan,0
27071,0,52684,56102,40067.45,42981.02,7279.85,7814.70,12616.55,13120.98,0.000000,0.000000,-1.625269,-1.621875,nan,nan,0
27110,0,52687,56099,40092.68,43007.26,7279.85,7814.70,12594.32,13091.74,0.000000,0.000000,-1.623860,-1.620454,nan,nan,0
27151,0,52686,56110,40117.87,43033.46,7279.85,7814.70,12568.13,13076.54,0.000000,0.000000,-1.622452,-1.619036,nan,nan,0
27191,0,52689,56122,40143.02,43059.64,7279.85,7814.70,12545.98,13062.36,0.000000,0.000000,-1.621046,-1.617621,nan,nan,0
27231,0,52699,56140,40168.13,43085.80,7279.85,7814.70,12530.87,13054.20,0.000000,0.000000,-1.619643,-1.616208,nan,nan,0
27270,0,52703,56156,40193.20,43111.95,7279.85,7814.70,12509.80,13044.05,0.000000,0.000000,-1.618242,-1.614798,nan,nan,0
27311,0,52706,56173,40218.23,43138.07,7279.85,7814.70,12487.77,13034.93,0.000000,0.000000,-1.616843,-1.613391,nan,nan,0
27351,0,52709,56176,40243.21,43164.15,7279.85,7814.70,12465.79,13011.85,0.000000,0.000000,-1.615445,-1.611986,nan,nan,0
27391,0,52720,56186,40268.16,43190.19,7279.85,7814.70,12451.84,12995.81,0.000000,0.000000,-1.614051,-1.610583,nan,nan,0
27431,0,52722,56201,40293.07,43216.21,7279.85,7814.70,12428.93,12984.79,0.000000,0.000000,-1.612658,-1.609183,nan,nan,0
27471,0,52725,56221,40317.94,43242.23,7279.85,7814.70,12407.06,12978.77,0.000000,0.000000,-1.611267,-1.607786,nan,nan,0
27510,0,52731,56240,40342.77,43268.22,7279.85,7814.70,12388.23,12971.78,0.000000,0.000000,-1.609879,-1.606392,nan,nan,0
27552,0,52740,56259,40367.56,43294.21,7279.85,7814.70,12372.44,12964.79,0.000000,0.000000,-1.608493,-1.605000,nan,nan,0
27590,0,52740,56203,40392.31,43320.03,7279.85,7814.70,12347.69,12882.97,0.000000,0.000000,-1.607108,-1.603608,nan,nan,0
27631,0,52697,56080,40416.92,43345.55,7279.85,7814.70,12280.08,12734.45,0.000000,0.000000,-1.605724,-1.602212,nan,nan,0
27671,0,52670,56048,40441.43,43370.95,7279.85,7814.70,12228.57,12677.05,0.000000,0.000000,-1.604340,-1.600816,nan,nan,0
27713,0,52664,56062,40465.87,43396.34,7279.85,7814.70,12198.13,12665.66,0.000000,0.000000,-1.602957,-1.599424,nan,nan,0
27751,0,52673,56076,40490.29,43421.70,7279.85,7814.70,12182.71,12654.30,0.000000,0.000000,-1.601577,-1.598033,nan,nan,0
27790,0,52678,56083,40514.66,43447.02,7279.85,7814.70,12163.34,12635.98,0.000000,0.000000,-1.600199,-1.596645,nan,nan,0
27832,0,52686,56098,40539.00,43472.32,7279.85,7814.70,12147.00,12625.68,0.000000,0.000000,-1.598823,-1.595260,nan,nan,0
27871,0,52692,56101,40563.31,43497.58,7279.85,7814.70,12128.69,12603.42,0.000000,0.000000,-1.597449,-1.593876,nan,nan,0
27911,0,52694,56106,40587.57,43522.80,7279.85,7814.70,12106.43,12583.20,0.000000,0.000000,-1.596078,-1.592495,nan,nan,0
27949,0,52693,56115,40611.79,43547.98,7279.85,7814.70,12081.21,12567.02,0.000000,0.000000,-1.594707,-1.591116,nan,nan,0
27991,0,52699,56137,40635.96,43573.16,7279.85,7814.70,12063.04,12563.84,0.000000,0.000000,-1.593340,-1.589740,nan,nan,0
28033,0,52707,56157,40660.11,43598.33,7279.85,7814.70,12046.89,12558.67,0.000000,0.000000,-1.591974,-1.588367,nan,nan,0
28072,0,52713,56175,40684.21,43623.49,7279.85,7814.70,12028.79,12551.51,0.000000,0.000000,-1.590611,-1.586997,nan,nan,0
28112,0,52724,56195,40708.29,43648.63,7279.85,7814.70,12015.71,12546.37,0.000000,0.000000,-1.589249,-1.585629,nan,nan,0
28152,0,52729,56205,40732.34,43673.75,7279.85,7814.70,11996.66,12531.25,0.000000,0.000000,-1.587890,-1.584263,nan,nan,0
28192,0,52732,56217,40756.34,43698.83,7279.85,7814.70,11975.66,12518.17,0.000000,0.000000,-1.586533,-1.582900,nan,nan,0
28232,0,52734,56229,40780.29,43723.89,7279.85,7814.70,11953.71,12505.11,-0.234000,-0.230219,-1.585178,-1.581540,nan,nan,0
28272,0,52743,56257,40804.22,43748.96,7279.85,7814.70,11938.78,12508.04,-0.234587,-0.230793,-1.583825,-1.580182,nan,nan,0
28312,0,52750,56266,40828.11,43774.00,7279.85,7814.70,11921.89,12492.00,-0.235172,-0.231365,-1.582474,-1.578827,nan,nan,0
28353,0,52741,56176,40851.94,43798.80,7279.85,7814.70,11889.06,12377.20,-0.235756,-0.231931,-1.581124,-1.577469,nan,nan,0
28391,0,52692,56087,40875.62,43823.38,7279.85,7814.70,11816.38,12263.62,-0.236335,-0.232492,-1.579774,-1.576109,nan,nan,0
28432,0,52675,56084,40899.22,43847.90,7279.85,7814.70,11775.78,12236.10,-0.236913,-0.233052,-1.578425,-1.574751,nan,nan,0
28472,0,52686,56113,40922.80,43872.43,7279.85,7814.70,11763.20,12240.57,-0.237489,-0.233611,-1.577078,-1.573396,nan,nan,0
28513,0,52697,56127,40946.35,43896.95,7279.85,7814.70,11750.65,12230.05,-0.238064,-0.234169,-1.575733,-1.572044,nan,nan,0
28551,0,52701,56150,40969.86,43921.45,7279.85,7814.70,11731.14,12228.55,-0.238638,-0.234728,-1.574391,-1.570694,nan,nan,0
28592,0,52719,56164,40993.36,43945.94,7279.85,7814.70,11725.64,12218.06,-0.239212,-0.235285,-1.573051,-1.569347,nan,nan,0
28632,0,52717,56162,41016.81,43970.37,7279.85,7814.70,11700.19,12191.63,-0.239783,-0.235841,-1.571712,-1.568002,nan,nan,0
28673,0,52724,56170,41040.22,43994.77,7279.85,7814.70,11683.78,12175.23,-0.240354,-0.236396,-1.570376,-1.566658,nan,nan,0
28712,0,52729,56191,41063.60,44019.17,7279.85,7814.70,11665.40,12171.83,-0.240924,-0.236950,-1.569042,-1.565318,nan,nan,0
28753,0,52742,56218,41086.96,44043.57,7279.85,7814.70,11655.04,12174.43,-0.241492,-0.237504,-1.567710,-1.563980,nan,nan,0
28791,0,52749,56246,41110.29,44067.97,7279.85,7814.70,11638.71,12178.03,-0.242060,-0.238058,-1.566380,-1.562646,nan,nan,0
28832,0,52761,56270,41133.59,44092.38,7279.85,7814.70,11627.41,12177.62,-0.242627,-0.238612,-1.565053,-1.561314,nan,nan,0
28876,0,52768,56285,41156.86,44116.77,7279.85,7814.70,11611.14,12168.23,-0.243192,-0.239165,-1.563727,-1.559985,nan,nan,0
28912,0,52775,56300,41180.09,44141.13,7279.85,7814.70,11594.91,12158.87,-0.243757,-0.239717,-1.562404,-1.558659,nan,nan,0
28949,0,52781,56310,41203.30,44165.47,7279.85,7814.70,11577.70,12144.53,-0.244320,-0.240268,-1.561082,-1.557334,nan,nan,0
28993,0,52784,56331,41226.46,44189.80,7279.85,7814.70,11557.54,12141.20,-0.244882,-0.240819,-1.559763,-1.556012,nan,nan,0
29030,0,52791,56342,41249.59,44214.11,7279.85,7814.70,11541.41,12127.89,-0.245443,-0.241369,-1.558446,-1.554693,nan,nan,0
29071,0,52778,56250,41272.65,44238.18,7279.85,7814.70,11505.35,12011.82,-0.246002,-0.241913,-1.557129,-1.553371,nan,nan,0
29113,0,52731,56158,41295.57,44262.02,7279.85,7814.70,11435.43,11895.98,-0.246557,-0.242452,-1.555812,-1.552046,nan,nan,0
29154,0,52716,56144,41318.41,44285.79,7279.85,7814.70,11397.59,11858.21,-0.247110,-0.242989,-1.554496,-1.550723,nan,nan,0
29193,0,52714,56155,41341.20,44309.53,7279.85,7814.70,11372.80,11845.47,-0.247661,-0.243524,-1.553182,-1.549402,nan,nan,0
29233,0,52723,56162,41363.97,44333.23,7279.85,7814.70,11359.03,11828.77,-0.248212,-0.244059,-1.551869,-1.548083,nan,nan,0
29273,0,52719,56167,41386.68,44356.90,7279.85,7814.70,11332.32,11810.10,-0.248761,-0.244593,-1.550559,-1.546766,nan,nan,0
29313,0,52726,56187,41409.36,44380.56,7279.85,7814.70,11316.64,11806.44,-0.249308,-0.245126,-1.549250,-1.545451,nan,nan,0
29356,0,52731,56196,41432.00,44404.20,7279.85,7814.70,11299.00,11791.80,-0.249855,-0.245659,-1.547943,-1.544139,nan,nan,0
29393,0,52738,56201,41454.62,44427.79,7279.85,7814.70,11283.38,11773.21,-0.250401,-0.246190,-1.546638,-1.542829,nan,nan,0
29433,0,52739,56224,41477.19,44451.38,7279.85,7814.70,11261.81,11772.62,-0.250945,-0.246721,-1.545335,-1.541521,nan,nan,0
29473,0,52746,56245,41499.73,44474.97,7279.85,7814.70,11246.27,11770.03,-0.251488,-0.247251,-1.544034,-1.540217,nan,nan,0
29513,0,52753,56275,41522.23,44498.57,7279.85,7814.70,11230.77,11776.43,-0.252031,-0.247782,-1.542735,-1.538915,nan,nan,0
29553,0,52766,56294,41544.72,44522.17,7279.85,7814.70,11221.28,11771.83,-0.252572,-0.248312,-1.541438,-1.537616,nan,nan,0
29593,0,52773,56314,41567.18,44545.75,7279.85,7814.70,11205.82,11768.25,-0.253112,-0.248842,-1.540143,-1.536319,nan,nan,0
29634,0,52781,56325,41589.61,44569.31,7279.85,7814.70,11191.39,11755.69,-0.253652,-0.249370,-1.538851,-1.535024,nan,nan,0
29673,0,52784,56338,41612.00,44592.85,7279.85,7814.70,11172.00,11745.15,-0.254190,-0.249898,-1.537560,-1.533732,nan,nan,0
29714,0,52790,56348,41634.36,44616.36,7279.85,7814.70,11155.64,11731.64,-0.254727,-0.250425,-1.536271,-1.532442,nan,nan,0
29755,0,52793,56373,41656.68,44639.88,7279.85,7814.70,11136.32,11733.12,-0.255263,-0.250952,-1.534983,-1.531155,nan,nan,0
29793,0,52801,56374,41678.96,44663.35,7279.85,7814.70,11122.04,11710.65,-0.255798,-0.251478,-1.533698,-1.529869,nan,nan,0
29833,0,52774,56265,41701.16,44686.55,7279.85,7814.70,11072.84,11578.45,-0.256330,-0.251997,-1.532413,-1.528580,nan,nan,0
29874,0,52723,56171,41723.20,44709.52,7279.85,7814.70,10999.80,11461.48,-0.256859,-0.252511,-1.531128,-1.527288,nan,nan,0
29915,0,52705,56161,41745.16,44732.42,7279.85,7814.70,10959.84,11428.58,-0.257385,-0.253023,-1.529843,-1.525998,nan,nan,0
29953,0,52710,56168,41767.09,44755.29,7279.85,7814.70,10942.91,11412.71,-0.257910,-0.253534,-1.528559,-1.524710,nan,nan,0
29993,0,52708,56160,41788.98,44778.11,7279.85,7814.70,10919.02,11381.89,-0.258434,-0.254044,-1.527278,-1.523423,nan,nan,0
30033,0,52705,56159,41810.81,44800.87,7279.85,7814.70,10894.19,11358.13,-0.258956,-0.254552,-1.525998,-1.522138,nan,nan,0
30073,0,52707,56174,41832.60,44823.61,7279.85,7814.70,10874.40,11350.39,-0.259477,-0.255060,-1.524719,-1.520855,nan,nan,0
30113,0,52711,56176,41854.36,44846.32,7279.85,7814.70,10856.64,11329.68,-0.259998,-0.255566,-1.523443,-1.519574,nan,nan,0
30151,0,52713,56185,41876.08,44869.00,7279.85,7814.70,10836.92,11316.00,-0.260516,-0.256072,-1.522168,-1.518295,nan,nan,0
30193,0,52715,56199,41897.76,44891.66,7279.85,7814.70,10817.24,11307.34,-0.261034,-0.256577,-1.520895,-1.517018,nan,nan,0
30233,0,52724,56217,41919.41,44914.31,7279.85,7814.70,10804.59,11302.69,-0.261551,-0.257081,-1.519624,-1.515743,nan,nan,0
30275,0,52733,56233,41941.04,44936.95,7279.85,7814.70,10791.96,11296.05,-0.262066,-0.257585,-1.518355,-1.514471,nan,nan,0
30314,0,52731,56251,41962.62,44959.58,7279.85,7814.70,10768.38,11291.42,-0.262581,-0.258088,-1.517088,-1.513201,nan,nan,0
30355,0,52736,56267,41984.17,44982.20,7279.85,7814.70,10751.83,11284.80,-0.263094,-0.258591,-1.515822,-1.511934,nan,nan,0
30394,0,52741,56280,42005.68,45004.79,7279.85,7814.70,10735.32,11275.21,-0.263606,-0.259094,-1.514558,-1.510669,nan,nan,0
30434,0,52748,56288,42027.17,45027.36,7279.85,7814.70,10720.83,11260.64,-0.264118,-0.259595,-1.513296,-1.509406,nan,nan,0
30474,0,52751,56299,42048.62,45049.90,7279.85,7814.70,10702.38,11249.10,-0.264628,-0.260095,-1.512036,-1.508145,nan,nan,0
30515,0,52752,56317,42070.02,45072.44,7279.85,7814.70,10681.98,11244.56,-0.265137,-0.260596,-1.510777,-1.506886,nan,nan,0
30553,0,52752,56338,42091.39,45094.97,7279.85,7814.70,10660.61,11243.03,-0.265645,-0.261095,-1.509520,-1.505630,nan,nan,0
30594,0,52758,56324,42112.72,45117.43,7279.85,7814.70,10645.28,11206.57,-0.266151,-0.261593,-1.508265,-1.504375,nan,nan,0
30634,0,52732,56204,42133.96,45139.61,7279.85,7814.70,10598.04,11064.39,-0.266656,-0.262085,-1.507010,-1.503116,nan,nan,0
30675,0,52686,56131,42155.07,45161.59,7279.85,7814.70,10530.93,10969.41,-0.267156,-0.262572,-1.505755,-1.501856,nan,nan,0
30716,0,52670,56128,42176.10,45183.52,7279.85,7814.70,10493.90,10944.48,-0.267655,-0.263057,-1.504501,-1.500597,nan,nan,0
30755,0,52674,56131,42197.09,45205.42,7279.85,7814.70,10476.91,10925.58,-0.268153,-0.263542,-1.503248,-1.499340,nan,nan,0
30794,0,52670,56114,42218.04,45227.23,7279.85,7814.70,10451.96,10886.77,-0.268649,-0.264024,-1.501996,-1.498083,nan,nan,0
30834,0,52666,56110,42238.94,45249.00,7279.85,7814.70,10427.06,10861.00,-0.269144,-0.264505,-1.500746,-1.496828,nan,nan,0
30874,0,52669,56128,42259.80,45270.76,7279.85,7814.70,10409.20,10857.24,-0.269638,-0.264986,-1.499498,-1.495576,nan,nan,0
30914,0,52674,56130,42280.62,45292.48,7279.85,7814.70,10393.37,10837.52,-0.270130,-0.265466,-1.498251,-1.494325,nan,nan,0
30954,0,52670,56131,42301.41,45314.16,7279.85,7814.70,10368.59,10816.84,-0.270622,-0.265944,-1.497006,-1.493076,nan,nan,0
30994,0,52676,56143,42322.16,45335.82,7279.85,7814.70,10353.84,10807.18,-0.271112,-0.266422,-1.495763,-1.491829,nan,nan,0
31034,0,52684,56161,42342.88,45357.47,7279.85,7814.70,10341.12,10803.53,-0.271602,-0.266900,-1.494522,-1.490584,nan,nan,0
31075,0,52687,56172,42363.57,45379.10,7279.85,7814.70,10323.43,10792.90,-0.272090,-0.267376,-1.493282,-1.489341,nan,nan,0
31114,0,52691,56183,42384.23,45400.71,7279.85,7814.70,10306.77,10782.29,-0.272578,-0.267852,-1.492044,-1.488101,nan,nan,0
31154,0,52691,56195,42404.84,45422.30,7279.85,7814.70,10286.16,10772.70,-0.273064,-0.268328,-1.490808,-1.486862,nan,nan,0
31194,0,52696,56203,42425.42,45443.86,7279.85,7814.70,10270.58,10759.14,-0.273549,-0.268802,-1.489573,-1.485626,nan,nan,0
31235,0,52698,56214,42445.97,45465.40,7279.85,7814.70,10252.03,10748.60,-0.274033,-0.269276,-1.488340,-1.484391,nan,nan,0
31275,0,52702,56223,42466.48,45486.92,7279.85,7814.70,10235.52,10736.08,-0.274517,-0.269750,-1.487109,-1.483159,nan,nan,0
31316,0,52704,56229,42486.96,45508.40,7279.85,7814.70,10217.04,10720.60,-0.274999,-0.270222,-1.485879,-1.481928,nan,nan,0
31355,0,52707,56251,42507.40,45529.89,7279.85,7814.70,10199.60,10721.11,-0.275480,-0.270694,-1.484651,-1.480700,nan,nan,0
31395,0,52710,56246,42527.80,45551.32,7279.85,7814.70,10182.20,10694.68,-0.275960,-0.271164,-1.483424,-1.479473,nan,nan,0
31434,0,52685,56134,42548.12,45572.49,7279.85,7814.70,10136.88,10561.51,-0.276437,-0.271629,-1.482198,-1.478243,nan,nan,0
31476,0,52632,56052,42568.29,45593.45,7279.85,7814.70,10063.71,10458.55,-0.276911,-0.272089,-1.480971,-1.477010,nan,nan,0
31515,0,52619,56044,42588.39,45614.36,7279.85,7814.70,10030.61,10429.64,-0.277383,-0.272547,-1.479745,-1.475779,nan,nan,0
31556,0,52622,56053,42608.46,45635.23,7279.85,7814.70,10013.54,10417.77,-0.277854,-0.273005,-1.478521,-1.474550,nan,nan,0
31595,0,52626,56049,42628.49,45656.06,7279.85,7814.70,9997.51,10392.94,-0.278324,-0.273461,-1.477298,-1.473322,nan,nan,0
31635,0,52621,56049,42648.48,45676.85,7279.85,7814.70,9972.52,10372.15,-0.278793,-0.273916,-1.476077,-1.472096,nan,nan,0
31675,0,52620,56062,42668.42,45697.62,7279.85,7814.70,9951.58,10364.38,-0.279261,-0.274371,-1.474857,-1.470872,nan,nan,0
31716,0,52627,56064,42688.34,45718.36,7279.85,7814.70,9938.66,10345.64,-0.279727,-0.274825,-1.473639,-1.469649,nan,nan,0
31755,0,52630,56069,42708.22,45739.06,7279.85,7814.70,9921.78,10329.94,-0.280193,-0.275277,-1.472422,-1.468429,nan,nan,0
31795,0,52631,56079,42728.07,45759.74,7279.85,7814.70,9902.93,10319.26,-0.280658,-0.275729,-1.471208,-1.467210,nan,nan,0
31839,0,52642,56093,42747.90,45780.41,7279.85,7814.70,9894.10,10312.59,-0.281122,-0.276181,-1.469995,-1.465994,nan,nan,0
31875,0,52649,56110,42767.70,45801.07,7279.85,7814.70,9881.30,10308.93,-0.281585,-0.276632,-1.468784,-1.464779,nan,nan,0
31916,0,52652,56122,42787.47,45821.71,7279.85,7814.70,9864.53,10300.29,-0.282047,-0.277083,-1.467574,-1.463567,nan,nan,0
31956,0,52656,56135,42807.21,45842.34,7279.85,7814.70,9848.79,10292.66,-0.282508,-0.277533,-1.466367,-1.462357,nan,nan,0
31995,0,52657,56141,42826.91,45862.94,7279.85,7814.70,9830.09,10278.06,-0.282968,-0.277982,-1.465160,-1.461148,nan,nan,0
32035,0,52663,56154,42846.58,45883.52,7279.85,7814.70,9816.42,10270.48,-0.283427,-0.278431,-1.463956,-1.459942,nan,nan,0
32075,0,52663,56156,42866.21,45904.07,7279.85,7814.70,9796.79,10251.93,-0.283885,-0.278878,-1.462753,-1.458737,nan,nan,0
32115,0,52673,56171,42885.83,45924.60,7279.85,7814.70,9787.17,10246.40,-0.284343,-0.279326,-1.461552,-1.457535,nan,nan,0
32155,0,52672,56184,42905.40,45945.12,7279.85,7814.70,9766.60,10238.88,-0.284799,-0.279772,-1.460352,-1.456334,nan,nan,0
32195,0,52680,56181,42924.95,45965.59,7279.85,7814.70,9755.05,10215.41,-0.285255,-0.280218,-1.459154,-1.455135,nan,nan,0
32235,0,52652,56066,42944.41,45985.80,7279.85,7814.70,9707.59,10080.20,-0.285708,-0.280657,-1.457957,-1.453932,nan,nan,0
32274,0,52600,55986,42963.72,46005.80,7279.85,7814.70,9636.28,9980.20,-0.286158,-0.281092,-1.456758,-1.452728,nan,nan,0
32315,0,52586,55980,42982.97,46025.75,7279.85,7814.70,9603.03,9954.25,-0.286606,-0.281526,-1.455561,-1.451524,nan,nan,0
32358,0,52592,55988,43002.19,46045.67,7279.85,7814.70,9589.81,9942.33,-0.287052,-0.281958,-1.454365,-1.450323,nan,nan,0
32395,0,52595,55982,43021.37,46065.55,7279.85,7814.70,9573.62,9916.45,-0.287499,-0.282390,-1.453170,-1.449122,nan,nan,0
32436,0,52591,55985,43040.52,46085.39,7279.85,7814.70,9550.48,9899.61,-0.287943,-0.282821,-1.451977,-1.447924,nan,nan,0
32476,0,52597,55992,43059.63,46105.20,7279.85,7814.70,9537.37,9886.80,-0.288387,-0.283250,-1.450786,-1.446727,nan,nan,0
32516,0,52597,55987,43078.70,46124.96,7279.85,7814.70,9518.30,9862.04,-0.288830,-0.283679,-1.449596,-1.445531,nan,nan,0
32555,0,52595,55994,43097.74,46144.70,7279.85,7814.70,9497.26,9849.30,-0.289272,-0.284107,-1.448407,-1.444338,nan,nan,0
32596,0,52601,56005,43116.75,46164.43,7279.85,7814.70,9484.25,9840.57,-0.289713,-0.284534,-1.447221,-1.443146,nan,nan,0
32635,0,52607,56017,43135.73,46184.13,7279.85,7814.70,9471.27,9832.87,-0.290153,-0.284961,-1.446035,-1.441956,nan,nan,0
32676,0,52614,56035,43154.68,46203.84,7279.85,7814.70,9459.32,9831.16,-0.290593,-0.285388,-1.444852,-1.440768,nan,nan,0
32716,0,52619,56056,43173.61,46223.54,7279.85,7814.70,9445.39,9832.46,-0.291031,-0.285814,-1.443670,-1.439583,nan,nan,0
32756,0,52623,56071,43192.51,46243.24,7279.85,7814.70,9430.49,9827.76,-0.291469,-0.286240,-1.442490,-1.438400,nan,nan,0
32795,0,52634,56090,43211.39,46262.93,7279.85,7814.70,9422.61,9827.07,-0.291906,-0.286666,-1.441312,-1.437220,nan,nan,0
32836,0,52645,56105,43230.26,46282.62,7279.85,7814.70,9414.74,9822.38,-0.292342,-0.287091,-1.440136,-1.436041,nan,nan,0
32875,0,52648,56124,43249.10,46302.30,7279.85,7814.70,9398.90,9821.70,-0.292778,-0.287516,-1.438961,-1.434864,nan,nan,0
32916,0,52659,56151,43267.92,46322.00,7279.85,7814.70,9391.08,9829.00,-0.293213,-0.287942,-1.437789,-1.433691,nan,nan,0
32955,0,52670,56173,43286.72,46341.70,7279.85,7814.70,9383.28,9831.30,-0.293647,-0.288367,-1.436618,-1.432519,nan,nan,0
32996,0,52674,56140,43305.50,46361.30,7279.85,7814.70,9368.50,9778.70,-0.294081,-0.288790,-1.435449,-1.431348,nan,nan,0
33037,0,52636,56031,43324.16,46380.64,7279.85,7814.70,9311.84,9650.36,-0.294512,-0.289207,-1.434279,-1.430173,nan,nan,0
33079,0,52594,55977,43342.70,46399.84,7279.85,7814.70,9251.30,9577.16,-0.294940,-0.289621,-1.433109,-1.428997,nan,nan,0
33116,0,52591,55981,43361.20,46419.00,7279.85,7814.70,9229.80,9562.00,-0.295367,-0.290034,-1.431940,-1.427824,nan,nan,0
33155,0,52593,55997,43379.66,46438.16,7279.85,7814.70,9213.34,9558.84,-0.295792,-0.290446,-1.430773,-1.426652,nan,nan,0
33201,0,52601,56014,43398.11,46457.31,7279.85,7814.70,9202.89,9556.69,-0.296217,-0.290859,-1.429608,-1.425482,nan,nan,0
33232,0,52603,56029,43416.52,46476.45,7279.85,7814.70,9186.48,9552.55,-0.296642,-0.291271,-1.428444,-1.424315,nan,nan,0
33272,0,52606,56034,43434.90,46495.57,7279.85,7814.70,9171.10,9538.43,-0.297065,-0.291682,-1.427281,-1.423149,nan,nan,0
33312,0,52604,56032,43453.24,46514.64,7279.85,7814.70,9150.76,9517.36,-0.297487,-0.292092,-1.426120,-1.421984,nan,nan,0
33356,0,52607,56057,43471.55,46533.73,7279.85,7814.70,9135.45,9523.27,-0.297908,-0.292502,-1.424960,-1.420822,nan,nan,0
33397,0,52617,56085,43489.84,46552.84,7279.85,7814.70,9127.16,9532.16,-0.298329,-0.292913,-1.423803,-1.419663,nan,nan,0
33436,0,52628,56113,43508.12,46571.96,7279.85,7814.70,9119.88,9541.04,-0.298749,-0.293323,-1.422647,-1.418506,nan,nan,0
33476,0,52636,56137,43526.37,46591.09,7279.85,7814.70,9109.62,9545.91,-0.299169,-0.293734,-1.421493,-1.417352,nan,nan,0
33516,0,52644,56158,43544.61,46610.23,7279.85,7814.70,9099.39,9547.77,-0.299588,-0.294145,-1.420341,-1.416200,nan,nan,0
33557,0,52651,56183,43562.83,46629.37,7279.85,7814.70,9088.17,9553.62,-0.300006,-0.294555,-1.419190,-1.415050,nan,nan,0
33601,0,52652,56205,43581.01,46648.53,7279.85,7814.70,9070.99,9556.47,-0.300423,-0.294966,-1.418041,-1.413903,nan,nan,0
33637,0,52664,56225,43599.18,46667.68,7279.85,7814.70,9064.82,9557.32,-0.300840,-0.295377,-1.416893,-1.412758,nan,nan,0
33677,0,52672,56254,43617.32,46686.86,7279.85,7814.70,9054.68,9567.14,-0.301256,-0.295787,-1.415748,-1.411615,nan,nan,0
33718,0,52681,56256,43635.45,46706.00,7279.85,7814.70,9045.55,9550.00,-0.301671,-0.296197,-1.414604,-1.410474,nan,nan,0
33756,0,52658,56177,43653.50,46724.94,7279.85,7814.70,9004.50,9452.06,-0.302085,-0.296603,-1.413460,-1.409331,nan,nan,0
33799,0,52623,56139,43671.44,46743.77,7279.85,7814.70,8951.56,9395.23,-0.302496,-0.297006,-1.412316,-1.408188,nan,nan,0
33836,0,52621,56148,43689.34,46762.57,7279.85,7814.70,8931.66,9385.43,-0.302906,-0.297408,-1.411174,-1.407046,nan,nan,0
33879,0,52627,56176,43707.21,46781.40,7279.85,7814.70,8919.79,9394.60,-0.303315,-0.297810,-1.410033,-1.405907,nan,nan,0
33916,0,52638,56189,43725.08,46800.22,7279.85,7814.70,8912.92,9388.78,-0.303723,-0.298213,-1.408894,-1.404770,nan,nan,0
33956,0,52641,56202,43742.91,46819.02,7279.85,7814.70,8898.09,9382.98,-0.304131,-0.298614,-1.407756,-1.403635,nan,nan,0
33997,0,52653,56220,43760.73,46837.83,7279.85,7814.70,8892.27,9382.17,-0.304538,-0.299016,-1.406621,-1.402502,nan,nan,0
34036,0,52656,56227,43778.52,46856.61,7279.85,7814.70,8877.48,9370.39,-0.304945,-0.299417,-1.405486,-1.401371,nan,nan,0
34080,0,52656,56247,43796.28,46875.39,7279.85,7814.70,8859.72,9371.61,-0.305350,-0.299818,-1.404354,-1.400241,nan,nan,0
34117,0,52660,56266,43814.01,46894.17,7279.85,7814.70,8845.99,9371.83,-0.305755,-0.300218,-1.403222,-1.399114,nan,nan,0
34157,0,52667,56299,43831.72,46912.98,7279.85,7814.70,8835.28,9386.02,-0.306159,-0.300619,-1.402093,-1.397990,nan,nan,0
34197,0,52678,56317,43849.41,46931.79,7279.85,7814.70,8828.59,9385.21,-0.306563,-0.301020,-1.400965,-1.396868,nan,nan,0
34236,0,52689,56342,43867.09,46950.61,7279.85,7814.70,8821.91,9391.39,-0.306966,-0.301421,-1.399839,-1.395748,nan,nan,0
34277,0,52691,56352,43884.74,46969.42,7279.85,7814.70,8806.26,9382.58,-0.307368,-0.301821,-1.398714,-1.394629,nan,nan,0
34316,0,52695,56365,43902.36,46988.21,7279.85,7814.70,8792.64,9376.79,-0.307770,-0.302221,-1.397591,-1.393513,nan,nan,0
34357,0,52699,56383,43919.96,47007.00,7279.85,7814.70,8779.04,9376.00,-0.308170,-0.302621,-1.396469,-1.392399,nan,nan,0
34397,0,52700,56395,43937.52,47025.78,7279.85,7814.70,8762.48,9369.22,-0.308570,-0.303021,-1.395349,-1.391286,nan,nan,0
34437,0,52703,56415,43955.05,47044.56,7279.85,7814.70,8747.95,9370.44,-0.308969,-0.303420,-1.394230,-1.390176,nan,nan,0
34477,0,52704,56372,43972.55,47063.21,7279.85,7814.70,8731.45,9308.79,-0.309367,-0.303816,-1.393113,-1.389065,nan,nan,0
34517,0,52666,56290,43989.94,47081.67,7279.85,7814.70,8676.06,9208.33,-0.309762,-0.304208,-1.391994,-1.387952,nan,nan,0
34557,0,52636,56267,44007.23,47100.04,7279.85,7814.70,8628.77,9166.96,-0.310155,-0.304599,-1.390877,-1.386839,nan,nan,0
34599,0,52637,56277,44024.49,47118.39,7279.85,7814.70,8612.51,9158.61,-0.310548,-0.304988,-1.389760,-1.385728,nan,nan,0
34637,0,52640,56287,44041.72,47136.73,7279.85,7814.70,8598.28,9150.27,-0.310939,-0.305377,-1.388645,-1.384619,nan,nan,0
34678,0,52638,56290,44058.92,47155.04,7279.85,7814.70,8579.08,9134.96,-0.311329,-0.305766,-1.387531,-1.383511,nan,nan,0
34719,0,52638,56293,44076.08,47173.32,7279.85,7814.70,8561.92,9119.68,-0.311719,-0.306153,-1.386418,-1.382404,nan,nan,0
34757,0,52642,56298,44093.21,47191.57,7279.85,7814.70,8548.79,9106.43,-0.312107,-0.306540,-1.385307,-1.381299,nan,nan,0
34798,0,52640,56304,44110.30,47209.80,7279.85,7814.70,8529.70,9094.20,-0.312495,-0.306926,-1.384197,-1.380195,nan,nan,0
34838,0,52639,56316,44127.36,47228.01,7279.85,7814.70,8511.64,9087.99,-0.312882,-0.307312,-1.383088,-1.379094,nan,nan,0
34878,0,52646,56331,44144.40,47246.22,7279.85,7814.70,8501.60,9084.78,-0.313268,-0.307697,-1.381981,-1.377994,nan,nan,0
34921,0,52647,56341,44161.41,47264.41,7279.85,7814.70,8485.59,9076.59,-0.313653,-0.308082,-1.380875,-1.376896,nan,nan,0
34959,0,52650,56360,44178.39,47282.60,7279.85,7814.70,8471.61,9077.40,-0.314037,-0.308467,-1.379770,-1.375800,nan,nan,0
34997,0,52657,56369,44195.34,47300.78,7279.85,7814.70,8461.66,9068.22,-0.314421,-0.308851,-1.378668,-1.374705,nan,nan,0
35037,0,52662,56376,44212.28,47318.93,7279.85,7814.70,8449.72,9057.07,-0.314804,-0.309235,-1.377566,-1.373612,nan,nan,0
35077,0,52661,56384,44229.18,47337.06,7279.85,7814.70,8431.82,9046.94,-0.315186,-0.309618,-1.376466,-1.372521,nan,nan,0
35121,0,52662,56395,44246.04,47355.18,7279.85,7814.70,8415.96,9039.82,-0.315567,-0.310001,-1.375367,-1.371431,nan,nan,0
35156,0,52662,56404,44262.87,47373.28,7279.85,7814.70,8399.12,9030.72,-0.315948,-0.310383,-1.374270,-1.370343,nan,nan,0
35195,0,52661,56421,44279.67,47391.37,7279.85,7814.70,8381.33,9029.62,-0.316327,-0.310765,-1.373173,-1.369257,nan,nan,0
35234,0,52661,56382,44296.44,47409.36,7279.85,7814.70,8364.56,8972.64,-0.316706,-0.311144,-1.372078,-1.368171,nan,nan,0
35278,0,52625,56302,44313.10,47427.14,7279.85,7814.70,8311.90,8874.86,-0.317082,-0.311519,-1.370983,-1.367082,nan,nan,0
35317,0,52601,56273,44329.68,47444.84,7279.85,7814.70,8271.32,8828.16,-0.317456,-0.311892,-1.369888,-1.365994,nan,nan,0
35358,0,52597,56272,44346.21,47462.49,7279.85,7814.70,8250.79,8809.51,-0.317829,-0.312265,-1.368794,-1.364906,nan,nan,0
35399,0,52595,56275,44362.71,47480.12,7279.85,7814.70,8232.29,8794.88,-0.318201,-0.312636,-1.367701,-1.363820,nan,nan,0
35438,0,52585,56262,44379.16,47497.68,7279.85,7814.70,8205.84,8764.32,-0.318571,-0.313006,-1.366609,-1.362735,nan,nan,0
35478,0,52582,56263,44395.56,47515.21,7279.85,7814.70,8186.44,8747.79,-0.318941,-0.313375,-1.365517,-1.361651,nan,nan,0
35518,0,52585,56271,44411.94,47532.73,7279.85,7814.70,8173.06,8738.27,-0.319310,-0.313743,-1.364428,-1.360568,nan,nan,0
35560,0,52584,56265,44428.29,47550.19,7279.85,7814.70,8155.71,8714.81,-0.319678,-0.314111,-1.363339,-1.359487,nan,nan,0
35598,0,52578,56273,44444.59,47567.64,7279.85,7814.70,8133.41,8705.36,-0.320045,-0.314477,-1.362252,-1.358407,nan,nan,0
35638,0,52583,56284,44460.86,47585.07,7279.85,7814.70,8122.14,8698.93,-0.320411,-0.314844,-1.361166,-1.357329,nan,nan,0
35679,0,52582,56292,44477.11,47602.48,7279.85,7814.70,8104.89,8689.52,-0.320776,-0.315210,-1.360081,-1.356252,nan,nan,0
35720,0,52581,56305,44493.31,47619.89,7279.85,7814.70,8087.69,8685.11,-0.321140,-0.315575,-1.358998,-1.355177,nan,nan,0
35758,0,52583,56313,44509.49,47637.28,7279.85,7814.70,8073.51,8675.72,-0.321504,-0.315940,-1.357916,-1.354104,nan,nan,0
35800,0,52585,56321,44525.64,47654.64,7279.85,7814.70,8059.36,8666.36,-0.321867,-0.316305,-1.356835,-1.353032,nan,nan,0
35838,0,52590,56333,44541.77,47672.00,7279.85,7814.70,8048.23,8661.00,-0.322229,-0.316669,-1.355755,-1.351962,nan,nan,0
35880,0,52589,56339,44557.87,47689.34,7279.85,7814.70,8031.13,8649.66,-0.322590,-0.317033,-1.354677,-1.350893,nan,nan,0
35919,0,52584,56343,44573.92,47706.65,7279.85,7814.70,8010.08,8636.35,-0.322950,-0.317395,-1.353600,-1.349826,nan,nan,0
35959,0,52582,56364,44589.94,47723.96,7279.85,7814.70,7992.06,8640.04,-0.323310,-0.317758,-1.352524,-1.348761,nan,nan,0
35999,0,52586,56360,44605.93,47741.24,7279.85,7814.70,7980.07,8618.76,-0.323668,-0.318120,-1.351449,-1.347697,nan,nan,0
36039,0,52570,56286,44621.86,47758.33,7279.85,7814.70,7948.14,8527.67,-0.324025,-0.318478,-1.350375,-1.346631,nan,nan,0
36078,0,52540,56240,44637.70,47775.29,7279.85,7814.70,7902.30,8464.71,-0.324380,-0.318833,-1.349301,-1.345564,nan,nan,0
36119,0,52535,56240,44653.49,47792.22,7279.85,7814.70,7881.51,8447.78,-0.324734,-0.319188,-1.348228,-1.344499,nan,nan,0
36159,0,52537,56242,44669.26,47809.12,7279.85,7814.70,7867.74,8432.87,-0.325087,-0.319541,-1.347156,-1.343435,nan,nan,0
36200,0,52535,56238,44685.00,47825.98,7279.85,7814.70,7850.00,8412.02,-0.325439,-0.319894,-1.346085,-1.342371,nan,nan,0
36238,0,52530,56233,44700.69,47842.80,7279.85,7814.70,7829.31,8390.20,-0.325790,-0.320245,-1.345015,-1.341309,nan,nan,0
36280,0,52526,56240,44716.34,47859.60,7279.85,7814.70,7809.66,8380.40,-0.326141,-0.320596,-1.343947,-1.340249,nan,nan,0
36319,0,52522,56235,44731.95,47876.35,7279.85,7814.70,7790.05,8358.65,-0.326490,-0.320946,-1.342879,-1.339189,nan,nan,0
36357,0,52522,56235,44747.54,47893.07,7279.85,7814.70,7774.46,8341.93,-0.326838,-0.321296,-1.341813,-1.338130,nan,nan,0
36399,0,52524,56242,44763.09,47909.77,7279.85,7814.70,7760.91,8332.23,-0.327185,-0.321644,-1.340748,-1.337073,nan,nan,0
36437,0,52527,56249,44778.62,47926.45,7279.85,7814.70,7748.38,8322.55,-0.327532,-0.321992,-1.339684,-1.336018,nan,nan,0
36476,0,52520,56257,44794.10,47943.11,7279.85,7814.70,7725.90,8313.89,-0.327878,-0.322340,-1.338621,-1.334964,nan,nan,0
36518,0,52524,56266,44809.56,47959.76,7279.85,7814.70,7714.44,8306.24,-0.328223,-0.322687,-1.337560,-1.333912,nan,nan,0
36559,0,52523,56275,44824.99,47976.39,7279.85,7814.70,7698.01,8298.61,-0.328567,-0.323034,-1.336499,-1.332861,nan,nan,0
36599,0,52522,56278,44840.39,47993.00,7279.85,7814.70,7681.61,8285.00,-0.328911,-0.323380,-1.335440,-1.331811,nan,nan,0
36640,0,52523,56284,44855.75,48009.58,7279.85,7814.70,7667.25,8274.42,-0.329253,-0.323725,-1.334382,-1.330763,nan,nan,0
36679,0,52526,56289,44871.09,48026.14,7279.85,7814.70,7654.91,8262.86,-0.329595,-0.324070,-1.333326,-1.329716,nan,nan,0
36720,0,52524,56306,44886.40,48042.70,7279.85,7814.70,7637.60,8263.30,-0.329936,-0.324415,-1.332271,-1.328671,nan,nan,0
36760,0,52528,56322,44901.69,48059.26,7279.85,7814.70,7626.31,8262.74,-0.330277,-0.324760,-1.331216,-1.327628,nan,nan,0
36799,0,52523,56298,44916.93,48075.74,7279.85,7814.70,7606.07,8222.26,-0.330616,-0.325102,-1.330163,-1.326586,nan,nan,0
36839,0,52494,56224,44932.09,48092.04,7279.85,7814.70,7561.91,8131.96,-0.330954,-0.325441,-1.329110,-1.325541,nan,nan,0
36880,0,52472,56209,44947.17,48108.27,7279.85,7814.70,7524.83,8100.73,-0.331289,-0.325779,-1.328057,-1.324496,nan,nan,0
36921,0,52474,56218,44962.22,48124.49,7279.85,7814.70,7511.78,8093.51,-0.331624,-0.326116,-1.327006,-1.323454,nan,nan,0
36960,0,52476,56229,44977.25,48140.70,7279.85,7814.70,7498.75,8088.30,-0.331958,-0.326453,-1.325955,-1.322413,nan,nan,0
37000,0,52477,56237,44992.25,48156.90,7279.85,7814.70,7484.75,8080.10,-0.332292,-0.326789,-1.324906,-1.321373,nan,nan,0
37041,0,52478,56250,45007.22,48173.09,7279.85,7814.70,7470.78,8076.91,-0.332624,-0.327125,-1.323858,-1.320335,nan,nan,0
37079,0,52486,56258,45022.18,48189.26,7279.85,7814.70,7463.82,8068.74,-0.332957,-0.327461,-1.322812,-1.319299,nan,nan,0
37120,0,52487,56270,45037.11,48205.42,7279.85,7814.70,7449.89,8064.58,-0.333288,-0.327796,-1.321767,-1.318264,nan,nan,0
37159,0,52489,56276,45052.02,48221.56,7279.85,7814.70,7436.98,8054.44,-0.333619,-0.328131,-1.320723,-1.317231,nan,nan,0
37200,0,52494,56289,45066.90,48237.70,7279.85,7814.70,7427.10,8051.30,-0.333950,-0.328466,-1.319681,-1.316199,nan,nan,0
37239,0,52496,56309,45081.76,48253.84,7279.85,7814.70,7414.24,8055.16,-0.334279,-0.328800,-1.318640,-1.315170,nan,nan,0
37280,0,52501,56328,45096.60,48269.99,7279.85,7814.70,7404.40,8058.01,-0.334608,-0.329135,-1.317600,-1.314142,nan,nan,0
37320,0,52507,56345,45111.42,48286.14,7279.85,7814.70,7395.58,8058.86,-0.334937,-0.329469,-1.316562,-1.313116,nan,nan,0
37360,0,52510,56356,45126.22,48302.29,7279.85,7814.70,7383.78,8053.71,-0.335265,-0.329804,-1.315525,-1.312092,nan,nan,0
37404,0,52514,56367,45141.00,48318.41,7279.85,7814.70,7373.00,8048.59,-0.335592,-0.330137,-1.314489,-1.311069,nan,nan,0
37440,0,52521,56378,45155.76,48334.54,7279.85,7814.70,7365.24,8043.46,-0.335919,-0.330471,-1.313455,-1.310048,nan,nan,0
37479,0,52523,56400,45170.49,48350.67,7279.85,7814.70,7352.51,8049.33,-0.336246,-0.330805,-1.312422,-1.309029,nan,nan,0
37520,0,52525,56398,45185.20,48366.77,7279.85,7814.70,7339.80,8031.23,-0.336571,-0.331138,-1.311391,-1.308010,nan,nan,0
37560,0,52515,56347,45199.86,48382.73,7279.85,7814.70,7315.14,7964.27,-0.336896,-0.331468,-1.310360,-1.306991,nan,nan,0
37600,0,52490,56328,45214.45,48398.62,7279.85,7814.70,7275.55,7929.38,-0.337218,-0.331796,-1.309329,-1.305972,nan,nan,0
37641,0,52490,56342,45229.00,48414.50,7279.85,7814.70,7261.00,7927.50,-0.337540,-0.332124,-1.308299,-1.304955,nan,nan,0
37681,0,52497,56357,45243.54,48430.39,7279.85,7814.70,7253.46,7926.61,-0.337861,-0.332452,-1.307271,-1.303940,nan,nan,0
37720,0,52498,56362,45258.05,48446.25,7279.85,7814.70,7239.95,7915.75,-0.338182,-0.332780,-1.306244,-1.302926,nan,nan,0
37761,0,52506,56384,45272.54,48462.13,7279.85,7814.70,7233.46,7921.87,-0.338502,-0.333107,-1.305219,-1.301914,nan,nan,0
37800,0,52510,56391,45287.02,48477.99,7279.85,7814.70,7222.98,7913.01,-0.338822,-0.333435,-1.304194,-1.300903,nan,nan,0
37841,0,52509,56408,45301.46,48493.85,7279.85,7814.70,7207.54,7914.15,-0.339141,-0.333762,-1.303171,-1.299894,nan,nan,0
37881,0,52513,56420,45315.89,48509.70,7279.85,7814.70,7197.11,7910.30,-0.339459,-0.334089,-1.302150,-1.298887,nan,nan,0
37921,0,52518,56440,45330.30,48525.57,7279.85,7814.70,7187.70,7914.43,-0.339777,-0.334416,-1.301129,-1.297882,nan,nan,0
37960,0,52526,56456,45344.69,48541.43,7279.85,7814.70,7181.31,7914.57,-0.340095,-0.334742,-1.300110,-1.296878,nan,nan,0
38002,0,52531,56470,45359.06,48557.29,7279.85,7814.70,7171.94,7912.71,-0.340412,-0.335069,-1.299093,-1.295876,nan,nan,0
38040,0,52537,56485,45373.42,48573.14,7279.85,7814.70,7163.58,7911.86,-0.340728,-0.335396,-1.298077,-1.294876,nan,nan,0
38082,0,52534,56503,45387.74,48589.00,7279.85,7814.70,7146.26,7914.00,-0.341044,-0.335722,-1.297061,-1.293877,nan,nan,0
38120,0,52537,56512,45402.04,48604.85,7279.85,7814.70,7134.96,7907.15,-0.341359,-0.336048,-1.296047,-1.292880,nan,nan,0
38161,0,52539,56525,45416.32,48620.69,7279.85,7814.70,7122.68,7904.31,-0.341673,-0.336374,-1.295035,-1.291885,nan,nan,0
38201,0,52543,56536,45430.57,48636.52,7279.85,7814.70,7112.43,7899.48,-0.341987,-0.336699,-1.294023,-1.290891,nan,nan,0
38241,0,52547,56542,45444.80,48652.34,7279.85,7814.70,7102.20,7889.66,-0.342300,-0.337025,-1.293013,-1.289898,nan,nan,0
38281,0,52537,56482,45458.99,48668.00,7279.85,7814.70,7078.01,7814.00,-0.342612,-0.337346,-1.292004,-1.288904,nan,nan,0
38321,0,52511,56443,45473.10,48683.55,7279.85,7814.70,7037.90,7759.45,-0.342922,-0.337666,-1.290994,-1.287910,nan,nan,0
38361,0,52500,56448,45487.15,48699.08,7279.85,7814.70,7012.85,7748.92,-0.343231,-0.337985,-1.289985,-1.286916,nan,nan,0
38400,0,52500,56422,45501.18,48714.52,7279.85,7814.70,6998.82,7707.48,-0.343540,-0.338302,-1.288978,-1.285923,nan,nan,0
38441,0,52471,56393,45515.12,48729.88,7279.85,7814.70,6955.88,7663.12,-0.343846,-0.338617,-1.287970,-1.284929,nan,nan,0
38481,0,52456,56383,45529.00,48745.19,7279.85,7814.70,6927.00,7637.81,-0.344151,-0.338931,-1.286962,-1.283937,nan,nan,0
38520,0,52457,56389,45542.86,48760.48,7279.85,7814.70,6914.14,7628.52,-0.344455,-0.339245,-1.285956,-1.282945,nan,nan,0
38560,0,52456,56381,45556.69,48775.72,7279.85,7814.70,6899.31,7605.28,-0.344759,-0.339557,-1.284951,-1.281954,nan,nan,0
38601,0,52448,56377,45570.47,48790.93,7279.85,7814.70,6877.53,7586.07,-0.345062,-0.339869,-1.283947,-1.280964,nan,nan,0
38640,0,52448,56381,45584.23,48806.11,7279.85,7814.70,6863.77,7574.89,-0.345363,-0.340180,-1.282943,-1.279976,nan,nan,0
38681,0,52443,56390,45597.95,48821.27,7279.85,7814.70,6845.05,7568.73,-0.345664,-0.340491,-1.281941,-1.278988,nan,nan,0
38721,0,52445,56397,45611.64,48836.43,7279.85,7814.70,6833.36,7560.57,-0.345965,-0.340801,-1.280940,-1.278003,nan,nan,0
38762,0,52442,56396,45625.30,48851.55,7279.85,7814.70,6816.70,7544.45,-0.346264,-0.341111,-1.279940,-1.277018,nan,nan,0
38802,0,52441,56401,45638.94,48866.65,7279.85,7814.70,6802.06,7534.35,-0.346563,-0.341420,-1.278941,-1.276034,nan,nan,0
38843,0,52440,56406,45652.54,48881.73,7279.85,7814.70,6787.46,7524.27,-0.346861,-0.341728,-1.277942,-1.275052,nan,nan,0
38881,0,52443,56407,45666.12,48896.78,7279.85,7814.70,6776.88,7510.22,-0.347158,-0.342036,-1.276946,-1.274070,nan,nan,0
38922,0,52433,56418,45679.66,48911.82,7279.85,7814.70,6753.34,7506.18,-0.347455,-0.342344,-1.275949,-1.273091,nan,nan,0
38961,0,52432,56428,45693.16,48926.86,7279.85,7814.70,6738.84,7501.14,-0.347750,-0.342651,-1.274954,-1.272112,nan,nan,0
39002,0,52431,56424,45706.64,48941.85,7279.85,7814.70,6724.36,7482.15,-0.348045,-0.342958,-1.273960,-1.271135,nan,nan,0
39042,0,52420,56365,45720.07,48956.70,7279.85,7814.70,6699.93,7408.30,-0.348339,-0.343261,-1.272967,-1.270156,nan,nan,0
39083,0,52384,56312,45733.40,48971.41,7279.85,7814.70,6650.60,7340.59,-0.348630,-0.343561,-1.271973,-1.269176,nan,nan,0
39122,0,52378,56305,45746.69,48986.08,7279.85,7814.70,6631.31,7318.92,-0.348921,-0.343861,-1.270980,-1.268197,nan,nan,0
39162,0,52372,56307,45759.94,49000.72,7279.85,7814.70,6612.06,7306.28,-0.349211,-0.344160,-1.269988,-1.267219,nan,nan,0
39202,0,52366,56301,45773.15,49015.32,7279.85,7814.70,6592.85,7285.68,-0.349499,-0.344458,-1.268996,-1.266242,nan,nan,0
39242,0,52363,56294,45786.33,49029.88,7279.85,7814.70,6576.67,7264.12,-0.349787,-0.344755,-1.268006,-1.265265,nan,nan,0
39281,0,52362,56302,45799.48,49044.43,7279.85,7814.70,6562.52,7257.57,-0.350074,-0.345051,-1.267017,-1.264290,nan,nan,0
39322,0,52362,56302,45812.61,49058.95,7279.85,7814.70,6549.39,7243.05,-0.350361,-0.345347,-1.266028,-1.263316,nan,nan,0
39361,0,52366,56306,45825.72,49073.44,7279.85,7814.70,6540.28,7232.56,-0.350647,-0.345643,-1.265041,-1.262343,nan,nan,0
39406,0,52368,56309,45838.80,49087.91,7279.85,7814.70,6529.20,7221.09,-0.350933,-0.345938,-1.264056,-1.261372,nan,nan,0
39442,0,52367,56316,45851.86,49102.37,7279.85,7814.70,6515.14,7213.63,-0.351217,-0.346232,-1.263071,-1.260401,nan,nan,0
39482,0,52362,56323,45864.88,49116.81,7279.85,7814.70,6497.12,7206.19,-0.351501,-0.346526,-1.262087,-1.259432,nan,nan,0
39521,0,52363,56327,45877.88,49131.23,7279.85,7814.70,6485.12,7195.77,-0.351785,-0.346820,-1.261104,-1.258464,nan,nan,0
39559,0,52362,56325,45890.85,49145.62,7279.85,7814.70,6471.15,7179.38,-0.352067,-0.347113,-1.260123,-1.257498,nan,nan,0
39598,0,52356,56320,45903.78,49159.98,7279.85,7814.70,6452.22,7160.02,-0.352349,-0.347405,-1.259142,-1.256532,nan,nan,0
39638,0,52352,56316,45916.68,49174.29,7279.85,7814.70,6435.32,7141.71,-0.352630,-0.347696,-1.258162,-1.255566,nan,nan,0
39682,0,52348,56328,45929.54,49188.60,7279.85,7814.70,6418.46,7139.40,-0.352910,-0.347987,-1.257183,-1.254603,nan,nan,0
39719,0,52349,56332,45942.38,49202.89,7279.85,7814.70,6406.62,7129.11,-0.353190,-0.348277,-1.256205,-1.253640,nan,nan,0
39762,0,52353,56345,45955.20,49217.17,7279.85,7814.70,6397.80,7127.83,-0.353469,-0.348567,-1.255228,-1.252679,nan,nan,0
39802,0,52353,56353,45968.00,49231.45,7279.85,7814.70,6385.00,7121.55,-0.353747,-0.348857,-1.254253,-1.251720,nan,nan,0
39842,0,52351,56315,45980.77,49245.61,7279.85,7814.70,6370.23,7069.39,-0.354025,-0.349145,-1.253278,-1.250760,nan,nan,0
39882,0,52322,56246,45993.45,49259.62,7279.85,7814.70,6328.55,6986.38,-0.354300,-0.349429,-1.252303,-1.249798,nan,nan,0
39924,0,52303,56238,46006.07,49273.57,7279.85,7814.70,6296.93,6964.43,-0.354575,-0.349713,-1.251329,-1.248837,nan,nan,0
39963,0,52299,56241,46018.66,49287.51,7279.85,7814.70,6280.34,6953.49,-0.354848,-0.349995,-1.250355,-1.247877,nan,nan,0
40003,0,52302,56247,46031.22,49301.43,7279.85,7814.70,6270.78,6945.57,-0.355121,-0.350278,-1.249383,-1.246918,nan,nan,0
40042,0,52294,56227,46043.75,49315.29,7279.85,7814.70,6250.25,6911.71,-0.355394,-0.350559,-1.248411,-1.245959,nan,nan,0
40083,0,52288,56221,46056.24,49329.10,7279.85,7814.70,6231.76,6891.90,-0.355665,-0.350839,-1.247440,-1.245001,nan,nan,0
