45852,216707,244108,216587,243601
45892,216739,244193,216590,243613
45931,216768,244254,216593,243626
45972,216762,244326,216597,243640
46012,216777,244389,216600,243655
46052,216590,244257,216600,243667
46092,216454,243783,216597,243669
46132,216466,243617,216595,243668
46172,216464,243640,216592,243667
46212,216471,243664,216590,243667
46253,216472,243691,216587,243668
46291,216504,243749,216586,243669
46331,216517,243750,216584,243671
46372,216527,243763,216583,243673
46411,216548,243811,216582,243676
46451,216561,243879,216582,243680
46490,216592,243970,216582,243685
46531,216630,244027,216583,243692
46571,216648,244093,216584,243700
46610,216659,244171,216586,243710
46651,216678,244235,216588,243720
46691,216534,244191,216587,243730
46731,216370,243654,216582,243728
46771,216310,243353,216577,243721
46811,216304,243324,216571,243713
46851,216277,243308,216565,243705
46891,216289,243285,216560,243696
46931,216309,243337,216555,243689
46970,216310,243379,216550,243683
47010,216306,243396,216545,243677
47051,216343,243451,216541,243672
47090,216387,243546,216538,243670
47130,216446,243619,216536,243669
47171,216456,243713,216534,243670
47210,216493,243805,216534,243672
47250,216509,243877,216533,243677
47291,216551,243985,216533,243683
47330,216565,244066,216534,243690
47370,216347,243785,216530,243692
47410,216226,243292,216524,243684
47450,216198,243149,216518,243674
47490,216201,243157,216511,243663
47529,216210,243126,216505,243652
47569,216209,243115,216499,243642
47610,216208,243186,216494,243633
47649,216227,243222,216488,243624
47689,216267,243276,216484,243617
47730,216313,243342,216480,243612
47769,216344,243421,216478,243608
47809,216376,243528,216476,243606
47850,216414,243640,216474,243607
47889,216444,243739,216474,243610
47929,216485,243785,216474,243613
47970,216503,243852,216475,243618
48009,216516,243933,216475,243624
48049,216307,243709,216472,243626
48090,216165,243188,216466,243617
48129,216173,242984,216460,243604
48168,216181,242996,216454,243592
48208,216181,243007,216449,243581
48248,216174,243000,216443,243569
48289,216194,243045,216438,243558
48328,216216,243050,216434,243548
48368,216215,243048,216430,243538
48409,216239,243100,216426,243530
48448,216245,243154,216422,243522
48488,216284,243236,216419,243516
48529,216318,243299,216417,243512
48568,216328,243373,216415,243509
48608,216359,243481,216414,243509
48649,216380,243564,216414,243510
48688,216411,243658,216414,243513
48728,216234,243443,216410,243511
48769,216089,242926,216404,243499
48807,216089,242775,216397,243485
48847,216102,242809,216391,243471
48888,216108,242831,216386,243459
48927,216155,242871,216381,243447
48968,216175,242945,216377,243437
49007,216189,242986,216373,243428
49047,216222,243042,216370,243420
49088,216280,243154,216368,243415
49127,216340,243277,216368,243412
49167,216376,243364,216368,243411
49208,216414,243486,216369,243412
49247,216438,243568,216370,243416
49287,216495,243661,216373,243420
49328,216550,243762,216376,243427
49367,216570,243852,216380,243436
49406,216375,243714,216380,243441
49447,216214,243142,216377,243435
49486,216205,242954,216373,243426
49526,216239,242986,216370,243417
49567,216243,243005,216368,243409
49606,216275,243058,216366,243402
49646,216306,243154,216365,243397
49687,216341,243197,216364,243393
49726,216418,243256,216365,243390
49767,216468,243364,216367,243389
49807,216556,243524,216371,243392
49846,216644,243678,216377,243398
49887,216737,243854,216384,243407
49927,216835,244003,216393,243419
49966,216882,244141,216403,243433
50007,216957,244291,216414,243450
50045,217013,244452,216426,243470
50085,216825,244358,216434,243488
50126,216657,243680,216438,243492
50165,216649,243461,216442,243491
50205,216670,243541,216447,243492
50246,216666,243596,216451,243494
50285,216696,243635,216456,243497
50325,216740,243748,216462,243502
50366,216750,243776,216468,243508
50405,216785,243833,216474,243514
50446,216833,243941,216481,243523
50486,216896,244057,216489,243533
50525,216963,244175,216499,243546
50566,216975,244274,216508,243561
50606,217000,244379,216518,243577
50644,217016,244456,216528,243595
50685,217063,244535,216539,243613
50725,217082,244651,216550,243634
50764,216751,244156,216554,243645
50805,216635,243614,216555,243644
50845,216648,243589,216557,243643
50884,216671,243674,216559,243643
50925,216700,243739,216562,243645
50965,216713,243820,216565,243649
51004,216724,243876,216568,243653
51045,216742,243886,216572,243658
51084,216765,243952,216576,243664
51125,216831,244035,216581,243671
51165,216832,244119,216586,243680
51204,216827,244197,216591,243691
51245,216857,244281,216596,243702
51284,216859,244333,216601,243715
51323,216863,244372,216606,243728
51364,216835,244423,216611,243742
51404,216570,244063,216610,243748
51443,216434,243538,216607,243744
51484,216465,243424,216604,243738
51524,216507,243480,216602,243733
51563,216493,243495,216600,243728
51604,216506,243537,216598,243724
51644,216522,243608,216596,243722
51683,216526,243607,216595,243719
51724,216570,243636,216594,243718
51764,216592,243701,216594,243717
51804,216619,243805,216595,243719
51844,216685,243912,216597,243723
51883,216742,243999,216599,243728
51923,216785,244102,216603,243736
51963,216818,244182,216607,243745
52002,216832,244282,216612,243756
52043,216659,244140,216613,243763
52083,216486,243561,216610,243759
52122,216461,243338,216607,243751
52163,216463,243326,216604,243742
52203,216409,243307,216600,243734
52242,216418,243302,216597,243725
52283,216445,243367,216594,243718
52323,216463,243424,216591,243712
52363,216476,243444,216589,243706
52403,216514,243526,216587,243703
52443,216567,243620,216587,243701
52483,216604,243719,216587,243702
52523,216653,243818,216589,243704
52563,216705,243920,216591,243708
52602,216726,244015,216594,243714
52642,216779,244127,216597,243723
52683,216767,244190,216601,243732
52722,216523,243806,216599,243733
52762,216391,243332,216595,243725
52803,216355,243213,216590,243715
52842,216345,243201,216585,243705
52882,216349,243146,216580,243694
52921,216357,243145,216576,243683
52962,216383,243215,216572,243673
53002,216391,243270,216568,243665
53042,216417,243321,216565,243658
53082,216465,243379,216563,243653
53122,216500,243487,216562,243649
53161,216551,243593,216562,243648
53201,216586,243726,216562,243650
53242,216635,243841,216564,243654
53281,216671,243932,216566,243659
53321,216716,244024,216569,243666
53362,216719,244136,216572,243676
53401,216477,243780,216570,243678
53441,216388,243365,216566,243672
53482,216422,243302,216563,243664
53521,216438,243358,216561,243658
53561,216448,243372,216559,243652
53602,216486,243459,216557,243648
53641,216498,243563,216556,243647
53681,216534,243585,216556,243645
53721,216555,243641,216556,243645
53761,216591,243716,216556,243647
53800,216599,243815,216557,243650
53840,216632,243906,216559,243655
53880,216655,243984,216561,243662
53921,216659,244054,216562,243670
53960,216678,244124,216565,243679
54000,216701,244210,216567,243689
54041,216560,244179,216567,243699
54080,216372,243593,216563,243697
54120,216316,243341,216558,243690
54161,216324,243331,216554,243683
54200,216305,243355,216549,243676
54240,216311,243360,216544,243670
54281,216337,243411,216540,243665
54320,216303,243418,216535,243660
54360,216304,243408,216530,243655
54401,216332,243455,216526,243651
54439,216373,243543,216523,243648
54479,216406,243608,216521,243648
54519,216431,243678,216519,243648
54559,216439,243739,216518,243650
54600,216451,243806,216516,243653
54639,216491,243891,216516,243658
54679,216513,243948,216516,243664
54720,216292,243678,216511,243664
54759,216143,243186,216504,243654
54799,216104,243036,216496,243642
54840,216103,243040,216488,243630
54879,216092,242982,216480,243617
54919,216103,242974,216473,243604
54960,216123,243041,216466,243593
54999,216094,243073,216458,243582
55038,216125,243126,216451,243573
55079,216157,243176,216446,243565
55118,216191,243240,216440,243559
55159,216234,243349,216436,243555
55199,216276,243457,216433,243553
55238,216333,243562,216431,243553
55279,216385,243629,216430,243554
55318,216415,243711,216430,243558
55358,216445,243816,216430,243563
55399,216334,243805,216428,243568
55438,216149,243301,216423,243562
55478,216091,242963,216416,243550
55519,216077,242899,216409,243537
55558,216075,242900,216402,243524
55598,216076,242911,216396,243512
55639,216093,242961,216390,243501
55677,216115,243022,216384,243491
55717,216126,243038,216379,243482
55758,216152,243092,216375,243475
55797,216182,243167,216371,243468
55838,216222,243246,216368,243464
55878,216277,243295,216366,243461
55917,216283,243315,216364,243458
55958,216320,243353,216363,243456
55998,216355,243418,216363,243455
56037,216469,243508,216365,243456
56078,216615,243656,216370,243460
56118,216561,243602,216374,243463
56157,216454,243186,216376,243457
56198,216441,242939,216377,243447
56237,216471,242906,216379,243436
56276,216469,242825,216381,243424
56317,216508,242753,216383,243410
56356,216547,242841,216386,243399
56396,216510,242803,216389,243387
56437,216500,242782,216391,243375
56476,216499,242788,216393,243363
56517,216482,242795,216395,243352
56557,216465,242832,216396,243341
56596,216485,242889,216398,243332
56637,216507,242967,216400,243325
56677,216539,243033,216403,243319
56716,216566,243054,216406,243314
56757,216623,243189,216411,243311
56797,216532,243247,216413,243310
56836,216364,242837,216412,243301
56877,216325,242598,216410,243286
56916,216306,242617,216408,243273
56955,216262,242632,216405,243260
56996,216224,242595,216402,243247
57036,216179,242610,216397,243234
57075,216063,242500,216391,243219
57116,216041,242445,216384,243204
57155,216042,242489,216377,243190
57196,215974,242517,216369,243176
57236,215868,242576,216359,243164
57275,215799,242572,216347,243152
57316,215719,242540,216335,243140
57356,215667,242521,216322,243128
57395,215707,242495,216309,243115
57436,215784,242602,216299,243105
57476,215735,242435,216287,243091
57515,215765,242177,216277,243073
57555,215802,242210,216267,243056
57595,215813,242297,216258,243041
57635,215778,242310,216249,243026
57675,215761,242313,216239,243012
57714,215706,242287,216228,242997
57755,215668,242225,216217,242982
57795,215674,242220,216206,242966
57834,215751,242277,216197,242953
57875,215868,242396,216191,242942
57915,215911,242530,216185,242933
57954,215883,242550,216179,242926
57995,215922,242588,216174,242919
58035,215956,242650,216169,242913
58074,215772,242606,216161,242907
58115,215486,242186,216148,242893
58155,215382,241631,216133,242868
58193,215457,241392,216119,242838
58234,215515,241337,216107,242808
58274,215460,241227,216094,242776
58314,215462,241111,216081,242743
58354,215609,241214,216072,242713
58393,215747,241332,216065,242685
58434,215796,241384,216060,242659
58474,215831,241464,216055,242635
58513,215781,241537,216050,242613
58554,215702,241540,216043,242592
58594,215648,241526,216035,242570
58633,215641,241520,216027,242549
58674,215662,241537,216020,242529
58714,215559,241473,216011,242508
58753,215327,240976,215997,242477
58793,215206,240481,215981,242437
58833,215180,240231,215965,242393
58872,215183,240122,215949,242348
58913,215167,240018,215934,242301
58953,215143,240015,215918,242255
58993,215098,240016,215902,242211
59033,215033,239959,215884,242166
59073,215006,239912,215867,242120
59113,215046,239952,215850,242077
59153,215114,240062,215835,242037
59194,215131,240129,215821,241999
59233,215091,240104,215807,241961
59273,215083,240072,215792,241923
59312,214894,239883,215774,241882
59353,214494,239054,215749,241825
59393,214158,238123,215717,241751
59431,213874,237412,215680,241665
59472,213603,236817,215638,241568
59512,213386,236223,215593,241461
59551,213281,235856,215547,241349
59592,213261,235682,215501,241235
59632,213271,235555,215457,241122
59672,213325,235553,215414,241010
59712,213413,235661,215374,240903
59752,213490,235836,215336,240802
59792,213622,236063,215302,240707
59832,213733,236290,215271,240619
59873,213832,236455,215242,240536
59912,213842,236537,215214,240456
59952,213753,236177,215185,240370
59993,213838,235870,215158,240280
60032,214085,236003,215136,240194
60071,214337,236301,215120,240117
60112,214536,236564,215109,240045
60151,214726,236917,215101,239983
60191,214862,237237,215096,239928
60230,215069,237451,215096,239878
60271,215318,237881,215100,239838
60311,215464,238253,215107,239807
60351,215587,238586,215117,239782
60391,215743,238905,215129,239765
60431,215885,239222,215144,239754
60471,216005,239512,215162,239749
60511,216078,239760,215180,239749
60552,215985,239711,215196,239748
60591,215963,239425,215211,239742
60631,215986,239322,215227,239734
60672,216039,239368,215243,239726
60710,216086,239418,215260,239720
60750,216174,239567,215278,239717
60791,216261,239791,215298,239718
60830,216396,239982,215320,239724
60870,216545,240228,215344,239734
60911,216580,240419,215369,239748
60950,216586,240553,215393,239764
60990,216685,240711,215419,239783
61031,216756,240875,215446,239804
61070,216788,240996,215473,239828
61110,216823,241113,215500,239854
61150,216781,241166,215525,239880
61190,216693,240865,215549,239900
61231,216647,240647,215571,239915
61270,216650,240614,215592,239929
61309,216679,240616,215614,239942
61350,216692,240687,215636,239957
61389,216748,240796,215658,239974
61429,216788,240899,215680,239993
61470,216844,240973,215704,240012
61509,216879,241086,215727,240034
61549,216909,241217,215751,240057
61590,216959,241347,215775,240083
61629,217010,241459,215800,240111
61669,217074,241586,215825,240140
61710,217115,241733,215851,240172
61749,217140,241870,215877,240206
61789,217054,241828,215900,240238
61830,216976,241493,215922,240263
61869,216959,241372,215942,240286
61910,216973,241373,215963,240307
61949,216999,241423,215984,240330
61988,217039,241503,216005,240353
62029,217051,241557,216026,240377
62068,217068,241610,216047,240402
62108,217121,241674,216068,240427
62149,217175,241798,216090,240455
62188,217244,241931,216113,240484
62228,217296,242060,216137,240516
62269,217325,242163,216161,240549
62308,217345,242223,216184,240582
62348,217360,242339,216208,240617
62389,217399,242443,216232,240654
62428,217321,242368,216253,240688
62468,217227,242047,216273,240715
62509,217238,241934,216292,240740
62547,217264,242000,216312,240765
62588,217262,242020,216331,240790
62628,217268,242043,216349,240815
62667,217290,242090,216368,240840
62708,217309,242138,216387,240866
62748,217338,242213,216406,240893
62787,217411,242325,216426,240922
62828,217466,242435,216447,240952
62868,217490,242533,216468,240984
62907,217549,242633,216489,241017
62948,217576,242743,216511,241051
62987,217588,242828,216533,241087
63027,217616,242886,216554,241123
63068,217529,242870,216574,241158
63107,217428,242510,216591,241185
63147,217433,242387,216608,241209
63187,217487,242469,216625,241234
63226,217523,242529,216643,241260
63267,217524,242562,216661,241286
63307,217530,242626,216678,241313
63346,217532,242668,216695,241340
63387,217562,242718,216712,241367
63427,217558,242771,216729,241395
63466,217578,242814,216746,241424
63507,217578,242873,216763,241453
63547,217522,242904,216778,241482
63586,217451,242893,216792,241510
63627,217399,242856,216804,241537
63667,217366,242863,216815,241563
63706,217258,242762,216824,241587
63747,217158,242434,216830,241604
63787,217169,242316,216837,241618
63825,217202,242362,216845,241633
63866,217227,242424,216852,241649
63905,217253,242480,216860,241666
63946,217271,242551,216868,241683
63986,217304,242603,216877,241702
64025,217329,242641,216886,241721
64066,217358,242706,216896,241740
64106,217387,242774,216905,241761
64145,217402,242859,216915,241783
64186,217433,242939,216926,241806
64226,217452,242995,216936,241830
64265,217448,243037,216946,241854
64306,217382,243021,216955,241877
64346,217244,242681,216961,241893
64385,217210,242463,216966,241905
64425,217186,242420,216970,241915
64465,217170,242413,216974,241925
64504,217163,242395,216978,241934
64545,217142,242428,216981,241944
64585,217149,242424,216985,241954
64625,217169,242426,216988,241963
64665,217173,242461,216992,241973
64704,217188,242490,216996,241983
64745,217185,242554,217000,241995
64785,217202,242593,217004,242007
64824,217200,242635,217008,242019
64865,217222,242691,217012,242033
64905,217189,242756,217015,242047
64944,217058,242454,217016,242055
64985,216977,242157,217015,242057
65025,216974,242069,217015,242058
65063,216971,242076,217014,242058
65104,216972,242044,217013,242058
65144,216963,242077,217012,242058
65183,216959,242114,217011,242059
65224,216958,242097,217010,242060
65264,216986,242144,217009,242062
65304,217026,242217,217010,242065
65344,217053,242307,217010,242070
65384,217082,242416,217012,242076
65424,217122,242471,217014,242084
65464,217132,242559,217016,242094
65505,217160,242650,217019,242105
65544,217023,242557,217019,242114
65584,216864,242067,217016,242113
65625,216816,241797,217012,242107
65664,216835,241782,217009,242100
65703,216845,241789,217005,242094
65742,216884,241845,217003,242089
65783,216908,241946,217001,242086
65823,216923,241990,216999,242084
65862,216935,242049,216998,242083
65903,216961,242110,216997,242084
65943,216969,242179,216997,242086
65983,217021,242254,216997,242089
66023,217057,242332,216998,242094
66063,217060,242411,217000,242100
66103,217065,242478,217001,242108
66143,217096,242582,217003,242117
66184,217020,242613,217003,242127
66223,216869,242184,217001,242128
66263,216796,241890,216996,242124
66304,216773,241825,216992,242118
66342,216752,241825,216987,242112
66382,216769,241808,216983,242106
66423,216782,241836,216979,242100
66462,216741,241841,216974,242095
66502,216721,241806,216969,242089
66543,216726,241857,216964,242085
66582,216785,241946,216960,242082
66622,216826,242027,216958,242081
66662,216851,242111,216956,242081
66702,216855,242186,216954,242083
66742,216849,242253,216951,242087
66782,216901,242345,216950,242092
66822,216893,242420,216949,242099
66863,216733,242100,216945,242099
66902,216668,241766,216939,242092
66941,216627,241694,216933,242084
66982,216617,241685,216927,242076
67021,216628,241645,216921,242067
67061,216641,241690,216915,242060
67102,216643,241732,216910,242053
67141,216657,241759,216905,242047
67181,216735,241864,216901,242044
67222,216795,241966,216899,242042
67261,216814,242060,216897,242042
67301,216845,242158,216896,242045
67342,216871,242242,216896,242049
67381,216912,242331,216896,242054
67421,216966,242436,216898,242062
67462,217006,242523,216900,242071
67501,216928,242526,216900,242080
67542,216782,242106,216898,242081
67580,216772,241916,216895,242077
67620,216800,241901,216893,242074
67661,216794,241903,216891,242070
67700,216804,241922,216890,242067
67740,216823,242003,216888,242066
67781,216852,242059,216888,242066
67820,216884,242083,216888,242066
67860,216912,242151,216888,242068
67901,216949,242244,216889,242072
67940,216990,242349,216891,242077
67980,217028,242458,216894,242085
68021,217083,242536,216898,242094
68060,217089,242594,216902,242104
68100,217109,242660,216906,242115
68141,217113,242763,216910,242128
68179,216990,242600,216911,242137
68220,216892,242203,216911,242139
68260,216892,242095,216911,242138
68299,216900,242178,216910,242138
68340,216883,242211,216910,242140
68380,216903,242264,216910,242142
68419,216924,242309,216910,242146
68460,216924,242317,216910,242149
68499,216945,242383,216911,242154
68539,216961,242450,216912,242160
68580,217005,242544,216914,242167
68619,217031,242614,216916,242176
68659,217038,242679,216919,242186
68700,217053,242745,216921,242197
68739,217052,242812,216924,242210
68779,217078,242875,216927,242223
68819,216959,242789,216928,242234
68858,216810,242319,216925,242236
68899,216754,242127,216922,242234
68939,216769,242144,216919,242232
68978,216767,242171,216916,242231
69019,216775,242166,216913,242230
69059,216779,242198,216910,242229
69098,216787,242236,216908,242229
69139,216809,242278,216906,242230
69179,216840,242336,216904,242232
69218,216880,242410,216904,242236
69259,216886,242452,216903,242240
69298,216897,242514,216903,242245
69338,216902,242571,216903,242252
69379,216904,242613,216903,242259
69417,216939,242650,216904,242267
69458,216885,242681,216904,242275
69498,216701,242300,216900,242276
69537,216578,241887,216893,242268
69578,216536,241713,216886,242257
69618,216537,241631,216879,242244
69657,216500,241533,216871,242230
69698,216496,241508,216864,242216
69738,216486,241527,216856,242202
69777,216502,241536,216849,242188
69818,216542,241557,216843,242176
69858,216584,241635,216838,242165
69897,216626,241748,216834,242157
69938,216666,241868,216830,242151
69978,216701,241963,216828,242147
70017,216758,242067,216826,242146
70057,216799,242169,216826,242146
70096,216845,242278,216826,242149
70137,216833,242377,216826,242153
70177,216648,242021,216823,242150
70216,216570,241603,216818,242140
70257,216551,241466,216812,242126
70297,216557,241456,216807,242113
70336,216560,241429,216802,242099
70377,216590,241440,216798,242086
70417,216648,241512,216795,242074
70456,216664,241567,216792,242064
70497,216708,241654,216791,242056
70537,216769,241768,216790,242050
70576,216823,241876,216791,242047
70617,216870,241990,216792,242046
70657,216891,242090,216794,242046
70695,216921,242195,216797,242049
70736,216988,242313,216801,242055
70776,217027,242421,216805,242062
70816,217075,242528,216811,242071
70856,216955,242510,216813,242080
70896,216773,242021,216813,242079
70936,216734,241699,216811,242071
70976,216731,241616,216809,242062
71015,216743,241606,216808,242053
71056,216733,241565,216807,242043
71096,216732,241597,216805,242034
71135,216724,241643,216803,242026
71176,216737,241633,216802,242019
71216,216801,241695,216802,242012
71255,216862,241788,216803,242008
71296,216898,241927,216805,242006
71335,216963,242075,216808,242007
71375,216966,242163,216811,242010
71415,216985,242224,216815,242015
71455,217007,242270,216819,242020
71495,217028,242381,216823,242027
71535,217114,242527,216829,242037
71576,217048,242545,216833,242047
71615,216932,242122,216835,242049
71655,216893,241896,216836,242046
71696,216914,241925,216838,242043
71735,216946,241998,216840,242042
71775,216951,241993,216842,242041
71814,216965,242068,216845,242042
71855,216977,242114,216847,242043
71895,217008,242167,216850,242046
71933,217071,242274,216855,242050
71974,217119,242382,216860,242057
72014,217152,242487,216866,242065
72054,217181,242577,216872,242076
72094,217203,242676,216879,242088
72134,217237,242773,216886,242101
72174,217276,242860,216894,242117
72214,217318,242970,216902,242134
72255,217376,243091,216912,242153
72294,217199,242937,216917,242168
72334,217104,242480,216921,242175
72375,217074,242293,216924,242177
72414,217078,242318,216927,242180
72454,217075,242286,216930,242182
72495,217057,242296,216933,242184
72534,217029,242300,216935,242187
72573,216987,242205,216936,242187
72614,216960,242153,216936,242186
72653,216942,242116,216936,242185
72693,216916,242123,216936,242184
72734,216942,242166,216936,242183
72773,216980,242249,216937,242184
72813,217009,242330,216938,242187
72853,217048,242431,216940,242192
72893,217076,242536,216943,242199
72934,217128,242659,216947,242208
72973,217034,242657,216949,242217
73013,216903,242213,216948,242217
73054,216865,241976,216946,242212
73093,216897,242024,216945,242209
73133,216908,242123,216944,242207
73174,216943,242164,216944,242206
73212,216962,242270,216945,242207
73252,216984,242287,216945,242209
73293,217022,242357,216947,242212
73332,217070,242470,216949,242217
73372,217123,242563,216953,242224
73413,217165,242691,216957,242233
73452,217197,242774,216962,242244
73492,217224,242877,216967,242257
73533,217260,242972,216973,242271
73572,217315,243043,216980,242286
73613,217276,243124,216986,242303
73653,217051,242717,216987,242311
73692,216925,242268,216986,242311
73733,216927,242157,216985,242307
73773,216965,242191,216984,242305
73811,216975,242220,216984,242303
73852,217022,242283,216985,242303
73891,217021,242325,216985,242303
73931,217012,242318,216986,242304
73972,217030,242324,216987,242304
74011,217046,242377,216988,242306
74051,217069,242445,216990,242308
74092,217088,242537,216992,242313
74131,217135,242643,216994,242319
74171,217179,242749,216998,242328
74212,217206,242857,217002,242339
74251,217273,242979,217008,242351
74292,217149,242935,217010,242363
74332,217008,242439,217010,242365
74371,216976,242230,217010,242362
74412,216987,242230,217009,242359
74451,216976,242243,217009,242357
74490,216965,242226,217008,242354
74531,217001,242311,217008,242353
74571,217038,242380,217008,242354
74610,217064,242437,217009,242356
74651,217080,242508,217011,242359
74691,217138,242614,217013,242364
74730,217195,242761,217017,242372
74771,217254,242881,217022,242382
74810,217297,242976,217027,242394
74851,217340,243088,217033,242408
74891,217387,243212,217040,242424
74930,217375,243317,217047,242441
74971,217261,242902,217051,242451
75011,217226,242596,217055,242454
75049,217298,242614,217060,242457
75090,217321,242678,217065,242461
75130,217292,242625,217069,242464
75169,217216,242556,217072,242466
75210,217096,242477,217073,242467
75250,217007,242358,217071,242464
75289,216929,242305,217069,242461
75330,216849,242283,217064,242458
75370,216817,242279,217059,242454
75409,216843,242349,217055,242452
75450,216886,242451,217052,242452
75490,216927,242571,217049,242454
75530,216992,242712,217048,242459
75570,217029,242831,217047,242467
75609,216884,242692,217044,242471
75650,216794,242268,217039,242467
75689,216765,242166,217034,242461
75728,216801,242232,217029,242457
75769,216809,242270,217025,242453
75809,216832,242324,217021,242450
75848,216870,242422,217018,242450
75889,216885,242490,217015,242450
75929,216926,242558,217013,242453
75968,216972,242632,217012,242456
76009,216986,242706,217012,242461
76049,217028,242785,217012,242468
76089,217052,242874,217013,242476
76129,217089,242968,217014,242486
76169,217094,243011,217016,242496
76209,217085,243052,217017,242507
76249,216989,243005,217017,242517
76290,216866,242598,217014,242519
76328,216848,242398,217011,242516
76368,216869,242408,217008,242514
76409,216843,242430,217004,242512
76448,216857,242433,217001,242511
76488,216868,242510,216999,242511
76527,216875,242530,216996,242511
76568,216890,242528,216994,242512
76608,216900,242580,216992,242513
76647,216937,242634,216991,242515
76688,216944,242708,216990,242519
76728,216975,242773,216990,242524
76768,217009,242828,216990,242530
76808,217009,242876,216991,242537
76849,217032,242926,216991,242545
76888,216944,242898,216990,242552
76928,216811,242530,216987,242552
76968,216778,242287,216983,242546
77007,216801,242274,216979,242541
77047,216836,242292,216976,242536
77088,216910,242357,216975,242532
77127,216979,242499,216975,242532
77167,217025,242552,216976,242532
77206,217048,242599,216977,242533
77247,217059,242661,216979,242536
77287,217050,242742,216980,242540
77327,217055,242806,216982,242545
77367,217059,242829,216983,242551
77408,217047,242858,216985,242557
77447,217038,242880,216986,242564
77487,217033,242930,216987,242571
77528,216972,242943,216986,242578
77566,216830,242552,216983,242578
77606,216734,242221,216978,242571
77647,216735,242112,216973,242561
77686,216709,242096,216968,242552
77726,216691,242019,216962,242541
77767,216697,241992,216957,242530
77806,216662,241991,216951,242520
77846,216655,241970,216945,242509
77887,216638,241936,216939,242497
77926,216624,241948,216933,242486
77966,216612,241930,216926,242475
78007,216581,241917,216920,242464
78046,216572,241901,216913,242453
78087,216564,241922,216906,242442
78126,216594,241981,216899,242433
78166,216642,242042,216894,242425
78206,216497,241949,216886,242415
78245,216346,241472,216875,242396
78285,216302,241212,216864,242373
78326,216279,241154,216852,242348
78365,216242,241039,216840,242322
78405,216210,240940,216827,242295
78446,216210,240935,216815,242267
78485,216191,240947,216803,242241
78525,216182,240961,216790,242215
78566,216214,240998,216779,242191
78605,216215,241075,216767,242169
78645,216242,241155,216757,242148
78686,216254,241275,216747,242131
78725,216293,241409,216738,242116
78766,216333,241523,216730,242105
78806,216369,241631,216722,242095
78844,216444,241787,216717,242089
78885,216358,241759,216710,242082
78925,216277,241401,216701,242069
78964,216295,241248,216693,242052
79005,216330,241294,216686,242037
79045,216381,241364,216679,242024
79084,216426,241460,216674,242012
79125,216464,241566,216670,242003
79164,216536,241631,216667,241996
79204,216592,241726,216666,241990
79245,216645,241835,216666,241987
79284,216678,241953,216666,241987
79324,216724,242071,216667,241988
79365,216776,242166,216669,241992
79404,216806,242286,216672,241998
79444,216833,242380,216675,242005
79484,216873,242477,216679,242015
79523,216909,242622,216684,242027
79564,216772,242515,216685,242037
79604,216657,242114,216685,242038
79643,216641,241952,216684,242036
79684,216677,242002,216684,242036
79724,216701,242043,216684,242036
79763,216712,242058,216685,242036
79804,216694,242068,216685,242037
79844,216705,242063,216685,242038
79883,216734,242105,216686,242039
79924,216772,242186,216688,242042
79964,216790,242255,216690,242046
80004,216826,242351,216693,242052
80044,216861,242437,216696,242060
80083,216860,242481,216699,242068
80123,216883,242542,216703,242078
80163,216930,242601,216707,242088
80202,216949,242684,216712,242100
80243,216791,242506,216714,242108
80283,216695,242129,216713,242109
80322,216728,242073,216714,242108
80363,216733,242102,216714,242108
80403,216729,242108,216714,242108
80442,216775,242173,216716,242109
80483,216787,242244,216717,242112
80523,216789,242277,216718,242115
80562,216838,242329,216721,242119
80603,216878,242422,216724,242125
80643,216880,242486,216727,242133
80683,216904,242572,216731,242141
80722,216960,242674,216735,242152
80763,216985,242737,216740,242164
80802,217006,242792,216745,242176
80842,217010,242872,216751,242190
80881,216893,242803,216754,242202
80922,216779,242450,216754,242207
80962,216786,242311,216755,242209
81001,216792,242356,216755,242212
81042,216812,242418,216757,242216
81082,216817,242485,216758,242222
81121,216838,242544,216759,242228
81162,216859,242557,216761,242235
81202,216863,242574,216763,242242
81242,216864,242612,216765,242249
81282,216831,242646,216767,242257
81321,216833,242681,216768,242265
81361,216859,242709,216770,242274
81401,216851,242724,216771,242283
81442,216849,242764,216773,242293
81481,216786,242792,216773,242303
81521,216623,242448,216770,242306
81562,216473,242029,216764,242300
81601,216417,241815,216757,242290
81641,216400,241755,216750,242280
81682,216373,241716,216743,242268
81721,216398,241746,216736,242258
81761,216390,241746,216729,242248
81802,216414,241748,216722,242238
81841,216423,241796,216716,242229
81881,216441,241869,216711,242222
81922,216493,241978,216707,242217
81960,216539,242059,216703,242214
82000,216586,242156,216701,242212
82040,216632,242248,216699,242213
82080,216643,242353,216698,242216
82121,216514,242287,216695,242217
82160,216333,241778,216687,242209
82200,216279,241485,216679,242194
82241,216283,241422,216671,242179
82280,216259,241398,216663,242163
82320,216272,241389,216655,242147
82361,216294,241429,216648,242133
82400,216325,241479,216641,242120
82440,216341,241518,216635,242108
82481,216381,241607,216630,242098
82520,216432,241707,216626,242090
82560,216462,241757,216623,242083
82600,216502,241831,216621,242078
82639,216519,241892,216619,242075
82679,216535,241991,216617,242073
82720,216586,242099,216616,242073
82759,216457,241999,216613,242072
82800,216300,241502,216607,242061
82840,216231,241208,216599,242043
82879,216209,241165,216591,242026
82920,216212,241139,216584,242008
82959,216254,241118,216577,241990
82999,216293,241212,216572,241975
83040,216304,241251,216566,241960
83079,216322,241313,216561,241947
83119,216354,241371,216557,241936
83160,216391,241422,216554,241926
83198,216430,241509,216551,241917
83238,216462,241605,216550,241911
83279,216479,241693,216548,241907
83318,216524,241793,216548,241904
83358,216596,241900,216549,241904
83399,216537,241951,216548,241905
83438,216328,241496,216544,241897
83479,216251,241121,216538,241881
83519,216267,241069,216533,241865
83558,216272,241077,216527,241849
83599,216315,241082,216523,241834
83639,216339,241148,216519,241820
