t_ms,phase,red_raw,ir_raw,red_dc,ir_dc,red_ac,ir_ac,OD_red,OD_ir,R,spo2,spo2_valid
10,0,83012,148580,1660.24,2971.6,81351.76,145608.4,0,0,nan,nan,0
48,0,208973,246836,5806.5,7848.89,203166.5,238987.1,0,0,nan,nan,0
88,0,219192,246213,10074.2,12616.17,209117.79,233596.82,0,0,nan,nan,0
128,0,218582,246373,14244.36,17291.31,204337.64,229081.68,0,0,nan,nan,0
168,0,218728,247249,18334.04,21890.46,200393.96,225358.53,0,0,nan,nan,0
208,0,219221,247917,22351.78,26410.99,196869.21,221506,0,0,nan,nan,0
247,0,219688,248563,26298.5,30854.03,193389.5,217708.96,0,0,nan,nan,0
287,0,219913,248577,30170.79,35208.49,189742.2,213368.5,0,0,1.045476,83.86,1
329,0,220045,248880,33968.27,39481.92,186076.71,209398.07,0,0,1.040565,83.99,1
369,0,220187,248931,37692.65,43670.91,182494.34,205260.09,0,0,1.036651,84.08,1
409,0,220164,248945,41342.08,47776.39,178821.92,201168.6,0,0,1.03341,84.16,1
448,0,220182,249023,44918.88,51801.32,175263.12,197221.67,0,0,1.030677,84.23,1
488,0,220160,249012,48423.7,55745.53,171736.29,193266.46,0,0,1.028353,84.29,1
529,0,220161,249045,51858.45,59611.52,168302.54,189433.46,0,0,1.026348,84.34,1
569,0,220176,249188,55224.8,63403.05,164951.2,185784.93,0,0,1.024576,84.39,1
609,0,220279,249299,58525.88,67120.98,161753.12,182178.03,0,0,1.02303,84.42,1
649,0,220344,249435,61762.25,70767.26,158581.75,178667.75,0,0,1.021654,84.46,1
688,0,220421,249461,64935.42,74341.14,155485.57,175119.87,0,0,1.020448,84.49,1
729,0,220339,249383,68043.5,77841.97,152295.5,171541.03,0,0,1.019367,84.52,1
769,0,220248,249317,71087.59,81271.47,149160.4,168045.53,0,0,1.018387,84.54,1
808,0,220225,249077,74070.34,84627.58,146154.65,164449.42,0,0,1.017545,84.56,1
848,0,220025,248681,76989.43,87908.65,143035.56,160772.34,0,0,1.016808,84.58,1
887,0,219744,247867,79844.53,91107.82,139899.46,156759.18,0,0,1.016219,84.59,1
928,0,219121,246415,82630.06,94213.96,136490.93,152201.04,0,0,1.015793,84.61,1
968,0,218227,244908,85342,97227.84,132885,147680.15,0,0,1.015458,84.61,1
1008,0,217421,243402,87983.58,100151.32,129437.42,143250.68,0,0,1.015213,84.62,1
1048,0,216623,242537,90556.37,102999.04,126066.64,139537.96,0,0,1.014948,84.63,1
1087,0,216362,242594,93072.49,105790.95,123289.52,136803.06,0,0,1.014623,84.63,1
1128,0,216393,242782,95538.9,108530.77,120854.1,134251.23,0,0,1.014281,84.64,1
1168,0,216505,242902,97958.23,111218.2,118546.78,131683.81,0,0,1.01395,84.65,1
1208,0,216488,243230,100328.82,113858.44,116159.18,129371.57,0,0,1.01358,84.66,1
1248,0,217056,244149,102663.36,116464.25,114392.64,127684.75,0,0,1.01319,84.67,1
1288,0,217541,244485,104960.92,119024.67,112580.09,125460.33,0,0,1.012848,84.68,1
1328,0,217833,244965,107218.35,121543.48,110614.65,123421.53,0,0,1.012503,84.69,1
1367,0,218038,245015,109434.75,124012.91,108603.26,121002.1,0,0,1.012196,84.7,1
1408,0,218110,244989,111608.25,126432.43,106501.75,118556.57,0,0,1.011914,84.7,1
1447,0,217918,244794,113734.45,128799.67,104183.56,115994.34,0,0,1.011639,84.71,1
1488,0,217818,244416,115816.12,131111.98,102001.89,113304.02,0,0,1.011404,84.71,1
1527,0,217279,243737,117845.38,133364.48,99433.63,110372.52,0,0,1.011181,84.72,1
1567,0,216981,243428,119828.09,135565.75,97152.92,107862.25,0,0,1.01096,84.73,1
1607,0,216911,243544,121769.75,137725.31,95141.26,105818.69,0,0,1.010723,84.73,1
1646,0,216974,243636,123673.83,139843.53,93300.17,103792.47,0,0,1.010491,84.74,1
1687,0,216997,243553,125540.29,141917.71,91456.71,101635.28,0,0,1.010278,84.74,1
1727,0,216961,243515,127368.71,143949.65,89592.3,99565.35,0,0,1.01007,84.75,1
1767,0,216925,243496,129159.83,145940.59,87765.17,97555.41,0,0,1.009866,84.75,1
1806,0,216803,242534,130912.7,147872.46,85890.31,94661.53,0,0,1.009748,84.76,1
1847,0,215517,240673,132604.78,149728.46,82912.22,90944.53,0,0,1.00966,84.76,1
1887,0,214778,239288,134248.25,151519.67,80529.75,87768.33,0,0,1.009615,84.76,1
1927,0,213939,237961,135842.06,153248.5,78096.94,84712.5,0,0,1.00959,84.76,1
1966,0,213459,236925,137394.4,154922.03,76064.6,82002.97,0,0,1.009592,84.76,1
2007,0,212719,235541,138900.89,156534.4,73818.11,79006.6,0,0,1.009622,84.76,1
2046,0,212405,235123,140370.96,158106.17,72034.03,77016.83,0,0,1.009637,84.76,1
2086,0,212223,235272,141808,159649.48,70415,75622.52,0,0,1.009609,84.76,1
2126,0,212460,235281,143221.04,161162.12,69238.96,74118.88,0,0,1.00959,84.76,1
2165,0,212141,234559,144599.43,162630.06,67541.57,71928.94,0,0,1.009585,84.76,1
2206,0,211945,234457,145946.35,164066.6,65998.64,70390.39,0,0,1.009556,84.76,1
2246,0,211734,234130,147262.12,165467.87,64471.87,68662.13,0,0,1.009521,84.76,1
2286,0,211588,233533,148548.65,166829.17,63039.34,66703.83,0,0,1.009506,84.76,1
2327,0,211291,232984,149803.5,168152.28,61487.5,64831.72,0,0,1.009491,84.76,1
2366,0,211038,232516,151028.2,169439.54,60009.8,63076.45,0,0,1.009474,84.76,1
2406,0,210795,232281,152223.54,170696.39,58571.45,61584.61,0,0,1.009442,84.76,1
2446,0,210861,232945,153396.29,171941.37,57464.7,61003.62,0,0,1.009359,84.77,1
2486,0,210948,233076,154547.32,173164.06,56400.67,59911.94,0,0,1.009268,84.77,1
2525,0,211002,233653,155676.43,174373.84,55325.56,59279.16,0,0,1.009138,84.77,1
2566,0,211261,234209,156788.12,175570.56,54472.87,58638.44,0,0,1.00899,84.78,1
2606,0,211365,234443,157879.65,176748.01,53485.34,57694.98,0,0,1.008834,84.78,1
2646,0,211547,234457,158953,177902.2,52594,56554.8,0,0,1.008691,84.78,1
2686,0,211319,234200,160000.31,179028.15,51318.69,55171.84,0,0,1.008548,84.79,1
2725,0,211461,234608,161029.53,180139.75,50431.47,54468.25,0,0,1.008388,84.79,1
2765,0,211721,235098,162043.35,181238.9,49677.64,53859.09,0,0,1.008219,84.79,1
2805,0,211900,235287,163040.5,182319.85,48859.5,52967.14,0,0,1.008053,84.8,1
2845,0,212051,235698,164020.7,183387.42,48030.3,52310.58,0,0,1.007875,84.8,1
2886,0,212088,235228,164982.06,184424.23,47105.94,50803.76,0,0,1.00773,84.81,1
2925,0,211671,234527,165915.84,185426.29,45755.16,49100.7,0,0,1.007599,84.81,1
2965,0,211373,234153,166824.98,186400.84,44548.01,47752.16,0,0,1.007469,84.81,1
3005,0,211200,233493,167712.48,187342.68,43487.51,46150.31,0,0,1.007364,84.82,1
3046,0,210641,232077,168571.04,188237.39,42069.95,43839.61,0,0,1.007296,84.82,1
3085,0,209851,230952,169396.64,189091.68,40454.36,41860.31,0,0,1.007231,84.82,1
3125,0,209373,230436,170196.17,189918.57,39176.83,40517.42,0,0,1.007157,84.82,1
3165,0,209012,229666,170972.48,190713.51,38039.51,38952.48,0,0,1.007093,84.82,1
3205,0,208550,229442,171724.03,191488.09,36825.97,37953.91,0,0,1.007007,84.82,1
3246,0,208417,229398,172457.89,192246.28,35959.11,37151.72,0,0,1.006911,84.83,1
3284,0,208380,229785,173176.32,192997.06,35203.67,36787.94,0,0,1.006792,84.83,1
3324,0,208701,230622,173886.82,193749.56,34814.17,36872.44,0,0,1.006649,84.83,1
3364,0,209179,231695,174592.67,194508.48,34586.33,37186.51,0,0,1.006483,84.84,1
3405,0,209745,232555,175295.73,195269.4,34449.26,37285.59,0,0,1.00631,84.84,1
3445,0,210026,232993,175990.34,196023.87,34035.66,36969.12,0,0,1.006135,84.85,1
3484,0,210080,232838,176672.14,196760.17,33407.86,36077.83,0,0,1.005974,84.85,1
3524,0,209627,231858,177331.25,197462.12,32295.75,34395.87,0,0,1.005836,84.85,1
3564,0,209278,231613,177970.18,198145.15,31307.81,33467.84,0,0,1.005692,84.86,1
3605,0,209236,231565,178595.5,198813.54,30640.5,32751.45,0,0,1.005548,84.86,1
3644,0,209065,230788,179204.89,199453.04,29860.11,31334.95,0,0,1.005432,84.86,1
3684,0,208322,229374,179787.23,200051.46,28534.77,29322.53,0,0,1.005335,84.87,1
3724,0,207594,228011,180343.37,200610.65,27250.63,27400.34,0,0,1.005254,84.87,1
3765,0,206781,227074,180872.14,201139.93,25908.86,25934.06,0,0,1.005166,84.87,1
3805,0,206512,227365,181384.93,201664.43,25127.06,25700.56,0,0,1.005053,84.87,1
3844,0,206932,227684,181895.89,202184.84,25036.11,25499.16,0,0,1.004945,84.88,1
3884,0,206846,227176,182394.89,202684.67,24451.11,24491.33,0,0,1.004849,84.88,1
3923,0,206578,226420,182878.56,203159.39,23699.44,23260.61,0,0,1.004764,84.88,1
3964,0,206285,226749,183346.7,203631.18,22938.3,23117.81,0,0,1.004652,84.88,1
4004,0,206379,226496,183807.34,204088.48,22571.66,22407.52,0,0,1.004551,84.89,1
4043,0,205856,225631,184248.32,204519.34,21607.67,21111.66,0,0,1.004453,84.89,1
4083,0,205364,224670,184670.64,204922.35,20693.36,19747.64,0,0,1.004361,84.89,1
4124,0,204863,223810,185074.5,205300.12,19788.5,18509.88,0,0,1.004271,84.89,1
4164,0,204314,223024,185459.29,205654.6,18854.7,17369.39,0,0,1.004178,84.9,1
4203,0,203937,222315,185828.84,205987.81,18108.16,16327.19,0,0,1.004084,84.9,1
4243,0,203669,222156,186185.64,206311.18,17483.36,15844.81,0,0,1.00398,84.9,1
4283,0,203665,222071,186535.23,206626.39,17129.77,15444.61,0,0,1.003875,84.9,1
4324,0,203449,221389,186873.51,206921.64,16575.49,14467.36,0,0,1.003773,84.91,1
4364,0,203020,220384,187196.45,207190.9,15823.55,13193.09,0,0,1.003674,84.91,1
4403,0,202605,219920,187504.62,207445.5,15100.37,12474.5,0,0,1.003567,84.91,1
4443,0,202502,219633,187804.57,207689.25,14697.42,11943.75,0,0,1.003456,84.91,1
4484,0,202404,219333,188096.56,207922.12,14307.44,11410.87,0,0,1.003342,84.92,1
4524,0,202357,219231,188381.78,208148.31,13975.22,11082.69,0,0,1.003224,84.92,1
4562,0,202276,218866,188659.67,208362.65,13616.33,10503.34,0,0,1.003104,84.92,1
4602,0,201985,218274,188926.18,208560.89,13058.81,9713.11,0,0,1.002981,84.93,1
4642,0,201749,218189,189182.65,208753.45,12566.34,9435.55,0,0,1.002846,84.93,1
4683,0,201739,218180,189433.78,208941.98,12305.22,9238.02,0,0,1.002707,84.93,1
4723,0,201720,218238,189679.51,209127.92,12040.48,9110.08,0,0,1.002563,84.94,1
4762,0,201657,218098,189919.06,209307.32,11737.94,8790.67,0,0,1.002414,84.94,1
4802,0,201638,218068,190153.45,209482.54,11484.55,8585.45,0,0,1.002262,84.94,1
4843,0,201513,217774,190380.65,209648.39,11132.34,8125.61,0,0,1.002107,84.95,1
4883,0,201368,217622,190600.4,209807.85,10767.59,7814.14,0,0,1.001947,84.95,1
4923,0,201158,217045,190811.56,209952.6,10346.44,7092.39,0,0,1.001786,84.96,1
4962,0,200867,216714,191012.67,210087.84,9854.33,6626.16,0,0,1.001619,84.96,1
5002,0,200732,216671,191207.06,210219.51,9524.94,6451.48,0,0,1.001446,84.96,1
5043,0,200726,216852,191397.43,210352.17,9328.56,6499.83,-0.000995,-0.000631,1.001268,84.97,1
5083,0,200874,217280,191586.98,210490.71,9287.02,6789.28,-0.001985,-0.001289,1.001085,84.97,1
5123,0,201087,217562,191776.98,210632.14,9310.02,6929.86,-0.002976,-0.001961,1.000902,84.98,1
5163,0,201127,217607,191964,210771.64,9163,6835.36,-0.003951,-0.002623,1.000718,84.98,1
5202,0,201186,217853,192148.43,210913.28,9037.56,6939.72,-0.004911,-0.003295,1.000531,84.99,1
5242,0,201378,218169,192333.03,211058.39,9044.97,7110.61,-0.005871,-0.003983,1.000343,84.99,1
5282,0,201511,218463,192516.59,211206.5,8994.41,7256.5,-0.006825,-0.004684,1.000153,85,1
5322,0,201793,218967,192702.12,211361.71,9090.87,7605.28,-0.007789,-0.005419,0.999962,85,1
5362,0,202116,219498,192890.4,211524.43,9225.59,7973.56,-0.008765,-0.006188,0.99977,85.01,1
5402,0,202443,219923,193081.46,211692.4,9361.53,8230.59,-0.009755,-0.006982,0.99958,85.01,1
5442,0,202714,220207,193274.12,211862.7,9439.87,8344.3,-0.010753,-0.007786,0.999392,85.02,1
5482,0,202903,220304,193466.7,212031.53,9436.3,8272.47,-0.011749,-0.008583,0.999208,85.02,1
5522,0,202863,219829,193654.64,212187.48,9208.36,7641.52,-0.012719,-0.009318,0.999031,85.02,1
5562,0,202556,219253,193832.67,212328.79,8723.33,6924.2,-0.013638,-0.009984,0.998854,85.03,1
5602,0,202340,218857,194002.81,212459.35,8337.19,6397.64,-0.014516,-0.010598,0.998678,85.03,1
5642,0,202205,218596,194166.85,212582.09,8038.14,6013.91,-0.015361,-0.011176,0.998501,85.04,1
5682,0,202080,218300,194325.12,212696.45,7754.87,5603.55,-0.016176,-0.011714,0.998324,85.04,1
5722,0,201952,218123,194477.67,212804.98,7474.33,5318.02,-0.01696,-0.012224,0.998146,85.05,1
5762,0,201923,218109,194626.57,212911.06,7296.42,5197.94,-0.017726,-0.012722,0.997966,85.05,1
5801,0,201994,218173,194773.92,213016.29,7220.08,5156.7,-0.018483,-0.013216,0.997786,85.06,1
5841,0,202028,218266,194919.01,213121.28,7108.98,5144.72,-0.019227,-0.013709,0.997606,85.06,1
5881,0,202101,218260,195062.65,213224.06,7038.34,5035.94,-0.019964,-0.014191,0.997425,85.06,1
5921,0,202040,218036,195202.2,213320.29,6837.8,4715.7,-0.020679,-0.014643,0.997246,85.07,1
5961,0,201877,217747,195335.7,213408.82,6541.3,4338.17,-0.021363,-0.015057,0.997066,85.07,1
6001,0,201675,217436,195462.5,213489.37,6212.5,3946.62,-0.022012,-0.015435,0.996883,85.08,1
6041,0,201465,217179,195582.54,213563.17,5882.45,3615.83,-0.022626,-0.01578,0.996699,85.08,1
6081,0,201444,217257,195699.78,213637.04,5744.22,3619.95,-0.023225,-0.016126,0.996512,85.09,1
6121,0,201468,217215,195815.15,213708.6,5652.84,3506.39,-0.023814,-0.016461,0.996327,85.09,1
6161,0,201448,217056,195927.81,213775.56,5520.19,3280.44,-0.024389,-0.016774,0.996141,85.1,1
6201,0,201328,216688,196035.82,213833.82,5292.17,2854.17,-0.024941,-0.017047,0.995955,85.1,1
6241,0,201160,216331,196138.31,213883.78,5021.69,2447.22,-0.025463,-0.01728,0.995769,85.11,1
6281,0,200941,215989,196234.35,213925.89,4706.64,2063.11,-0.025953,-0.017477,0.995579,85.11,1
6321,0,200825,215846,196326.17,213964.29,4498.83,1881.7,-0.026421,-0.017657,0.995388,85.12,1
6361,0,200690,215567,196413.45,213996.35,4276.55,1570.64,-0.026865,-0.017807,0.995195,85.12,1
6401,0,200570,215565,196496.59,214027.73,4073.41,1537.27,-0.027288,-0.017953,0.994999,85.13,1
6440,0,200616,215567,196578.98,214058.53,4037.02,1508.47,-0.027707,-0.018097,0.994804,85.13,1
6480,0,200584,215528,196659.09,214087.92,3924.91,1440.08,-0.028115,-0.018234,0.994608,85.13,1
6520,0,200574,215573,196737.4,214117.62,3836.59,1455.38,-0.028513,-0.018373,0.994411,85.14,1
6560,0,200693,215900,196816.51,214153.28,3876.48,1746.72,-0.028915,-0.01854,0.994214,85.14,1
6600,0,200874,216198,196897.67,214194.17,3976.33,2003.83,-0.029327,-0.018731,0.994019,85.15,1
6640,0,201040,216441,196980.51,214239.1,4059.48,2201.89,-0.029748,-0.01894,0.993824,85.15,1
6680,0,201081,216364,197062.53,214281.6,4018.47,2082.39,-0.030164,-0.019139,0.993632,85.16,1
6720,0,200968,216195,197140.64,214319.89,3827.36,1875.11,-0.03056,-0.019317,0.993438,85.16,1
6760,0,200818,215897,197214.18,214351.43,3603.81,1545.56,-0.030933,-0.019465,0.993244,85.17,1
6800,0,200651,215679,197282.92,214377.98,3368.08,1301.02,-0.031282,-0.019588,0.993049,85.17,1
6840,0,200538,215430,197348.03,214399.01,3189.97,1030.98,-0.031612,-0.019687,0.992853,85.18,1
6880,0,200492,215512,197410.92,214421.28,3081.08,1090.72,-0.031931,-0.01979,0.992658,85.18,1
6921,0,200652,215849,197475.75,214449.84,3176.25,1399.16,-0.032259,-0.019924,0.992463,85.19,1
6961,0,200865,216081,197543.53,214482.46,3321.47,1598.53,-0.032602,-0.020076,0.99227,85.19,1
7000,0,200926,216192,197611.18,214516.67,3314.81,1675.33,-0.032944,-0.020235,0.992078,85.2,1
7041,0,200999,216311,197678.95,214552.56,3320.05,1758.44,-0.033287,-0.020402,0.991887,85.2,1
7080,0,201001,216203,197745.39,214585.57,3255.61,1617.42,-0.033623,-0.020556,0.991697,85.21,1
7119,0,200895,216184,197808.39,214617.56,3086.61,1566.44,-0.033942,-0.020705,0.991507,85.21,1
7160,0,200891,216142,197870.04,214648.06,3020.95,1493.94,-0.034253,-0.020847,0.991317,85.22,1
7199,0,200833,216074,197929.31,214676.59,2903.69,1397.41,-0.034553,-0.02098,0.991129,85.22,1
7240,0,200781,215948,197986.35,214702.01,2794.64,1245.98,-0.034841,-0.021099,0.99094,85.23,1
7280,0,200654,215750,198039.71,214722.98,2614.28,1027.02,-0.035111,-0.021196,0.990752,85.23,1
7320,0,200510,215467,198089.12,214737.87,2420.87,729.13,-0.03536,-0.021266,0.990564,85.24,1
7360,0,200304,215192,198133.42,214746.96,2170.58,445.03,-0.035584,-0.021308,0.990374,85.24,1
7400,0,200123,214840,198173.2,214748.82,1949.8,91.17,-0.035784,-0.021317,0.990184,85.25,1
7440,0,199873,214373,198207.2,214741.31,1665.8,-368.31,-0.035956,-0.021282,0.989992,85.25,1
7479,0,199630,213967,198235.65,214725.82,1394.34,-758.83,-0.0361,-0.02121,0.989798,85.26,1
7520,0,199437,213721,198259.68,214705.73,1177.31,-984.73,-0.036221,-0.021116,0.989603,85.26,1
7559,0,199330,213720,198281.09,214686.03,1048.91,-966.03,-0.036329,-0.021024,0.989407,85.26,1
7600,0,199380,213837,198303.06,214669.04,1076.94,-832.05,-0.03644,-0.020945,0.989213,85.27,1
7639,0,199428,213923,198325.56,214654.12,1102.44,-731.13,-0.036553,-0.020876,0.98902,85.27,1
7680,0,199502,214081,198349.1,214642.67,1152.89,-561.67,-0.036672,-0.020822,0.988829,85.28,1
7718,0,199591,214195,198373.93,214633.73,1217.06,-438.73,-0.036797,-0.020781,0.988639,85.28,1
7759,0,199650,214383,198399.46,214628.71,1250.53,-245.72,-0.036926,-0.020757,0.988451,85.29,1
7798,0,199794,214600,198427.35,214628.15,1366.64,-28.16,-0.037066,-0.020755,0.988265,85.29,1
7839,0,199886,214754,198456.53,214630.67,1429.47,123.33,-0.037213,-0.020766,0.988081,85.3,1
7878,0,199963,214855,198486.67,214635.15,1476.33,219.84,-0.037365,-0.020787,0.987898,85.3,1
7919,0,200048,215061,198517.89,214643.67,1530.11,417.33,-0.037522,-0.020827,0.987717,85.31,1
7959,0,200198,215441,198551.48,214659.6,1646.52,781.39,-0.037691,-0.020901,0.987538,85.31,1
7999,0,200427,215730,198589,214681.01,1838,1048.98,-0.03788,-0.021001,0.987361,85.32,1
8039,0,200588,215844,198628.98,214704.28,1959.02,1139.72,-0.038082,-0.021109,0.987187,85.32,1
8079,0,200624,215814,198668.89,214726.48,1955.11,1087.52,-0.038283,-0.021213,0.987015,85.32,1
8119,0,200642,215903,198708.35,214750.01,1933.64,1152.98,-0.038481,-0.021322,0.986843,85.33,1
8159,0,200712,216077,198748.43,214776.56,1963.56,1300.44,-0.038683,-0.021446,0.986674,85.33,1
8199,0,200830,216257,198790.06,214806.17,2039.94,1450.83,-0.038892,-0.021584,0.986505,85.34,1
8239,0,200924,216477,198832.75,214839.59,2091.25,1637.41,-0.039107,-0.021739,0.986338,85.34,1
8279,0,201068,216684,198877.45,214876.5,2190.55,1807.5,-0.039332,-0.021911,0.986173,85.35,1
8318,0,201136,216823,198922.62,214915.42,2213.37,1907.58,-0.039559,-0.022092,0.98601,85.35,1
8358,0,201248,216987,198969.12,214956.85,2278.87,2030.14,-0.039793,-0.022285,0.985848,85.35,1
8398,0,201315,217103,199016.04,214999.78,2298.95,2103.22,-0.040029,-0.022485,0.985688,85.36,1
8438,0,201349,217227,199062.71,215044.34,2286.28,2182.66,-0.040263,-0.022692,0.985529,85.36,1
8478,0,201462,217389,199110.7,215091.25,2351.3,2297.75,-0.040504,-0.02291,0.985372,85.37,1
8518,0,201504,217526,199158.57,215139.93,2345.42,2386.06,-0.040744,-0.023136,0.985216,85.37,1
8558,0,201595,217615,199207.31,215189.43,2387.69,2425.56,-0.040989,-0.023366,0.985062,85.37,1
8598,0,201567,217636,199254.51,215238.37,2312.48,2397.62,-0.041226,-0.023594,0.984909,85.38,1
8638,0,201643,217786,199302.28,215289.32,2340.72,2496.67,-0.041466,-0.023831,0.984759,85.38,1
8678,0,201692,217755,199350.07,215338.64,2341.92,2416.36,-0.041706,-0.02406,0.984611,85.38,1
8718,0,201638,217514,199395.84,215382.15,2242.16,2131.84,-0.041935,-0.024262,0.984466,85.39,1
8758,0,201506,217359,199438.06,215421.68,2067.94,1937.31,-0.042147,-0.024445,0.984324,85.39,1
8798,0,201453,217328,199478.37,215459.82,1974.63,1868.17,-0.042349,-0.024622,0.984182,85.4,1
8838,0,201435,217299,199517.51,215496.62,1917.48,1802.38,-0.042545,-0.024793,0.984043,85.4,1
8878,0,201402,217277,199555.21,215532.25,1846.78,1744.75,-0.042734,-0.024958,0.983904,85.4,1
8918,0,201383,217274,199591.78,215567.09,1791.22,1706.91,-0.042917,-0.02512,0.983767,85.41,1
8957,0,201381,217347,199627.57,215602.68,1753.42,1744.31,-0.043097,-0.025285,0.983632,85.41,1
8998,0,201416,217419,199663.34,215639.01,1752.66,1779.98,-0.043276,-0.025453,0.983497,85.41,1
9037,0,201454,217496,199699.15,215676.15,1754.84,1819.84,-0.043455,-0.025626,0.983364,85.42,1
9078,0,201496,217606,199735.09,215714.76,1760.91,1891.23,-0.043635,-0.025805,0.983233,85.42,1
9117,0,201545,217677,199771.29,215754.01,1773.7,1922.98,-0.043816,-0.025987,0.983103,85.42,1
9158,0,201565,217733,199807.17,215793.59,1757.83,1939.41,-0.043996,-0.02617,0.982974,85.43,1
9197,0,201577,217737,199842.57,215832.45,1734.42,1904.55,-0.044173,-0.02635,0.982848,85.43,1
9238,0,201525,217606,199876.23,215867.93,1648.77,1738.06,-0.044341,-0.026515,0.982723,85.43,1
9277,0,201431,217579,199907.34,215902.15,1523.66,1676.84,-0.044497,-0.026673,0.9826,85.43,1
9318,0,201441,217586,199938.01,215935.84,1502.98,1650.16,-0.04465,-0.026829,0.982479,85.44,1
9357,0,201374,217187,199966.75,215960.85,1407.25,1226.14,-0.044794,-0.026945,0.982361,85.44,1
9398,0,201048,216491,199988.37,215971.45,1059.63,519.55,-0.044902,-0.026994,0.982245,85.44,1
9437,0,200604,215828,200000.68,215968.59,603.31,-140.59,-0.044964,-0.026981,0.982127,85.45,1
9478,0,200139,214898,200003.45,215947.17,135.55,-1049.17,-0.044978,-0.026882,0.982006,85.45,1
9517,0,199546,214111,199994.31,215910.45,-448.31,-1799.45,-0.044932,-0.026711,0.981879,85.45,1
9558,0,199100,213476,199976.43,215861.76,-876.44,-2385.77,-0.044843,-0.026486,0.981746,85.46,1
9596,0,198842,213181,199953.75,215808.15,-1111.75,-2627.16,-0.044729,-0.026238,0.981612,85.46,1
9637,0,198655,213059,199927.76,215753.18,-1272.77,-2694.19,-0.044599,-0.025983,0.981477,85.46,1
9676,0,198515,213011,199899.51,215698.34,-1384.52,-2687.34,-0.044458,-0.025729,0.981344,85.47,1
9717,0,198550,213179,199872.53,215647.95,-1322.53,-2468.95,-0.044323,-0.025495,0.981215,85.47,1
9756,0,198626,213254,199847.59,215600.07,-1221.59,-2346.08,-0.044198,-0.025273,0.981086,85.47,1
9797,0,198629,213301,199823.21,215554.09,-1194.22,-2253.09,-0.044076,-0.02506,0.980959,85.48,1
9836,0,198653,213361,199799.82,215510.23,-1146.83,-2149.23,-0.043959,-0.024856,0.980834,85.48,1
9877,0,198661,213414,199777.04,215468.31,-1116.05,-2054.31,-0.043845,-0.024662,0.98071,85.48,1
9916,0,198690,213443,199755.31,215427.81,-1065.31,-1984.81,-0.043736,-0.024474,0.980588,85.49,1
9957,0,198653,213462,199733.26,215388.5,-1080.27,-1926.5,-0.043626,-0.024291,0.980467,85.49,1
9996,0,198712,213686,199712.84,215354.45,-1000.84,-1668.45,-0.043524,-0.024133,0.980349,85.49,1
10037,0,198805,213606,199694.68,215319.5,-889.69,-1713.5,-0.043433,-0.023971,0.98023,85.49,1
10076,0,198745,213557,199675.7,215284.25,-930.7,-1727.25,-0.043338,-0.023807,0.980112,85.5,1
10117,0,198830,213849,199658.78,215255.54,-828.78,-1406.55,-0.043253,-0.023674,0.979998,85.5,1
10156,0,199005,214123,199645.7,215232.89,-640.7,-1109.89,-0.043187,-0.023568,0.979886,85.5,1
10196,0,199121,214287,199635.21,215213.96,-514.22,-926.97,-0.043135,-0.02348,0.979776,85.51,1
10235,0,199178,214422,199626.07,215198.12,-448.08,-776.13,-0.043089,-0.023407,0.979667,85.51,1
10276,0,199274,214599,199619.04,215186.15,-345.05,-587.16,-0.043054,-0.023351,0.979561,85.51,1
10315,0,199343,214707,199613.53,215176.57,-270.53,-469.58,-0.043026,-0.023307,0.979455,85.51,1
10356,0,199397,214867,199609.2,215170.39,-212.2,-303.39,-0.043004,-0.023278,0.979352,85.52,1
10395,0,199516,215132,199607.32,215169.62,-91.33,-37.63,-0.042995,-0.023274,0.97925,85.52,1
10436,0,199612,215267,199607.42,215171.57,4.58,95.42,-0.042996,-0.023283,0.979149,85.52,1
10476,0,199688,215449,199609.04,215177.14,78.95,271.86,-0.043004,-0.023309,0.979049,85.52,1
10515,0,199799,215677,199612.85,215187.15,186.14,489.84,-0.043023,-0.023356,0.97895,85.53,1
10556,0,199929,215971,199619.18,215202.84,309.81,768.16,-0.043055,-0.023429,0.978853,85.53,1
10595,0,200113,216249,199629.07,215223.78,483.92,1025.22,-0.043104,-0.023526,0.978755,85.53,1
10636,0,200167,216283,199639.84,215244.96,527.16,1038.03,-0.043158,-0.023624,0.97866,85.53,1
10675,0,200182,215917,199650.68,215258.42,531.31,658.58,-0.043212,-0.023687,0.978568,85.54,1
10716,0,199772,214932,199653.1,215251.89,118.89,-319.89,-0.043224,-0.023657,0.978477,85.54,1
10755,0,199207,214116,199644.18,215229.17,-437.19,-1113.17,-0.04318,-0.023551,0.978382,85.54,1
10796,0,198631,212619,199623.93,215176.96,-992.94,-2557.97,-0.043078,-0.023308,0.978269,85.54,1
10834,0,197612,211018,199583.7,215093.79,-1971.7,-4075.8,-0.042877,-0.022922,0.978128,85.55,1
10875,0,197053,210350,199533.09,214998.92,-2480.09,-4648.92,-0.042623,-0.022481,0.977976,85.55,1
10914,0,196785,209927,199478.14,214897.5,-2693.14,-4970.5,-0.042348,-0.022009,0.977814,85.55,1
10955,0,196645,209903,199421.48,214797.6,-2776.48,-4894.61,-0.042064,-0.021544,0.977658,85.56,1
10995,0,196830,210304,199369.65,214707.73,-2539.66,-4403.73,-0.041804,-0.021125,0.977513,85.56,1
11035,0,197034,210466,199322.95,214622.89,-2288.95,-4156.89,-0.041569,-0.02073,0.977369,85.57,1
11075,0,197152,210869,199279.54,214547.81,-2127.55,-3678.81,-0.041352,-0.02038,0.977238,85.57,1
11115,0,197419,211442,199242.32,214485.7,-1823.33,-3043.7,-0.041165,-0.020091,0.97712,85.57,1
11155,0,197711,211676,199211.7,214429.51,-1500.7,-2753.52,-0.041011,-0.019829,0.977003,85.57,1
11195,0,197763,211780,199182.73,214376.51,-1419.73,-2596.52,-0.040866,-0.019582,0.976888,85.58,1
11235,0,197745,211746,199153.98,214323.9,-1408.98,-2577.91,-0.040721,-0.019336,0.976773,85.58,1
11275,0,197648,211561,199123.85,214268.65,-1475.86,-2707.66,-0.04057,-0.019078,0.976656,85.58,1
11315,0,197485,211188,199091.09,214207.04,-1606.09,-3019.05,-0.040406,-0.018791,0.976532,85.59,1
11356,0,197248,210910,199054.23,214141.1,-1806.23,-3231.11,-0.04022,-0.018483,0.976406,85.59,1
11395,0,197164,211011,199016.43,214078.51,-1852.44,-3067.52,-0.040031,-0.018191,0.976286,85.59,1
11433,0,197311,211514,198982.32,214027.23,-1671.33,-2513.23,-0.039859,-0.017951,0.976177,85.6,1
11474,0,197622,211977,198955.12,213986.23,-1333.13,-2009.23,-0.039722,-0.017759,0.976073,85.6,1
11514,0,197817,212435,198932.37,213955.21,-1115.38,-1520.22,-0.039608,-0.017614,0.975975,85.6,1
11554,0,198167,213261,198917.07,213941.34,-750.08,-680.34,-0.039531,-0.01755,0.975885,85.6,1
11594,0,198760,214546,198913.93,213953.43,-153.94,592.56,-0.039515,-0.017606,0.975792,85.61,1
11634,0,199516,215779,198925.96,213989.95,590.03,1789.05,-0.039576,-0.017777,0.97569,85.61,1
11674,0,200259,217154,198952.64,214053.23,1306.36,3100.77,-0.03971,-0.018072,0.975565,85.61,1
11714,0,201059,218592,198994.78,214144.01,2064.22,4447.98,-0.039922,-0.018496,0.975407,85.61,1
11754,0,201796,220020,199050.81,214261.54,2745.19,5758.45,-0.040203,-0.019045,0.975202,85.62,1
11794,0,202515,221110,199120.09,214398.51,3394.91,6711.48,-0.040551,-0.019684,0.974963,85.63,1
11834,0,202951,221799,199196.71,214546.53,3754.28,7252.47,-0.040936,-0.020374,0.974703,85.63,1
11875,0,203239,222150,199277.56,214698.6,3961.44,7451.39,-0.041342,-0.021083,0.974441,85.64,1
11914,0,203309,222152,199358.2,214847.68,3950.8,7304.31,-0.041746,-0.021777,0.974191,85.65,1
11955,0,203207,221653,199435.18,214983.79,3771.81,6669.2,-0.042132,-0.02241,0.973983,85.65,1
11994,0,202896,221252,199504.4,215109.17,3391.59,6142.83,-0.042479,-0.022993,0.973796,85.66,1
12035,0,202870,221272,199571.73,215232.43,3298.27,6039.56,-0.042817,-0.023566,0.973613,85.66,1
12073,0,202833,221191,199636.95,215351.6,3196.05,5839.39,-0.043144,-0.02412,0.973441,85.66,1
12114,0,202790,221195,199700.01,215468.48,3089.98,5726.52,-0.043459,-0.024662,0.973273,85.67,1
12153,0,202789,221205,199761.79,215583.21,3027.2,5621.78,-0.043769,-0.025195,0.973112,85.67,1
12193,0,202797,221323,199822.5,215698.01,2974.5,5624.98,-0.044073,-0.025727,0.972949,85.68,1
12233,0,202916,221610,199884.35,215816.26,3031.64,5793.73,-0.044382,-0.026275,0.97278,85.68,1
12273,0,203035,221670,199947.37,215933.34,3087.62,5736.66,-0.044697,-0.026817,0.972618,85.68,1
12313,0,203077,221984,200009.98,216054.37,3067.02,5929.62,-0.04501,-0.027378,0.972444,85.69,1
12353,0,203241,222181,200074.59,216176.92,3166.41,6004.08,-0.045333,-0.027945,0.972271,85.69,1
12394,0,203395,222519,200141.01,216303.76,3253.98,6215.23,-0.045665,-0.028531,0.972088,85.7,1
12433,0,203482,222521,200207.84,216428.1,3274.16,6092.89,-0.045999,-0.029106,0.971916,85.7,1
12474,0,203473,222482,200273.14,216549.18,3199.86,5932.81,-0.046325,-0.029665,0.971755,85.71,1
12513,0,203307,221988,200333.82,216657.96,2973.17,5330.03,-0.046628,-0.030168,0.971626,85.71,1
12554,0,202945,221469,200386.06,216754.18,2558.94,4714.81,-0.046889,-0.030612,0.971519,85.71,1
12593,0,202522,220410,200428.78,216827.31,2093.22,3582.69,-0.047102,-0.030949,0.971457,85.71,1
12634,0,201869,219459,200457.57,216879.93,1411.42,2579.06,-0.047246,-0.031192,0.971416,85.71,1
12673,0,201494,219090,200478.31,216924.14,1015.69,2165.86,-0.047349,-0.031395,0.971381,85.72,1
12713,0,201461,219334,200497.96,216972.34,963.03,2361.66,-0.047447,-0.031618,0.97134,85.72,1
12752,0,201637,219666,200520.75,217026.21,1116.25,2639.78,-0.047561,-0.031866,0.971294,85.72,1
12793,0,201822,220044,200546.78,217086.57,1275.22,2957.42,-0.047691,-0.032144,0.971241,85.72,1
12832,0,202023,220312,200576.29,217151.07,1446.7,3160.92,-0.047838,-0.032441,0.971184,85.72,1
12873,0,202053,220166,200605.84,217211.37,1447.16,2954.62,-0.047985,-0.032719,0.971137,85.72,1
12912,0,201892,220064,200631.57,217268.43,1260.42,2795.56,-0.048113,-0.032981,0.971093,85.72,1
12952,0,201948,220401,200657.9,217331.09,1290.09,3069.91,-0.048245,-0.03327,0.971039,85.72,1
12993,0,202248,220884,200689.7,217402.15,1558.3,3481.84,-0.048403,-0.033597,0.970975,85.73,1
13032,0,202461,221200,200725.12,217478.12,1735.88,3721.87,-0.048579,-0.033946,0.970904,85.73,1
13073,0,202650,221612,200763.62,217560.79,1886.38,4051.2,-0.048771,-0.034326,0.970821,85.73,1
13112,0,202871,221856,200805.78,217646.7,2065.22,4209.3,-0.048981,-0.034721,0.970735,85.73,1
13153,0,202953,221918,200848.73,217732.12,2104.27,4185.87,-0.049195,-0.035113,0.970654,85.73,1
13192,0,202934,221649,200890.45,217810.46,2043.55,3838.53,-0.049403,-0.035473,0.970592,85.74,1
13233,0,202725,221272,200927.14,217879.7,1797.86,3392.3,-0.049585,-0.035791,0.970546,85.74,1
13272,0,202564,221059,200959.89,217943.28,1604.11,3115.72,-0.049748,-0.036083,0.970508,85.74,1
13313,0,202483,221058,200990.35,218005.57,1492.64,3052.42,-0.0499,-0.036368,0.97047,85.74,1
13351,0,202513,221144,201020.82,218068.34,1492.17,3075.66,-0.050052,-0.036656,0.970432,85.74,1
13392,0,202586,221253,201052.14,218132.04,1533.86,3120.95,-0.050207,-0.036948,0.970394,85.74,1
13431,0,202568,221338,201082.46,218196.17,1485.53,3141.83,-0.050358,-0.037242,0.970354,85.74,1
13472,0,202743,221777,201115.68,218267.79,1627.31,3509.2,-0.050523,-0.03757,0.9703,85.74,1
13511,0,203035,222332,201154.07,218349.07,1880.92,3982.92,-0.050714,-0.037943,0.970227,85.74,1
13552,0,203413,222803,201199.26,218438.15,2213.73,4364.84,-0.050939,-0.038351,0.970143,85.75,1
13591,0,203562,222832,201246.51,218526.03,2315.48,4305.97,-0.051174,-0.038753,0.970068,85.75,1
13632,0,203465,222512,201290.89,218605.75,2174.11,3906.25,-0.051394,-0.039118,0.970015,85.75,1
13672,0,203157,221915,201328.21,218671.93,1828.78,3243.06,-0.05158,-0.03942,0.969987,85.75,1
13712,0,202722,221398,201356.09,218726.45,1365.91,2671.55,-0.051718,-0.03967,0.969972,85.75,1
13752,0,202486,221207,201378.68,218776.06,1107.31,2430.94,-0.05183,-0.039896,0.969961,85.75,1
13792,0,202399,220899,201399.1,218818.53,999.89,2080.47,-0.051932,-0.04009,0.969962,85.75,1
13832,0,202165,220418,201414.42,218850.53,750.58,1567.47,-0.052008,-0.040237,0.969975,85.75,1
13872,0,201965,220226,201425.43,218878.04,539.56,1347.95,-0.052062,-0.040362,0.96999,85.75,1
13912,0,201964,220284,201436.21,218906.15,527.78,1377.84,-0.052116,-0.040491,0.970005,85.75,1
13952,0,202009,220305,201447.68,218934.12,561.31,1370.88,-0.052173,-0.040619,0.970021,85.75,1
13991,0,201979,220223,201458.31,218959.9,520.69,1263.09,-0.052225,-0.040736,0.970039,85.75,1
14031,0,201906,220106,201467.28,218982.84,438.72,1123.16,-0.05227,-0.040841,0.97006,85.75,1
14071,0,201786,219807,201473.65,218999.32,312.34,807.67,-0.052302,-0.040916,0.970085,85.75,1
14111,0,201555,219400,201475.28,219007.34,79.72,392.66,-0.05231,-0.040953,0.970113,85.75,1
14150,0,201219,218776,201470.15,219002.71,-251.16,-226.72,-0.052284,-0.040932,0.970143,85.75,1
14191,0,200887,218516,201458.48,218992.98,-571.48,-476.98,-0.052226,-0.040887,0.970175,85.75,1
14230,0,200870,218596,201446.71,218985.04,-576.72,-389.05,-0.052168,-0.040851,0.970207,85.74,1
14271,0,200913,218681,201436.04,218978.96,-523.05,-297.97,-0.052115,-0.040823,0.970238,85.74,1
14310,0,200943,218680,201426.18,218972.98,-483.19,-292.98,-0.052066,-0.040796,0.97027,85.74,1
14351,0,200854,218422,201414.75,218961.96,-560.75,-539.97,-0.052009,-0.040746,0.970299,85.74,1
14391,0,200593,217722,201398.31,218937.17,-805.31,-1215.17,-0.051928,-0.040633,0.970321,85.74,1
14431,0,200184,217007,201374.03,218898.57,-1190.03,-1891.58,-0.051807,-0.040456,0.97033,85.74,1
14472,0,199799,216463,201342.53,218849.87,-1543.53,-2386.87,-0.051651,-0.040234,0.970329,85.74,1
14511,0,199584,216225,201307.37,218797.37,-1723.38,-2572.37,-0.051476,-0.039994,0.970324,85.74,1
14550,0,199507,216164,201271.37,218744.71,-1764.38,-2580.72,-0.051297,-0.039753,0.970319,85.74,1
14590,0,199514,216103,201236.23,218691.89,-1722.23,-2588.89,-0.051123,-0.039512,0.970311,85.74,1
14630,0,199438,215795,201200.28,218633.96,-1762.28,-2838.97,-0.050944,-0.039247,0.970289,85.74,1
14670,0,199146,215272,201159.2,218566.73,-2013.2,-3294.73,-0.05074,-0.038939,0.970248,85.74,1
14710,0,198904,214934,201114.09,218494.09,-2210.09,-3560.09,-0.050515,-0.038607,0.970196,85.75,1
14750,0,198741,214607,201066.62,218416.35,-2325.62,-3809.36,-0.050279,-0.038251,0.970129,85.75,1
14790,0,198684,214686,201018.98,218341.75,-2334.98,-3655.75,-0.050042,-0.037909,0.970073,85.75,1
14830,0,198779,214705,200974.18,218269.01,-2195.19,-3564.02,-0.04982,-0.037576,0.970014,85.75,1
14870,0,198807,214881,200930.84,218201.26,-2123.84,-3320.27,-0.049604,-0.037266,0.969968,85.75,1
14911,0,198949,214976,200891.21,218136.76,-1942.22,-3160.77,-0.049407,-0.03697,0.969921,85.75,1
14950,0,198903,214772,200851.45,218069.46,-1948.45,-3297.47,-0.049209,-0.036661,0.969862,85.75,1
14991,0,198884,214734,200812.1,218002.75,-1928.11,-3268.75,-0.049013,-0.036355,0.969803,85.75,1
15030,0,198946,214779,200774.79,217938.28,-1828.8,-3159.28,-0.048827,-0.03606,0.969744,85.76,1
15071,0,198693,213573,200733.17,217850.96,-2040.17,-4277.97,-0.04862,-0.035659,0.969596,85.76,1
15110,0,197843,212774,200675.37,217749.43,-2832.37,-4975.44,-0.048332,-0.035193,0.969425,85.76,1
15151,0,197779,213038,200617.45,217655.21,-2838.45,-4617.22,-0.048043,-0.03476,0.969293,85.77,1
15190,0,197931,213382,200563.73,217569.76,-2632.73,-4187.77,-0.047775,-0.034367,0.969188,85.77,1
15230,0,198145,213929,200515.37,217496.95,-2370.37,-3567.95,-0.047534,-0.034033,0.96912,85.77,1
15269,0,198482,214660,200474.71,217440.21,-1992.72,-2780.22,-0.047331,-0.033772,0.969087,85.77,1
15310,0,198828,215187,200441.79,217395.15,-1613.8,-2208.16,-0.047167,-0.033564,0.969067,85.77,1
15349,0,198997,215486,200412.9,217356.96,-1415.91,-1870.97,-0.047023,-0.033389,0.969055,85.77,1
15389,0,199055,215668,200385.75,217323.18,-1330.75,-1655.19,-0.046887,-0.033233,0.969049,85.77,1
15430,0,199237,216239,200362.76,217301.51,-1125.77,-1062.52,-0.046773,-0.033134,0.969055,85.77,1
15469,0,199524,216659,200346,217288.65,-822,-629.66,-0.046689,-0.033074,0.969062,85.77,1
15509,0,199702,216984,200333.12,217282.56,-631.13,-298.56,-0.046625,-0.033046,0.969069,85.77,1
15549,0,199778,217031,200322.03,217277.54,-544.03,-246.55,-0.046569,-0.033023,0.969074,85.77,1
15589,0,199862,217297,200312.82,217277.93,-450.83,19.06,-0.046523,-0.033025,0.96908,85.77,1
15629,0,200059,217609,200307.76,217284.56,-248.77,324.44,-0.046498,-0.033056,0.969082,85.77,1
15669,0,200141,217636,200304.42,217291.59,-163.42,344.41,-0.046481,-0.033088,0.969083,85.77,1
15710,0,199975,217208,200297.84,217289.92,-322.84,-81.92,-0.046448,-0.03308,0.969088,85.77,1
15749,0,199700,216739,200285.89,217278.9,-585.89,-539.91,-0.046389,-0.033029,0.969094,85.77,1
15790,0,199432,216237,200268.81,217258.06,-836.81,-1021.06,-0.046304,-0.032934,0.969094,85.77,1
15828,0,199120,215611,200245.84,217225.12,-1125.84,-1614.13,-0.046189,-0.032782,0.969082,85.77,1
15869,0,198763,215050,200216.2,217181.62,-1453.2,-2131.62,-0.046041,-0.032582,0.969057,85.77,1
15908,0,198513,214525,200182.15,217128.5,-1669.16,-2603.5,-0.045871,-0.032337,0.96901,85.77,1
15949,0,198078,213654,200140.07,217059.01,-2062.08,-3405.02,-0.045661,-0.032017,0.968918,85.78,1
15988,0,197542,213063,200088.12,216979.1,-2546.12,-3916.11,-0.045401,-0.031649,0.968809,85.78,1
16029,0,197383,213044,200034.01,216900.4,-2651.02,-3856.41,-0.045131,-0.031286,0.968716,85.78,1
16068,0,197373,212912,199980.79,216820.64,-2607.8,-3908.64,-0.044864,-0.030918,0.968611,85.78,1
16109,0,197289,212639,199926.96,216737.01,-2637.97,-4098.02,-0.044595,-0.030532,0.968483,85.79,1
16149,0,196989,212019,199868.21,216642.65,-2879.22,-4623.66,-0.044301,-0.030097,0.968308,85.79,1
16189,0,196644,211630,199803.73,216542.4,-3159.73,-4912.41,-0.043979,-0.029634,0.96812,85.8,1
16229,0,196767,211972,199743,216451,-2976,-4479,-0.043675,-0.029212,0.967971,85.8,1
16268,0,197093,212325,199690,216368.48,-2597,-4043.48,-0.043409,-0.028831,0.967836,85.8,1
16309,0,197088,212217,199637.96,216285.46,-2549.97,-4068.47,-0.043149,-0.028447,0.967692,85.81,1
16348,0,197004,212161,199585.29,216202.98,-2581.3,-4041.98,-0.042885,-0.028065,0.967551,85.81,1
16389,0,197120,212961,199536,216138.14,-2416,-3177.14,-0.042638,-0.027765,0.967495,85.81,1
16428,0,197905,214246,199503.37,216100.29,-1598.38,-1854.3,-0.042474,-0.02759,0.96748,85.81,1
16468,0,198416,214869,199481.62,216075.67,-1065.63,-1206.67,-0.042365,-0.027476,0.967468,85.81,1
16507,0,198712,215117,199466.23,216056.5,-754.23,-939.5,-0.042288,-0.027388,0.967454,85.81,1
16548,0,198474,214669,199446.39,216028.75,-972.39,-1359.75,-0.042189,-0.027259,0.967431,85.81,1
16587,0,198074,213902,199418.95,215986.21,-1344.95,-2084.22,-0.042051,-0.027062,0.967384,85.82,1
16628,0,197615,213276,199382.87,215932.01,-1767.88,-2656.02,-0.04187,-0.026811,0.967317,85.82,1
16667,0,197358,213064,199342.37,215874.65,-1984.38,-2810.66,-0.041667,-0.026546,0.967252,85.82,1
16708,0,197364,213044,199302.81,215818.04,-1938.81,-2774.05,-0.041468,-0.026283,0.967186,85.82,1
16748,0,197307,212962,199262.9,215760.92,-1955.91,-2798.92,-0.041268,-0.026019,0.967118,85.82,1
16788,0,197310,213011,199223.85,215705.92,-1913.86,-2694.92,-0.041072,-0.025764,0.967055,85.82,1
16828,0,197295,212872,199185.29,215649.25,-1890.3,-2777.25,-0.040879,-0.025501,0.966982,85.83,1
16868,0,197208,212746,199145.75,215591.18,-1937.75,-2845.19,-0.04068,-0.025232,0.966904,85.83,1
16908,0,197048,212421,199103.79,215527.79,-2055.8,-3106.8,-0.040469,-0.024938,0.966807,85.83,1
16948,0,196910,212339,199059.92,215464.03,-2149.92,-3125.03,-0.040249,-0.024642,0.966717,85.83,1
16988,0,196909,212171,199016.92,215398.17,-2107.92,-3227.17,-0.040033,-0.024336,0.966608,85.83,1
17027,0,196739,211771,198971.37,215325.64,-2232.37,-3554.64,-0.039804,-0.023999,0.966468,85.84,1
17068,0,196537,211484,198922.68,215248.81,-2385.69,-3764.81,-0.039559,-0.023642,0.966313,85.84,1
17106,0,196400,211293,198872.23,215169.7,-2472.23,-3876.7,-0.039306,-0.023275,0.96615,85.85,1
17147,0,196272,210926,198820.23,215084.82,-2548.23,-4158.83,-0.039044,-0.02288,0.965949,85.85,1
17186,0,195965,210441,198763.12,214991.95,-2798.12,-4550.95,-0.038757,-0.022448,0.965711,85.86,1
17227,0,195717,209882,198702.2,214889.76,-2985.2,-5007.77,-0.03845,-0.021973,0.96541,85.86,1
17267,0,195582,209702,198639.79,214786.01,-3057.8,-5084.02,-0.038136,-0.02149,0.965101,85.87,1
17307,0,195509,209270,198577.18,214675.7,-3068.19,-5405.7,-0.037821,-0.020976,0.964721,85.88,1
17347,0,195182,208741,198509.28,214557,-3327.28,-5816,-0.037479,-0.020423,0.964285,85.89,1
17387,0,194971,208447,198438.51,214434.79,-3467.52,-5987.8,-0.037122,-0.019853,0.963826,85.9,1
17427,0,194833,208362,198366.4,214313.34,-3533.41,-5951.34,-0.036759,-0.019287,0.963384,85.92,1
17467,0,194786,208263,198294.79,214192.34,-3508.8,-5929.34,-0.036398,-0.018722,0.962939,85.93,1
17507,0,194698,208111,198222.85,214070.71,-3524.86,-5959.72,-0.036035,-0.018154,0.962484,85.94,1
17548,0,194624,207865,198150.89,213946.6,-3526.89,-6081.61,-0.035672,-0.017574,0.961993,85.95,1
17587,0,194397,207489,198075.81,213817.46,-3678.81,-6328.47,-0.035293,-0.01697,0.961461,85.96,1
17628,0,194242,207270,197999.14,213686.53,-3757.14,-6416.53,-0.034906,-0.016358,0.960916,85.98,1
17667,0,194047,206919,197920.09,213551.18,-3873.09,-6632.19,-0.034506,-0.015724,0.960329,85.99,1
17708,0,193835,206646,197838.4,213413.09,-4003.41,-6767.09,-0.034094,-0.015077,0.959725,86.01,1
17746,0,193662,206470,197754.87,213274.25,-4092.87,-6804.25,-0.033671,-0.014427,0.959125,86.02,1
17786,0,193555,206325,197670.87,213135.26,-4115.87,-6810.27,-0.033246,-0.013775,0.958524,86.04,1
17826,0,193412,206056,197585.7,212993.68,-4173.7,-6937.69,-0.032816,-0.01311,0.957892,86.05,1
17866,0,193328,205954,197500.56,212852.89,-4172.56,-6898.89,-0.032385,-0.012449,0.957267,86.07,1
17906,0,193274,205899,197416.04,212713.82,-4142.05,-6814.83,-0.031957,-0.011795,0.956656,86.08,1
17946,0,193240,205947,197332.53,212578.5,-4092.53,-6631.5,-0.031533,-0.011159,0.956084,86.1,1
17986,0,193288,206111,197251.65,212449.15,-3963.66,-6338.16,-0.031123,-0.01055,0.955565,86.11,1
18026,0,193361,206235,197173.84,212324.87,-3812.84,-6089.87,-0.030729,-0.009965,0.955078,86.12,1
18067,0,193446,206431,197099.29,212207,-3653.3,-5776,-0.030351,-0.00941,0.954639,86.13,1
18106,0,193520,206529,197027.71,212093.43,-3507.72,-5564.44,-0.029987,-0.008875,0.954221,86.14,1
18147,0,193572,206711,196958.6,211985.79,-3386.61,-5274.8,-0.029637,-0.008367,0.953849,86.15,1
18186,0,193660,206864,196892.64,211883.35,-3232.64,-5019.36,-0.029302,-0.007884,0.953506,86.16,1
18227,0,193736,207040,196829.51,211786.5,-3093.52,-4746.5,-0.028981,-0.007426,0.953197,86.17,1
18266,0,193864,207254,196770.2,211695.85,-2906.2,-4441.86,-0.02868,-0.006998,0.952919,86.18,1
18307,0,193968,207328,196714.15,211608.51,-2746.16,-4280.52,-0.028395,-0.006586,0.952644,86.18,1
18345,0,194018,207646,196660.23,211529.26,-2642.23,-3883.27,-0.028121,-0.006211,0.95243,86.19,1
18386,0,194245,207878,196611.93,211456.25,-2366.94,-3578.25,-0.027875,-0.005866,0.952228,86.19,1
18425,0,194269,207814,196565.07,211383.4,-2296.08,-3569.41,-0.027637,-0.005521,0.952014,86.2,1
18466,0,194315,207982,196520.07,211315.37,-2205.08,-3333.37,-0.027408,-0.005199,0.951827,86.2,1
18505,0,194453,208217,196478.75,211253.42,-2025.75,-3036.42,-0.027197,-0.004906,0.951662,86.21,1
18545,0,194594,208382,196441.04,211196,-1847.05,-2814,-0.027005,-0.004634,0.951507,86.21,1
18585,0,194676,208467,196405.75,211141.42,-1729.75,-2674.42,-0.026826,-0.004376,0.951357,86.22,1
18626,0,194711,208432,196371.85,211087.23,-1660.86,-2655.23,-0.026653,-0.004119,0.9512,86.22,1
18666,0,194634,208271,196337.1,211030.92,-1703.11,-2759.92,-0.026476,-0.003852,0.951032,86.22,1
18705,0,194576,208186,196301.89,210974.03,-1725.89,-2788.03,-0.026297,-0.003583,0.950862,86.23,1
18746,0,194536,208193,196266.57,210918.4,-1730.58,-2725.41,-0.026117,-0.003319,0.9507,86.23,1
18785,0,194584,208174,196232.93,210863.53,-1648.94,-2689.53,-0.025945,-0.003059,0.950533,86.24,1
18826,0,194577,208124,196199.82,210808.75,-1622.83,-2684.75,-0.025777,-0.002799,0.950363,86.24,1
18865,0,194556,208134,196166.95,210755.25,-1610.95,-2621.25,-0.025609,-0.002545,0.950199,86.25,1
18906,0,194566,208151,196134.93,210703.17,-1568.94,-2552.17,-0.025446,-0.002298,0.95004,86.25,1
18945,0,194553,208175,196103.31,210652.6,-1550.31,-2477.61,-0.025285,-0.002058,0.949888,86.25,1
18985,0,194514,208011,196071.53,210599.78,-1557.53,-2588.78,-0.025123,-0.001807,0.949719,86.26,1
19024,0,194364,207692,196037.39,210541.64,-1673.39,-2849.64,-0.024948,-0.001531,0.949522,86.26,1
19065,0,194221,207521,196001.06,210481.23,-1780.06,-2960.23,-0.024763,-0.001244,0.949319,86.27,1
19104,0,194157,207402,195964.18,210419.65,-1807.19,-3017.66,-0.024575,-0.000952,0.949108,86.27,1
19145,0,194039,207162,195925.68,210354.5,-1886.69,-3192.5,-0.024379,-0.000642,0.948873,86.28,1
19184,0,193897,206976,195885.1,210286.92,-1988.11,-3310.92,-0.024171,-0.000321,0.948629,86.28,1
19225,0,193798,206867,195843.35,210218.53,-2045.36,-3351.53,-0.023958,0.000005,0.948384,86.29,1
19264,0,193749,206821,195801.48,210150.59,-2052.48,-3329.59,-0.023744,0.000328,0.948143,86.3,1
19305,0,193738,206872,195760.21,210085.01,-2022.22,-3213.02,-0.023534,0.00064,0.947919,86.3,1
19345,0,193768,207031,195720.37,210023.93,-1952.38,-2992.94,-0.02333,0.000931,0.947725,86.31,1
19385,0,193886,207206,195683.68,209967.59,-1797.69,-2761.59,-0.023143,0.001199,0.947548,86.31,1
19425,0,193906,207244,195648.14,209913.12,-1742.14,-2669.12,-0.022961,0.001459,0.947378,86.32,1
19464,0,193913,207273,195613.45,209860.31,-1700.45,-2587.31,-0.022784,0.00171,0.947214,86.32,1
19505,0,193905,207248,195579.28,209808.06,-1674.28,-2560.06,-0.022609,0.001959,0.947052,86.32,1
19544,0,193874,207099,195545.18,209753.89,-1671.19,-2654.89,-0.022435,0.002217,0.946871,86.33,1
19585,0,193751,206843,195509.29,209695.67,-1758.3,-2852.67,-0.022251,0.002495,0.946665,86.33,1
19623,0,193673,206737,195472.56,209636.5,-1799.56,-2899.5,-0.022063,0.002777,0.946456,86.34,1
19664,0,193655,206763,195436.2,209579.04,-1781.2,-2816.05,-0.021877,0.003051,0.946258,86.34,1
19703,0,193680,206817,195401.07,209523.81,-1721.08,-2706.81,-0.021697,0.003315,0.946071,86.35,1
19744,0,193676,206813,195366.57,209469.6,-1690.58,-2656.61,-0.021521,0.003574,0.945887,86.35,1
19783,0,193663,206814,195332.51,209416.5,-1669.52,-2602.5,-0.021346,0.003827,0.945709,86.36,1
19824,0,193660,206705,195299.07,209362.26,-1639.08,-2657.27,-0.021175,0.004086,0.945514,86.36,1
19864,0,193577,206594,195264.64,209306.9,-1687.64,-2712.91,-0.020999,0.004351,0.945315,86.37,1
19904,0,193545,206584,195230.25,209252.43,-1685.25,-2668.44,-0.020823,0.004611,0.945124,86.37,1
19944,0,193528,206711,195196.21,209201.6,-1668.22,-2490.61,-0.020648,0.004854,0.944961,86.38,1
19984,0,193718,207195,195166.65,209161.48,-1448.66,-1966.48,-0.020497,0.005046,0.944851,86.38,1
20024,0,194036,207688,195144.04,209132.03,-1108.05,-1444.03,-0.020381,0.005187,0.944766,86.38,1
20064,0,194269,208033,195126.54,209110.04,-857.55,-1077.05,-0.020291,0.005292,0.94469,86.38,1
20104,0,194455,208253,195113.1,209092.9,-658.11,-839.91,-0.020223,0.005374,0.944618,86.38,1
20144,0,194549,208174,195101.82,209074.53,-552.83,-900.53,-0.020165,0.005461,0.944536,86.39,1
20184,0,194544,208056,195090.67,209054.17,-546.67,-998.17,-0.020107,0.005559,0.944446,86.39,1
20224,0,194483,207908,195078.51,209031.25,-595.52,-1123.25,-0.020045,0.005669,0.944349,86.39,1
20263,0,194398,207720,195064.9,209005.03,-666.91,-1285.03,-0.019975,0.005794,0.944241,86.39,1
20303,0,194260,207547,195048.81,208975.87,-788.81,-1428.88,-0.019893,0.005934,0.944126,86.4,1
20343,0,194200,207526,195031.84,208946.87,-831.84,-1420.88,-0.019806,0.006072,0.944016,86.4,1
20383,0,194162,207455,195014.43,208917.03,-852.44,-1462.03,-0.019717,0.006215,0.943903,86.4,1
20423,0,194136,207467,194996.87,208888.03,-860.88,-1421.03,-0.019627,0.006354,0.943794,86.41,1
20463,0,194135,207568,194979.64,208861.64,-844.64,-1293.64,-0.019538,0.00648,0.943699,86.41,1
20503,0,194190,207658,194963.84,208837.56,-773.84,-1179.56,-0.019457,0.006596,0.943609,86.41,1
20543,0,194219,207742,194948.95,208815.65,-729.95,-1073.66,-0.019381,0.0067,0.943525,86.41,1
20583,0,194220,207768,194934.39,208794.7,-714.39,-1026.7,-0.019306,0.006801,0.943445,86.41,1
20623,0,194193,207780,194919.56,208774.4,-726.56,-994.41,-0.01923,0.006898,0.943369,86.42,1
20663,0,194206,207821,194905.29,208755.34,-699.3,-934.34,-0.019157,0.006989,0.943296,86.42,1
20703,0,194198,207703,194891.14,208734.29,-693.14,-1031.3,-0.019084,0.00709,0.943214,86.42,1
20743,0,194168,207626,194876.68,208712.12,-708.69,-1086.13,-0.01901,0.007196,0.943129,86.42,1
20783,0,194159,207663,194862.34,208691.15,-703.34,-1028.16,-0.018936,0.007297,0.943049,86.42,1
20823,0,194179,207715,194848.67,208671.64,-669.67,-956.64,-0.018866,0.00739,0.942972,86.43,1
20862,0,194203,207739,194835.76,208653,-632.77,-914,-0.0188,0.00748,0.942897,86.43,1
20902,0,194193,207719,194822.9,208634.31,-629.91,-915.31,-0.018734,0.007569,0.942821,86.43,1
20942,0,194175,207747,194809.95,208616.56,-634.95,-869.56,-0.018667,0.007654,0.942751,86.43,1
20983,0,194216,207836,194798.06,208600.95,-582.06,-764.95,-0.018607,0.007729,0.942684,86.43,1
21022,0,194243,207931,194786.96,208587.56,-543.97,-656.56,-0.01855,0.007793,0.942623,86.43,1
21063,0,194311,208094,194777.45,208577.68,-466.45,-483.69,-0.018501,0.007841,0.942566,86.44,1
21102,0,194432,208302,194770.54,208572.18,-338.55,-270.19,-0.018465,0.007867,0.942512,86.44,1
21143,0,194546,208484,194766.06,208570.43,-220.06,-86.44,-0.018442,0.007875,0.942458,86.44,1
21182,0,194618,208619,194763.1,208571.4,-145.11,47.59,-0.018427,0.007871,0.942402,86.44,1
21222,0,194671,208705,194761.26,208574.07,-90.27,130.92,-0.018418,0.007858,0.942346,86.44,1
21262,0,194705,208654,194760.14,208575.67,-55.14,78.33,-0.018412,0.00785,0.942291,86.44,1
21302,0,194632,208458,194757.57,208573.31,-125.58,-115.31,-0.018399,0.007862,0.942237,86.44,1
21343,0,194613,208399,194754.7,208569.82,-141.7,-170.83,-0.018384,0.007878,0.942183,86.45,1
21382,0,194599,208366,194751.59,208565.75,-152.59,-199.75,-0.018368,0.007898,0.942129,86.45,1
21423,0,194582,208321,194748.2,208560.85,-166.2,-239.86,-0.01835,0.007921,0.942075,86.45,1
21462,0,194538,208223,194744.01,208554.09,-206.02,-331.09,-0.018329,0.007954,0.942019,86.45,1
21502,0,194478,208116,194738.7,208545.32,-260.7,-429.33,-0.018302,0.007996,0.941962,86.45,1
21541,0,194406,208029,194732.06,208535,-326.06,-506,-0.018268,0.008045,0.941904,86.45,1
21582,0,194359,207965,194724.6,208523.59,-365.61,-558.59,-0.018229,0.0081,0.941845,86.45,1
21621,0,194347,207992,194717.06,208512.96,-370.06,-520.97,-0.018191,0.008151,0.941789,86.46,1
21662,0,194349,207969,194709.7,208502.09,-360.7,-533.09,-0.018153,0.008203,0.941732,86.46,1
21701,0,194332,208010,194702.15,208492.26,-370.16,-482.27,-0.018114,0.00825,0.941678,86.46,1
21742,0,194362,208050,194695.34,208483.42,-333.34,-433.42,-0.018079,0.008293,0.941626,86.46,1
21782,0,194379,208089,194689.01,208475.53,-310.02,-386.53,-0.018047,0.008331,0.941575,86.46,1
21821,0,194373,208124,194682.68,208468.51,-309.69,-344.52,-0.018014,0.008364,0.941527,86.46,1
21862,0,194398,208151,194676.98,208462.17,-278.98,-311.17,-0.017985,0.008395,0.941478,86.46,1
21901,0,194374,207954,194670.93,208452.01,-296.94,-498.02,-0.017954,0.008443,0.941423,86.46,1
21942,0,194279,207763,194663.09,208438.25,-384.09,-675.25,-0.017913,0.008509,0.941359,86.47,1
21981,0,194249,207727,194654.81,208424.03,-405.81,-697.03,-0.017871,0.008578,0.941295,86.47,1
22022,0,194256,207745,194646.84,208410.45,-390.84,-665.45,-0.01783,0.008643,0.941233,86.47,1
22061,0,194279,207666,194639.48,208395.56,-360.48,-729.56,-0.017792,0.008714,0.941163,86.47,1
22102,0,194132,207319,194629.34,208374.03,-497.34,-1055.03,-0.01774,0.008818,0.941067,86.47,1
22140,0,193989,207199,194616.54,208350.53,-627.55,-1151.53,-0.017674,0.00893,0.940969,86.48,1
22181,0,193991,207305,194604.03,208329.62,-613.03,-1024.63,-0.01761,0.009031,0.940887,86.48,1
22220,0,194075,207463,194593.45,208312.29,-518.45,-849.3,-0.017556,0.009114,0.940816,86.48,1
22261,0,194161,207648,194584.81,208299.01,-423.81,-651.02,-0.017511,0.009178,0.940757,86.48,1
22300,0,194301,207835,194579.14,208289.75,-278.14,-454.75,-0.017482,0.009222,0.940704,86.48,1
22341,0,194408,207952,194575.71,208283,-167.72,-331,-0.017464,0.009255,0.940653,86.48,1
22381,0,194442,207947,194573.04,208276.28,-131.05,-329.28,-0.017451,0.009287,0.940602,86.48,1
22421,0,194402,207854,194569.64,208267.84,-167.64,-413.84,-0.017433,0.009327,0.940547,86.49,1
22461,0,194344,207770,194565.12,208257.89,-221.13,-487.89,-0.01741,0.009375,0.94049,86.49,1
22501,0,194269,207537,194559.2,208243.46,-290.2,-706.47,-0.01738,0.009444,0.940419,86.49,1
22541,0,194196,207363,194551.93,208225.87,-355.94,-862.88,-0.017342,0.009529,0.940334,86.49,1
22581,0,194168,207242,194544.26,208206.2,-376.27,-964.2,-0.017303,0.009623,0.940236,86.49,1
22621,0,194125,207177,194535.89,208185.62,-410.89,-1008.63,-0.01726,0.009722,0.940135,86.5,1
22661,0,194117,207149,194527.51,208164.9,-410.52,-1015.91,-0.017217,0.009822,0.940032,86.5,1
22701,0,194096,207067,194518.89,208142.95,-422.89,-1075.95,-0.017172,0.009927,0.93992,86.5,1
22740,0,194050,206970,194509.51,208119.5,-459.52,-1149.5,-0.017124,0.01004,0.939799,86.51,1
22780,0,194007,206891,194499.46,208094.92,-492.47,-1203.92,-0.017072,0.010158,0.93967,86.51,1
22820,0,193982,206898,194489.12,208070.98,-507.13,-1172.98,-0.017019,0.010273,0.939547,86.51,1
22860,0,194027,206989,194479.89,208049.34,-452.89,-1060.34,-0.016972,0.010377,0.939438,86.51,1
22900,0,194091,207045,194472.1,208029.26,-381.11,-984.27,-0.016932,0.010474,0.939333,86.52,1
22940,0,194089,207022,194464.45,208009.12,-375.45,-987.13,-0.016892,0.01057,0.939227,86.52,1
22980,0,194090,207017,194456.96,207989.29,-366.97,-972.3,-0.016854,0.010666,0.939121,86.52,1
23020,0,194065,207045,194449.12,207970.42,-384.13,-925.42,-0.016814,0.010756,0.939024,86.52,1
23060,0,194097,206997,194442.07,207950.95,-345.08,-953.95,-0.016777,0.01085,0.938918,86.53,1
23100,0,194019,206757,194433.6,207927.07,-414.61,-1170.08,-0.016734,0.010965,0.938781,86.53,1
23140,0,193999,206606,194424.92,207900.67,-425.92,-1294.67,-0.016689,0.011092,0.938619,86.53,1
23180,0,193950,206550,194415.42,207873.65,-465.42,-1323.66,-0.01664,0.011222,0.938454,86.54,1
23220,0,193988,206560,194406.87,207847.39,-418.88,-1287.39,-0.016596,0.011348,0.93829,86.54,1
23260,0,194009,206561,194398.92,207821.67,-389.92,-1260.67,-0.016555,0.011472,0.938128,86.55,1
23300,0,194034,206579,194391.64,207796.82,-357.64,-1217.83,-0.016518,0.011591,0.937971,86.55,1
23340,0,194078,206627,194385.37,207773.43,-307.38,-1146.44,-0.016486,0.011704,0.937823,86.55,1
23379,0,194136,206703,194380.39,207752.03,-244.39,-1049.03,-0.01646,0.011807,0.937688,86.56,1
23420,0,194215,206922,194377.07,207735.43,-162.08,-813.44,-0.016443,0.011887,0.937586,86.56,1
23459,0,194475,207382,194379.04,207728.37,95.95,-346.38,-0.016453,0.011921,0.937528,86.56,1
23499,0,194753,207838,194386.53,207730.57,366.47,107.42,-0.016492,0.01191,0.937495,86.56,1
23539,0,195031,208124,194399.42,207738.45,631.58,385.55,-0.016558,0.011872,0.93748,86.56,1
23579,0,195151,208299,194414.45,207749.67,736.55,549.33,-0.016635,0.011818,0.937469,86.56,1
23620,0,195250,208435,194431.17,207763.39,818.83,671.61,-0.016721,0.011752,0.93746,86.56,1
23659,0,195341,208553,194449.35,207779.18,891.64,773.81,-0.016815,0.011676,0.937453,86.56,1
23700,0,195375,208394,194467.87,207791.48,907.13,602.52,-0.01691,0.011617,0.937472,86.56,1
23739,0,195278,208113,194484.07,207797.92,793.92,315.08,-0.016993,0.011586,0.937492,86.56,1
23780,0,195221,207913,194498.82,207800.23,722.17,112.77,-0.017069,0.011575,0.937508,86.56,1
23819,0,195164,207809,194512.14,207800.4,651.86,8.59,-0.017138,0.011574,0.937513,86.56,1
23860,0,195176,207735,194525.42,207799.1,650.58,-64.11,-0.017206,0.011581,0.937518,86.56,1
23899,0,195147,207664,194537.85,207796.4,609.14,-132.41,-0.01727,0.011594,0.937516,86.56,1
23940,0,195169,207702,194550.48,207794.53,618.52,-92.53,-0.017335,0.011603,0.937516,86.56,1
23979,0,195271,208024,194564.9,207799.12,706.09,224.88,-0.017409,0.01158,0.937527,86.56,1
24019,0,195651,208821,194586.62,207819.56,1064.38,1001.44,-0.017521,0.011482,0.937528,86.56,1
24058,0,196359,210195,194622.07,207867.07,1736.92,2327.92,-0.017703,0.011253,0.937334,86.57,1
24099,0,197389,211881,194677.42,207947.35,2711.58,3933.64,-0.017987,0.010867,0.936699,86.58,1
24138,0,198507,214087,194754.01,208070.15,3752.98,6016.84,-0.01838,0.010277,0.934864,86.63,1
24179,0,200255,217360,194864.03,208255.95,5390.97,9104.05,-0.018945,0.009384,0.930349,86.74,1
24218,0,202030,220868,195007.34,208508.2,7022.66,12359.8,-0.01968,0.008174,0.921784,86.96,1
24259,0,204575,225776,195198.7,208853.56,9376.3,16922.44,-0.020661,0.006519,0.906252,87.34,1
24298,0,206983,231331,195434.39,209303.12,11548.61,22027.88,-0.021868,0.004369,0.881078,87.97,1
24339,0,210552,236066,195736.75,209838.37,14815.25,26227.63,-0.023414,0.001815,0.85442,88.64,1
24379,0,211514,236403,196052.29,210369.67,15461.7,26033.33,-0.025024,-0.000714,0.835024,89.12,1
24420,0,211330,235619,196357.84,210874.65,14972.16,24744.34,-0.026582,-0.003112,0.820958,89.48,1
24459,0,210423,233473,196639.14,211326.62,13783.86,22146.38,-0.028013,-0.005253,0.812037,89.7,1
24498,0,209295,231498,196892.26,211730.04,12402.73,19767.95,-0.0293,-0.00716,0.805813,89.85,1
24539,0,208851,232053,197131.43,212136.51,11719.56,19916.49,-0.030514,-0.009078,0.798363,90.04,1
24579,0,209155,232152,197371.9,212536.84,11783.09,19615.16,-0.031733,-0.010963,0.792148,90.2,1
24620,0,209453,232556,197613.53,212937.23,11839.47,19618.77,-0.032956,-0.012845,0.786476,90.34,1
24658,0,209229,232339,197845.84,213325.28,11383.16,19013.72,-0.034131,-0.014666,0.781338,90.47,1
24697,0,209564,233691,198080.21,213732.59,11483.78,19958.41,-0.035315,-0.016573,0.77519,90.62,1
24738,0,210293,234695,198324.48,214151.85,11968.52,20543.14,-0.036548,-0.018533,0.769386,90.77,1
24778,0,210494,234850,198567.87,214565.82,11926.12,20284.17,-0.037774,-0.020464,0.764301,90.89,1
24819,0,210578,235112,198808.07,214976.75,11769.92,20135.25,-0.038983,-0.022378,0.759495,91.01,1
24858,0,210652,235174,199044.96,215380.7,11607.03,19793.3,-0.040174,-0.024255,0.755195,91.12,1
24898,0,210696,235428,199278,215781.65,11418,19646.34,-0.041344,-0.026115,0.751038,91.22,1
24938,0,210847,235689,199509.37,216179.81,11337.62,19509.19,-0.042504,-0.027958,0.747165,91.32,1
24978,0,210938,236147,199737.95,216579.15,11200.05,19567.84,-0.043649,-0.029804,0.743216,91.42,1
25019,0,211510,237647,199973.4,217000.51,11536.59,20646.49,-0.044827,-0.031747,0.738622,91.53,1
25058,0,212394,238744,200221.81,217435.39,12172.19,21308.61,-0.046069,-0.03375,0.734422,91.64,1
25098,0,212814,239294,200473.65,217872.56,12340.34,21421.44,-0.047326,-0.035758,0.730592,91.74,1
25139,0,212933,239490,200722.84,218304.9,12210.16,21185.09,-0.048568,-0.03774,0.727077,91.82,1
25178,0,212933,239665,200967.04,218732.1,11965.95,20932.89,-0.049784,-0.039695,0.723694,91.91,1
25219,0,213016,239746,201208.01,219152.39,11807.98,20593.61,-0.050982,-0.041615,0.720645,91.98,1
25257,0,212907,239512,201442,219559.57,11465,19952.42,-0.052145,-0.043471,0.717963,92.05,1
25297,0,212801,239446,201669.17,219957.31,11131.83,19488.69,-0.053272,-0.045281,0.715439,92.11,1
25338,0,212731,239245,201890.42,220343.07,10840.58,18901.92,-0.054368,-0.047033,0.713224,92.17,1
25377,0,212597,238945,202104.56,220715.12,10492.44,18229.88,-0.055428,-0.048721,0.711296,92.22,1
25418,0,212379,238519,202310.04,221071.2,10068.95,17447.8,-0.056444,-0.050333,0.70963,92.26,1
25457,0,212180,238225,202507.43,221414.28,9672.56,16810.72,-0.05742,-0.051883,0.70811,92.3,1
25497,0,212081,238152,202698.92,221749.04,9382.08,16402.95,-0.058365,-0.053394,0.706653,92.33,1
25538,0,212098,238358,202886.9,222081.21,9211.09,16276.78,-0.059292,-0.054891,0.705158,92.37,1
25577,0,212203,238450,203073.23,222408.59,9129.77,16041.41,-0.06021,-0.056364,0.703799,92.41,1
25618,0,212219,238707,203256.15,222734.56,8962.84,15972.44,-0.06111,-0.057828,0.702362,92.44,1
25658,0,212481,239299,203440.65,223065.85,9040.34,16233.14,-0.062017,-0.059315,0.700844,92.48,1
25697,0,212682,239578,203625.48,223396.1,9056.52,16181.89,-0.062925,-0.060794,0.699418,92.51,1
25738,0,212944,240328,203811.85,223734.75,9132.14,16593.25,-0.06384,-0.062309,0.697799,92.56,1
25777,0,213304,241083,204001.7,224081.71,9302.3,17001.28,-0.064771,-0.063859,0.696084,92.6,1
25818,0,213643,241661,204194.53,224433.31,9448.47,17227.69,-0.065716,-0.065426,0.694391,92.64,1
25858,0,213917,242263,204388.98,224789.92,9528.02,17473.08,-0.066668,-0.067014,0.69264,92.68,1
25896,0,214234,242813,204585.87,225150.39,9648.12,17662.61,-0.067631,-0.068616,0.690918,92.73,1
25937,0,214481,243222,204783.78,225511.82,9697.22,17710.17,-0.068598,-0.07022,0.689261,92.77,1
25976,0,214652,243488,204981.15,225871.35,9670.84,17616.64,-0.069561,-0.071813,0.687696,92.81,1
26017,0,214776,243744,205177.04,226228.81,9598.95,17515.19,-0.070516,-0.073395,0.68618,92.85,1
26057,0,214858,243865,205370.67,226581.53,9487.33,17283.47,-0.07146,-0.074953,0.684764,92.88,1
26096,0,214973,244168,205562.71,226933.26,9410.28,17234.74,-0.072394,-0.076504,0.683348,92.92,1
26137,0,215228,244566,205756.03,227285.92,9471.97,17280.08,-0.073334,-0.078057,0.681998,92.95,1
26176,0,215536,245224,205951.64,227644.68,9584.36,17579.31,-0.074284,-0.079634,0.680585,92.99,1
26217,0,215996,245732,206152.53,228006.43,9843.47,17725.56,-0.075259,-0.081222,0.67936,93.02,1
26257,0,216280,246077,206355.07,228367.85,9924.92,17709.14,-0.076241,-0.082805,0.678264,93.04,1
26296,0,216393,245773,206555.84,228715.95,9837.16,17057.05,-0.077214,-0.084329,0.677555,93.06,1
26337,0,216399,245982,206752.71,229061.28,9646.28,16920.72,-0.078167,-0.085837,0.676773,93.08,1
26376,0,216614,246423,206949.95,229408.51,9664.05,17014.49,-0.07912,-0.087352,0.67597,93.1,1
26417,0,216846,246897,207147.87,229758.28,9698.12,17138.72,-0.080076,-0.088876,0.675141,93.12,1
26457,0,217165,247414,207348.21,230111.4,9816.78,17302.59,-0.081043,-0.090411,0.674341,93.14,1
26497,0,217504,248061,207551.34,230470.4,9952.66,17590.59,-0.082022,-0.09197,0.673506,93.16,1
26536,0,217829,248299,207756.9,230826.98,10072.09,17472.02,-0.083012,-0.093516,0.672888,93.18,1
26576,0,217851,248259,207958.78,231175.62,9892.22,17083.38,-0.083983,-0.095025,0.672366,93.19,1
26616,0,217850,248291,208156.6,231517.92,9693.39,16773.08,-0.084934,-0.096505,0.671867,93.2,1
26656,0,217851,248364,208350.5,231854.84,9500.5,16509.16,-0.085865,-0.097959,0.671367,93.22,1
26697,0,217922,248335,208541.93,232184.45,9380.06,16150.55,-0.086783,-0.09938,0.670986,93.23,1
26736,0,217748,248070,208726.06,232502.17,9021.94,15567.83,-0.087666,-0.100747,0.670639,93.23,1
26776,0,217652,247810,208904.59,232808.34,8747.41,15001.66,-0.088521,-0.102063,0.670383,93.24,1
26816,0,217423,247682,209074.95,233105.82,8348.05,14576.17,-0.089336,-0.10334,0.670039,93.25,1
26856,0,217419,247447,209241.82,233392.65,8177.17,14054.34,-0.090134,-0.10457,0.669838,93.25,1
26897,0,217202,246886,209401.04,233662.53,7800.95,13223.47,-0.090894,-0.105726,0.669765,93.26,1
26936,0,216927,246613,209551.57,233921.54,7375.42,12691.45,-0.091613,-0.106834,0.669637,93.26,1
26976,0,216877,246664,209698.09,234176.4,7178.91,12487.59,-0.092312,-0.107922,0.669469,93.26,1
27016,0,216822,246518,209840.57,234423.23,6981.42,12094.77,-0.092991,-0.108976,0.669346,93.27,1
27056,0,216711,246490,209977.98,234664.57,6733.02,11825.42,-0.093646,-0.110005,0.669178,93.27,1
27097,0,216721,246605,210112.84,234903.39,6608.16,11701.61,-0.094288,-0.111022,0.668986,93.28,1
27136,0,216754,246619,210245.67,235137.7,6508.33,11481.3,-0.09492,-0.112019,0.668825,93.28,1
27175,0,216753,246729,210375.82,235369.53,6377.17,11359.47,-0.095539,-0.113004,0.668636,93.28,1
27215,0,216751,246803,210503.32,235598.2,6247.67,11204.8,-0.096145,-0.113976,0.668432,93.29,1
27255,0,216761,246754,210628.48,235821.32,6132.52,10932.67,-0.096739,-0.114922,0.668272,93.29,1
27296,0,216655,246708,210749.01,236039.06,5905.98,10668.94,-0.097311,-0.115845,0.668084,93.3,1
27335,0,216564,246464,210865.32,236247.56,5698.67,10216.44,-0.097863,-0.116728,0.667953,93.3,1
27376,0,216337,246059,210974.76,236443.78,5362.23,9615.22,-0.098382,-0.117558,0.66786,93.3,1
27415,0,215985,245448,211074.98,236623.85,4910.02,8824.14,-0.098857,-0.118319,0.667808,93.3,1
27455,0,215595,244498,211165.39,236781.34,4429.61,7716.66,-0.099285,-0.118985,0.667875,93.3,1
27495,0,215058,243598,211243.25,236917.67,3814.75,6680.33,-0.099653,-0.11956,0.667967,93.3,1
27535,0,214824,243507,211314.87,237049.46,3509.12,6457.53,-0.099992,-0.120117,0.668,93.3,1
27575,0,214843,243763,211385.43,237183.75,3457.56,6579.25,-0.100326,-0.120683,0.667982,93.3,1
27615,0,214916,243893,211456.04,237317.93,3459.95,6575.06,-0.10066,-0.121248,0.667965,93.3,1
27656,0,214933,244133,211525.59,237454.23,3407.41,6678.77,-0.100989,-0.121823,0.6679,93.3,1
27695,0,215019,244236,211595.45,237589.87,3423.55,6646.12,-0.101319,-0.122394,0.667848,93.3,1
27736,0,214948,243804,211662.5,237714.15,3285.5,6089.84,-0.101636,-0.122917,0.667885,93.3,1
27774,0,214514,242782,211719.53,237815.51,2794.47,4966.48,-0.101905,-0.123343,0.668008,93.3,1
27815,0,213996,241641,211765.06,237892.01,2230.94,3748.98,-0.102121,-0.123665,0.668191,93.3,1
27854,0,213425,240989,211798.26,237953.96,1626.73,3035.03,-0.102277,-0.123925,0.668344,93.29,1
27895,0,213466,241343,211831.6,238021.75,1634.39,3321.25,-0.102435,-0.12421,0.668459,93.29,1
27934,0,213872,242269,211872.42,238106.68,1999.58,4162.31,-0.102627,-0.124567,0.668515,93.29,1
27975,0,214524,243817,211925.46,238220.9,2598.53,5596.09,-0.102878,-0.125046,0.668431,93.29,1
28014,0,215262,244765,211992.2,238351.79,3269.8,6413.2,-0.103193,-0.125595,0.668361,93.29,1
28055,0,215479,244611,212061.93,238476.98,3417.06,6134.02,-0.103521,-0.12612,0.668419,93.29,1
28095,0,215362,244317,212127.93,238593.79,3234.06,5723.2,-0.103833,-0.12661,0.66851,93.29,1
28134,0,215131,243700,212188,238695.92,2943,5004.08,-0.104116,-0.127038,0.668662,93.28,1
28175,0,214639,242535,212237.03,238772.71,2401.97,3762.28,-0.104347,-0.12736,0.66888,93.28,1
28214,0,213970,241562,212271.7,238828.5,1698.3,2733.5,-0.10451,-0.127593,0.669073,93.27,1
28255,0,213495,240976,212296.17,238871.45,1198.83,2104.55,-0.104625,-0.127773,0.669247,93.27,1
28294,0,213118,240508,212312.6,238904.18,805.39,1603.81,-0.104703,-0.12791,0.669413,93.26,1
28335,0,212762,240087,212321.59,238927.84,440.41,1159.16,-0.104745,-0.128009,0.669577,93.26,1
28374,0,212507,239998,212325.31,238949.25,181.69,1048.75,-0.104763,-0.128099,0.669735,93.26,1
28414,0,212498,240213,212328.76,238974.53,169.23,1238.47,-0.104779,-0.128205,0.669881,93.25,1
28453,0,212569,240267,212333.56,239000.39,235.44,1266.61,-0.104802,-0.128313,0.670026,93.25,1
28494,0,212517,240193,212337.23,239024.25,179.77,1168.75,-0.104819,-0.128413,0.670173,93.25,1
28533,0,212350,239810,212337.5,239039.96,12.5,770.03,-0.10482,-0.128479,0.670335,93.24,1
28574,0,211977,239275,212330.29,239044.67,-353.3,230.33,-0.104786,-0.128498,0.670516,93.24,1
28613,0,211543,238579,212314.54,239035.35,-771.55,-456.36,-0.104712,-0.128459,0.670722,93.23,1
28654,0,210971,237747,212287.68,239009.59,-1316.69,-1262.59,-0.104585,-0.128351,0.670969,93.23,1
28693,0,210555,237272,212253.03,238974.84,-1698.03,-1702.84,-0.104422,-0.128206,0.671258,93.22,1
28734,0,210244,236995,212212.84,238935.25,-1968.84,-1940.25,-0.104233,-0.12804,0.671593,93.21,1
28773,0,210073,236822,212170.04,238892.98,-2097.05,-2070.98,-0.104031,-0.127863,0.671949,93.2,1
28814,0,210017,236881,212127,238852.75,-2110,-1971.75,-0.103828,-0.127695,0.67232,93.19,1
28854,0,210100,236716,212086.46,238810.01,-1986.47,-2094.02,-0.103637,-0.127516,0.672644,93.18,1
28894,0,209940,236166,212043.54,238757.12,-2103.55,-2591.12,-0.103435,-0.127295,0.672939,93.18,1
28934,0,209674,235616,211996.17,238694.29,-2322.17,-3078.3,-0.103211,-0.127031,0.673229,93.17,1
28975,0,209412,234670,211944.48,238613.82,-2532.48,-3943.83,-0.102967,-0.126694,0.673428,93.16,1
29014,0,208991,234042,211885.4,238522.4,-2894.41,-4480.41,-0.102689,-0.126311,0.673645,93.16,1
29052,0,208867,233590,211825.04,238423.76,-2958.05,-4833.77,-0.102404,-0.125897,0.673797,93.16,1
29093,0,208703,233186,211762.6,238319.01,-3059.61,-5133.02,-0.102109,-0.125458,0.67391,93.15,1
29133,0,208483,232526,211697.01,238203.15,-3214.02,-5677.16,-0.101799,-0.124972,0.673929,93.15,1
29173,0,208321,232957,211629.5,238098.23,-3308.5,-5141.23,-0.10148,-0.124531,0.674152,93.15,1
29213,0,208975,233511,211576.4,238006.5,-2601.41,-4495.5,-0.101229,-0.124146,0.674233,93.14,1
29253,0,209112,233444,211527.1,237915.25,-2415.11,-4471.25,-0.100996,-0.123762,0.674247,93.14,1
29293,0,209051,232897,211477.59,237814.89,-2426.59,-4917.89,-0.100762,-0.12334,0.674142,93.15,1
29333,0,208627,232327,211420.59,237705.14,-2793.59,-5378.14,-0.100493,-0.122879,0.674044,93.15,1
29373,0,208356,231924,211359.31,237589.53,-3003.31,-5665.53,-0.100203,-0.122392,0.673944,93.15,1
29414,0,208134,231635,211294.81,237470.45,-3160.81,-5835.45,-0.099897,-0.121891,0.673859,93.15,1
29453,0,207950,231368,211227.92,237348.4,-3277.92,-5980.41,-0.099581,-0.121377,0.67378,93.16,1
29494,0,207843,231216,211160.23,237225.75,-3317.23,-6009.75,-0.09926,-0.12086,0.673707,93.16,1
29533,0,207790,230869,211092.82,237098.6,-3302.83,-6229.61,-0.098941,-0.120324,0.673542,93.16,1
29573,0,207468,230196,211020.32,236960.56,-3552.33,-6764.56,-0.098598,-0.119741,0.673304,93.17,1
29613,0,206979,229529,210939.5,236811.93,-3960.5,-7282.94,-0.098214,-0.119114,0.673091,93.17,1
29652,0,206541,229065,210851.53,236657,-4310.53,-7592,-0.097797,-0.118459,0.672972,93.18,1
29692,0,206113,228551,210756.76,236494.87,-4643.77,-7943.87,-0.097348,-0.117774,0.672928,93.18,1
29732,0,205823,228161,210658.09,236328.2,-4835.09,-8167.2,-0.096879,-0.117069,0.67292,93.18,1
29772,0,205561,228081,210556.15,236163.26,-4995.16,-8082.27,-0.096395,-0.116371,0.673083,93.17,1
29812,0,205628,228098,210457.59,236001.95,-4829.59,-7903.95,-0.095927,-0.115688,0.673195,93.17,1
29853,0,205629,228080,210361.03,235843.51,-4732.03,-7763.52,-0.095468,-0.115016,0.673295,93.17,1
29892,0,205693,227850,210267.67,235683.65,-4574.67,-7833.66,-0.095024,-0.114338,0.673236,93.17,1
29933,0,205453,227249,210171.39,235514.96,-4718.39,-8265.97,-0.094566,-0.113622,0.67307,93.17,1
29972,0,204979,226272,210067.54,235330.1,-5088.55,-9058.11,-0.094072,-0.112837,0.67278,93.18,1
30013,0,204297,225229,209952.14,235128.09,-5655.14,-9899.09,-0.093523,-0.111978,0.672505,93.19,1
30052,0,203819,224565,209829.48,234916.82,-6010.48,-10351.83,-0.092938,-0.111079,0.672294,93.19,1
30093,0,203329,223754,209699.48,234693.57,-6370.48,-10939.58,-0.092319,-0.110128,0.672069,93.2,1
30133,0,202770,222869,209560.9,234457.09,-6790.91,-11588.09,-0.091657,-0.10912,0.671857,93.2,1
30172,0,202282,222219,209415.32,234212.32,-7133.33,-11993.33,-0.090963,-0.108076,0.671751,93.21,1
30213,0,201906,221619,209265.15,233960.46,-7359.16,-12341.47,-0.090245,-0.107,0.671657,93.21,1
30252,0,201500,221128,209109.85,233703.82,-7609.86,-12575.83,-0.089503,-0.105902,0.671697,93.21,1
30292,0,201311,220989,208953.89,233449.53,-7642.89,-12460.53,-0.088757,-0.104814,0.671864,93.2,1
30332,0,201346,221079,208801.73,233202.12,-7455.73,-12123.12,-0.088028,-0.103753,0.672045,93.2,1
30371,0,201273,221161,208651.15,232961.31,-7378.16,-11800.31,-0.087307,-0.10272,0.672361,93.19,1
30412,0,201315,221334,208504.43,232728.78,-7189.44,-11394.78,-0.086603,-0.101721,0.67273,93.18,1
30451,0,201478,221519,208363.92,232504.57,-6885.92,-10985.58,-0.085929,-0.100758,0.673019,93.17,1
30492,0,201508,221198,208226.79,232278.43,-6718.8,-11080.44,-0.085271,-0.099785,0.673052,93.17,1
30531,0,201347,220911,208089.2,232051.09,-6742.2,-11140.09,-0.08461,-0.098805,0.673068,93.17,1
30572,0,201284,220784,207953.1,231825.75,-6669.11,-11041.75,-0.083956,-0.097834,0.673068,93.17,1
30612,0,201176,220717,207817.56,231603.57,-6641.56,-10886.58,-0.083304,-0.096875,0.673138,93.17,1
30652,0,201213,220673,207685.48,231384.96,-6472.48,-10711.97,-0.082668,-0.095931,0.673138,93.17,1
30692,0,201030,220217,207552.37,231161.62,-6522.37,-10944.62,-0.082027,-0.094965,0.673036,93.17,1
30731,0,200703,219939,207415.39,230937.17,-6712.39,-10998.17,-0.081367,-0.093993,0.673104,93.17,1
30772,0,200649,220044,207280.07,230719.31,-6631.08,-10675.31,-0.080714,-0.09305,0.673291,93.17,1
30812,0,200749,220116,207149.46,230507.25,-6400.47,-10391.25,-0.080084,-0.09213,0.67341,93.16,1
30852,0,200526,219528,207017,230287.67,-6491,-10759.67,-0.079444,-0.091177,0.673385,93.17,1
30892,0,200297,219602,206882.59,230073.96,-6585.59,-10471.97,-0.078795,-0.090249,0.673644,93.16,1
30930,0,200427,219505,206753.5,229862.59,-6326.5,-10357.59,-0.07817,-0.089329,0.673697,93.16,1
30971,0,200158,219127,206621.59,229647.89,-6463.59,-10520.89,-0.077532,-0.088395,0.673788,93.16,1
31010,0,200053,219113,206490.23,229437.2,-6437.23,-10324.2,-0.076896,-0.087477,0.673973,93.15,1
31051,0,199940,218686,206359.23,229222.18,-6419.23,-10536.19,-0.076262,-0.086539,0.674,93.15,1
31091,0,199658,218315,206225.2,229004.04,-6567.2,-10689.05,-0.075612,-0.085587,0.674085,93.15,1
31131,0,199497,217750,206090.64,228778.96,-6593.64,-11028.97,-0.074959,-0.084604,0.673972,93.15,1
31171,0,199194,217324,205952.7,228549.87,-6758.7,-11225.87,-0.07429,-0.083602,0.673905,93.15,1
31210,0,199050,217227,205814.65,228323.42,-6764.66,-11096.42,-0.073619,-0.082611,0.673931,93.15,1
31251,0,199060,217272,205679.56,228102.39,-6619.56,-10830.39,-0.072962,-0.081642,0.673972,93.15,1
31291,0,199041,217045,205546.78,227881.25,-6505.78,-10836.25,-0.072317,-0.080672,0.673884,93.15,1
31331,0,198837,216747,205412.57,227658.56,-6575.58,-10911.56,-0.071664,-0.079695,0.673821,93.15,1
31371,0,198717,216642,205278.67,227438.23,-6561.67,-10796.23,-0.071012,-0.078726,0.673817,93.15,1
31412,0,198632,216358,205145.75,227216.62,-6513.75,-10858.62,-0.070364,-0.077752,0.673719,93.16,1
31451,0,198443,216162,205011.7,226995.53,-6568.7,-10833.53,-0.06971,-0.076778,0.673694,93.16,1
31491,0,198353,216007,204878.53,226775.76,-6525.53,-10768.77,-0.06906,-0.075809,0.673664,93.16,1
31531,0,198213,215872,204745.23,226557.68,-6532.23,-10685.69,-0.06841,-0.074847,0.673692,93.16,1
31570,0,198137,215724,204613.06,226341.01,-6476.06,-10617.02,-0.067764,-0.07389,0.673703,93.16,1
31611,0,198048,215685,204481.76,226127.9,-6433.77,-10442.91,-0.067122,-0.072948,0.673778,93.16,1
31650,0,198115,215811,204354.43,225921.57,-6239.44,-10110.58,-0.066499,-0.072036,0.673854,93.15,1
31691,0,198205,216015,204231.45,225723.45,-6026.45,-9708.45,-0.065897,-0.071158,0.673956,93.15,1
31730,0,198347,216015,204113.76,225529.28,-5766.77,-9514.28,-0.065321,-0.070298,0.673918,93.15,1
31770,0,198265,215638,203996.79,225331.46,-5731.8,-9693.47,-0.064747,-0.06942,0.673741,93.16,1
31810,0,198084,215351,203878.54,225131.85,-5794.55,-9780.86,-0.064167,-0.068534,0.673571,93.16,1
31850,0,197986,215238,203760.7,224933.98,-5774.7,-9695.98,-0.063589,-0.067655,0.673432,93.16,1
31890,0,197950,215269,203644.5,224740.68,-5694.5,-9471.69,-0.063019,-0.066795,0.673347,93.17,1
31930,0,198053,215442,203532.67,224554.71,-5479.67,-9112.72,-0.06247,-0.065967,0.673266,93.17,1
31971,0,198132,215543,203424.65,224374.48,-5292.66,-8831.48,-0.061939,-0.065164,0.67317,93.17,1
32010,0,198235,215801,203320.87,224203.01,-5085.87,-8402.02,-0.061428,-0.0644,0.673123,93.17,1
32051,0,198403,216045,203222.53,224039.85,-4819.53,-7994.86,-0.060945,-0.063672,0.673059,93.17,1
32090,0,198580,216454,203129.67,223888.14,-4549.67,-7434.14,-0.060488,-0.062994,0.67305,93.17,1
32131,0,198871,216871,203044.5,223747.79,-4173.5,-6876.8,-0.060068,-0.062367,0.673012,93.17,1
32169,0,199072,217162,202965.04,223616.07,-3893.05,-6454.08,-0.059677,-0.061778,0.672957,93.18,1
32210,0,199202,217359,202889.79,223490.93,-3687.8,-6131.94,-0.059306,-0.061219,0.672896,93.18,1
32249,0,199341,217680,202818.81,223374.71,-3477.81,-5694.72,-0.058956,-0.060698,0.672869,93.18,1
32290,0,199548,217887,202753.39,223264.96,-3205.39,-5377.97,-0.058633,-0.060207,0.672796,93.18,1
32329,0,199585,217978,202690.03,223159.23,-3105.03,-5181.23,-0.058321,-0.059733,0.672734,93.18,1
32370,0,199725,218324,202630.73,223062.53,-2905.73,-4738.53,-0.058028,-0.0593,0.672708,93.18,1
32409,0,199907,218285,202576.26,222966.98,-2669.27,-4681.98,-0.057759,-0.058871,0.672582,93.19,1
32450,0,199861,218103,202521.96,222869.71,-2660.97,-4766.72,-0.057491,-0.058435,0.672425,93.19,1
32489,0,199843,217955,202468.39,222771.42,-2625.39,-4816.42,-0.057227,-0.057994,0.672233,93.19,1
32530,0,199690,217600,202412.82,222668,-2722.83,-5068,-0.056952,-0.05753,0.672005,93.2,1
32569,0,199432,217300,202353.21,222560.64,-2921.22,-5260.64,-0.056658,-0.057047,0.671809,93.2,1
32610,0,199330,217277,202292.75,222454.98,-2962.75,-5177.98,-0.056359,-0.056573,0.671665,93.21,1
32650,0,199270,217109,202232.31,222348.06,-2962.31,-5239.06,-0.05606,-0.056092,0.671496,93.21,1
32690,0,199115,216878,202169.96,222238.67,-3054.97,-5360.67,-0.055752,-0.0556,0.671335,93.22,1
32730,0,199050,217011,202107.57,222134.12,-3057.58,-5123.12,-0.055443,-0.055129,0.671259,93.22,1
32770,0,199163,217124,202048.7,222033.93,-2885.7,-4909.94,-0.055152,-0.054678,0.671161,93.22,1
32809,0,199138,217039,201990.5,221934.04,-2852.5,-4895.05,-0.054864,-0.054228,0.671049,93.22,1
32848,0,199089,216963,201932.46,221834.64,-2843.47,-4871.64,-0.054576,-0.05378,0.670939,93.23,1
32889,0,198954,216750,201872.9,221732.95,-2918.91,-4982.95,-0.054281,-0.053321,0.670832,93.23,1
32928,0,198772,216569,201810.89,221629.67,-3038.89,-5060.67,-0.053974,-0.052856,0.670765,93.23,1
32969,0,198669,216376,201748.04,221524.59,-3079.05,-5148.59,-0.053663,-0.052381,0.670689,93.23,1
33008,0,198456,216134,201682.21,221416.78,-3226.22,-5282.78,-0.053336,-0.051894,0.670654,93.23,1
33049,0,198350,216123,201615.57,221310.9,-3265.58,-5187.91,-0.053006,-0.051416,0.67068,93.23,1
33088,0,198341,215875,201550.07,221202.18,-3209.08,-5327.19,-0.052681,-0.050925,0.670615,93.23,1
33129,0,198135,215438,201481.78,221086.9,-3346.78,-5648.91,-0.052342,-0.050404,0.670509,93.24,1
33168,0,197966,215331,201411.46,220971.79,-3445.47,-5640.8,-0.051993,-0.049883,0.670474,93.24,1
33209,0,197946,215327,201342.17,220858.9,-3396.17,-5531.91,-0.051649,-0.049372,0.67045,93.24,1
33249,0,197891,215269,201273.14,220747.1,-3382.14,-5478.11,-0.051306,-0.048866,0.670438,93.24,1
33289,0,197872,215335,201205.12,220638.87,-3333.12,-5303.87,-0.050968,-0.048375,0.670464,93.24,1
33329,0,197870,215263,201138.43,220531.37,-3268.44,-5268.37,-0.050636,-0.047888,0.670458,93.24,1
33369,0,197781,215169,201071.29,220424.12,-3290.3,-5255.12,-0.050303,-0.047401,0.670473,93.24,1
33409,0,197716,215162,201004.18,220318.87,-3288.19,-5156.87,-0.049969,-0.046924,0.670526,93.24,1
33448,0,197694,215133,200937.98,220215.15,-3243.98,-5082.16,-0.049639,-0.046453,0.670579,93.24,1
33488,0,197631,215090,200871.85,220112.65,-3240.86,-5022.66,-0.04931,-0.045987,0.670653,93.23,1
33529,0,197603,215058,200806.48,220011.56,-3203.48,-4953.56,-0.048985,-0.045528,0.670728,93.23,1
33568,0,197496,214927,200740.28,219909.87,-3244.28,-4982.87,-0.048655,-0.045065,0.670821,93.23,1
33607,0,197396,214796,200673.4,219807.6,-3277.41,-5011.61,-0.048322,-0.0446,0.670926,93.23,1
33648,0,197285,214627,200605.64,219704.01,-3320.64,-5077.02,-0.047984,-0.044129,0.671036,93.22,1
33688,0,197166,214412,200536.84,219598.17,-3370.84,-5186.17,-0.047641,-0.043647,0.671138,93.22,1
33728,0,196945,213875,200465.01,219483.71,-3520.02,-5608.72,-0.047283,-0.043126,0.671166,93.22,1
33768,0,196647,213247,200388.65,219358.98,-3741.66,-6111.98,-0.046902,-0.042557,0.67113,93.22,1
33808,0,196473,213027,200310.34,219232.35,-3837.34,-6205.36,-0.046511,-0.04198,0.671128,93.22,1
33848,0,196255,212738,200229.23,219102.48,-3974.23,-6364.48,-0.046106,-0.041387,0.671162,93.22,1
33889,0,196102,212523,200146.7,218970.89,-4044.7,-6447.89,-0.045694,-0.040786,0.671215,93.22,1
33928,0,196022,212416,200064.2,218839.79,-4042.2,-6423.8,-0.045281,-0.040188,0.671278,93.22,1
33969,0,195961,212365,199982.14,218710.29,-4021.14,-6345.3,-0.044871,-0.039596,0.671363,93.22,1
34008,0,195961,212475,199901.71,218585.59,-3940.72,-6110.59,-0.044469,-0.039025,0.671499,93.21,1
34049,0,196064,212652,199824.96,218466.93,-3760.97,-5814.94,-0.044085,-0.038482,0.671625,93.21,1
34087,0,196143,212844,199751.32,218354.48,-3608.33,-5510.48,-0.043716,-0.037968,0.671769,93.21,1
34128,0,196221,212921,199680.73,218245.82,-3459.73,-5324.83,-0.043363,-0.03747,0.671877,93.2,1
34167,0,196210,212909,199611.32,218139.09,-3401.33,-5230.09,-0.043015,-0.036981,0.671982,93.2,1
34207,0,196197,212949,199543.04,218035.29,-3346.05,-5086.3,-0.042673,-0.036505,0.672108,93.2,1
34247,0,196230,213008,199476.78,217934.75,-3246.78,-4926.75,-0.042341,-0.036043,0.672227,93.19,1
34287,0,196235,213132,199411.95,217838.7,-3176.95,-4706.7,-0.042016,-0.035603,0.672387,93.19,1
34327,0,196360,213333,199350.92,217748.59,-2990.92,-4415.59,-0.04171,-0.035189,0.672528,93.19,1
34367,0,196386,213130,199291.62,217656.21,-2905.62,-4526.22,-0.041412,-0.034765,0.672564,93.19,1
34408,0,196316,212991,199232.1,217562.9,-2916.11,-4571.91,-0.041114,-0.034336,0.672589,93.19,1
34447,0,196293,212967,199173.32,217471,-2880.33,-4504,-0.040819,-0.033913,0.672616,93.18,1
34488,0,196273,212934,199115.31,217380.25,-2842.31,-4446.25,-0.040527,-0.033496,0.672641,93.18,1
34527,0,196243,212877,199057.87,217290.2,-2814.87,-4413.2,-0.040239,-0.033082,0.67266,93.18,1
34568,0,196221,212895,199001.14,217202.31,-2780.14,-4307.31,-0.039954,-0.032677,0.672698,93.18,1
34607,0,196254,212994,198946.2,217118.14,-2692.2,-4124.14,-0.039677,-0.032289,0.672748,93.18,1
34648,0,196357,213164,198894.42,217039.06,-2537.42,-3875.06,-0.039417,-0.031925,0.672791,93.18,1
34686,0,196461,213302,198845.75,216964.32,-2384.75,-3662.33,-0.039172,-0.031581,0.672814,93.18,1
34727,0,196560,213492,198800.04,216894.89,-2240.05,-3402.89,-0.038943,-0.031261,0.67284,93.18,1
34766,0,196666,213689,198757.35,216830.78,-2091.36,-3141.78,-0.038728,-0.030965,0.672865,93.18,1
34807,0,196808,213879,198718.37,216771.75,-1910.38,-2892.75,-0.038532,-0.030693,0.672869,93.18,1
34847,0,196923,214078,198682.46,216717.87,-1759.47,-2639.87,-0.038351,-0.030444,0.67287,93.18,1
34887,0,197008,214137,198648.98,216666.25,-1640.98,-2529.25,-0.038182,-0.030206,0.672846,93.18,1
34927,0,197013,214183,198616.28,216616.57,-1603.28,-2433.58,-0.038018,-0.029977,0.67283,93.18,1
34966,0,197054,214246,198585.03,216569.17,-1531.03,-2323.17,-0.03786,-0.029758,0.672811,93.18,1
35007,0,197068,214118,198554.68,216520.15,-1486.69,-2402.16,-0.037708,-0.029531,0.672754,93.18,1
35046,0,196933,213741,198522.25,216464.56,-1589.25,-2723.56,-0.037544,-0.029275,0.672655,93.18,1
35087,0,196821,213629,198488.23,216407.85,-1667.23,-2778.86,-0.037373,-0.029013,0.672576,93.19,1
35126,0,196880,213770,198456.06,216355.1,-1576.06,-2585.11,-0.037211,-0.028769,0.67251,93.19,1
35167,0,196990,213916,198426.73,216306.32,-1436.73,-2390.33,-0.037063,-0.028543,0.672436,93.19,1
35206,0,197121,214141,198400.62,216263.01,-1279.63,-2122.02,-0.036931,-0.028343,0.672365,93.19,1
35247,0,197263,214298,198377.87,216223.71,-1114.88,-1925.72,-0.036817,-0.028161,0.67228,93.19,1
35286,0,197337,214423,198357.06,216187.7,-1020.06,-1764.7,-0.036712,-0.027995,0.672198,93.2,1
35326,0,197424,214531,198338.4,216154.57,-914.41,-1623.58,-0.036618,-0.027841,0.672113,93.2,1
35365,0,197445,214506,198320.54,216121.6,-875.55,-1615.61,-0.036528,-0.027689,0.672018,93.2,1
35406,0,197420,214537,198302.54,216089.92,-882.55,-1552.92,-0.036437,-0.027542,0.671936,93.2,1
35446,0,197441,214486,198285.31,216057.84,-844.31,-1571.84,-0.03635,-0.027394,0.671841,93.2,1
35486,0,197327,214299,198266.15,216022.67,-939.16,-1723.67,-0.036253,-0.027231,0.671743,93.21,1
35526,0,197216,214190,198245.15,215986.01,-1029.16,-1796.02,-0.036147,-0.027061,0.671658,93.21,1
35566,0,197162,214153,198223.48,215949.35,-1061.48,-1796.36,-0.036038,-0.026892,0.671584,93.21,1
35606,0,197182,214246,198202.65,215915.29,-1020.66,-1669.3,-0.035933,-0.026734,0.671522,93.21,1
35646,0,197196,214095,198182.53,215878.9,-986.53,-1783.91,-0.035832,-0.026565,0.671425,93.21,1
35686,0,196996,213614,198158.81,215833.6,-1162.81,-2219.61,-0.035712,-0.026355,0.671285,93.22,1
35727,0,196841,213377,198132.45,215784.48,-1291.45,-2407.48,-0.035579,-0.026128,0.671142,93.22,1
35766,0,196754,213314,198104.89,215735.07,-1350.89,-2421.08,-0.03544,-0.025899,0.67102,93.22,1
35807,0,196755,213275,198077.89,215685.87,-1322.89,-2410.87,-0.035303,-0.025671,0.670889,93.23,1
35846,0,196695,213237,198050.25,215636.89,-1355.25,-2399.89,-0.035164,-0.025444,0.670775,93.23,1
35885,0,196711,213297,198023.46,215590.09,-1312.47,-2293.09,-0.035029,-0.025227,0.670673,93.23,1
35926,0,196750,213418,197998,215546.65,-1248,-2128.66,-0.0349,-0.025025,0.670589,93.24,1
35965,0,196855,213595,197975.14,215507.64,-1120.14,-1912.64,-0.034785,-0.024844,0.670509,93.24,1
36005,0,196985,213848,197955.34,215474.43,-970.34,-1626.44,-0.034685,-0.02469,0.67044,93.24,1
36045,0,197142,214098,197939.07,215446.9,-797.08,-1348.91,-0.034602,-0.024562,0.670372,93.24,1
36085,0,197262,214272,197925.53,215423.4,-663.53,-1151.41,-0.034534,-0.024453,0.670301,93.24,1
36125,0,197327,214378,197913.57,215402.5,-586.58,-1024.5,-0.034473,-0.024356,0.670232,93.24,1
36165,0,197400,214473,197903.31,215383.9,-503.31,-910.91,-0.034422,-0.02427,0.670162,93.25,1
36205,0,197397,214440,197893.18,215365.03,-496.19,-925.03,-0.034371,-0.024182,0.67009,93.25,1
36245,0,197371,214426,197882.75,215346.25,-511.75,-920.25,-0.034318,-0.024095,0.67002,93.25,1
36285,0,197328,214218,197871.65,215323.68,-543.66,-1105.69,-0.034262,-0.02399,0.669931,93.25,1
36325,0,197162,213839,197857.46,215294,-695.47,-1455,-0.03419,-0.023852,0.669815,93.25,1
36365,0,197009,213663,197840.51,215261.39,-831.52,-1598.39,-0.034104,-0.023701,0.669707,93.26,1
36405,0,196955,213575,197822.79,215227.67,-867.8,-1652.67,-0.034015,-0.023544,0.669598,93.26,1
36445,0,196875,213415,197803.84,215191.42,-928.84,-1776.42,-0.033919,-0.023376,0.669478,93.26,1
36485,0,196748,213318,197782.71,215153.95,-1034.72,-1835.95,-0.033812,-0.023202,0.669384,93.27,1
36525,0,196697,213293,197761,215116.73,-1064,-1823.73,-0.033702,-0.023029,0.669305,93.27,1
36566,0,196668,213259,197739.14,215079.59,-1071.14,-1820.59,-0.033592,-0.022856,0.66923,93.27,1
36604,0,196635,213242,197717.06,215042.84,-1082.06,-1800.84,-0.03348,-0.022685,0.669165,93.27,1
36645,0,196627,213282,197695.26,215007.62,-1068.27,-1725.63,-0.03337,-0.022521,0.669114,93.27,1
36684,0,196663,213359,197674.62,214974.65,-1011.63,-1615.66,-0.033265,-0.022368,0.669068,93.27,1
36725,0,196686,213360,197654.85,214942.37,-968.86,-1582.38,-0.033165,-0.022218,0.669012,93.27,1
36764,0,196642,213340,197634.6,214910.32,-992.61,-1570.33,-0.033063,-0.022069,0.668969,93.28,1
36805,0,196627,213346,197614.46,214879.04,-987.47,-1533.05,-0.032961,-0.021923,0.668934,93.28,1
36844,0,196609,213359,197594.37,214848.65,-985.38,-1489.66,-0.032859,-0.021782,0.668909,93.28,1
36885,0,196601,213329,197574.5,214818.26,-973.5,-1489.27,-0.032759,-0.02164,0.668879,93.28,1
36924,0,196468,212831,197552.37,214778.53,-1084.38,-1947.53,-0.032647,-0.021455,0.668772,93.28,1
36965,0,196228,212502,197525.89,214733.01,-1297.89,-2231.02,-0.032513,-0.021243,0.668679,93.28,1
37004,0,196105,212396,197497.46,214686.28,-1392.47,-2290.28,-0.032369,-0.021026,0.66862,93.28,1
37045,0,196048,212325,197468.46,214639.06,-1420.47,-2314.06,-0.032222,-0.020806,0.66857,93.29,1
37085,0,195961,212185,197438.32,214589.98,-1477.33,-2404.98,-0.032069,-0.020577,0.668522,93.29,1
37125,0,195867,212003,197406.9,214538.25,-1539.91,-2535.25,-0.03191,-0.020336,0.668461,93.29,1
37165,0,195723,211788,197373.21,214483.25,-1650.22,-2695.25,-0.03174,-0.020079,0.66841,93.29,1
37203,0,195624,211681,197338.25,214427.21,-1714.25,-2746.22,-0.031562,-0.019818,0.668385,93.29,1
37244,0,195569,211608,197302.85,214370.82,-1733.86,-2762.83,-0.031383,-0.019555,0.668368,93.29,1
37283,0,195525,211499,197267.31,214313.4,-1742.31,-2814.41,-0.031203,-0.019287,0.668333,93.29,1
37324,0,195428,211388,197230.53,214254.9,-1802.53,-2866.91,-0.031016,-0.019014,0.668322,93.29,1
37363,0,195372,211309,197193.35,214196,-1821.36,-2887,-0.030828,-0.018739,0.668318,93.29,1
37404,0,195337,211297,197156.23,214138.01,-1819.23,-2841.02,-0.03064,-0.018468,0.668335,93.29,1
37443,0,195299,211248,197119.09,214080.21,-1820.09,-2832.22,-0.030451,-0.018199,0.668358,93.29,1
37484,0,195277,211225,197082.26,214023.12,-1805.27,-2798.12,-0.030264,-0.017932,0.668386,93.29,1
37524,0,195208,210948,197044.78,213961.62,-1836.78,-3013.62,-0.030074,-0.017644,0.668328,93.29,1
37564,0,195027,210523,197004.43,213892.84,-1977.44,-3369.84,-0.029869,-0.017323,0.668193,93.3,1
37604,0,194857,210342,196961.5,213821.82,-2104.5,-3479.83,-0.029651,-0.016991,0.668117,93.3,1
37644,0,194817,210292,196918.62,213751.23,-2101.62,-3459.23,-0.029434,-0.016661,0.668051,93.3,1
37684,0,194810,210362,196876.45,213683.45,-2066.45,-3321.45,-0.029219,-0.016343,0.668035,93.3,1
37724,0,194870,210460,196836.32,213618.98,-1966.33,-3158.98,-0.029016,-0.016042,0.668017,93.3,1
37764,0,194941,210621,196798.42,213559.03,-1857.42,-2938.03,-0.028823,-0.015761,0.66802,93.3,1
37803,0,195045,210709,196763.35,213502.03,-1718.36,-2793.03,-0.028645,-0.015494,0.667975,93.3,1
37843,0,195046,210647,196729.01,213444.93,-1683.02,-2797.94,-0.02847,-0.015227,0.667897,93.3,1
37882,0,194979,210551,196694.01,213387.06,-1715.02,-2836.06,-0.028292,-0.014955,0.667826,93.3,1
37923,0,194892,210432,196657.98,213327.96,-1765.98,-2895.97,-0.028109,-0.014678,0.667768,93.31,1
37962,0,194820,210382,196621.23,213269.04,-1801.23,-2887.05,-0.027922,-0.014402,0.667748,93.31,1
38003,0,194779,210371,196584.39,213211.09,-1805.39,-2840.09,-0.027735,-0.01413,0.667759,93.31,1
38043,0,194772,210388,196548.14,213154.64,-1776.14,-2766.64,-0.02755,-0.013866,0.667784,93.31,1
38083,0,194748,210422,196512.14,213099.98,-1764.14,-2677.98,-0.027367,-0.013609,0.667847,93.3,1
38123,0,194849,210755,196478.89,213053.07,-1629.89,-2298.08,-0.027198,-0.013389,0.667979,93.3,1
38163,0,194988,210623,196449.07,213004.46,-1461.08,-2381.47,-0.027046,-0.013161,0.667927,93.3,1
38203,0,194798,210160,196416.04,212947.59,-1618.05,-2787.59,-0.026878,-0.012894,0.667793,93.31,1
38243,0,194634,210064,196380.42,212889.92,-1746.42,-2825.92,-0.026697,-0.012623,0.667756,93.31,1
38283,0,194639,210135,196345.59,212834.82,-1706.59,-2699.83,-0.026519,-0.012364,0.667755,93.31,1
38324,0,194699,210235,196312.67,212782.84,-1613.67,-2547.84,-0.026352,-0.01212,0.66775,93.31,1
38363,0,194776,210477,196281.93,212736.73,-1505.94,-2259.73,-0.026195,-0.011903,0.667798,93.31,1
38404,0,195038,211040,196257.06,212702.79,-1219.06,-1662.8,-0.026068,-0.011744,0.667873,93.3,1
38443,0,195437,211551,196240.65,212679.76,-803.66,-1128.77,-0.025985,-0.011635,0.667867,93.3,1
38483,0,195644,211649,196228.71,212659.15,-584.72,-1010.16,-0.025924,-0.011538,0.667801,93.3,1
38522,0,195607,211717,196216.28,212640.32,-609.28,-923.33,-0.025861,-0.01145,0.667761,93.31,1
38561,0,195722,212049,196206.39,212628.51,-484.39,-579.52,-0.02581,-0.011394,0.66774,93.31,1
38602,0,195948,212491,196201.21,212625.76,-253.22,-134.77,-0.025784,-0.011381,0.667703,93.31,1
38643,0,196229,212864,196201.78,212630.53,27.22,233.47,-0.025787,-0.011404,0.667644,93.31,1
38682,0,196412,213014,196205.98,212638.2,206.02,375.8,-0.025808,-0.01144,0.667588,93.31,1
38723,0,196515,213276,196212.17,212650.95,302.83,625.05,-0.02584,-0.0115,0.667519,93.31,1
38762,0,196653,213346,196221,212664.85,432,681.14,-0.025885,-0.011565,0.667472,93.31,1
38802,0,196642,213096,196229.42,212673.48,412.58,422.52,-0.025928,-0.011606,0.667455,93.31,1
38842,0,196406,212532,196232.96,212670.65,173.03,-138.66,-0.025946,-0.011592,0.667411,93.31,1
38882,0,196128,212297,196230.87,212663.18,-102.87,-366.19,-0.025935,-0.011557,0.667348,93.32,1
38922,0,196048,212331,196227.21,212656.54,-179.22,-325.55,-0.025916,-0.011526,0.667296,93.32,1
38962,0,196160,212631,196225.87,212656.04,-65.87,-25.05,-0.02591,-0.011524,0.667248,93.32,1
39002,0,196438,213056,196230.12,212664.06,207.88,391.94,-0.025931,-0.011561,0.667195,93.32,1
39042,0,196618,213117,196237.89,212673.12,380.11,443.88,-0.025971,-0.011604,0.667171,93.32,1
39081,0,196598,213104,196245.09,212681.75,352.91,422.25,-0.026007,-0.011645,0.667143,93.32,1
39121,0,196540,213058,196251,212689.28,289,368.72,-0.026038,-0.01168,0.667107,93.32,1
39162,0,196504,213137,196256.06,212698.23,247.94,438.77,-0.026063,-0.011722,0.667057,93.32,1
39201,0,196601,213351,196262.95,212711.29,338.05,639.7,-0.026098,-0.011784,0.666997,93.33,1
39242,0,196681,213403,196271.32,212725.14,409.67,677.86,-0.026141,-0.011849,0.66695,93.33,1
39281,0,196664,213453,196279.18,212739.7,384.81,713.3,-0.026181,-0.011917,0.66689,93.33,1
39322,0,196704,213630,196287.68,212757.5,416.31,872.5,-0.026224,-0.012001,0.666806,93.33,1
39361,0,196835,213947,196298.64,212781.29,536.36,1165.7,-0.02628,-0.012113,0.666682,93.33,1
39402,0,197076,214126,196314.18,212808.18,761.81,1317.81,-0.026359,-0.012239,0.666614,93.33,1
39441,0,197163,214142,196331.17,212834.87,831.83,1307.13,-0.026446,-0.012364,0.666592,93.34,1
39482,0,197322,214555,196350.98,212869.28,971.02,1685.72,-0.026547,-0.012526,0.666507,93.34,1
39521,0,197657,215074,196377.1,212913.39,1279.89,2160.61,-0.02668,-0.012733,0.666427,93.34,1
39562,0,197925,215538,196408.07,212965.89,1516.92,2572.11,-0.026838,-0.01298,0.666323,93.34,1
39601,0,198244,216042,196444.79,213027.42,1799.2,3014.58,-0.027025,-0.013269,0.666226,93.34,1
39642,0,198498,216378,196485.85,213094.43,2012.14,3283.56,-0.027234,-0.013583,0.666198,93.35,1
39681,0,198714,216888,196530.42,213170.31,2183.58,3717.69,-0.02746,-0.013939,0.666011,93.35,1
39721,0,199024,217351,196580.29,213253.92,2443.7,4097.08,-0.027714,-0.014331,0.665864,93.35,1
39761,0,199279,217924,196634.26,213347.32,2644.73,4576.67,-0.027988,-0.014769,0.665513,93.36,1
39801,0,199606,218340,196693.7,213447.18,2912.3,4892.81,-0.028291,-0.015237,0.665311,93.37,1
39841,0,199783,218774,196755.48,213553.73,3027.52,5220.27,-0.028605,-0.015736,0.664899,93.38,1
39881,0,199974,219022,196819.85,213663.09,3154.14,5358.91,-0.028932,-0.016248,0.664587,93.39,1
39921,0,200053,219161,196884.53,213773.06,3168.47,5387.94,-0.02926,-0.016763,0.66427,93.39,1
39960,0,200054,219145,196947.92,213880.51,3106.08,5264.48,-0.029582,-0.017265,0.663996,93.4,1
40001,0,199985,219075,197008.67,213984.4,2976.33,5090.59,-0.029891,-0.017751,0.663679,93.41,1
40040,0,199867,218706,197065.84,214078.84,2801.16,4627.16,-0.030181,-0.018192,0.663622,93.41,1
40081,0,199632,218221,197117.17,214161.68,2514.83,4059.31,-0.030441,-0.018579,0.663684,93.41,1
40120,0,199399,218016,197162.81,214238.76,2236.19,3777.23,-0.030673,-0.018939,0.663551,93.41,1
40161,0,199478,218740,197209.12,214328.79,2268.87,4411.2,-0.030908,-0.019359,0.662726,93.43,1
40200,0,200034,219408,197265.64,214430.37,2768.36,4977.62,-0.031194,-0.019833,0.662123,93.45,1
40241,0,200263,219630,197325.59,214534.35,2937.41,5095.64,-0.031498,-0.020318,0.661734,93.46,1
40281,0,200242,219632,197383.92,214636.31,2858.08,4995.69,-0.031794,-0.020793,0.661317,93.47,1
40321,0,200224,219764,197440.73,214738.87,2783.27,5025.12,-0.032082,-0.02127,0.660698,93.48,1
40360,0,200364,219968,197499.2,214843.46,2864.8,5124.53,-0.032378,-0.021757,0.660122,93.5,1
40400,0,200452,219993,197558.26,214946.46,2893.73,5046.53,-0.032677,-0.022237,0.659733,93.51,1
40440,0,200410,219917,197615.31,215045.89,2794.69,4871.11,-0.032965,-0.022699,0.659378,93.52,1
40481,0,200378,219828,197670.57,215141.54,2707.42,4686.45,-0.033245,-0.023144,0.659092,93.52,1
40520,0,200284,219795,197722.85,215234.62,2561.14,4560.37,-0.033509,-0.023576,0.658675,93.53,1
40561,0,200302,219807,197774.45,215326.07,2527.55,4480.92,-0.03377,-0.024001,0.658298,93.54,1
40600,0,200289,219810,197824.75,215415.76,2464.25,4394.23,-0.034025,-0.024418,0.657911,93.55,1
40639,0,200299,219829,197874.25,215504.03,2424.75,4324.97,-0.034275,-0.024827,0.657538,93.56,1
40680,0,200247,219567,197921.7,215585.29,2325.3,3981.7,-0.034515,-0.025204,0.65739,93.57,1
40720,0,199900,218800,197961.26,215649.59,1938.73,3150.41,-0.034714,-0.025503,0.657446,93.56,1
40760,0,199491,218232,197991.85,215701.25,1499.14,2530.75,-0.034869,-0.025742,0.657411,93.56,1
40800,0,199063,217512,198013.29,215737.46,1049.7,1774.53,-0.034977,-0.02591,0.657391,93.57,1
40840,0,198637,217057,198025.76,215763.85,611.23,1293.14,-0.03504,-0.026032,0.657294,93.57,1
40880,0,198339,216811,198032.03,215784.81,306.97,1026.19,-0.035072,-0.026129,0.657174,93.57,1
40920,0,198332,217047,198038.03,215810.06,293.97,1236.94,-0.035102,-0.026246,0.656979,93.58,1
40960,0,198574,217369,198048.76,215841.23,525.23,1527.77,-0.035156,-0.026391,0.656739,93.58,1
40999,0,198891,217757,198065.6,215879.54,825.39,1877.45,-0.035241,-0.026568,0.656487,93.59,1
41039,0,199173,217948,198087.75,215920.9,1085.25,2027.09,-0.035353,-0.02676,0.656355,93.59,1
41080,0,199241,218117,198110.81,215964.84,1130.19,2152.16,-0.03547,-0.026963,0.656183,93.6,1
41119,0,199452,218479,198137.64,216015.12,1314.36,2463.87,-0.035605,-0.027196,0.655981,93.6,1
41160,0,199696,218882,198168.81,216072.46,1527.19,2809.53,-0.035762,-0.027462,0.655754,93.61,1
41199,0,199967,219407,198204.78,216139.17,1762.22,3267.83,-0.035944,-0.02777,0.655425,93.61,1
41240,0,200348,219932,198247.64,216215.03,2100.36,3716.97,-0.03616,-0.028121,0.655172,93.62,1
41279,0,200548,220306,198293.64,216296.85,2254.36,4009.14,-0.036392,-0.0285,0.654857,93.63,1
41320,0,200799,220788,198343.75,216386.68,2455.25,4401.31,-0.036645,-0.028915,0.654437,93.64,1
41359,0,201025,221160,198397.37,216482.15,2627.62,4677.84,-0.036915,-0.029356,0.65401,93.65,1
41399,0,201254,221360,198454.51,216579.71,2799.48,4780.28,-0.037203,-0.029806,0.653846,93.65,1
41440,0,201338,221296,198512.18,216674.04,2825.81,4621.95,-0.037494,-0.030242,0.653986,93.65,1
41479,0,201309,221291,198568.14,216766.37,2740.86,4524.62,-0.037775,-0.030668,0.654059,93.65,1
41520,0,201286,221357,198622.5,216858.18,2663.5,4498.81,-0.038049,-0.031091,0.653985,93.65,1
41559,0,201282,221296,198675.68,216946.95,2606.31,4349.05,-0.038317,-0.031501,0.653989,93.65,1
41600,0,201179,221262,198725.75,217033.25,2453.25,4228.75,-0.038569,-0.031898,0.653817,93.65,1
41638,0,201176,221271,198774.75,217118.01,2401.25,4152.98,-0.038815,-0.032289,0.653636,93.66,1
41679,0,201058,220989,198820.42,217195.43,2237.58,3793.56,-0.039045,-0.032645,0.653576,93.66,1
41718,0,200838,220723,198860.78,217265.98,1977.22,3457.02,-0.039248,-0.03297,0.653418,93.66,1
41759,0,200671,220533,198896.98,217331.32,1774.02,3201.67,-0.03943,-0.033271,0.653193,93.67,1
41799,0,200547,220404,198929.98,217392.78,1617.02,3011.22,-0.039596,-0.033553,0.65292,93.68,1
41838,0,200443,220189,198960.25,217448.71,1482.75,2740.28,-0.039748,-0.033811,0.652712,93.68,1
41879,0,200311,220027,198987.26,217500.29,1323.73,2526.7,-0.039884,-0.034048,0.652483,93.69,1
41918,0,200215,219838,199011.82,217547.06,1203.17,2290.94,-0.040007,-0.034263,0.652302,93.69,1
41959,0,200092,219724,199033.43,217590.6,1058.56,2133.39,-0.040116,-0.034463,0.652083,93.7,1
41998,0,200012,219643,199053,217631.65,959,2011.34,-0.040214,-0.034652,0.651854,93.7,1
42039,0,199948,219579,199070.89,217670.6,877.11,1908.39,-0.040304,-0.034831,0.651621,93.71,1
42078,0,199894,219250,199087.35,217702.2,806.64,1547.8,-0.040387,-0.034976,0.651543,93.71,1
42119,0,199619,218713,199097.98,217722.42,521.02,990.58,-0.04044,-0.035069,0.651524,93.71,1
42158,0,199381,218468,199103.65,217737.34,277.34,730.66,-0.040469,-0.035137,0.651488,93.71,1
42199,0,199252,218300,199106.64,217748.59,145.36,551.41,-0.040484,-0.035189,0.651465,93.71,1
42237,0,199160,218208,199107.71,217757.78,52.28,450.22,-0.040489,-0.035231,0.65145,93.71,1
42278,0,199088,218113,199107.32,217764.89,-19.33,348.11,-0.040487,-0.035264,0.651448,93.71,1
42317,0,199028,218174,199105.75,217773.07,-77.75,400.92,-0.040479,-0.035301,0.651441,93.71,1
42358,0,199076,218188,199105.15,217781.39,-29.16,406.61,-0.040476,-0.035339,0.651431,93.71,1
42398,0,199082,218249,199104.7,217790.75,-22.7,458.25,-0.040474,-0.035382,0.651413,93.71,1
42438,0,199132,218439,199105.25,217803.71,26.75,635.28,-0.040477,-0.035442,0.651358,93.72,1
42478,0,199250,218591,199108.15,217819.46,141.84,771.53,-0.040491,-0.035514,0.651277,93.72,1
42517,0,199271,218629,199111.42,217835.65,159.58,793.34,-0.040508,-0.035589,0.651191,93.72,1
42558,0,199271,218670,199114.62,217852.35,156.38,817.64,-0.040524,-0.035665,0.651097,93.72,1
42597,0,199315,218778,199118.64,217870.87,196.36,907.13,-0.040544,-0.03575,0.650979,93.73,1
42638,0,199325,218781,199122.76,217889.09,202.23,891.91,-0.040565,-0.035834,0.650867,93.73,1
42677,0,199341,218939,199127.12,217910.09,213.88,1028.91,-0.040587,-0.03593,0.650704,93.73,1
42718,0,199407,218946,199132.73,217930.81,274.27,1015.19,-0.040615,-0.036025,0.650563,93.74,1
42757,0,199363,218701,199137.34,217946.21,225.66,754.78,-0.040638,-0.036096,0.650499,93.74,1
42798,0,199232,218529,199139.23,217957.87,92.77,571.13,-0.040647,-0.03615,0.650459,93.74,1
42836,0,199229,218594,199141.03,217970.59,87.97,623.41,-0.040656,-0.036208,0.650405,93.74,1
42877,0,199234,218656,199142.9,217984.31,91.09,671.69,-0.040666,-0.036271,0.650339,93.74,1
42918,0,199243,218679,199144.9,217998.2,98.09,680.8,-0.040676,-0.036335,0.65027,93.74,1
42957,0,199212,218708,199146.25,218012.4,65.75,695.59,-0.040683,-0.0364,0.650192,93.75,1
42997,0,199238,218754,199148.09,218027.23,89.91,726.77,-0.040692,-0.036468,0.650107,93.75,1
43037,0,199240,218732,199149.93,218041.32,90.06,690.67,-0.040701,-0.036532,0.650032,93.75,1
43077,0,199222,218814,199151.37,218056.78,70.62,757.22,-0.040708,-0.036603,0.649933,93.75,1
43116,0,199252,218893,199153.39,218073.51,98.61,819.48,-0.040718,-0.03668,0.649815,93.75,1
43157,0,199301,219054,199156.34,218093.12,144.66,960.88,-0.040733,-0.03677,0.649646,93.76,1
43198,0,199391,219180,199161.03,218114.85,229.97,1065.14,-0.040757,-0.036869,0.64945,93.76,1
43237,0,199451,219306,199166.82,218138.68,284.17,1167.31,-0.040786,-0.036979,0.649218,93.77,1
43278,0,199487,219328,199173.23,218162.48,313.77,1165.52,-0.040818,-0.037088,0.648997,93.78,1
43317,0,199459,219308,199178.96,218185.39,280.03,1122.61,-0.040847,-0.037193,0.648783,93.78,1
43358,0,199443,219378,199184.25,218209.25,258.75,1168.75,-0.040873,-0.037302,0.648535,93.79,1
43397,0,199481,219386,199190.18,218232.78,290.81,1153.22,-0.040903,-0.03741,0.648305,93.79,1
43438,0,199407,219102,199194.53,218250.17,212.47,851.83,-0.040925,-0.03749,0.64819,93.8,1
43476,0,199256,218805,199195.76,218261.26,60.23,543.73,-0.040931,-0.03754,0.648147,93.8,1
43517,0,199141,218683,199194.67,218269.7,-53.67,413.3,-0.040926,-0.037579,0.648132,93.8,1
43556,0,199107,218664,199192.92,218277.59,-85.92,386.41,-0.040917,-0.037615,0.648126,93.8,1
43597,0,199051,218613,199190.07,218284.31,-139.08,328.69,-0.040903,-0.037646,0.648138,93.8,1
43636,0,199047,218653,199187.21,218291.68,-140.22,361.31,-0.040888,-0.03768,0.648145,93.8,1
43676,0,199041,218688,199184.29,218299.62,-143.3,388.38,-0.040874,-0.037716,0.648147,93.8,1
43716,0,199050,218700,199181.6,218307.64,-131.61,392.36,-0.04086,-0.037753,0.648145,93.8,1
43756,0,199059,218792,199179.17,218317.32,-120.17,474.67,-0.040848,-0.037797,0.648124,93.8,1
43796,0,199124,218922,199178.07,218329.42,-54.08,592.58,-0.040842,-0.037853,0.648061,93.8,1
43836,0,199195,219076,199178.42,218344.35,16.58,731.64,-0.040844,-0.037921,0.647948,93.8,1
43877,0,199248,219150,199179.81,218360.46,68.19,789.53,-0.040851,-0.037995,0.647814,93.8,1
43916,0,199290,219234,199182.01,218377.93,107.98,856.06,-0.040862,-0.038075,0.647655,93.81,1
43957,0,199316,219271,199184.68,218395.81,131.31,875.19,-0.040876,-0.038157,0.647489,93.81,1
43996,0,199295,219259,199186.9,218413.09,108.09,845.91,-0.040887,-0.038236,0.647332,93.82,1
44037,0,199283,219257,199188.82,218429.98,94.17,827.02,-0.040896,-0.038313,0.647179,93.82,1
44076,0,199279,219360,199190.64,218448.59,88.36,911.41,-0.040905,-0.038398,0.646984,93.83,1
44116,0,199335,219363,199193.53,218466.89,141.47,896.11,-0.04092,-0.038482,0.646804,93.83,1
44155,0,199260,219025,199194.87,218478.06,65.12,546.94,-0.040927,-0.038533,0.646751,93.83,1
44196,0,199116,218781,199193.29,218484.12,-77.3,296.88,-0.040919,-0.038561,0.646757,93.83,1
44236,0,199038,218713,199190.2,218488.71,-152.2,224.28,-0.040903,-0.038582,0.646789,93.83,1
44275,0,198991,218624,199186.21,218491.43,-195.22,132.56,-0.040883,-0.038595,0.646842,93.83,1
44316,0,198908,218516,199180.65,218491.92,-272.66,24.08,-0.040855,-0.038597,0.64693,93.83,1
44355,0,198862,218492,199174.28,218491.93,-312.28,0.06,-0.040823,-0.038597,0.647038,93.82,1
44396,0,198827,218467,199167.34,218491.45,-340.34,-24.45,-0.040788,-0.038595,0.647163,93.82,1
44435,0,198818,218453,199160.35,218490.68,-342.36,-37.69,-0.040753,-0.038591,0.647289,93.82,1
44476,0,198800,218499,199153.15,218490.85,-353.16,8.14,-0.040717,-0.038592,0.647423,93.81,1
44516,0,198826,218506,199146.6,218491.17,-320.61,14.83,-0.040684,-0.038593,0.647539,93.81,1
44556,0,198820,218573,199140.09,218492.81,-320.09,80.19,-0.040652,-0.038601,0.647654,93.81,1
44596,0,198865,218597,199134.59,218494.89,-269.59,102.11,-0.040624,-0.03861,0.647742,93.81,1
44635,0,198849,218662,199128.89,218498.23,-279.89,163.77,-0.040595,-0.038626,0.64783,93.8,1
44676,0,198885,218691,199124.01,218502.09,-239.02,188.91,-0.040571,-0.038643,0.647897,93.8,1
44715,0,198907,218742,199119.68,218506.9,-212.69,235.09,-0.040549,-0.038665,0.647947,93.8,1
44755,0,198929,218801,199115.87,218512.78,-186.88,288.22,-0.04053,-0.038692,0.647979,93.8,1
44794,0,198938,218826,199112.32,218519.04,-174.33,306.95,-0.040512,-0.038721,0.648003,93.8,1
44835,0,198927,218790,199108.62,218524.46,-181.63,265.53,-0.040494,-0.038746,0.648037,93.8,1
44874,0,198822,218345,199102.89,218520.89,-280.89,-175.89,-0.040465,-0.038729,0.648129,93.8,1
44915,0,198626,218100,199093.35,218512.48,-467.36,-412.48,-0.040417,-0.038691,0.648308,93.79,1
44954,0,198573,218045,199082.95,218503.14,-509.95,-458.14,-0.040365,-0.038648,0.648515,93.79,1
44995,0,198549,218014,199072.28,218493.35,-523.28,-479.36,-0.040311,-0.038603,0.64873,93.78,1
45036,0,198497,217913,199060.78,218481.76,-563.78,-568.77,-0.040253,-0.03855,0.648958,93.78,1
45075,0,198455,217915,199048.65,218470.43,-593.66,-555.44,-0.040192,-0.038498,0.649227,93.77,1
45116,0,198446,217941,199036.6,218459.84,-590.61,-518.84,-0.040132,-0.03845,0.649509,93.76,1
45155,0,198465,218018,199025.17,218451.01,-560.17,-433.02,-0.040074,-0.038409,0.649787,93.76,1
45196,0,198574,218180,199016.15,218445.59,-442.16,-265.59,-0.040029,-0.038385,0.649987,93.75,1
45235,0,198645,218288,199008.75,218442.45,-363.75,-154.45,-0.039992,-0.03837,0.650141,93.75,1
45276,0,198722,218480,199003.01,218443.2,-281.02,36.8,-0.039963,-0.038374,0.650248,93.74,1
45315,0,198839,218657,198999.73,218447.48,-160.73,209.52,-0.039947,-0.038393,0.650284,93.74,1
45355,0,198937,218812,198998.48,218454.76,-61.48,357.23,-0.03994,-0.038427,0.650265,93.74,1
45394,0,199014,218930,198998.79,218464.26,15.2,465.73,-0.039942,-0.03847,0.650207,93.74,1
45434,0,199056,218989,198999.95,218474.76,56.05,514.23,-0.039948,-0.038518,0.650133,93.75,1
45474,0,199072,218851,199001.39,218482.29,70.61,368.7,-0.039955,-0.038553,0.65011,93.75,1
45514,0,198880,218674,198998.95,218486.14,-118.95,187.86,-0.039943,-0.03857,0.650137,93.75,1
45555,0,198802,218612,198995.03,218488.65,-193.03,123.34,-0.039923,-0.038582,0.650197,93.75,1
45594,0,198721,218227,198989.56,218483.43,-268.56,-256.44,-0.039895,-0.038558,0.650277,93.74,1
45635,0,198585,218052,198981.48,218474.81,-396.48,-422.81,-0.039855,-0.038518,0.65041,93.74,1
45674,0,198566,218054,198973.17,218466.4,-407.17,-412.41,-0.039813,-0.03848,0.650556,93.74,1
45715,0,198566,218082,198965.03,218458.71,-399.03,-376.72,-0.039772,-0.038445,0.650708,93.73,1
45754,0,198574,218086,198957.21,218451.26,-383.22,-365.27,-0.039733,-0.038411,0.650849,93.73,1
45795,0,198575,218140,198949.57,218445.04,-374.58,-305.05,-0.039695,-0.038382,0.651001,93.72,1
45834,0,198614,218225,198942.87,218440.65,-328.88,-215.66,-0.039661,-0.038362,0.651135,93.72,1
45875,0,198673,218346,198937.46,218438.76,-264.47,-92.77,-0.039634,-0.038353,0.65124,93.72,1
45914,0,198776,218562,198934.23,218441.23,-158.23,120.77,-0.039617,-0.038365,0.651287,93.72,1
45955,0,198935,218820,198934.25,218448.81,0.75,371.19,-0.039617,-0.038399,0.65125,93.72,1
45993,0,199080,219021,198937.15,218460.26,142.84,560.73,-0.039632,-0.038452,0.651159,93.72,1
46034,0,199206,219273,198942.54,218476.51,263.45,796.48,-0.039659,-0.038526,0.650985,93.73,1
46073,0,199357,219487,198950.84,218496.71,406.16,990.28,-0.039701,-0.038619,0.650776,93.73,1
46114,0,199476,219612,198961.34,218519.01,514.66,1092.98,-0.039754,-0.038721,0.650596,93.74,1
46153,0,199519,219683,198972.5,218542.29,546.5,1140.7,-0.03981,-0.038827,0.65041,93.74,1
46194,0,199528,219644,198983.6,218564.32,544.39,1079.67,-0.039866,-0.038928,0.650282,93.74,1
46233,0,199428,219359,198992.5,218580.21,435.5,778.78,-0.03991,-0.039001,0.650273,93.74,1
46274,0,199090,218465,198994.45,218577.92,95.55,-112.92,-0.03992,-0.03899,0.650303,93.74,1
46313,0,198440,217334,198983.35,218553.06,-543.36,-1219.06,-0.039864,-0.038877,0.650016,93.75,1
46354,0,197780,216512,198959.29,218512.23,-1179.3,-2000.23,-0.039743,-0.03869,0.65001,93.75,1
46394,0,197506,216417,198930.23,218470.34,-1424.23,-2053.34,-0.039597,-0.038498,0.650768,93.73,1
46434,0,197452,216190,198900.68,218424.73,-1448.69,-2234.73,-0.039449,-0.038289,0.651243,93.72,1
46473,0,197273,216009,198868.12,218376.43,-1595.13,-2367.44,-0.039285,-0.038068,0.652028,93.7,1
46514,0,197118,215723,198833.12,218323.35,-1715.13,-2600.36,-0.039109,-0.037825,0.652787,93.68,1
46553,0,196902,215419,198794.51,218265.26,-1892.52,-2846.27,-0.038915,-0.037559,0.653757,93.66,1
46594,0,196755,215297,198753.71,218205.9,-1998.72,-2908.91,-0.03871,-0.037287,0.655097,93.62,1
46632,0,196665,215171,198711.93,218145.21,-2046.94,-2974.22,-0.038499,-0.037009,0.656489,93.59,1
46673,0,196569,215048,198669.07,218083.26,-2100.08,-3035.27,-0.038284,-0.036725,0.657974,93.55,1
46712,0,196454,214893,198624.78,218019.46,-2170.78,-3126.47,-0.038061,-0.036432,0.659561,93.51,1
46753,0,196369,214843,198579.67,217955.93,-2210.67,-3112.94,-0.037833,-0.036141,0.661385,93.47,1
46793,0,196289,214677,198533.85,217890.37,-2244.86,-3213.37,-0.037603,-0.03584,0.663065,93.42,1
46833,0,196143,214535,198486.04,217823.28,-2343.05,-3288.28,-0.037362,-0.035532,0.66506,93.37,1
46873,0,196054,214584,198437.4,217758.5,-2383.41,-3174.5,-0.037117,-0.035234,0.667603,93.31,1
46913,0,196185,214850,198392.35,217700.32,-2207.36,-2850.33,-0.03689,-0.034967,0.669991,93.25,1
46953,0,196242,214803,198349.35,217642.39,-2107.36,-2839.39,-0.036673,-0.034701,0.671819,93.2,1
46993,0,196281,214831,198308,217586.17,-2027,-2755.17,-0.036464,-0.034443,0.673424,93.16,1
47033,0,196413,215117,198270.1,217536.79,-1857.11,-2419.8,-0.036273,-0.034216,0.675005,93.12,1
47074,0,196608,215312,198236.87,217492.29,-1628.88,-2180.3,-0.036106,-0.034011,0.676095,93.1,1
47113,0,196711,215447,198206.35,217451.39,-1495.36,-2004.39,-0.035952,-0.033823,0.677006,93.07,1
47152,0,196693,215303,198176.09,217408.42,-1483.09,-2105.42,-0.035799,-0.033625,0.677664,93.06,1
47193,0,196565,215085,198143.87,217361.95,-1578.88,-2276.95,-0.035636,-0.033412,0.678325,93.04,1
47232,0,196446,214893,198109.92,217312.57,-1663.92,-2419.58,-0.035465,-0.033184,0.679006,93.02,1
47272,0,196309,214802,198073.92,217262.37,-1764.92,-2460.37,-0.035283,-0.032953,0.680026,93,1
47312,0,196351,214885,198039.46,217214.82,-1688.47,-2329.83,-0.035109,-0.032735,0.681009,92.97,1
47352,0,196363,214857,198005.95,217167.67,-1642.95,-2310.67,-0.03494,-0.032517,0.681833,92.95,1
47392,0,196351,214927,197972.85,217122.87,-1621.86,-2195.87,-0.034773,-0.032311,0.682822,92.93,1
47432,0,196405,215080,197941.5,217082.01,-1536.5,-2002.02,-0.034615,-0.032123,0.683866,92.9,1
47472,0,196474,215146,197912.15,217043.29,-1438.16,-1897.3,-0.034466,-0.031945,0.684735,92.88,1
47513,0,196517,215333,197884.26,217009.09,-1367.27,-1676.09,-0.034325,-0.031787,0.685745,92.86,1
47552,0,196695,215464,197860.48,216978.2,-1165.48,-1514.2,-0.034205,-0.031645,0.686354,92.84,1
47593,0,196653,215180,197836.34,216942.23,-1183.34,-1762.23,-0.034083,-0.031479,0.686599,92.84,1
47632,0,196670,215366,197813.03,216910.7,-1143.03,-1544.7,-0.033965,-0.031333,0.687094,92.82,1
47673,0,197012,215896,197797.01,216890.42,-785.02,-994.42,-0.033884,-0.03124,0.687404,92.81,1
47712,0,197307,216234,197787.21,216877.31,-480.22,-643.31,-0.033835,-0.03118,0.687502,92.81,1
47753,0,197477,216423,197781.03,216868.21,-304.03,-445.22,-0.033804,-0.031138,0.687529,92.81,1
47792,0,197562,216413,197776.65,216859.12,-214.66,-446.13,-0.033781,-0.031096,0.687491,92.81,1
47833,0,197477,216285,197770.67,216847.65,-293.67,-562.66,-0.033751,-0.031043,0.687445,92.81,1
47872,0,197450,216135,197764.26,216833.4,-314.27,-698.41,-0.033719,-0.030977,0.687321,92.82,1
47912,0,197265,215733,197754.28,216811.4,-489.28,-1078.41,-0.033668,-0.030876,0.687019,92.82,1
47951,0,196936,215323,197737.92,216781.64,-801.92,-1458.64,-0.033586,-0.030738,0.68675,92.83,1
47992,0,196685,214751,197716.87,216741.03,-1031.88,-1990.03,-0.033479,-0.030551,0.686055,92.85,1
48031,0,195850,212684,197679.54,216659.9,-1829.55,-3975.91,-0.03329,-0.030177,0.682045,92.95,1
48072,0,194016,210226,197606.26,216531.23,-3590.27,-6305.23,-0.03292,-0.029582,0.678662,93.03,1
48111,0,193258,209342,197519.29,216387.45,-4261.3,-7045.45,-0.032479,-0.028918,0.677534,93.06,1
48152,0,193030,208957,197429.51,216238.84,-4399.52,-7281.84,-0.032025,-0.028231,0.67643,93.09,1
48191,0,192759,208345,197336.1,216080.98,-4577.11,-7735.98,-0.031552,-0.027501,0.674347,93.14,1
48232,0,192466,207861,197238.7,215916.59,-4772.7,-8055.59,-0.031058,-0.02674,0.672455,93.19,1
48271,0,192316,207795,197140.25,215754.17,-4824.25,-7959.17,-0.030558,-0.025987,0.671862,93.2,1
48312,0,192362,208009,197044.68,215599.28,-4682.69,-7590.28,-0.030074,-0.025269,0.672091,93.2,1
48352,0,192514,208440,196954.07,215456.09,-4440.08,-7016.09,-0.029614,-0.024605,0.67314,93.17,1
48391,0,192811,209091,196871.21,215328.78,-4060.22,-6237.78,-0.029193,-0.024014,0.674682,93.13,1
48432,0,193179,209866,196797.37,215219.51,-3618.37,-5353.52,-0.028818,-0.023506,0.676556,93.09,1
48471,0,193582,210611,196733.07,215127.34,-3151.08,-4516.34,-0.028491,-0.023078,0.678346,93.04,1
48512,0,193983,211385,196678.07,215052.5,-2695.08,-3667.5,-0.028211,-0.02273,0.680091,93,1
48550,0,194369,212124,196631.89,214993.93,-2262.89,-2869.94,-0.027976,-0.022458,0.681701,92.96,1
48591,0,194774,212845,196594.73,214950.96,-1820.73,-2105.97,-0.027787,-0.022258,0.683026,92.92,1
48631,0,195170,213524,196566.25,214922.43,-1396.25,-1398.44,-0.027643,-0.022125,0.684016,92.9,1
48671,0,195531,214056,196545.54,214905.12,-1014.55,-849.13,-0.027537,-0.022044,0.68464,92.88,1
48711,0,195802,214583,196530.68,214898.68,-728.69,-315.69,-0.027462,-0.022014,0.685051,92.87,1
48751,0,196104,214853,196522.15,214897.78,-418.16,-44.78,-0.027418,-0.02201,0.685191,92.87,1
48791,0,196107,214614,196513.85,214892.1,-406.86,-278.11,-0.027376,-0.021984,0.685299,92.87,1
48831,0,196140,214849,196506.37,214891.25,-366.38,-42.25,-0.027338,-0.02198,0.685406,92.86,1
48871,0,196372,215310,196503.68,214899.62,-131.69,410.38,-0.027324,-0.022019,0.685353,92.87,1
48911,0,196708,215790,196507.78,214917.43,200.22,872.56,-0.027345,-0.022102,0.685112,92.87,1
48951,0,196980,216235,196517.21,214943.79,462.78,1291.2,-0.027393,-0.022224,0.684706,92.88,1
48991,0,197287,216649,196532.6,214977.9,754.39,1671.09,-0.027471,-0.022383,0.68422,92.89,1
49031,0,197463,216772,196551.21,215013.79,911.78,1758.2,-0.027566,-0.02255,0.683866,92.9,1
49071,0,197487,216814,196569.93,215049.81,917.06,1764.19,-0.027661,-0.022717,0.683513,92.91,1
49111,0,197500,216781,196588.54,215084.45,911.45,1696.55,-0.027756,-0.022878,0.683235,92.92,1
49150,0,197467,216839,196606.12,215119.54,860.88,1719.45,-0.027845,-0.023042,0.682844,92.93,1
49190,0,197499,216900,196623.98,215155.15,875.02,1744.84,-0.027936,-0.023207,0.682441,92.94,1
49231,0,197554,217065,196642.59,215193.35,911.41,1871.64,-0.028031,-0.023385,0.681931,92.95,1
49270,0,197699,217293,196663.73,215235.35,1035.27,2057.64,-0.028138,-0.02358,0.681379,92.97,1
49311,0,197846,217555,196687.39,215281.75,1158.61,2273.25,-0.028259,-0.023795,0.680739,92.98,1
49350,0,198066,217822,196714.95,215332.56,1351.05,2489.44,-0.028399,-0.024031,0.680184,93,1
49391,0,198116,217509,196742.96,215376.09,1373.03,2132.91,-0.028541,-0.024233,0.680309,92.99,1
49430,0,197980,217385,196767.7,215416.28,1212.3,1968.72,-0.028667,-0.02442,0.680281,92.99,1
49470,0,198097,217657,196794.29,215461.09,1302.7,2195.91,-0.028802,-0.024628,0.680118,93,1
49510,0,198314,218050,196824.7,215512.87,1489.3,2537.12,-0.028957,-0.024868,0.679856,93,1
49550,0,198652,218611,196861.26,215574.84,1790.73,3036.16,-0.029142,-0.025156,0.679513,93.01,1
49590,0,199007,219122,196904.18,215645.78,2102.81,3476.22,-0.02936,-0.025485,0.679286,93.02,1
49630,0,199324,219630,196952.59,215725.46,2371.41,3904.53,-0.029606,-0.025854,0.679049,93.02,1
49671,0,199557,219873,197004.68,215808.42,2552.31,4064.58,-0.029871,-0.026239,0.679209,93.02,1
49710,0,199621,219990,197057.01,215892.04,2563.98,4097.95,-0.030136,-0.026626,0.679321,93.02,1
49751,0,199717,220244,197110.21,215979.07,2606.78,4264.92,-0.030406,-0.027029,0.67913,93.02,1
49789,0,199806,220335,197164.14,216066.2,2641.86,4268.8,-0.03068,-0.027433,0.679107,93.02,1
49830,0,199837,220420,197217.59,216153.29,2619.41,4266.7,-0.030951,-0.027836,0.678982,93.03,1
49869,0,199815,220385,197269.54,216237.93,2545.45,4147.06,-0.031214,-0.028227,0.678866,93.03,1
49910,0,199752,220354,197319.2,216320.26,2432.8,4033.73,-0.031466,-0.028608,0.678565,93.04,1
49949,0,199731,220411,197367.45,216402.07,2363.55,4008.92,-0.03171,-0.028986,0.678038,93.05,1
49990,0,199724,220434,197414.59,216482.71,2309.41,3951.28,-0.031949,-0.029358,0.677453,93.06,1
50029,0,199710,220366,197460.51,216560.37,2249.48,3805.62,-0.032182,-0.029717,0.677025,93.07,1
50069,0,199575,219860,197502.81,216626.37,2072.19,3233.62,-0.032396,-0.030022,0.677305,93.07,1
50110,0,199333,219525,197539.42,216684.35,1793.58,2840.64,-0.032581,-0.030289,0.677435,93.06,1
50149,0,199120,219211,197571.04,216734.89,1548.95,2476.11,-0.032741,-0.030523,0.677495,93.06,1
50190,0,198930,219016,197598.21,216780.51,1331.78,2235.48,-0.032879,-0.030733,0.677379,93.07,1
50229,0,198779,218759,197621.84,216820.09,1157.16,1938.91,-0.032998,-0.030916,0.6773,93.07,1
50270,0,198602,218525,197641.45,216854.2,960.55,1670.8,-0.033098,-0.031073,0.677177,93.07,1
50309,0,198399,218202,197656.6,216881.17,742.39,1320.83,-0.033174,-0.031197,0.677081,93.07,1
50350,0,198160,217880,197666.68,216901.14,493.31,978.86,-0.033225,-0.031289,0.676978,93.08,1
50388,0,197963,217666,197672.62,216916.43,290.38,749.56,-0.033255,-0.03136,0.676866,93.08,1
50429,0,197889,217738,197676.95,216932.87,212.05,805.13,-0.033277,-0.031436,0.676684,93.08,1
50468,0,197967,217878,197682.76,216951.78,284.23,926.22,-0.033307,-0.031523,0.676457,93.09,1
50509,0,198036,218059,197689.82,216973.93,346.17,1085.06,-0.033342,-0.031625,0.676147,93.1,1
50548,0,198193,218321,197699.89,217000.89,493.11,1320.11,-0.033393,-0.031749,0.675744,93.11,1
50589,0,198308,218407,197712.04,217029.01,595.95,1377.98,-0.033455,-0.031879,0.675391,93.12,1
50628,0,198306,218424,197723.93,217056.92,582.06,1367.08,-0.033515,-0.032007,0.675031,93.12,1
50669,0,198259,218162,197734.65,217079.01,524.34,1082.98,-0.033569,-0.032109,0.674872,93.13,1
50709,0,197977,217484,197739.51,217087.12,237.48,396.88,-0.033594,-0.032146,0.674883,93.13,1
50749,0,197646,217032,197737.65,217086.03,-91.66,-54.03,-0.033584,-0.032141,0.674905,93.13,1
50788,0,197371,216637,197730.32,217077.04,-359.33,-440.05,-0.033547,-0.0321,0.674978,93.13,1
50829,0,197150,216246,197718.71,217060.43,-568.72,-814.44,-0.033488,-0.032023,0.675068,93.12,1
50868,0,196843,215769,197701.2,217034.6,-858.2,-1265.61,-0.0334,-0.031905,0.675218,93.12,1
50909,0,196537,215345,197677.92,217000.82,-1140.92,-1655.83,-0.033282,-0.031749,0.675511,93.11,1
50949,0,196271,214912,197649.79,216959.04,-1378.8,-2047.05,-0.03314,-0.031556,0.675856,93.1,1
50989,0,195982,214490,197616.45,216909.67,-1634.45,-2419.67,-0.032971,-0.031329,0.676347,93.09,1
51028,0,195757,214235,197579.26,216856.18,-1822.27,-2621.19,-0.032783,-0.031082,0.677118,93.07,1
51068,0,195594,213925,197539.56,216797.56,-1945.56,-2872.56,-0.032582,-0.030812,0.677814,93.05,1
51108,0,195378,213717,197496.34,216735.95,-2118.34,-3018.95,-0.032363,-0.030527,0.678901,93.03,1
51149,0,195274,213619,197451.9,216673.6,-2177.91,-3054.61,-0.032138,-0.03024,0.680159,93,1
51188,0,195214,213601,197407.15,216612.15,-2193.16,-3011.16,-0.031911,-0.029956,0.681578,92.96,1
51227,0,195204,213591,197363.09,216551.73,-2159.09,-2960.73,-0.031688,-0.029677,0.682943,92.93,1
51268,0,195121,213403,197318.25,216488.76,-2197.25,-3085.77,-0.031461,-0.029386,0.684154,92.9,1
51308,0,194981,213240,197271.51,216423.79,-2290.52,-3183.8,-0.031224,-0.029086,0.685535,92.86,1
51348,0,194822,212666,197222.53,216348.64,-2400.53,-3682.64,-0.030976,-0.028739,0.68602,92.85,1
51388,0,194440,212005,197166.87,216261.76,-2726.87,-4256.77,-0.030694,-0.028337,0.686373,92.84,1
51428,0,194154,211602,197106.62,216168.57,-2952.62,-4566.58,-0.030388,-0.027906,0.686928,92.83,1
51468,0,193935,211280,197043.2,216070.79,-3108.2,-4790.8,-0.030066,-0.027454,0.687578,92.81,1
51509,0,193766,211004,196977.65,215969.46,-3211.66,-4965.47,-0.029733,-0.026985,0.688181,92.8,1
