t_ms,phase,red_raw,ir_raw,red_dc,ir_dc,red_ac,ir_ac,OD_red,OD_ir,R,spo2,spo2_valid
466,0,54617,62473,4907.18,5615.41,49709.82,56857.58,0.000000,0.000000,0.999842,85.00,1
477,0,54597,62418,5006.56,5729.02,49590.44,56688.98,0.000000,0.000000,0.999850,85.00,1
487,0,54583,62382,5105.71,5842.32,49477.29,56539.67,0.000000,0.000000,0.999860,85.00,1
497,0,54578,62362,5204.65,5955.36,49373.34,56406.64,0.000000,0.000000,0.999869,85.00,1
506,0,54572,62361,5303.39,6068.18,49268.61,56292.82,0.000000,0.000000,0.999878,85.00,1
517,0,54573,62351,5401.93,6180.74,49171.07,56170.26,0.000000,0.000000,0.999887,85.00,1
527,0,54563,62353,5500.25,6293.09,49062.75,56059.91,0.000000,0.000000,0.999895,85.00,1
536,0,54564,62344,5598.38,6405.19,48965.62,55938.81,0.000000,0.000000,0.999904,85.00,1
546,0,54571,62365,5696.32,6517.11,48874.67,55847.89,0.000000,0.000000,0.999911,85.00,1
557,0,54579,62361,5794.09,6628.80,48784.91,55732.20,0.000000,0.000000,0.999919,85.00,1
567,0,54588,62388,5891.68,6740.31,48696.32,55647.68,0.000000,0.000000,0.999925,85.00,1
576,0,54579,62389,5989.05,6851.61,48589.95,55537.39,0.000000,0.000000,0.999930,85.00,1
586,0,54583,62389,6086.24,6962.69,48496.76,55426.31,0.000000,0.000000,0.999936,85.00,1
598,0,54590,62403,6183.25,7073.57,48406.75,55329.43,0.000000,0.000000,0.999940,85.00,1
606,0,54598,62411,6280.08,7184.24,48317.92,55226.76,0.000000,0.000000,0.999945,85.00,1
617,0,54594,62419,6376.71,7294.71,48217.29,55124.29,0.000000,0.000000,0.999949,85.00,1
627,0,54596,62429,6473.14,7404.98,48122.85,55024.02,0.000000,0.000000,0.999952,85.00,1
637,0,54595,62428,6569.39,7515.03,48025.61,54912.97,0.000000,0.000000,0.999955,85.00,1
647,0,54606,62440,6665.46,7624.88,47940.54,54815.12,0.000000,0.000000,0.999957,85.00,1
657,0,54614,62450,6761.36,7734.53,47852.64,54715.47,0.000000,0.000000,0.999960,85.00,1
667,0,54612,62466,6857.06,7843.99,47754.94,54622.01,0.000000,0.000000,0.999961,85.00,1
676,0,54614,62472,6952.57,7953.25,47661.42,54518.75,0.000000,0.000000,0.999962,85.00,1
687,0,54619,62484,7047.91,8062.31,47571.09,54421.69,0.000000,0.000000,0.999962,85.00,1
697,0,54615,62486,7143.04,8171.16,47471.96,54314.84,0.000000,0.000000,0.999962,85.00,1
707,0,54627,62489,7238.01,8279.79,47388.99,54209.21,0.000000,0.000000,0.999963,85.00,1
716,0,54624,62496,7332.78,8388.22,47291.22,54107.77,0.000000,0.000000,0.999963,85.00,1
727,0,54623,62481,7427.36,8496.41,47195.64,53984.59,0.000000,0.000000,0.999964,85.00,1
737,0,54621,62488,7521.75,8604.39,47099.25,53883.60,0.000000,0.000000,0.999964,85.00,1
746,0,54630,62491,7615.97,8712.17,47014.03,53778.83,0.000000,0.000000,0.999965,85.00,1
756,0,54631,62478,7710.00,8819.70,46921.00,53658.30,0.000000,0.000000,0.999967,85.00,1
766,0,54614,62493,7803.80,8927.05,46810.19,53565.95,0.000000,0.000000,0.999966,85.00,1
777,0,54617,62492,7897.43,9034.18,46719.57,53457.82,0.000000,0.000000,0.999965,85.00,1
786,0,54615,62492,7990.87,9141.09,46624.13,53350.91,0.000000,0.000000,0.999965,85.00,1
796,0,54627,62484,8084.14,9247.78,46542.86,53236.22,0.000000,0.000000,0.999966,85.00,1
807,0,54631,62515,8177.23,9354.31,46453.76,53160.69,0.000000,0.000000,0.999965,85.00,1
816,0,54630,62513,8270.14,9460.63,46359.86,53052.37,0.000000,0.000000,0.999964,85.00,1
827,0,54629,62516,8362.86,9566.74,46266.14,52949.26,0.000000,0.000000,0.999963,85.00,1
837,0,54632,62520,8455.39,9672.65,46176.60,52847.35,0.000000,0.000000,0.999961,85.00,1
846,0,54636,62533,8547.76,9778.37,46088.24,52754.63,0.000000,0.000000,0.999959,85.00,1
857,0,54643,62546,8639.95,9883.91,46003.05,52662.09,0.000000,0.000000,0.999957,85.00,1
867,0,54646,62557,8731.96,9989.25,45914.04,52567.75,0.000000,0.000000,0.999954,85.00,1
877,0,54647,62562,8823.79,10094.40,45823.21,52467.60,0.000000,0.000000,0.999951,85.00,1
886,0,54644,62577,8915.43,10199.37,45728.57,52377.63,0.000000,0.000000,0.999947,85.00,1
897,0,54657,62566,9006.91,10304.10,45650.08,52261.90,0.000000,0.000000,0.999944,85.00,1
907,0,54657,62599,9098.21,10408.69,45558.78,52190.31,0.000000,0.000000,0.999940,85.00,1
916,0,54655,62603,9189.33,10513.08,45465.67,52089.92,0.000000,0.000000,0.999934,85.00,1
926,0,54658,62607,9280.27,10617.26,45377.73,51989.73,0.000000,0.000000,0.999929,85.00,1
936,0,54654,62621,9371.01,10721.27,45282.99,51899.73,0.000000,0.000000,0.999922,85.00,1
946,0,54668,62620,9461.61,10825.07,45206.39,51794.93,0.000000,0.000000,0.999917,85.00,1
956,0,54663,62647,9552.01,10928.71,45110.99,51718.28,0.000000,0.000000,0.999910,85.00,1
966,0,54673,62652,9642.25,11032.16,45030.75,51619.84,0.000000,0.000000,0.999903,85.00,1
977,0,54670,62663,9732.31,11135.42,44937.69,51527.58,0.000000,0.000000,0.999895,85.00,1
986,0,54679,62675,9822.20,11238.50,44856.80,51436.50,0.000000,0.000000,0.999887,85.00,1
997,0,54687,62674,9911.93,11341.37,44775.07,51332.62,0.000000,0.000000,0.999880,85.00,1
1007,0,54684,62674,10001.48,11444.04,44682.52,51229.96,0.000000,0.000000,0.999873,85.00,1
1016,0,54672,62635,10090.82,11546.42,44581.18,51088.58,0.000000,0.000000,0.999868,85.00,1
1027,0,54647,62540,10179.93,11648.41,44467.07,50891.59,0.000000,0.000000,0.999869,85.00,1
1037,0,54619,62480,10268.81,11750.07,44350.19,50729.93,0.000000,0.000000,0.999872,85.00,1
1046,0,54598,62439,10357.47,11851.45,44240.53,50587.55,0.000000,0.000000,0.999876,85.00,1
1056,0,54588,62393,10445.93,11952.53,44142.07,50440.47,0.000000,0.000000,0.999884,85.00,1
1065,0,54577,62377,10534.19,12053.38,44042.81,50323.62,0.000000,0.000000,0.999891,85.00,1
1077,0,54558,62350,10622.24,12153.98,43935.76,50196.02,0.000000,0.000000,0.999899,85.00,1
1087,0,54556,62344,10710.11,12254.36,43845.89,50089.64,0.000000,0.000000,0.999907,85.00,1
1096,0,54562,62330,10797.81,12354.51,43764.19,49975.49,0.000000,0.000000,0.999916,85.00,1
1106,0,54564,62334,10885.34,12454.47,43678.66,49879.53,0.000000,0.000000,0.999925,85.00,1
1116,0,54555,62342,10972.68,12554.24,43582.32,49787.76,0.000000,0.000000,0.999933,85.00,1
1126,0,54556,62338,11059.85,12653.81,43496.15,49684.19,0.000000,0.000000,0.999941,85.00,1
1137,0,54561,62353,11146.85,12753.21,43414.15,49599.79,0.000000,0.000000,0.999947,85.00,1
1146,0,54568,62358,11233.70,12852.42,43334.30,49505.58,0.000000,0.000000,0.999954,85.00,1
1157,0,54579,62367,11320.39,12951.45,43258.61,49415.55,0.000000,0.000000,0.999961,85.00,1
1166,0,54577,62381,11406.90,13050.31,43170.10,49330.69,0.000000,0.000000,0.999967,85.00,1
1176,0,54568,62381,11493.22,13148.97,43074.78,49232.03,0.000000,0.000000,0.999972,85.00,1
1186,0,54571,62384,11579.38,13247.44,42991.62,49136.56,0.000000,0.000000,0.999976,85.00,1
1196,0,54582,62392,11665.38,13345.73,42916.62,49046.27,0.000000,0.000000,0.999981,85.00,1
1207,0,54583,62395,11751.22,13443.83,42831.78,48951.17,0.000000,0.000000,0.999986,85.00,1
1216,0,54578,62408,11836.87,13541.76,42741.12,48866.24,0.000000,0.000000,0.999988,85.00,1
1226,0,54582,62408,11922.36,13639.49,42659.64,48768.51,0.000000,0.000000,0.999992,85.00,1
1236,0,54590,62420,12007.70,13737.05,42582.30,48682.95,0.000000,0.000000,0.999995,85.00,1
1246,0,54596,62431,12092.88,13834.44,42503.12,48596.56,0.000000,0.000000,0.999997,85.00,1
1256,0,54598,62441,12177.89,13931.65,42420.11,48509.35,0.000000,0.000000,0.999999,85.00,1
1265,0,54602,62447,12262.74,14028.68,42339.26,48418.32,0.000000,0.000000,1.000001,85.00,1
1276,0,54594,62439,12347.40,14125.50,42246.60,48313.50,0.000000,0.000000,1.000002,85.00,1
1287,0,54594,62441,12431.89,14222.13,42162.10,48218.87,0.000000,0.000000,1.000003,85.00,1
1296,0,54604,62450,12516.24,14318.59,42087.76,48131.41,0.000000,0.000000,1.000005,85.00,1
1306,0,54606,62446,12600.42,14414.85,42005.58,48031.16,0.000000,0.000000,1.000007,85.00,1
1316,0,54597,62446,12684.41,14510.91,41912.58,47935.09,0.000000,0.000000,1.000008,85.00,1
1326,0,54602,62455,12768.25,14606.80,41833.75,47848.20,0.000000,0.000000,1.000008,85.00,1
1337,0,54605,62456,12851.92,14702.50,41753.08,47753.50,0.000000,0.000000,1.000010,85.00,1
1346,0,54614,62458,12935.45,14798.01,41678.55,47659.99,0.000000,0.000000,1.000011,85.00,1
1356,0,54611,62453,13018.80,14893.32,41592.20,47559.68,0.000000,0.000000,1.000013,85.00,1
1367,0,54598,62466,13101.96,14988.46,41496.04,47477.53,0.000000,0.000000,1.000012,85.00,1
1376,0,54603,62466,13184.96,15083.42,41418.04,47382.58,0.000000,0.000000,1.000012,85.00,1
1386,0,54609,62466,13267.81,15178.18,41341.19,47287.82,0.000000,0.000000,1.000012,85.00,1
1395,0,54614,62480,13350.50,15272.79,41263.50,47207.21,0.000000,0.000000,1.000012,85.00,1
1406,0,54619,62479,13433.04,15367.20,41185.96,47111.80,0.000000,0.000000,1.000012,85.00,1
1417,0,54619,62503,13515.41,15461.47,41103.59,47041.53,0.000000,0.000000,1.000010,85.00,1
1426,0,54620,62507,13597.62,15555.56,41022.38,46951.44,0.000000,0.000000,1.000008,85.00,1
1436,0,54626,62512,13679.68,15649.48,40946.32,46862.52,0.000000,0.000000,1.000006,85.00,1
1445,0,54633,62514,13761.58,15743.21,40871.41,46770.79,0.000000,0.000000,1.000005,85.00,1
1456,0,54639,62533,13843.34,15836.79,40795.66,46696.21,0.000000,0.000000,1.000002,85.00,1
1467,0,54645,62547,13924.94,15930.21,40720.05,46616.79,0.000000,0.000000,0.999999,85.00,1
1476,0,54645,62551,14006.38,16023.45,40638.62,46527.55,0.000000,0.000000,0.999996,85.00,1
1486,0,54642,62559,14087.66,16116.52,40554.34,46442.48,0.000000,0.000000,0.999991,85.00,1
1496,0,54651,62567,14168.78,16209.42,40482.22,46357.58,0.000000,0.000000,0.999987,85.00,1
1506,0,54659,62572,14249.76,16302.15,40409.23,46269.85,0.000000,0.000000,0.999983,85.00,1
1516,0,54650,62586,14330.56,16394.72,40319.44,46191.28,0.000000,0.000000,0.999977,85.00,1
1525,0,54655,62592,14411.21,16487.11,40243.79,46104.89,0.000000,0.000000,0.999971,85.00,1
1537,0,54663,62592,14491.72,16579.32,40171.28,46012.68,0.000000,0.000000,0.999966,85.00,1
1546,0,54662,62597,14572.06,16671.36,40089.94,45925.64,0.000000,0.000000,0.999961,85.00,1
1556,0,54661,62605,14652.24,16763.23,40008.76,45841.77,0.000000,0.000000,0.999954,85.00,1
1566,0,54660,62614,14732.25,16854.93,39927.75,45759.07,0.000000,0.000000,0.999947,85.00,1
1575,0,54652,62588,14812.09,16946.40,39839.91,45641.60,0.000000,0.000000,0.999942,85.00,1
1586,0,54637,62534,14891.74,17037.57,39745.26,45496.43,0.000000,0.000000,0.999940,85.00,1
1595,0,54623,62482,14971.21,17128.46,39651.79,45353.54,0.000000,0.000000,0.999942,85.00,1
1606,0,54601,62433,15050.47,17219.07,39550.53,45213.93,0.000000,0.000000,0.999946,85.00,1
1616,0,54584,62402,15129.53,17309.44,39454.47,45092.56,0.000000,0.000000,0.999951,85.00,1
1626,0,54566,62375,15208.41,17399.57,39357.59,44975.43,0.000000,0.000000,0.999957,85.00,1
1636,0,54563,62346,15287.12,17489.46,39275.88,44856.54,0.000000,0.000000,0.999965,85.00,1
1645,0,54561,62343,15365.66,17579.17,39195.33,44763.83,0.000000,0.000000,0.999973,85.00,1
1655,0,54560,62330,15444.05,17668.67,39115.94,44661.33,0.000000,0.000000,0.999982,85.00,1
1667,0,54547,62337,15522.26,17758.01,39024.74,44578.99,0.000000,0.000000,0.999989,85.00,1
1676,0,54550,62337,15600.32,17847.17,38949.68,44489.83,0.000000,0.000000,0.999995,85.00,1
1686,0,54550,62332,15678.21,17936.14,38871.78,44395.86,0.000000,0.000000,1.000003,85.00,1
1696,0,54552,62342,15755.96,18024.95,38796.04,44317.05,0.000000,0.000000,1.000010,85.00,1
1705,0,54555,62354,15833.56,18113.61,38721.44,44240.39,0.000000,0.000000,1.000015,85.00,1
1716,0,54559,62365,15911.01,18202.11,38647.99,44162.89,0.000000,0.000000,1.000020,85.00,1
1725,0,54554,62373,15988.30,18290.46,38565.70,44082.55,0.000000,0.000000,1.000024,85.00,1
1736,0,54563,62373,16065.45,18378.62,38497.55,43994.38,0.000000,0.000000,1.000028,85.00,1
1746,0,54572,62383,16142.46,18466.63,38429.54,43916.37,0.000000,0.000000,1.000033,85.00,1
1756,0,54573,62388,16219.32,18554.47,38353.67,43833.53,0.000000,0.000000,1.000036,85.00,1
1766,0,54575,62397,16296.04,18642.16,38278.96,43754.84,0.000000,0.000000,1.000040,85.00,1
1775,0,54569,62399,16372.58,18729.67,38196.42,43669.33,0.000000,0.000000,1.000042,85.00,1
1785,0,54574,62402,16448.99,18817.02,38125.01,43584.98,0.000000,0.000000,1.000045,85.00,1
1797,0,54586,62419,16525.26,18904.23,38060.74,43514.77,0.000000,0.000000,1.000047,85.00,1
1806,0,54589,62439,16601.39,18991.30,37987.62,43447.70,0.000000,0.000000,1.000048,85.00,1
1816,0,54586,62441,16677.35,19078.20,37908.65,43362.80,0.000000,0.000000,1.000048,85.00,1
1825,0,54591,62453,16753.18,19164.95,37837.82,43288.05,0.000000,0.000000,1.000047,85.00,1
1836,0,54594,62452,16828.86,19251.52,37765.14,43200.48,0.000000,0.000000,1.000046,85.00,1
1846,0,54604,62449,16904.41,19337.92,37699.58,43111.08,0.000000,0.000000,1.000048,85.00,1
1855,0,54598,62459,16979.80,19424.16,37618.20,43034.84,0.000000,0.000000,1.000047,85.00,1
1866,0,54591,62459,17055.02,19510.23,37535.98,42948.77,0.000000,0.000000,1.000046,85.00,1
1875,0,54592,62464,17130.10,19596.14,37461.90,42867.86,0.000000,0.000000,1.000044,85.00,1
1886,0,54586,62448,17205.01,19681.84,37380.99,42766.16,0.000000,0.000000,1.000043,85.00,1
1896,0,54600,62462,17279.80,19767.40,37320.20,42694.60,0.000000,0.000000,1.000043,85.00,1
1905,0,54600,62470,17354.44,19852.81,37245.56,42617.19,0.000000,0.000000,1.000041,85.00,1
1915,0,54597,62461,17428.92,19938.02,37168.08,42522.98,0.000000,0.000000,1.000041,85.00,1
1927,0,54591,62469,17503.25,20023.09,37087.75,42445.91,0.000000,0.000000,1.000038,85.00,1
1936,0,54590,62470,17577.42,20107.98,37012.58,42362.02,0.000000,0.000000,1.000036,85.00,1
1946,0,54606,62488,17651.48,20192.74,36954.52,42295.26,0.000000,0.000000,1.000033,85.00,1
1955,0,54609,62506,17725.40,20277.37,36883.60,42228.63,0.000000,0.000000,1.000029,85.00,1
1966,0,54608,62503,17799.16,20361.82,36808.83,42141.18,0.000000,0.000000,1.000025,85.00,1
1976,0,54611,62505,17872.79,20446.11,36738.21,42058.89,0.000000,0.000000,1.000022,85.00,1
1985,0,54613,62515,17946.27,20530.25,36666.73,41984.76,0.000000,0.000000,1.000017,85.00,1
1996,0,54614,62516,18019.61,20614.22,36594.39,41901.78,0.000000,0.000000,1.000013,85.00,1
2004,0,54622,62541,18092.81,20698.07,36529.19,41842.93,0.000000,0.000000,1.000007,85.00,1
2016,0,54619,62546,18165.86,20781.76,36453.14,41764.23,0.000000,0.000000,1.000000,85.00,1
2026,0,54623,62563,18238.78,20865.33,36384.22,41697.67,0.000000,0.000000,0.999992,85.00,1
2035,0,54627,62574,18311.56,20948.75,36315.44,41625.25,0.000000,0.000000,0.999983,85.00,1
2045,0,54636,62580,18384.20,21032.01,36251.80,41547.99,0.000000,0.000000,0.999975,85.00,1
2055,0,54645,62592,18456.73,21115.13,36188.27,41476.87,0.000000,0.000000,0.999967,85.00,1
2065,0,54641,62602,18529.09,21198.10,36111.91,41403.90,0.000000,0.000000,0.999957,85.00,1
2076,0,54637,62615,18601.31,21280.94,36035.69,41334.06,0.000000,0.000000,0.999946,85.00,1
2085,0,54646,62634,18673.40,21363.64,35972.60,41270.36,0.000000,0.000000,0.999933,85.00,1
2096,0,54660,62636,18745.38,21446.19,35914.62,41189.81,0.000000,0.000000,0.999922,85.00,1
2105,0,54662,62649,18817.21,21528.59,35844.79,41120.41,0.000000,0.000000,0.999911,85.00,1
2115,0,54664,62668,18888.90,21610.87,35775.10,41057.12,0.000000,0.000000,0.999897,85.00,1
2125,0,54670,62679,18960.47,21693.01,35709.53,40985.99,0.000000,0.000000,0.999883,85.00,1
2135,0,54679,62692,19031.90,21775.01,35647.10,40916.99,0.000000,0.000000,0.999870,85.00,1
2146,0,54687,62691,19103.21,21856.84,35583.79,40834.16,0.000000,0.000000,0.999857,85.00,1
2156,0,54677,62668,19174.36,21938.47,35502.64,40729.53,0.000000,0.000000,0.999846,85.00,1
2165,0,54664,62613,19245.34,22019.82,35418.66,40593.18,0.000000,0.000000,0.999839,85.00,1
2176,0,54629,62543,19316.11,22100.86,35312.89,40442.14,0.000000,0.000000,0.999836,85.00,1
2185,0,54617,62510,19386.71,22181.68,35230.29,40328.32,0.000000,0.000000,0.999835,85.00,1
2195,0,54611,62467,19457.16,22262.25,35153.83,40204.75,0.000000,0.000000,0.999839,85.00,1
2206,0,54594,62454,19527.44,22342.64,35066.56,40111.36,0.000000,0.000000,0.999841,85.00,1
2215,0,54591,62447,19597.56,22422.85,34993.44,40024.16,0.000000,0.000000,0.999844,85.00,1
2226,0,54586,62442,19667.54,22502.89,34918.46,39939.12,0.000000,0.000000,0.999847,85.00,1
2235,0,54585,62436,19737.38,22582.75,34847.62,39853.25,0.000000,0.000000,0.999850,85.00,1
2245,0,54597,62438,19807.09,22662.46,34789.91,39775.54,0.000000,0.000000,0.999855,85.00,1
2255,0,54597,62457,19876.67,22742.05,34720.33,39714.94,0.000000,0.000000,0.999857,85.00,1
2265,0,54592,62460,19946.11,22821.49,34645.89,39638.51,0.000000,0.000000,0.999859,85.00,1
2276,0,54599,62476,20015.41,22900.80,34583.59,39575.20,0.000000,0.000000,0.999859,85.00,1
2285,0,54609,62484,20084.60,22979.97,34524.40,39504.03,0.000000,0.000000,0.999860,85.00,1
2295,0,54613,62481,20153.66,23058.97,34459.34,39422.03,0.000000,0.000000,0.999862,85.00,1
2306,0,54619,62505,20222.59,23137.86,34396.41,39367.14,0.000000,0.000000,0.999861,85.00,1
2315,0,54614,62512,20291.37,23216.61,34322.63,39295.39,0.000000,0.000000,0.999860,85.00,1
2325,0,54609,62514,20360.01,23295.20,34248.99,39218.80,0.000000,0.000000,0.999857,85.00,1
2334,0,54614,62509,20428.52,23373.63,34185.48,39135.37,0.000000,0.000000,0.999855,85.00,1
2345,0,54619,62515,20496.90,23451.91,34122.10,39063.08,0.000000,0.000000,0.999854,85.00,1
2356,0,54621,62530,20565.15,23530.07,34055.85,38999.93,0.000000,0.000000,0.999851,85.00,1
2365,0,54626,62541,20633.27,23608.10,33992.73,38932.91,0.000000,0.000000,0.999848,85.00,1
2375,0,54619,62546,20701.24,23685.97,33917.76,38860.03,0.000000,0.000000,0.999843,85.00,1
2384,0,54634,62551,20769.11,23763.70,33864.89,38787.30,0.000000,0.000000,0.999839,85.00,1
2395,0,54636,62553,20836.84,23841.28,33799.16,38711.72,0.000000,0.000000,0.999836,85.00,1
2406,0,54639,62561,20904.45,23918.72,33734.55,38642.28,0.000000,0.000000,0.999832,85.00,1
2415,0,54629,62569,20971.90,23996.02,33657.10,38572.98,0.000000,0.000000,0.999826,85.00,1
2425,0,54626,62562,21039.20,24073.16,33586.80,38488.84,0.000000,0.000000,0.999820,85.00,1
2435,0,54632,62568,21106.39,24150.15,33525.61,38417.85,0.000000,0.000000,0.999814,85.00,1
2445,0,54639,62558,21173.45,24226.96,33465.55,38331.04,0.000000,0.000000,0.999811,85.00,1
2455,0,54646,62566,21240.40,24303.64,33405.60,38262.36,0.000000,0.000000,0.999808,85.00,1
2464,0,54633,62579,21307.19,24380.19,33325.81,38198.81,0.000000,0.000000,0.999801,85.00,1
2476,0,54629,62577,21373.83,24456.59,33255.17,38120.41,0.000000,0.000000,0.999794,85.01,1
2486,0,54635,62568,21440.35,24532.81,33194.65,38035.19,0.000000,0.000000,0.999789,85.01,1
2495,0,54642,62579,21506.75,24608.91,33135.25,37970.09,0.000000,0.000000,0.999784,85.01,1
2505,0,54642,62584,21573.02,24684.86,33068.98,37899.14,0.000000,0.000000,0.999778,85.01,1
2514,0,54639,62586,21639.16,24760.66,32999.84,37825.34,0.000000,0.000000,0.999772,85.01,1
2525,0,54636,62584,21705.15,24836.31,32930.85,37747.69,0.000000,0.000000,0.999766,85.01,1
2536,0,54638,62581,21771.02,24911.80,32866.98,37669.20,0.000000,0.000000,0.999760,85.01,1
2545,0,54642,62582,21836.76,24987.14,32805.24,37594.86,0.000000,0.000000,0.999755,85.01,1
2555,0,54638,62602,21902.36,25062.37,32735.64,37539.63,0.000000,0.000000,0.999746,85.01,1
2565,0,54640,62604,21967.83,25137.45,32672.17,37466.55,0.000000,0.000000,0.999738,85.01,1
2575,0,54627,62591,22033.15,25212.36,32593.85,37378.64,0.000000,0.000000,0.999730,85.01,1
2585,0,54638,62604,22098.36,25287.14,32539.64,37316.86,0.000000,0.000000,0.999722,85.01,1
2594,0,54639,62604,22163.44,25361.77,32475.56,37242.23,0.000000,0.000000,0.999714,85.01,1
2606,0,54643,62613,22228.40,25436.28,32414.60,37176.72,0.000000,0.000000,0.999705,85.01,1
2615,0,54638,62614,22293.22,25510.64,32344.78,37103.37,0.000000,0.000000,0.999696,85.01,1
2625,0,54634,62613,22357.90,25584.84,32276.10,37028.16,0.000000,0.000000,0.999687,85.01,1
2635,0,54647,62627,22422.48,25658.92,32224.52,36968.08,0.000000,0.000000,0.999677,85.01,1
2644,0,54650,62633,22486.94,25732.87,32163.06,36900.12,0.000000,0.000000,0.999667,85.01,1
2655,0,54653,62636,22551.27,25806.68,32101.73,36829.32,0.000000,0.000000,0.999658,85.01,1
2664,0,54645,62646,22615.46,25880.36,32029.54,36765.64,0.000000,0.000000,0.999646,85.01,1
2675,0,54648,62641,22679.53,25953.88,31968.47,36687.12,0.000000,0.000000,0.999635,85.01,1
2685,0,54659,62641,22743.49,26027.26,31915.51,36613.74,0.000000,0.000000,0.999626,85.01,1
2695,0,54650,62645,22807.30,26100.49,31842.70,36544.51,0.000000,0.000000,0.999615,85.01,1
2705,0,54660,62655,22871.01,26173.60,31788.99,36481.40,0.000000,0.000000,0.999605,85.01,1
2715,0,54660,62663,22934.59,26246.58,31725.41,36416.42,0.000000,0.000000,0.999594,85.01,1
2724,0,54654,62653,22998.03,26319.40,31655.98,36333.60,0.000000,0.000000,0.999583,85.01,1
2736,0,54661,62669,23061.35,26392.09,31599.65,36276.91,0.000000,0.000000,0.999571,85.01,1
2745,0,54673,62669,23124.58,26464.65,31548.43,36204.35,0.000000,0.000000,0.999561,85.01,1
2755,0,54665,62679,23187.66,26537.08,31477.34,36141.92,0.000000,0.000000,0.999549,85.01,1
2765,0,54663,62678,23250.61,26609.36,31412.39,36068.64,0.000000,0.000000,0.999537,85.01,1
2775,0,54666,62664,23313.44,26681.47,31352.56,35982.53,0.000000,0.000000,0.999527,85.01,1
2785,0,54665,62650,23376.14,26753.41,31288.86,35896.59,0.000000,0.000000,0.999519,85.01,1
2794,0,54654,62631,23438.70,26825.16,31215.30,35805.83,0.000000,0.000000,0.999512,85.01,1
2805,0,54642,62591,23501.11,26896.70,31140.90,35694.30,0.000000,0.000000,0.999508,85.01,1
2816,0,54630,62573,23563.36,26968.05,31066.64,35604.95,0.000000,0.000000,0.999505,85.01,1
2825,0,54620,62539,23625.48,27039.19,30994.52,35499.81,0.000000,0.000000,0.999505,85.01,1
2835,0,54616,62514,23687.46,27110.14,30928.54,35403.86,0.000000,0.000000,0.999508,85.01,1
2844,0,54619,62506,23749.32,27180.93,30869.68,35325.07,0.000000,0.000000,0.999513,85.01,1
2854,0,54601,62491,23811.03,27251.56,30789.98,35239.44,0.000000,0.000000,0.999516,85.01,1
2866,0,54598,62496,23872.60,27322.05,30725.40,35173.95,0.000000,0.000000,0.999518,85.01,1
2875,0,54591,62492,23934.04,27392.39,30656.96,35099.61,0.000000,0.000000,0.999520,85.01,1
2885,0,54598,62488,23995.37,27462.58,30602.64,35025.42,0.000000,0.000000,0.999524,85.01,1
2894,0,54599,62496,24056.57,27532.65,30542.43,34963.35,0.000000,0.000000,0.999526,85.01,1
2905,0,54599,62495,24117.66,27602.58,30481.34,34892.42,0.000000,0.000000,0.999529,85.01,1
2915,0,54596,62496,24178.61,27672.36,30417.39,34823.64,0.000000,0.000000,0.999531,85.01,1
2924,0,54597,62506,24239.45,27742.03,30357.55,34763.97,0.000000,0.000000,0.999531,85.01,1
2935,0,54606,62503,24300.18,27811.55,30305.82,34691.44,0.000000,0.000000,0.999534,85.01,1
2945,0,54608,62508,24360.80,27880.95,30247.20,34627.05,0.000000,0.000000,0.999536,85.01,1
2955,0,54611,62500,24421.30,27950.18,30189.70,34549.82,0.000000,0.000000,0.999540,85.01,1
2965,0,54598,62517,24481.66,28019.32,30116.34,34497.68,0.000000,0.000000,0.999539,85.01,1
2974,0,54597,62519,24541.89,28088.32,30055.11,34430.68,0.000000,0.000000,0.999538,85.01,1
2984,0,54608,62518,24602.02,28157.18,30005.98,34360.82,0.000000,0.000000,0.999538,85.01,1
2994,0,54616,62525,24662.05,28225.91,29953.95,34299.08,0.000000,0.000000,0.999539,85.01,1
3005,0,54611,62535,24721.95,28294.53,29889.05,34240.47,0.000000,0.000000,0.999538,85.01,1
3015,0,54605,62537,24781.72,28363.02,29823.29,34173.98,0.000000,0.000000,0.999536,85.01,1
3024,0,54611,62537,24841.38,28431.37,29769.63,34105.63,0.000000,0.000000,0.999534,85.01,1
3035,0,54610,62531,24900.91,28499.57,29709.09,34031.43,0.000000,0.000000,0.999534,85.01,1
3044,0,54613,62542,24960.34,28567.66,29652.66,33974.34,0.000000,0.000000,0.999532,85.01,1
3054,0,54613,62542,25019.65,28635.60,29593.35,33906.40,0.000000,0.000000,0.999530,85.01,1
3065,0,54612,62546,25078.83,28703.43,29533.17,33842.57,0.000000,0.000000,0.999528,85.01,1
3075,0,54613,62551,25137.90,28771.12,29475.10,33779.88,0.000000,0.000000,0.999525,85.01,1
3085,0,54616,62537,25196.86,28838.66,29419.14,33698.34,0.000000,0.000000,0.999524,85.01,1
3095,0,54619,62548,25255.71,28906.08,29363.30,33641.92,0.000000,0.000000,0.999522,85.01,1
3104,0,54621,62545,25314.44,28973.35,29306.57,33571.65,0.000000,0.000000,0.999522,85.01,1
3115,0,54614,62549,25373.04,29040.51,29240.97,33508.49,0.000000,0.000000,0.999519,85.01,1
3124,0,54607,62551,25431.50,29107.53,29175.50,33443.47,0.000000,0.000000,0.999516,85.01,1
3135,0,54622,62543,25489.89,29174.40,29132.12,33368.60,0.000000,0.000000,0.999515,85.01,1
3145,0,54617,62557,25548.14,29241.16,29068.86,33315.83,0.000000,0.000000,0.999512,85.01,1
3154,0,54622,62558,25606.29,29307.80,29015.71,33250.20,0.000000,0.000000,0.999510,85.01,1
3165,0,54613,62560,25664.30,29374.30,28948.70,33185.70,0.000000,0.000000,0.999506,85.01,1
3174,0,54611,62569,25722.20,29440.69,28888.80,33128.31,0.000000,0.000000,0.999500,85.01,1
3184,0,54613,62567,25779.98,29506.95,28833.02,33060.05,0.000000,0.000000,0.999495,85.01,1
3195,0,54623,62577,25837.67,29573.09,28785.33,33003.91,0.000000,0.000000,0.999490,85.01,1
3205,0,54619,62574,25895.23,29639.09,28723.77,32934.91,0.000000,0.000000,0.999485,85.01,1
3215,0,54618,62582,25952.68,29704.98,28665.32,32877.02,0.000000,0.000000,0.999479,85.01,1
3224,0,54621,62597,26010.02,29770.76,28610.98,32826.24,0.000000,0.000000,0.999471,85.01,1
3234,0,54625,62587,26067.25,29836.39,28557.75,32750.61,0.000000,0.000000,0.999465,85.01,1
3245,0,54633,62594,26124.38,29901.91,28508.62,32692.09,0.000000,0.000000,0.999460,85.01,1
3254,0,54624,62605,26181.38,29967.32,28442.62,32637.68,0.000000,0.000000,0.999451,85.01,1
3265,0,54626,62602,26238.27,30032.59,28387.73,32569.41,0.000000,0.000000,0.999444,85.01,1
3274,0,54621,62607,26295.04,30097.74,28325.97,32509.26,0.000000,0.000000,0.999435,85.01,1
3284,0,54632,62607,26351.71,30162.76,28280.29,32444.25,0.000000,0.000000,0.999428,85.01,1
3295,0,54626,62609,26408.26,30227.65,28217.74,32381.35,0.000000,0.000000,0.999419,85.01,1
3304,0,54631,62622,26464.70,30292.44,28166.30,32329.56,0.000000,0.000000,0.999410,85.01,1
3314,0,54625,62627,26521.02,30357.11,28103.98,32269.89,0.000000,0.000000,0.999399,85.02,1
3323,0,54629,62633,26577.24,30421.66,28051.76,32211.34,0.000000,0.000000,0.999388,85.02,1
3335,0,54636,62627,26633.36,30486.08,28002.64,32140.93,0.000000,0.000000,0.999379,85.02,1
3345,0,54642,62638,26689.38,30550.38,27952.63,32087.62,0.000000,0.000000,0.999369,85.02,1
3354,0,54638,62654,26745.27,30614.59,27892.73,32039.41,0.000000,0.000000,0.999357,85.02,1
3364,0,54635,62647,26801.05,30678.66,27833.95,31968.35,0.000000,0.000000,0.999345,85.02,1
3374,0,54637,62652,26856.72,30742.60,27780.28,31909.40,0.000000,0.000000,0.999333,85.02,1
3384,0,54639,62649,26912.29,30806.42,27726.71,31842.58,0.000000,0.000000,0.999321,85.02,1
3395,0,54647,62663,26967.76,30870.13,27679.24,31792.87,0.000000,0.000000,0.999309,85.02,1
3404,0,54649,62677,27023.12,30933.75,27625.88,31743.26,0.000000,0.000000,0.999296,85.02,1
3415,0,54644,62672,27078.36,30997.22,27565.64,31674.78,0.000000,0.000000,0.999282,85.02,1
3425,0,54649,62668,27133.51,31060.56,27515.50,31607.44,0.000000,0.000000,0.999270,85.02,1
3434,0,54655,62645,27188.55,31123.73,27466.45,31521.27,0.000000,0.000000,0.999263,85.02,1
3444,0,54638,62626,27243.45,31186.74,27394.55,31439.26,0.000000,0.000000,0.999255,85.02,1
3453,0,54625,62607,27298.21,31249.58,27326.79,31357.42,0.000000,0.000000,0.999249,85.02,1
3464,0,54613,62572,27352.84,31312.23,27260.16,31259.78,0.000000,0.000000,0.999245,85.02,1
3475,0,54607,62553,27407.35,31374.71,27199.65,31178.29,0.000000,0.000000,0.999244,85.02,1
3484,0,54610,62540,27461.76,31437.04,27148.24,31102.96,0.000000,0.000000,0.999245,85.02,1
3494,0,54602,62530,27516.04,31499.23,27085.96,31030.77,0.000000,0.000000,0.999247,85.02,1
3504,0,54602,62537,27570.21,31561.30,27031.79,30975.70,0.000000,0.000000,0.999247,85.02,1
3514,0,54599,62531,27624.27,31623.25,26974.73,30907.76,0.000000,0.000000,0.999248,85.02,1
3525,0,54591,62526,27678.20,31685.05,26912.80,30840.95,0.000000,0.000000,0.999248,85.02,1
3533,0,54594,62537,27732.04,31746.76,26861.97,30790.25,0.000000,0.000000,0.999247,85.02,1
3545,0,54604,62538,27785.78,31808.34,26818.22,30729.66,0.000000,0.000000,0.999247,85.02,1
3554,0,54602,62549,27839.41,31869.82,26762.59,30679.18,0.000000,0.000000,0.999246,85.02,1
3564,0,54593,62544,27892.92,31931.17,26700.08,30612.83,0.000000,0.000000,0.999244,85.02,1
3574,0,54604,62563,27946.34,31992.44,26657.66,30570.56,0.000000,0.000000,0.999240,85.02,1
3584,0,54611,62562,27999.67,32053.58,26611.33,30508.42,0.000000,0.000000,0.999238,85.02,1
3594,0,54606,62568,28052.89,32114.61,26553.11,30453.39,0.000000,0.000000,0.999234,85.02,1
3603,0,54609,62577,28106.00,32175.53,26503.00,30401.47,0.000000,0.000000,0.999230,85.02,1
3614,0,54608,62571,28159.01,32236.33,26448.99,30334.67,0.000000,0.000000,0.999226,85.02,1
3624,0,54604,62572,28211.90,32297.00,26392.10,30275.00,0.000000,0.000000,0.999221,85.02,1
3634,0,54615,62582,28264.71,32357.57,26350.30,30224.43,0.000000,0.000000,0.999217,85.02,1
3644,0,54620,62583,28317.42,32418.02,26302.58,30164.98,0.000000,0.000000,0.999213,85.02,1
3654,0,54622,62596,28370.03,32478.38,26251.98,30117.63,0.000000,0.000000,0.999208,85.02,1
3663,0,54617,62593,28422.52,32538.61,26194.48,30054.40,0.000000,0.000000,0.999203,85.02,1
3675,0,54616,62600,28474.91,32598.73,26141.09,30001.27,0.000000,0.000000,0.999196,85.02,1
3684,0,54622,62598,28527.20,32658.73,26094.80,29939.27,0.000000,0.000000,0.999190,85.02,1
3694,0,54621,62602,28579.39,32718.61,26041.61,29883.39,0.000000,0.000000,0.999184,85.02,1
3704,0,54627,62612,28631.49,32778.40,25995.51,29833.60,0.000000,0.000000,0.999178,85.02,1
3714,0,54621,62613,28683.47,32838.07,25937.53,29774.93,0.000000,0.000000,0.999170,85.02,1
3724,0,54621,62613,28735.35,32897.62,25885.66,29715.38,0.000000,0.000000,0.999162,85.02,1
3733,0,54622,62616,28787.12,32957.06,25834.88,29658.94,0.000000,0.000000,0.999154,85.02,1
3744,0,54628,62612,28838.80,33016.37,25789.20,29595.63,0.000000,0.000000,0.999148,85.02,1
3755,0,54622,62616,28890.37,33075.57,25731.63,29540.43,0.000000,0.000000,0.999140,85.02,1
3764,0,54620,62626,28941.83,33134.67,25678.17,29491.33,0.000000,0.000000,0.999130,85.02,1
3774,0,54624,62609,28993.19,33193.62,25630.81,29415.38,0.000000,0.000000,0.999124,85.02,1
3783,0,54629,62620,29044.47,33252.47,25584.54,29367.53,0.000000,0.000000,0.999117,85.02,1
3793,0,54632,62623,29095.64,33311.21,25536.36,29311.79,0.000000,0.000000,0.999110,85.02,1
3805,0,54626,62636,29146.70,33369.87,25479.30,29266.13,0.000000,0.000000,0.999100,85.02,1
3814,0,54625,62639,29197.66,33428.41,25427.34,29210.59,0.000000,0.000000,0.999089,85.02,1
3824,0,54629,62638,29248.52,33486.83,25380.48,29151.17,0.000000,0.000000,0.999079,85.02,1
3833,0,54642,62641,29299.31,33545.14,25342.69,29095.86,0.000000,0.000000,0.999072,85.02,1
3844,0,54640,62644,29349.99,33603.33,25290.01,29040.66,0.000000,0.000000,0.999063,85.02,1
3854,0,54641,62660,29400.57,33661.45,25240.43,28998.55,0.000000,0.000000,0.999052,85.02,1
3863,0,54626,62670,29451.02,33719.47,25174.98,28950.53,0.000000,0.000000,0.999037,85.02,1
3874,0,54649,62664,29501.42,33777.36,25147.58,28886.64,0.000000,0.000000,0.999027,85.02,1
3885,0,54644,62667,29551.71,33835.14,25092.29,28831.86,0.000000,0.000000,0.999016,85.02,1
3894,0,54655,62676,29601.91,33892.82,25053.09,28783.18,0.000000,0.000000,0.999005,85.02,1
3904,0,54650,62680,29652.01,33950.40,24997.99,28729.60,0.000000,0.000000,0.998993,85.03,1
3913,0,54645,62697,29702.00,34007.89,24943.00,28689.11,0.000000,0.000000,0.998977,85.03,1
3923,0,54649,62690,29751.90,34065.26,24897.11,28624.74,0.000000,0.000000,0.998963,85.03,1
3935,0,54659,62695,29801.71,34122.52,24857.29,28572.48,0.000000,0.000000,0.998951,85.03,1
3944,0,54661,62703,29851.43,34179.68,24809.57,28523.32,0.000000,0.000000,0.998937,85.03,1
3954,0,54656,62707,29901.04,34236.73,24754.96,28470.27,0.000000,0.000000,0.998922,85.03,1
3963,0,54654,62718,29950.55,34293.70,24703.45,28424.30,0.000000,0.000000,0.998905,85.03,1
3974,0,54658,62711,29999.96,34350.53,24658.04,28360.47,0.000000,0.000000,0.998889,85.03,1
3984,0,54665,62710,30049.29,34407.26,24615.71,28302.74,0.000000,0.000000,0.998876,85.03,1
3993,0,54666,62726,30098.53,34463.90,24567.47,28262.10,0.000000,0.000000,0.998860,85.03,1
4004,0,54664,62729,30147.66,34520.43,24516.34,28208.57,0.000000,0.000000,0.998843,85.03,1
4014,0,54670,62741,30196.71,34576.87,24473.30,28164.13,0.000000,0.000000,0.998826,85.03,1
4024,0,54667,62734,30245.65,34633.19,24421.35,28100.81,0.000000,0.000000,0.998809,85.03,1
4034,0,54678,62742,30294.51,34689.41,24383.49,28052.59,0.000000,0.000000,0.998793,85.03,1
4043,0,54678,62752,30343.28,34745.53,24334.72,28006.47,0.000000,0.000000,0.998776,85.03,1
4054,0,54673,62745,30391.94,34801.53,24281.06,27943.47,0.000000,0.000000,0.998759,85.03,1
4063,0,54673,62747,30440.50,34857.42,24232.50,27889.58,0.000000,0.000000,0.998742,85.03,1
4074,0,54664,62712,30488.95,34913.13,24175.05,27798.87,0.000000,0.000000,0.998729,85.03,1
4084,0,54660,62688,30537.29,34968.68,24122.71,27719.32,0.000000,0.000000,0.998720,85.03,1
4093,0,54647,62663,30585.51,35024.07,24061.49,27638.93,0.000000,0.000000,0.998713,85.03,1
4104,0,54638,62640,30633.62,35079.30,24004.38,27560.70,0.000000,0.000000,0.998708,85.03,1
4114,0,54625,62619,30681.60,35134.39,23943.40,27484.61,0.000000,0.000000,0.998704,85.03,1
4123,0,54626,62604,30729.49,35189.32,23896.51,27414.68,0.000000,0.000000,0.998703,85.03,1
4134,0,54621,62596,30777.28,35244.14,23843.73,27351.86,0.000000,0.000000,0.998703,85.03,1
4144,0,54617,62600,30824.96,35298.85,23792.05,27301.15,0.000000,0.000000,0.998701,85.03,1
4154,0,54612,62588,30872.53,35353.42,23739.47,27234.58,0.000000,0.000000,0.998701,85.03,1
4164,0,54613,62597,30920.01,35407.91,23692.99,27189.09,0.000000,0.000000,0.998699,85.03,1
4173,0,54614,62587,30967.40,35462.27,23646.60,27124.73,0.000000,0.000000,0.998699,85.03,1
4184,0,54617,62605,31014.70,35516.56,23602.30,27088.44,0.000000,0.000000,0.998696,85.03,1
4193,0,54622,62615,31061.92,35570.76,23560.08,27044.24,0.000000,0.000000,0.998693,85.03,1
4204,0,54623,62614,31109.04,35624.85,23513.96,26989.15,0.000000,0.000000,0.998690,85.03,1
4214,0,54623,62625,31156.07,35678.85,23466.93,26946.15,0.000000,0.000000,0.998685,85.03,1
4224,0,54628,62640,31203.02,35732.77,23424.99,26907.23,0.000000,0.000000,0.998678,85.03,1
4234,0,54641,62642,31249.89,35786.59,23391.11,26855.41,0.000000,0.000000,0.998674,85.03,1
4243,0,54639,62651,31296.67,35840.32,23342.33,26810.68,0.000000,0.000000,0.998667,85.03,1
4253,0,54641,62649,31343.36,35893.94,23297.64,26755.06,0.000000,0.000000,0.998662,85.03,1
4263,0,54635,62660,31389.95,35947.47,23245.06,26712.53,0.000000,0.000000,0.998653,85.03,1
4273,0,54640,62658,31436.45,36000.89,23203.56,26657.11,0.000000,0.000000,0.998646,85.03,1
4284,0,54649,62663,31482.87,36054.22,23166.13,26608.78,0.000000,0.000000,0.998640,85.03,1
4293,0,54653,62682,31529.21,36107.47,23123.79,26574.53,0.000000,0.000000,0.998631,85.03,1
4303,0,54655,62680,31575.47,36160.62,23079.53,26519.38,0.000000,0.000000,0.998622,85.03,1
4314,0,54651,62690,31621.62,36213.67,23029.38,26476.33,0.000000,0.000000,0.998612,85.03,1
4323,0,54654,62690,31667.69,36266.63,22986.32,26423.37,0.000000,0.000000,0.998602,85.03,1
4333,0,54659,62685,31713.67,36319.47,22945.33,26365.53,0.000000,0.000000,0.998594,85.04,1
4344,0,54661,62693,31759.57,36372.22,22901.43,26320.78,0.000000,0.000000,0.998585,85.04,1
4354,0,54651,62693,31805.35,36424.86,22845.65,26268.14,0.000000,0.000000,0.998574,85.04,1
4364,0,54653,62694,31851.05,36477.40,22801.95,26216.60,0.000000,0.000000,0.998563,85.04,1
4373,0,54655,62696,31896.66,36529.84,22758.34,26166.16,0.000000,0.000000,0.998553,85.04,1
4383,0,54669,62698,31942.20,36582.17,22726.80,26115.83,0.000000,0.000000,0.998545,85.04,1
4393,0,54664,62704,31987.65,36634.42,22676.35,26069.58,0.000000,0.000000,0.998535,85.04,1
4403,0,54669,62713,32033.01,36686.57,22635.99,26026.43,0.000000,0.000000,0.998525,85.04,1
4414,0,54667,62713,32078.28,36738.63,22588.72,25974.37,0.000000,0.000000,0.998514,85.04,1
4423,0,54668,62722,32123.46,36790.60,22544.54,25931.40,0.000000,0.000000,0.998502,85.04,1
4433,0,54675,62721,32168.57,36842.46,22506.44,25878.54,0.000000,0.000000,0.998491,85.04,1
4444,0,54682,62731,32213.59,36894.23,22468.41,25836.77,0.000000,0.000000,0.998480,85.04,1
4453,0,54676,62746,32258.52,36945.94,22417.48,25800.06,0.000000,0.000000,0.998465,85.04,1
4463,0,54680,62742,32303.36,36997.53,22376.64,25744.47,0.000000,0.000000,0.998452,85.04,1
4472,0,54684,62751,32348.12,37049.04,22335.88,25701.96,0.000000,0.000000,0.998438,85.04,1
4484,0,54687,62750,32392.80,37100.44,22294.20,25649.56,0.000000,0.000000,0.998426,85.04,1
4494,0,54691,62771,32437.40,37151.79,22253.60,25619.21,0.000000,0.000000,0.998410,85.04,1
4503,0,54686,62778,32481.90,37203.04,22204.10,25574.96,0.000000,0.000000,0.998391,85.04,1
4513,0,54687,62787,32526.31,37254.21,22160.69,25532.79,0.000000,0.000000,0.998371,85.04,1
4523,0,54698,62797,32570.65,37305.30,22127.35,25491.70,0.000000,0.000000,0.998352,85.04,1
4533,0,54707,62786,32614.92,37356.26,22092.08,25429.74,0.000000,0.000000,0.998337,85.04,1
4544,0,54715,62811,32659.13,37407.17,22055.88,25403.83,0.000000,0.000000,0.998319,85.04,1
4553,0,54711,62826,32703.23,37458.01,22007.77,25367.99,0.000000,0.000000,0.998297,85.04,1
4563,0,54707,62814,32747.24,37508.72,21959.76,25305.28,0.000000,0.000000,0.998277,85.04,1
4574,0,54720,62810,32791.18,37559.33,21928.82,25250.67,0.000000,0.000000,0.998261,85.04,1
4583,0,54717,62819,32835.03,37609.85,21881.97,25209.15,0.000000,0.000000,0.998243,85.04,1
4593,0,54718,62826,32878.80,37660.28,21839.20,25165.72,0.000000,0.000000,0.998223,85.04,1
4602,0,54719,62836,32922.48,37710.63,21796.52,25125.37,0.000000,0.000000,0.998202,85.04,1
4614,0,54718,62834,32966.08,37760.88,21751.92,25073.12,0.000000,0.000000,0.998181,85.05,1
4624,0,54717,62839,33009.58,37811.04,21707.42,25027.96,0.000000,0.000000,0.998159,85.05,1
4633,0,54730,62834,33053.02,37861.08,21676.98,24972.91,0.000000,0.000000,0.998141,85.05,1
4643,0,54725,62844,33096.37,37911.05,21628.63,24932.95,0.000000,0.000000,0.998120,85.05,1
4653,0,54712,62842,33139.60,37960.91,21572.40,24881.09,0.000000,0.000000,0.998097,85.05,1
4663,0,54714,62840,33182.75,38010.67,21531.25,24829.33,0.000000,0.000000,0.998075,85.05,1
4674,0,54720,62842,33225.83,38060.33,21494.17,24781.66,0.000000,0.000000,0.998053,85.05,1
4683,0,54718,62842,33268.82,38109.90,21449.18,24732.10,0.000000,0.000000,0.998032,85.05,1
4694,0,54724,62844,33311.73,38159.37,21412.27,24684.63,0.000000,0.000000,0.998012,85.05,1
4703,0,54714,62828,33354.54,38208.71,21359.46,24619.29,0.000000,0.000000,0.997992,85.05,1
4713,0,54700,62780,33397.23,38257.85,21302.77,24522.15,0.000000,0.000000,0.997980,85.05,1
4723,0,54690,62752,33439.82,38306.83,21250.18,24445.16,0.000000,0.000000,0.997972,85.05,1
4732,0,54682,62730,33482.30,38355.68,21199.70,24374.32,0.000000,0.000000,0.997966,85.05,1
4744,0,54675,62714,33524.69,38404.40,21150.31,24309.60,0.000000,0.000000,0.997962,85.05,1
4753,0,54673,62700,33566.99,38452.99,21106.01,24247.01,0.000000,0.000000,0.997960,85.05,1
4763,0,54662,62684,33609.18,38501.45,21052.82,24182.55,0.000000,0.000000,0.997959,85.05,1
4773,0,54666,62690,33651.30,38549.83,21014.70,24140.17,0.000000,0.000000,0.997958,85.05,1
4783,0,54671,62695,33693.34,38598.12,20977.66,24096.88,0.000000,0.000000,0.997957,85.05,1
4793,0,54672,62703,33735.30,38646.33,20936.70,24056.66,0.000000,0.000000,0.997955,85.05,1
4802,0,54675,62708,33777.18,38694.46,20897.82,24013.54,0.000000,0.000000,0.997952,85.05,1
4813,0,54669,62707,33818.96,38742.48,20850.04,23964.52,0.000000,0.000000,0.997948,85.05,1
4824,0,54683,62715,33860.69,38790.43,20822.31,23924.57,0.000000,0.000000,0.997946,85.05,1
4833,0,54697,62726,33902.37,38838.30,20794.63,23887.70,0.000000,0.000000,0.997945,85.05,1
4843,0,54686,62729,33943.94,38886.08,20742.06,23842.91,0.000000,0.000000,0.997940,85.05,1
4853,0,54688,62740,33985.42,38933.80,20702.58,23806.20,0.000000,0.000000,0.997934,85.05,1
4862,0,54687,62739,34026.83,38981.41,20660.17,23757.59,0.000000,0.000000,0.997928,85.05,1
4874,0,54701,62739,34068.18,39028.92,20632.82,23710.08,0.000000,0.000000,0.997925,85.05,1
4883,0,54700,62744,34109.44,39076.35,20590.56,23667.65,0.000000,0.000000,0.997921,85.05,1
4893,0,54700,62750,34150.62,39123.70,20549.38,23626.30,0.000000,0.000000,0.997916,85.05,1
4903,0,54694,62754,34191.71,39170.96,20502.29,23583.04,0.000000,0.000000,0.997908,85.05,1
4913,0,54696,62755,34232.71,39218.13,20463.29,23536.87,0.000000,0.000000,0.997901,85.05,1
4923,0,54694,62756,34273.64,39265.21,20420.36,23490.79,0.000000,0.000000,0.997893,85.05,1
4932,0,54703,62754,34314.50,39312.19,20388.50,23441.81,0.000000,0.000000,0.997888,85.05,1
4943,0,54694,62758,34355.25,39359.08,20338.75,23398.92,0.000000,0.000000,0.997880,85.05,1
4954,0,54687,62760,34395.92,39405.88,20291.08,23354.12,0.000000,0.000000,0.997869,85.05,1
4963,0,54689,62758,34436.51,39452.58,20252.49,23305.42,0.000000,0.000000,0.997860,85.05,1
4973,0,54695,62743,34477.03,39499.16,20217.97,23243.84,0.000000,0.000000,0.997855,85.05,1
4982,0,54689,62746,34517.45,39545.66,20171.55,23200.34,0.000000,0.000000,0.997849,85.05,1
4993,0,54686,62744,34557.79,39592.06,20128.21,23151.94,0.000000,0.000000,0.997842,85.05,1
5004,0,54680,62737,34598.03,39638.35,20081.97,23098.65,0.000000,0.000000,0.997835,85.05,1
5013,0,54678,62741,34638.19,39684.55,20039.81,23056.45,0.000000,0.000000,0.997827,85.05,1
5023,0,54677,62736,34678.27,39730.66,19998.73,23005.34,0.000000,0.000000,0.997820,85.05,1
5032,0,54684,62739,34718.28,39776.67,19965.72,22962.33,0.000000,0.000000,0.997813,85.05,1
5043,0,54674,62735,34758.19,39822.59,19915.81,22912.41,0.000000,0.000000,0.997806,85.05,1
5053,0,54669,62739,34798.02,39868.42,19870.98,22870.58,0.000000,0.000000,0.997796,85.06,1
5062,0,54671,62749,34837.77,39914.18,19833.23,22834.82,0.000000,0.000000,0.997784,85.06,1
5073,0,54669,62742,34877.43,39959.84,19791.57,22782.16,0.000000,0.000000,0.997774,85.06,1
5084,0,54674,62745,34917.03,40005.41,19756.97,22739.59,0.000000,0.000000,0.997764,85.06,1
5093,0,54674,62745,34956.54,40050.89,19717.46,22694.11,0.000000,0.000000,0.997755,85.06,1
5103,0,54662,62744,34995.95,40096.27,19666.05,22647.73,0.000000,0.000000,0.997743,85.06,1
5112,0,54665,62760,35035.29,40141.60,19629.71,22618.40,0.000000,0.000000,0.997727,85.06,1
5123,0,54667,62748,35074.55,40186.82,19592.45,22561.18,0.000000,0.000000,0.997716,85.06,1
5134,0,54667,62754,35113.74,40231.95,19553.26,22522.05,0.000000,0.000000,0.997702,85.06,1
5142,0,54678,62769,35152.87,40277.03,19525.13,22491.97,0.000000,0.000000,0.997689,85.06,1
5153,0,54672,62771,35191.91,40322.02,19480.09,22448.98,0.000000,0.000000,0.997674,85.06,1
5163,0,54666,62773,35230.86,40366.92,19435.14,22406.08,0.000000,0.000000,0.997656,85.06,1
5173,0,54668,62773,35269.73,40411.73,19398.27,22361.27,0.000000,0.000000,0.997639,85.06,1
5183,0,54678,62774,35308.55,40456.46,19369.45,22317.54,0.000000,0.000000,0.997625,85.06,1
5192,0,54683,62796,35347.30,40501.14,19335.70,22294.86,0.000000,0.000000,0.997607,85.06,1
5202,0,54685,62806,35385.98,40545.75,19299.02,22260.25,0.000000,0.000000,0.997588,85.06,1
5212,0,54680,62803,35424.57,40590.27,19255.43,22212.73,0.000000,0.000000,0.997568,85.06,1
5223,0,54688,62799,35463.09,40634.69,19224.91,22164.31,0.000000,0.000000,0.997551,85.06,1
5233,0,54694,62797,35501.55,40679.01,19192.45,22117.99,0.000000,0.000000,0.997536,85.06,1
5242,0,54686,62805,35539.92,40723.26,19146.08,22081.74,0.000000,0.000000,0.997518,85.06,1
5253,0,54684,62804,35578.21,40767.43,19105.79,22036.57,0.000000,0.000000,0.997499,85.06,1
5262,0,54682,62804,35616.42,40811.50,19065.58,21992.50,0.000000,0.000000,0.997480,85.06,1
5272,0,54691,62794,35654.57,40855.47,19036.43,21938.53,0.000000,0.000000,0.997466,85.06,1
5283,0,54691,62802,35692.64,40899.37,18998.36,21902.63,0.000000,0.000000,0.997450,85.06,1
5293,0,54691,62819,35730.64,40943.21,18960.36,21875.79,0.000000,0.000000,0.997430,85.06,1
5303,0,54684,62816,35768.55,40986.95,18915.45,21829.05,0.000000,0.000000,0.997409,85.06,1
5313,0,54680,62818,35806.37,41030.62,18873.63,21787.38,0.000000,0.000000,0.997387,85.07,1
5322,0,54691,62812,35844.14,41074.18,18846.86,21737.82,0.000000,0.000000,0.997369,85.07,1
5332,0,54702,62820,35881.86,41117.67,18820.14,21702.33,0.000000,0.000000,0.997353,85.07,1
5342,0,54694,62822,35919.48,41161.08,18774.52,21660.91,0.000000,0.000000,0.997334,85.07,1
5353,0,54686,62781,35957.01,41204.33,18728.99,21576.67,0.000000,0.000000,0.997322,85.07,1
5363,0,54667,62750,35994.44,41247.42,18672.56,21502.58,0.000000,0.000000,0.997314,85.07,1
5372,0,54660,62714,36031.77,41290.36,18628.23,21423.64,0.000000,0.000000,0.997312,85.07,1
5383,0,54665,62688,36069.03,41333.16,18595.97,21354.84,0.000000,0.000000,0.997318,85.07,1
5392,0,54652,62682,36106.20,41375.85,18545.80,21306.15,0.000000,0.000000,0.997321,85.07,1
5402,0,54642,62660,36143.28,41418.42,18498.72,21241.58,0.000000,0.000000,0.997327,85.07,1
5413,0,54643,62651,36180.28,41460.89,18462.72,21190.11,0.000000,0.000000,0.997336,85.07,1
5423,0,54646,62640,36217.21,41503.25,18428.79,21136.75,0.000000,0.000000,0.997348,85.07,1
5433,0,54650,62644,36254.08,41545.53,18395.92,21098.47,0.000000,0.000000,0.997360,85.07,1
5442,0,54650,62660,36290.87,41587.76,18359.13,21072.24,0.000000,0.000000,0.997369,85.07,1
5452,0,54654,62656,36327.60,41629.90,18326.40,21026.10,0.000000,0.000000,0.997379,85.07,1
5463,0,54654,62664,36364.25,41671.97,18289.75,20992.03,0.000000,0.000000,0.997387,85.07,1
5472,0,54662,62672,36400.85,41713.97,18261.15,20958.03,0.000000,0.000000,0.997395,85.07,1
5483,0,54674,62674,36437.40,41755.89,18236.60,20918.11,0.000000,0.000000,0.997407,85.06,1
5492,0,54668,62687,36473.86,41797.76,18194.14,20889.24,0.000000,0.000000,0.997413,85.06,1
5502,0,54672,62693,36510.26,41839.55,18161.74,20853.45,0.000000,0.000000,0.997419,85.06,1
5513,0,54671,62695,36546.58,41881.26,18124.42,20813.74,0.000000,0.000000,0.997424,85.06,1
5522,0,54690,62705,36582.87,41922.91,18107.13,20782.09,0.000000,0.000000,0.997432,85.06,1
5532,0,54694,62707,36619.09,41964.48,18074.91,20742.52,0.000000,0.000000,0.997441,85.06,1
5543,0,54697,62719,36655.25,42005.99,18041.75,20713.01,0.000000,0.000000,0.997447,85.06,1
5553,0,54699,62730,36691.33,42047.44,18007.66,20682.56,0.000000,0.000000,0.997451,85.06,1
5563,0,54693,62734,36727.34,42088.81,17965.66,20645.19,0.000000,0.000000,0.997453,85.06,1
5572,0,54708,62743,36763.30,42130.12,17944.70,20612.88,0.000000,0.000000,0.997456,85.06,1
5582,0,54719,62750,36799.21,42171.36,17919.79,20578.64,0.000000,0.000000,0.997461,85.06,1
5593,0,54721,62759,36835.05,42212.54,17885.95,20546.46,0.000000,0.000000,0.997464,85.06,1
5602,0,54722,62758,36870.83,42253.63,17851.17,20504.37,0.000000,0.000000,0.997468,85.06,1
5613,0,54718,62759,36906.53,42294.64,17811.47,20464.36,0.000000,0.000000,0.997470,85.06,1
5622,0,54719,62760,36942.15,42335.57,17776.85,20424.43,0.000000,0.000000,0.997472,85.06,1
5633,0,54732,62759,36977.73,42376.42,17754.27,20382.58,0.000000,0.000000,0.997479,85.06,1
5643,0,54726,62766,37013.23,42417.20,17712.77,20348.80,0.000000,0.000000,0.997482,85.06,1
5652,0,54724,62764,37048.66,42457.90,17675.34,20306.10,0.000000,0.000000,0.997484,85.06,1
5662,0,54723,62760,37084.00,42498.50,17639.00,20261.50,0.000000,0.000000,0.997488,85.06,1
5671,0,54726,62764,37119.29,42539.03,17606.71,20224.97,0.000000,0.000000,0.997491,85.06,1
5683,0,54723,62755,37154.50,42579.47,17568.50,20175.53,0.000000,0.000000,0.997496,85.06,1
5693,0,54724,62764,37189.64,42619.84,17534.36,20144.16,0.000000,0.000000,0.997498,85.06,1
5702,0,54717,62767,37224.69,42660.14,17492.31,20106.86,0.000000,0.000000,0.997498,85.06,1
5712,0,54716,62770,37259.67,42700.35,17456.33,20069.65,0.000000,0.000000,0.997496,85.06,1
5722,0,54720,62771,37294.60,42740.50,17425.40,20030.50,0.000000,0.000000,0.997496,85.06,1
5732,0,54719,62777,37329.44,42780.57,17389.56,19996.43,0.000000,0.000000,0.997494,85.06,1
5743,0,54720,62791,37364.23,42820.60,17355.77,19970.40,0.000000,0.000000,0.997488,85.06,1
5751,0,54720,62800,37398.94,42860.56,17321.06,19939.44,0.000000,0.000000,0.997480,85.06,1
5763,0,54720,62801,37433.59,42900.44,17286.41,19900.56,0.000000,0.000000,0.997472,85.06,1
5773,0,54735,62809,37468.19,42940.26,17266.81,19868.74,0.000000,0.000000,0.997466,85.06,1
5782,0,54743,62837,37502.74,42980.05,17240.26,19856.95,0.000000,0.000000,0.997455,85.06,1
5792,0,54752,62846,37537.24,43019.78,17214.76,19826.22,0.000000,0.000000,0.997445,85.06,1
5801,0,54758,62858,37571.68,43059.46,17186.32,19798.54,0.000000,0.000000,0.997433,85.06,1
5813,0,54752,62851,37606.05,43099.05,17145.95,19751.95,0.000000,0.000000,0.997422,85.06,1
5823,0,54758,62849,37640.35,43138.55,17117.65,19710.45,0.000000,0.000000,0.997413,85.06,1
5832,0,54758,62863,37674.58,43178.00,17083.41,19685.00,0.000000,0.000000,0.997400,85.06,1
5842,0,54750,62861,37708.74,43217.37,17041.26,19643.63,0.000000,0.000000,0.997385,85.07,1
5852,0,54749,62863,37742.82,43256.66,17006.18,19606.34,0.000000,0.000000,0.997370,85.07,1
5862,0,54752,62850,37776.83,43295.85,16975.16,19554.15,0.000000,0.000000,0.997359,85.07,1
5873,0,54753,62861,37810.79,43334.98,16942.21,19526.02,0.000000,0.000000,0.997346,85.07,1
5881,0,54761,62870,37844.69,43374.05,16916.31,19495.95,0.000000,0.000000,0.997333,85.07,1
5893,0,54756,62870,37878.52,43413.04,16877.48,19456.96,0.000000,0.000000,0.997318,85.07,1
5902,0,54753,62867,37912.27,43451.95,16840.73,19415.05,0.000000,0.000000,0.997303,85.07,1
5912,0,54765,62866,37945.98,43490.78,16819.02,19375.22,0.000000,0.000000,0.997293,85.07,1
5922,0,54768,62866,37979.62,43529.53,16788.38,19336.47,0.000000,0.000000,0.997283,85.07,1
5932,0,54760,62877,38013.18,43568.23,16746.82,19308.77,0.000000,0.000000,0.997268,85.07,1
5942,0,54762,62874,38046.68,43606.83,16715.32,19267.16,0.000000,0.000000,0.997255,85.07,1
5951,0,54753,62882,38080.10,43645.39,16672.90,19236.61,0.000000,0.000000,0.997236,85.07,1
5962,0,54755,62876,38113.45,43683.85,16641.55,19192.15,0.000000,0.000000,0.997220,85.07,1
5972,0,54764,62875,38146.75,43722.24,16617.25,19152.76,0.000000,0.000000,0.997208,85.07,1
5982,0,54770,62883,38180.00,43760.56,16590.00,19122.44,0.000000,0.000000,0.997195,85.07,1
5992,0,54754,62876,38213.14,43798.80,16540.86,19077.20,0.000000,0.000000,0.997179,85.07,1
6002,0,54747,62856,38246.21,43836.91,16500.79,19019.09,0.000000,0.000000,0.997166,85.07,1
6011,0,54734,62826,38279.19,43874.89,16454.81,18951.11,0.000000,0.000000,0.997158,85.07,1
6023,0,54733,62796,38312.09,43912.73,16420.91,18883.27,0.000000,0.000000,0.997158,85.07,1
6032,0,54725,62770,38344.92,43950.45,16380.08,18819.55,0.000000,0.000000,0.997163,85.07,1
6042,0,54707,62736,38377.64,43988.02,16329.36,18747.98,0.000000,0.000000,0.997172,85.07,1
6052,0,54692,62715,38410.27,44025.48,16281.73,18689.52,0.000000,0.000000,0.997181,85.07,1
6062,0,54687,62691,38442.83,44062.81,16244.17,18628.19,0.000000,0.000000,0.997196,85.07,1
6072,0,54687,62673,38475.32,44100.03,16211.68,18572.97,0.000000,0.000000,0.997216,85.07,1
6081,0,54685,62679,38507.74,44137.19,16177.26,18541.81,0.000000,0.000000,0.997233,85.07,1
6092,0,54673,62657,38540.07,44174.23,16132.93,18482.77,0.000000,0.000000,0.997252,85.07,1
6103,0,54668,62665,38572.33,44211.21,16095.67,18453.79,0.000000,0.000000,0.997268,85.07,1
6112,0,54670,62661,38604.53,44248.11,16065.47,18412.89,0.000000,0.000000,0.997285,85.07,1
6122,0,54674,62666,38636.67,44284.94,16037.33,18381.06,0.000000,0.000000,0.997302,85.07,1
6131,0,54671,62671,38668.74,44321.72,16002.26,18349.28,0.000000,0.000000,0.997316,85.07,1
6141,0,54667,62671,38700.74,44358.42,15966.26,18312.58,0.000000,0.000000,0.997329,85.07,1
6153,0,54671,62679,38732.68,44395.07,15938.32,18283.93,0.000000,0.000000,0.997341,85.07,1
6162,0,54673,62674,38764.56,44431.62,15908.44,18242.38,0.000000,0.000000,0.997355,85.07,1
6172,0,54673,62672,38796.38,44468.10,15876.62,18203.90,0.000000,0.000000,0.997369,85.07,1
6182,0,54675,62678,38828.14,44504.53,15846.86,18173.47,0.000000,0.000000,0.997382,85.07,1
6192,0,54672,62678,38859.83,44540.87,15812.17,18137.13,0.000000,0.000000,0.997395,85.07,1
6202,0,54668,62681,38891.45,44577.16,15776.55,18103.84,0.000000,0.000000,0.997404,85.06,1
6211,0,54667,62685,38923.00,44613.37,15744.00,18071.63,0.000000,0.000000,0.997413,85.06,1
6222,0,54668,62679,38954.50,44649.51,15713.50,18029.49,0.000000,0.000000,0.997423,85.06,1
6233,0,54677,62688,38985.94,44685.58,15691.05,18002.41,0.000000,0.000000,0.997434,85.06,1
6242,0,54681,62694,39017.33,44721.60,15663.66,17972.40,0.000000,0.000000,0.997444,85.06,1
6252,0,54669,62704,39048.64,44757.57,15620.36,17946.43,0.000000,0.000000,0.997447,85.06,1
6261,0,54664,62697,39079.87,44793.44,15584.13,17903.56,0.000000,0.000000,0.997450,85.06,1
6272,0,54668,62680,39111.05,44829.22,15556.95,17850.78,0.000000,0.000000,0.997460,85.06,1
6283,0,54670,62690,39142.16,44864.94,15527.84,17825.06,0.000000,0.000000,0.997468,85.06,1
6292,0,54672,62700,39173.22,44900.61,15498.78,17799.39,0.000000,0.000000,0.997473,85.06,1
6302,0,54664,62701,39204.21,44936.21,15459.79,17764.79,0.000000,0.000000,0.997475,85.06,1
6311,0,54674,62694,39235.15,44971.73,15438.85,17722.27,0.000000,0.000000,0.997482,85.06,1
6322,0,54675,62694,39266.03,45007.17,15408.97,17686.83,0.000000,0.000000,0.997490,85.06,1
6332,0,54678,62704,39296.85,45042.57,15381.14,17661.43,0.000000,0.000000,0.997496,85.06,1
6341,0,54674,62703,39327.61,45077.89,15346.39,17625.11,0.000000,0.000000,0.997501,85.06,1
6352,0,54673,62712,39358.30,45113.16,15314.70,17598.84,0.000000,0.000000,0.997503,85.06,1
6362,0,54677,62724,39388.94,45148.38,15288.05,17575.62,0.000000,0.000000,0.997502,85.06,1
6372,0,54685,62714,39419.54,45183.51,15265.46,17530.49,0.000000,0.000000,0.997507,85.06,1
6382,0,54689,62723,39450.08,45218.59,15238.92,17504.41,0.000000,0.000000,0.997511,85.06,1
6391,0,54696,62740,39480.57,45253.64,15215.43,17486.36,0.000000,0.000000,0.997512,85.06,1
6402,0,54702,62740,39511.01,45288.61,15190.99,17451.39,0.000000,0.000000,0.997515,85.06,1
6411,0,54686,62750,39541.36,45323.53,15144.64,17426.47,0.000000,0.000000,0.997510,85.06,1
6422,0,54703,62749,39571.69,45358.39,15131.31,17390.61,0.000000,0.000000,0.997511,85.06,1
6432,0,54711,62760,39601.97,45393.19,15109.03,17366.81,0.000000,0.000000,0.997511,85.06,1
6441,0,54712,62777,39632.19,45427.96,15079.81,17349.04,0.000000,0.000000,0.997506,85.06,1
6452,0,54713,62778,39662.35,45462.66,15050.64,17315.34,0.000000,0.000000,0.997502,85.06,1
6461,0,54711,62784,39692.45,45497.30,15018.55,17286.70,0.000000,0.000000,0.997495,85.06,1
6471,0,54721,62771,39722.51,45531.85,14998.49,17239.15,0.000000,0.000000,0.997495,85.06,1
6482,0,54715,62790,39752.50,45566.37,14962.50,17223.63,0.000000,0.000000,0.997488,85.06,1
6492,0,54720,62801,39782.43,45600.83,14937.57,17200.16,0.000000,0.000000,0.997479,85.06,1
6502,0,54718,62799,39812.31,45635.23,14905.69,17163.77,0.000000,0.000000,0.997470,85.06,1
6511,0,54722,62805,39842.13,45669.57,14879.87,17135.43,0.000000,0.000000,0.997460,85.06,1
6521,0,54728,62800,39871.90,45703.83,14856.10,17096.16,0.000000,0.000000,0.997454,85.06,1
6532,0,54724,62819,39901.61,45738.07,14822.39,17080.93,0.000000,0.000000,0.997441,85.06,1
6541,0,54730,62823,39931.27,45772.23,14798.73,17050.77,0.000000,0.000000,0.997429,85.06,1
6552,0,54722,62818,39960.85,45806.33,14761.15,17011.67,0.000000,0.000000,0.997416,85.06,1
6561,0,54727,62824,39990.38,45840.36,14736.62,16983.64,0.000000,0.000000,0.997402,85.06,1
6572,0,54725,62823,40019.85,45874.33,14705.15,16948.67,0.000000,0.000000,0.997388,85.07,1
6582,0,54729,62840,40049.27,45908.26,14679.73,16931.74,0.000000,0.000000,0.997371,85.07,1
6591,0,54728,62849,40078.63,45942.14,14649.37,16906.86,0.000000,0.000000,0.997350,85.07,1
6601,0,54726,62860,40107.92,45975.98,14618.07,16884.02,0.000000,0.000000,0.997325,85.07,1
6612,0,54726,62865,40137.16,46009.76,14588.84,16855.24,0.000000,0.000000,0.997299,85.07,1
6622,0,54740,62868,40166.37,46043.48,14573.63,16824.52,0.000000,0.000000,0.997277,85.07,1
6632,0,54742,62887,40195.52,46077.16,14546.48,16809.84,0.000000,0.000000,0.997250,85.07,1
6641,0,54737,62896,40224.60,46110.80,14512.39,16785.20,0.000000,0.000000,0.997218,85.07,1
6651,0,54742,62886,40253.64,46144.36,14488.36,16741.64,0.000000,0.000000,0.997192,85.07,1
6662,0,54748,62890,40282.63,46177.85,14465.37,16712.15,0.000000,0.000000,0.997167,85.07,1
6671,0,54740,62867,40311.55,46211.23,14428.45,16655.77,0.000000,0.000000,0.997146,85.07,1
6682,0,54738,62834,40340.40,46244.48,14397.60,16589.52,0.000000,0.000000,0.997136,85.07,1
6691,0,54712,62803,40369.15,46277.59,14342.85,16525.41,0.000000,0.000000,0.997126,85.07,1
6702,0,54701,62756,40397.81,46310.55,14303.19,16445.45,0.000000,0.000000,0.997127,85.07,1
6712,0,54694,62727,40426.41,46343.38,14267.59,16383.62,0.000000,0.000000,0.997136,85.07,1
6721,0,54688,62703,40454.93,46376.10,14233.07,16326.90,0.000000,0.000000,0.997150,85.07,1
6731,0,54690,62701,40483.40,46408.75,14206.60,16292.25,0.000000,0.000000,0.997165,85.07,1
6740,0,54694,62695,40511.82,46441.33,14182.18,16253.67,0.000000,0.000000,0.997183,85.07,1
6752,0,54683,62687,40540.16,46473.82,14142.84,16213.18,0.000000,0.000000,0.997201,85.07,1
6762,0,54692,62695,40568.47,46506.26,14123.53,16188.73,0.000000,0.000000,0.997218,85.07,1
6771,0,54701,62704,40596.73,46538.66,14104.27,16165.34,0.000000,0.000000,0.997237,85.07,1
6781,0,54705,62715,40624.95,46571.01,14080.05,16143.98,0.000000,0.000000,0.997252,85.07,1
6791,0,54710,62727,40653.12,46603.33,14056.87,16123.67,0.000000,0.000000,0.997266,85.07,1
6801,0,54710,62724,40681.24,46635.57,14028.76,16088.43,0.000000,0.000000,0.997281,85.07,1
6812,0,54703,62726,40709.28,46667.75,13993.71,16058.25,0.000000,0.000000,0.997292,85.07,1
6821,0,54717,62738,40737.30,46699.89,13979.70,16038.11,0.000000,0.000000,0.997304,85.07,1
6832,0,54718,62739,40765.26,46731.97,13952.73,16007.03,0.000000,0.000000,0.997316,85.07,1
6841,0,54713,62755,40793.16,46764.02,13919.84,15990.98,0.000000,0.000000,0.997322,85.07,1
6851,0,54716,62748,40821.01,46795.99,13894.99,15952.01,0.000000,0.000000,0.997330,85.07,1
6861,0,54722,62754,40848.81,46827.91,13873.19,15926.09,0.000000,0.000000,0.997339,85.07,1
6871,0,54728,62762,40876.57,46859.78,13851.43,15902.22,0.000000,0.000000,0.997347,85.07,1
6882,0,54731,62773,40904.28,46891.60,13826.72,15881.39,0.000000,0.000000,0.997353,85.07,1
6891,0,54731,62776,40931.93,46923.37,13799.07,15852.62,0.000000,0.000000,0.997357,85.07,1
6901,0,54733,62777,40959.53,46955.08,13773.46,15821.91,0.000000,0.000000,0.997362,85.07,1
6912,0,54731,62781,40987.08,46986.74,13743.92,15794.26,0.000000,0.000000,0.997365,85.07,1
6921,0,54734,62783,41014.57,47018.33,13719.43,15764.67,0.000000,0.000000,0.997369,85.07,1
6931,0,54745,62790,41042.03,47049.87,13702.96,15740.12,0.000000,0.000000,0.997374,85.07,1
6942,0,54732,62793,41069.42,47081.36,13662.58,15711.64,0.000000,0.000000,0.997373,85.07,1
6951,0,54726,62786,41096.73,47112.77,13629.27,15673.23,0.000000,0.000000,0.997372,85.07,1
6962,0,54734,62774,41124.01,47144.10,13609.99,15629.90,0.000000,0.000000,0.997379,85.07,1
6971,0,54740,62784,41151.25,47175.38,13588.75,15608.62,0.000000,0.000000,0.997384,85.07,1
6981,0,54738,62781,41178.42,47206.59,13559.58,15574.41,0.000000,0.000000,0.997389,85.07,1
6991,0,54734,62787,41205.53,47237.76,13528.46,15549.24,0.000000,0.000000,0.997391,85.07,1
7001,0,54736,62782,41232.60,47268.85,13503.40,15513.15,0.000000,0.000000,0.997396,85.07,1
7012,0,54739,62784,41259.61,47299.88,13479.39,15484.12,0.000000,0.000000,0.997401,85.06,1
7020,0,54747,62792,41286.58,47330.87,13460.42,15461.13,0.000000,0.000000,0.997406,85.06,1
7031,0,54743,62798,41313.50,47361.80,13429.50,15436.20,0.000000,0.000000,0.997408,85.06,1
7042,0,54746,62809,41340.36,47392.70,13405.64,15416.30,0.000000,0.000000,0.997406,85.06,1
7051,0,54748,62818,41367.18,47423.55,13380.82,15394.45,0.000000,0.000000,0.997403,85.06,1
7061,0,54748,62820,41393.94,47454.34,13354.06,15365.66,0.000000,0.000000,0.997398,85.07,1
7070,0,54762,62834,41420.68,47485.10,13341.32,15348.89,0.000000,0.000000,0.997395,85.07,1
7080,0,54765,62843,41447.37,47515.82,13317.63,15327.18,0.000000,0.000000,0.997389,85.07,1
7092,0,54757,62842,41473.99,47546.48,13283.01,15295.52,0.000000,0.000000,0.997381,85.07,1
7101,0,54757,62853,41500.56,47577.09,13256.44,15275.91,0.000000,0.000000,0.997369,85.07,1
7111,0,54764,62850,41527.09,47607.64,13236.91,15242.36,0.000000,0.000000,0.997361,85.07,1
7121,0,54779,62868,41553.59,47638.16,13225.41,15229.84,0.000000,0.000000,0.997352,85.07,1
7131,0,54788,62880,41580.06,47668.65,13207.94,15211.35,0.000000,0.000000,0.997343,85.07,1
7141,0,54784,62889,41606.47,47699.09,13177.53,15189.91,0.000000,0.000000,0.997329,85.07,1
7150,0,54779,62889,41632.82,47729.47,13146.18,15159.53,0.000000,0.000000,0.997314,85.07,1
7161,0,54784,62881,41659.12,47759.77,13124.88,15121.23,0.000000,0.000000,0.997303,85.07,1
7172,0,54791,62893,41685.38,47790.04,13105.62,15102.96,0.000000,0.000000,0.997291,85.07,1
7181,0,54794,62894,41711.60,47820.25,13082.40,15073.75,0.000000,0.000000,0.997280,85.07,1
7191,0,54790,62901,41737.76,47850.41,13052.24,15050.59,0.000000,0.000000,0.997264,85.07,1
7200,0,54787,62905,41763.86,47880.52,13023.14,15024.48,0.000000,0.000000,0.997246,85.07,1
7211,0,54793,62909,41789.92,47910.57,13003.08,14998.43,0.000000,0.000000,0.997229,85.07,1
7222,0,54800,62906,41815.94,47940.57,12984.06,14965.43,0.000000,0.000000,0.997217,85.07,1
7231,0,54793,62928,41841.90,47970.54,12951.10,14957.46,0.000000,0.000000,0.997193,85.07,1
7241,0,54792,62932,41867.80,48000.46,12924.20,14931.54,0.000000,0.000000,0.997168,85.07,1
7250,0,54793,62937,41893.65,48030.34,12899.35,14906.66,0.000000,0.000000,0.997141,85.07,1
7261,0,54797,62932,41919.46,48060.14,12877.54,14871.86,0.000000,0.000000,0.997118,85.07,1
7271,0,54800,62944,41945.23,48089.91,12854.77,14854.09,0.000000,0.000000,0.997092,85.07,1
7280,0,54806,62953,41970.95,48119.64,12835.05,14833.36,0.000000,0.000000,0.997065,85.07,1
7291,0,54799,62957,41996.60,48149.32,12802.39,14807.68,0.000000,0.000000,0.997034,85.07,1
7301,0,54804,62967,42022.22,48178.95,12781.78,14788.05,0.000000,0.000000,0.997002,85.07,1
7311,0,54806,62969,42047.79,48208.53,12758.21,14760.46,0.000000,0.000000,0.996970,85.08,1
7321,0,54810,62984,42073.32,48238.09,12736.68,14745.91,0.000000,0.000000,0.996934,85.08,1
7330,0,54814,62956,42098.80,48267.52,12715.20,14688.48,0.000000,0.000000,0.996911,85.08,1
7341,0,54794,62908,42124.20,48296.80,12669.80,14611.20,0.000000,0.000000,0.996897,85.08,1
7352,0,54771,62852,42149.50,48325.91,12621.50,14526.09,0.000000,0.000000,0.996895,85.08,1
7361,0,54756,62804,42174.71,48354.87,12581.29,14449.13,0.000000,0.000000,0.996905,85.08,1
7371,0,54749,62780,42199.86,48383.72,12549.14,14396.28,0.000000,0.000000,0.996921,85.08,1
7380,0,54736,62770,42224.93,48412.50,12511.07,14357.50,0.000000,0.000000,0.996935,85.08,1
7391,0,54730,62742,42249.94,48441.16,12480.05,14300.84,0.000000,0.000000,0.996956,85.08,1
7401,0,54723,62730,42274.89,48469.73,12448.11,14260.27,0.000000,0.000000,0.996979,85.08,1
7410,0,54725,62730,42299.79,48498.26,12425.21,14231.74,0.000000,0.000000,0.997003,85.07,1
7421,0,54724,62736,42324.64,48526.73,12399.36,14209.27,0.000000,0.000000,0.997024,85.07,1
7431,0,54722,62749,42349.44,48555.18,12372.56,14193.82,0.000000,0.000000,0.997039,85.07,1
7441,0,54728,62745,42374.20,48583.56,12353.80,14161.44,0.000000,0.000000,0.997058,85.07,1
7451,0,54727,62754,42398.91,48611.90,12328.09,14142.10,0.000000,0.000000,0.997073,85.07,1
7460,0,54733,62765,42423.57,48640.21,12309.43,14124.79,0.000000,0.000000,0.997086,85.07,1
7471,0,54740,62772,42448.21,48668.48,12291.79,14103.52,0.000000,0.000000,0.997100,85.07,1
7480,0,54738,62782,42472.79,48696.70,12265.21,14085.30,0.000000,0.000000,0.997109,85.07,1
7491,0,54734,62786,42497.31,48724.88,12236.69,14061.12,0.000000,0.000000,0.997114,85.07,1
7501,0,54735,62793,42521.79,48753.02,12213.21,14039.98,0.000000,0.000000,0.997117,85.07,1
7511,0,54745,62793,42546.23,48781.10,12198.77,14011.90,0.000000,0.000000,0.997125,85.07,1
7521,0,54751,62802,42570.65,48809.14,12180.35,13992.86,0.000000,0.000000,0.997131,85.07,1
7530,0,54752,62819,42595.01,48837.16,12156.99,13981.84,0.000000,0.000000,0.997131,85.07,1
7540,0,54753,62817,42619.33,48865.12,12133.67,13951.87,0.000000,0.000000,0.997133,85.07,1
7552,0,54750,62825,42643.59,48893.04,12106.41,13931.96,0.000000,0.000000,0.997130,85.07,1
7561,0,54755,62839,42667.82,48920.94,12087.18,13918.06,0.000000,0.000000,0.997124,85.07,1
7571,0,54756,62840,42692.00,48948.78,12064.00,13891.22,0.000000,0.000000,0.997118,85.07,1
7580,0,54766,62847,42716.14,48976.58,12049.86,13870.42,0.000000,0.000000,0.997114,85.07,1
7590,0,54754,62842,42740.22,49004.31,12013.78,13837.69,0.000000,0.000000,0.997106,85.07,1
7601,0,54756,62841,42764.25,49031.98,11991.75,13809.02,0.000000,0.000000,0.997100,85.07,1
7610,0,54756,62833,42788.24,49059.58,11967.76,13773.41,0.000000,0.000000,0.997096,85.07,1
7621,0,54755,62823,42812.17,49087.11,11942.82,13735.89,0.000000,0.000000,0.997097,85.07,1
7631,0,54755,62825,42836.06,49114.59,11918.94,13710.41,0.000000,0.000000,0.997097,85.07,1
7641,0,54750,62828,42859.89,49142.02,11890.11,13685.98,0.000000,0.000000,0.997093,85.07,1
7651,0,54748,62815,42883.67,49169.37,11864.33,13645.63,0.000000,0.000000,0.997093,85.07,1
7660,0,54749,62819,42907.40,49196.67,11841.60,13622.33,0.000000,0.000000,0.997093,85.07,1
7670,0,54752,62811,42931.09,49223.90,11820.91,13587.10,0.000000,0.000000,0.997097,85.07,1
7681,0,54748,62818,42954.73,49251.09,11793.27,13566.91,0.000000,0.000000,0.997096,85.07,1
7690,0,54744,62834,42978.30,49278.26,11765.70,13555.74,0.000000,0.000000,0.997087,85.07,1
7701,0,54753,62830,43001.85,49305.36,11751.14,13524.64,0.000000,0.000000,0.997084,85.07,1
7710,0,54752,62835,43025.35,49332.42,11726.64,13502.57,0.000000,0.000000,0.997078,85.07,1
7720,0,54769,62841,43048.84,49359.44,11720.16,13481.55,0.000000,0.000000,0.997078,85.07,1
7731,0,54768,62870,43072.28,49386.46,11695.72,13483.54,0.000000,0.000000,0.997066,85.07,1
7740,0,54768,62878,43095.67,49413.45,11672.33,13464.55,0.000000,0.000000,0.997050,85.07,1
7750,0,54770,62881,43119.02,49440.39,11650.98,13440.61,0.000000,0.000000,0.997034,85.07,1
7759,0,54776,62880,43142.33,49467.27,11633.67,13412.73,0.000000,0.000000,0.997022,85.07,1
7771,0,54786,62882,43165.62,49494.10,11620.38,13387.90,0.000000,0.000000,0.997013,85.07,1
7781,0,54784,62905,43188.85,49520.92,11595.15,13384.08,0.000000,0.000000,0.996994,85.08,1
7790,0,54785,62908,43212.05,49547.70,11572.95,13360.30,0.000000,0.000000,0.996975,85.08,1
7800,0,54783,62917,43235.19,49574.44,11547.81,13342.56,0.000000,0.000000,0.996951,85.08,1
7811,0,54791,62928,43258.30,49601.15,11532.70,13326.85,0.000000,0.000000,0.996926,85.08,1
7820,0,54798,62930,43281.39,49627.81,11516.61,13302.19,0.000000,0.000000,0.996903,85.08,1
7831,0,54796,62938,43304.42,49654.43,11491.58,13283.57,0.000000,0.000000,0.996877,85.08,1
7840,0,54795,62953,43327.40,49681.03,11467.60,13271.97,0.000000,0.000000,0.996844,85.08,1
7851,0,54796,62954,43350.34,49707.57,11445.66,13246.43,0.000000,0.000000,0.996811,85.08,1
7861,0,54808,62958,43373.26,49734.07,11434.74,13223.93,0.000000,0.000000,0.996783,85.08,1
7870,0,54807,62972,43396.12,49760.55,11410.87,13211.45,0.000000,0.000000,0.996748,85.08,1
7880,0,54812,62980,43418.96,49786.99,11393.04,13193.01,0.000000,0.000000,0.996712,85.08,1
7889,0,54806,62996,43441.73,49813.41,11364.27,13182.59,0.000000,0.000000,0.996667,85.08,1
7901,0,54808,62998,43464.47,49839.78,11343.53,13158.22,0.000000,0.000000,0.996622,85.08,1
7911,0,54816,63002,43487.17,49866.10,11328.83,13135.89,0.000000,0.000000,0.996580,85.09,1
7920,0,54823,63020,43509.84,49892.41,11313.16,13127.59,0.000000,0.000000,0.996534,85.09,1
7930,0,54821,63029,43532.46,49918.69,11288.54,13110.31,0.000000,0.000000,0.996483,85.09,1
7940,0,54817,63025,43555.03,49944.90,11261.96,13080.10,0.000000,0.000000,0.996433,85.09,1
7950,0,54810,62973,43577.55,49970.96,11232.45,13002.04,0.000000,0.000000,0.996401,85.09,1
7961,0,54795,62904,43599.98,49996.83,11195.02,12907.17,0.000000,0.000000,0.996393,85.09,1
7970,0,54766,62840,43622.32,50022.51,11143.68,12817.48,0.000000,0.000000,0.996398,85.09,1
7981,0,54749,62788,43644.57,50048.05,11104.43,12739.95,0.000000,0.000000,0.996417,85.09,1
7991,0,54737,62760,43666.75,50073.47,11070.25,12686.53,0.000000,0.000000,0.996443,85.09,1
8000,0,54719,62739,43688.86,50098.80,11030.14,12640.20,0.000000,0.000000,0.996468,85.09,1
8010,0,54716,62716,43710.92,50124.04,11005.08,12591.96,0.000000,0.000000,0.996501,85.09,1
8019,0,54715,62721,43732.92,50149.24,10982.07,12571.76,0.000000,0.000000,0.996531,85.09,1
8031,0,54713,62720,43754.89,50174.38,10958.11,12545.62,0.000000,0.000000,0.996561,85.09,1
8041,0,54710,62725,43776.80,50199.48,10933.20,12525.52,0.000000,0.000000,0.996587,85.09,1
8050,0,54710,62728,43798.67,50224.54,10911.33,12503.46,0.000000,0.000000,0.996611,85.08,1
8060,0,54713,62738,43820.50,50249.57,10892.50,12488.43,0.000000,0.000000,0.996633,85.08,1
8070,0,54723,62752,43842.30,50274.58,10880.70,12477.42,0.000000,0.000000,0.996653,85.08,1
8080,0,54728,62750,43864.08,50299.53,10863.92,12450.47,0.000000,0.000000,0.996676,85.08,1
8091,0,54727,62766,43885.80,50324.46,10841.20,12441.54,0.000000,0.000000,0.996692,85.08,1
8100,0,54730,62771,43907.50,50349.36,10822.50,12421.64,0.000000,0.000000,0.996707,85.08,1
8111,0,54739,62777,43929.16,50374.21,10809.84,12402.79,0.000000,0.000000,0.996724,85.08,1
8120,0,54740,62794,43950.78,50399.06,10789.21,12394.94,0.000000,0.000000,0.996733,85.08,1
8130,0,54745,62797,43972.37,50423.85,10772.63,12373.14,0.000000,0.000000,0.996744,85.08,1
8140,0,54736,62807,43993.90,50448.62,10742.10,12358.38,0.000000,0.000000,0.996746,85.08,1
8150,0,54742,62818,44015.39,50473.36,10726.61,12344.64,0.000000,0.000000,0.996745,85.08,1
8161,0,54749,62814,44036.86,50498.05,10712.14,12315.95,0.000000,0.000000,0.996751,85.08,1
8170,0,54752,62833,44058.29,50522.71,10693.71,12310.29,0.000000,0.000000,0.996749,85.08,1
8180,0,54759,62839,44079.69,50547.35,10679.31,12291.65,0.000000,0.000000,0.996748,85.08,1
8190,0,54754,62858,44101.04,50571.97,10652.96,12286.03,0.000000,0.000000,0.996736,85.08,1
8200,0,54748,62846,44122.33,50596.52,10625.66,12249.48,0.000000,0.000000,0.996726,85.08,1
8210,0,54753,62831,44143.60,50620.99,10609.40,12210.01,0.000000,0.000000,0.996726,85.08,1
8219,0,54755,62827,44164.83,50645.40,10590.17,12181.60,0.000000,0.000000,0.996728,85.08,1
8230,0,54752,62827,44186.00,50669.76,10566.00,12157.24,0.000000,0.000000,0.996729,85.08,1
8241,0,54749,62818,44207.13,50694.06,10541.87,12123.94,0.000000,0.000000,0.996733,85.08,1
8250,0,54743,62815,44228.20,50718.30,10514.80,12096.70,0.000000,0.000000,0.996735,85.08,1
8260,0,54745,62806,44249.23,50742.48,10495.77,12063.52,0.000000,0.000000,0.996742,85.08,1
8269,0,54746,62813,44270.23,50766.62,10475.77,12046.38,0.000000,0.000000,0.996746,85.08,1
8280,0,54747,62814,44291.18,50790.72,10455.82,12023.28,0.000000,0.000000,0.996751,85.08,1
8291,0,54741,62822,44312.08,50814.78,10428.92,12007.22,0.000000,0.000000,0.996748,85.08,1
8300,0,54737,62819,44332.93,50838.79,10404.07,11980.21,0.000000,0.000000,0.996745,85.08,1
8310,0,54747,62809,44353.76,50862.73,10393.24,11946.27,0.000000,0.000000,0.996751,85.08,1
8321,0,54747,62822,44374.54,50886.65,10372.46,11935.35,0.000000,0.000000,0.996752,85.08,1
8330,0,54749,62841,44395.29,50910.56,10353.71,11930.44,0.000000,0.000000,0.996745,85.08,1
8340,0,54749,62844,44416.00,50934.43,10333.00,11909.57,0.000000,0.000000,0.996736,85.08,1
8349,0,54758,62854,44436.68,50958.27,10321.32,11895.73,0.000000,0.000000,0.996728,85.08,1
8360,0,54766,62853,44457.34,50982.06,10308.66,11870.94,0.000000,0.000000,0.996724,85.08,1
8371,0,54768,62885,44477.96,51005.87,10290.04,11879.13,0.000000,0.000000,0.996707,85.08,1
8380,0,54776,62890,44498.56,51029.64,10277.44,11860.36,0.000000,0.000000,0.996692,85.08,1
8390,0,54766,62895,44519.10,51053.37,10246.90,11841.63,0.000000,0.000000,0.996668,85.08,1
8399,0,54778,62912,44539.62,51077.09,10238.38,11834.91,0.000000,0.000000,0.996644,85.08,1
8410,0,54782,62910,44560.10,51100.76,10221.90,11809.24,0.000000,0.000000,0.996622,85.08,1
8421,0,54785,62922,44580.55,51124.40,10204.45,11797.60,0.000000,0.000000,0.996597,85.09,1
8430,0,54784,62936,44600.96,51148.03,10183.04,11787.97,0.000000,0.000000,0.996565,85.09,1
8440,0,54792,62953,44621.35,51171.64,10170.65,11781.36,0.000000,0.000000,0.996529,85.09,1
8450,0,54796,62959,44641.70,51195.21,10154.30,11763.79,0.000000,0.000000,0.996492,85.09,1
8460,0,54802,62941,44662.02,51218.71,10139.98,11722.29,0.000000,0.000000,0.996468,85.09,1
8470,0,54803,62968,44682.30,51242.21,10120.70,11725.79,0.000000,0.000000,0.996432,85.09,1
8479,0,54804,62981,44702.55,51265.68,10101.45,11715.32,0.000000,0.000000,0.996390,85.09,1
8491,0,54801,62987,44722.75,51289.12,10078.25,11697.87,0.000000,0.000000,0.996343,85.09,1
8500,0,54805,62990,44742.91,51312.53,10062.09,11677.47,0.000000,0.000000,0.996298,85.09,1
8510,0,54808,62995,44763.05,51335.89,10044.95,11659.11,0.000000,0.000000,0.996252,85.09,1
8520,0,54819,63009,44783.16,51359.24,10035.84,11649.76,0.000000,0.000000,0.996206,85.09,1
8529,0,54816,63015,44803.23,51382.55,10012.77,11632.45,0.000000,0.000000,0.996155,85.10,1
8540,0,54810,62995,44823.24,51405.77,9986.76,11589.23,0.000000,0.000000,0.996111,85.10,1
8549,0,54802,62933,44843.20,51428.83,9958.80,11504.17,0.000000,0.000000,0.996094,85.10,1
8559,0,54777,62839,44863.07,51451.66,9913.93,11387.34,0.000000,0.000000,0.996109,85.10,1
8570,0,54743,62792,44882.83,51474.34,9860.17,11317.66,0.000000,0.000000,0.996128,85.10,1
8580,0,54729,62750,44902.52,51496.89,9826.48,11253.11,0.000000,0.000000,0.996159,85.10,1
8590,0,54712,62719,44922.14,51519.33,9789.86,11199.66,0.000000,0.000000,0.996196,85.10,1
8600,0,54704,62700,44941.71,51541.69,9762.29,11158.30,0.000000,0.000000,0.996237,85.09,1
8609,0,54707,62682,44961.24,51563.98,9745.76,11118.02,0.000000,0.000000,0.996289,85.09,1
8620,0,54708,62684,44980.73,51586.22,9727.27,11097.78,0.000000,0.000000,0.996340,85.09,1
8630,0,54707,62685,45000.18,51608.42,9706.82,11076.58,0.000000,0.000000,0.996389,85.09,1
8639,0,54693,62690,45019.57,51630.58,9673.43,11059.42,0.000000,0.000000,0.996428,85.09,1
8649,0,54697,62684,45038.92,51652.69,9658.07,11031.31,0.000000,0.000000,0.996471,85.09,1
8660,0,54710,62694,45058.27,51674.77,9651.73,11019.23,0.000000,0.000000,0.996517,85.09,1
8670,0,54718,62705,45077.59,51696.83,9640.41,11008.17,0.000000,0.000000,0.996562,85.09,1
8680,0,54710,62710,45096.86,51718.86,9613.14,10991.14,0.000000,0.000000,0.996599,85.09,1
8690,0,54710,62721,45116.09,51740.87,9593.91,10980.13,0.000000,0.000000,0.996631,85.08,1
8699,0,54717,62730,45135.29,51762.85,9581.71,10967.15,0.000000,0.000000,0.996662,85.08,1
8710,0,54730,62727,45154.48,51784.78,9575.52,10942.22,0.000000,0.000000,0.996702,85.08,1
8720,0,54730,62740,45173.64,51806.69,9556.36,10933.31,0.000000,0.000000,0.996735,85.08,1
8729,0,54735,62744,45192.76,51828.57,9542.24,10915.43,0.000000,0.000000,0.996769,85.08,1
8739,0,54731,62742,45211.83,51850.39,9519.16,10891.61,0.000000,0.000000,0.996801,85.08,1
8751,0,54727,62745,45230.87,51872.18,9496.13,10872.82,0.000000,0.000000,0.996830,85.08,1
8759,0,54740,62756,45249.89,51893.95,9490.11,10862.05,0.000000,0.000000,0.996860,85.08,1
8770,0,54743,62762,45268.87,51915.69,9474.13,10846.31,0.000000,0.000000,0.996888,85.08,1
8780,0,54741,62770,45287.82,51937.40,9453.18,10832.60,0.000000,0.000000,0.996912,85.08,1
8790,0,54740,62768,45306.72,51959.06,9433.28,10808.94,0.000000,0.000000,0.996935,85.08,1
8800,0,54739,62757,45325.58,51980.66,9413.41,10776.34,0.000000,0.000000,0.996963,85.08,1
8810,0,54750,62756,45344.44,52002.21,9405.56,10753.79,0.000000,0.000000,0.996999,85.08,1
8819,0,54752,62770,45363.25,52023.75,9388.75,10746.25,0.000000,0.000000,0.997028,85.07,1
8829,0,54741,62764,45382.01,52045.23,9358.99,10718.77,0.000000,0.000000,0.997053,85.07,1
8839,0,54743,62761,45400.73,52066.66,9342.27,10694.34,0.000000,0.000000,0.997081,85.07,1
8849,0,54742,62753,45419.41,52088.03,9322.59,10664.96,0.000000,0.000000,0.997113,85.07,1
8860,0,54745,62755,45438.07,52109.37,9306.93,10645.63,0.000000,0.000000,0.997145,85.07,1
8869,0,54741,62759,45456.67,52130.67,9284.33,10628.33,0.000000,0.000000,0.997172,85.07,1
8880,0,54741,62764,45475.24,52151.94,9265.76,10612.06,0.000000,0.000000,0.997196,85.07,1
8890,0,54746,62766,45493.78,52173.17,9252.22,10592.83,0.000000,0.000000,0.997223,85.07,1
8899,0,54748,62763,45512.29,52194.35,9235.71,10568.65,0.000000,0.000000,0.997252,85.07,1
8909,0,54750,62777,45530.76,52215.52,9219.23,10561.48,0.000000,0.000000,0.997274,85.07,1
8920,0,54746,62780,45549.20,52236.65,9196.80,10543.35,0.000000,0.000000,0.997293,85.07,1
8929,0,54750,62792,45567.60,52257.76,9182.40,10534.24,0.000000,0.000000,0.997307,85.07,1
8939,0,54750,62788,45585.97,52278.82,9164.03,10509.18,0.000000,0.000000,0.997323,85.07,1
8950,0,54759,62791,45604.32,52299.85,9154.68,10491.15,0.000000,0.000000,0.997344,85.07,1
8960,0,54768,62808,45622.64,52320.87,9145.36,10487.13,0.000000,0.000000,0.997360,85.07,1
8970,0,54765,62815,45640.93,52341.85,9124.07,10473.14,0.000000,0.000000,0.997371,85.07,1
8980,0,54770,62834,45659.19,52362.84,9110.81,10471.16,0.000000,0.000000,0.997375,85.07,1
8989,0,54770,62834,45677.41,52383.78,9092.59,10450.21,0.000000,0.000000,0.997379,85.07,1
8999,0,54769,62828,45695.60,52404.67,9073.40,10423.32,0.000000,0.000000,0.997385,85.07,1
9010,0,54774,62844,45713.75,52425.55,9060.25,10418.45,0.000000,0.000000,0.997385,85.07,1
9019,0,54782,62853,45731.89,52446.41,9050.11,10406.59,0.000000,0.000000,0.997386,85.07,1
9029,0,54773,62855,45749.98,52467.23,9023.02,10387.77,0.000000,0.000000,0.997380,85.07,1
9040,0,54777,62863,45768.03,52488.02,9008.97,10374.98,0.000000,0.000000,0.997373,85.07,1
9049,0,54787,62866,45786.07,52508.78,9000.93,10357.22,0.000000,0.000000,0.997369,85.07,1
9060,0,54789,62867,45804.08,52529.50,8984.92,10337.50,0.000000,0.000000,0.997367,85.07,1
9070,0,54785,62878,45822.04,52550.19,8962.96,10327.80,0.000000,0.000000,0.997356,85.07,1
9079,0,54781,62886,45839.96,52570.87,8941.04,10315.13,0.000000,0.000000,0.997338,85.07,1
9090,0,54784,62883,45857.85,52591.50,8926.15,10291.50,0.000000,0.000000,0.997324,85.07,1
9100,0,54779,62885,45875.69,52612.08,8903.31,10272.91,0.000000,0.000000,0.997306,85.07,1
9109,0,54787,62883,45893.51,52632.63,8893.48,10250.37,0.000000,0.000000,0.997294,85.07,1
9119,0,54780,62870,45911.29,52653.10,8868.71,10216.90,0.000000,0.000000,0.997284,85.07,1
9128,0,54767,62832,45929.00,52673.46,8838.00,10158.54,0.000000,0.000000,0.997288,85.07,1
9139,0,54744,62776,45946.64,52693.67,8797.36,10082.33,0.000000,0.000000,0.997308,85.07,1
9150,0,54726,62730,45964.20,52713.74,8761.80,10016.26,0.000000,0.000000,0.997342,85.07,1
9159,0,54712,62687,45981.70,52733.69,8730.30,9953.31,0.000000,0.000000,0.997391,85.07,1
9169,0,54690,62662,45999.12,52753.55,8690.88,9908.45,0.000000,0.000000,0.997439,85.06,1
9180,0,54677,62643,46016.48,52773.33,8660.52,9869.67,0.000000,0.000000,0.997489,85.06,1
9189,0,54674,62611,46033.79,52793.01,8640.21,9817.99,0.000000,0.000000,0.997554,85.06,1
9199,0,54669,62604,46051.07,52812.63,8617.93,9791.37,0.000000,0.000000,0.997620,85.06,1
9209,0,54682,62607,46068.33,52832.22,8613.67,9774.78,0.000000,0.000000,0.997692,85.06,1
9219,0,54681,62618,46085.55,52851.79,8595.45,9766.21,0.000000,0.000000,0.997757,85.06,1
9229,0,54683,62619,46102.75,52871.32,8580.25,9747.68,0.000000,0.000000,0.997822,85.05,1
9239,0,54678,62624,46119.90,52890.83,8558.10,9733.17,0.000000,0.000000,0.997880,85.05,1
9248,0,54687,62627,46137.04,52910.30,8549.96,9716.70,0.000000,0.000000,0.997943,85.05,1
9259,0,54700,62632,46154.16,52929.75,8545.84,9702.25,0.000000,0.000000,0.998011,85.05,1
9270,0,54702,62633,46171.26,52949.15,8530.74,9683.85,0.000000,0.000000,0.998079,85.05,1
9280,0,54705,62644,46188.33,52968.54,8516.67,9675.46,0.000000,0.000000,0.998143,85.05,1
9289,0,54696,62650,46205.34,52987.91,8490.66,9662.09,0.000000,0.000000,0.998197,85.05,1
9299,0,54702,62646,46222.33,53007.23,8479.66,9638.77,0.000000,0.000000,0.998257,85.04,1
9310,0,54711,62644,46239.31,53026.50,8471.69,9617.50,0.000000,0.000000,0.998323,85.04,1
9319,0,54710,62657,46256.26,53045.76,8453.74,9611.23,0.000000,0.000000,0.998381,85.04,1
9329,0,54713,62651,46273.17,53064.98,8439.83,9586.02,0.000000,0.000000,0.998444,85.04,1
9339,0,54700,62657,46290.02,53084.16,8409.98,9572.84,0.000000,0.000000,0.998495,85.04,1
9349,0,54714,62665,46306.87,53103.32,8407.12,9561.68,0.000000,0.000000,0.998550,85.04,1
9359,0,54717,62664,46323.69,53122.44,8393.30,9541.56,0.000000,0.000000,0.998608,85.03,1
9369,0,54726,62671,46340.50,53141.54,8385.50,9529.46,0.000000,0.000000,0.998667,85.03,1
9378,0,54721,62687,46357.26,53160.64,8363.73,9526.36,0.000000,0.000000,0.998713,85.03,1
9390,0,54722,62674,46374.00,53179.66,8348.00,9494.34,0.000000,0.000000,0.998766,85.03,1
9400,0,54730,62671,46390.71,53198.65,8339.29,9472.35,0.000000,0.000000,0.998827,85.03,1
9409,0,54725,62678,46407.38,53217.61,8317.62,9460.39,0.000000,0.000000,0.998880,85.03,1
9419,0,54734,62675,46424.03,53236.53,8309.96,9438.47,0.000000,0.000000,0.998941,85.03,1
9430,0,54723,62682,46440.63,53255.42,8282.37,9426.58,0.000000,0.000000,0.998989,85.03,1
9439,0,54727,62680,46457.21,53274.27,8269.79,9405.73,0.000000,0.000000,0.999041,85.02,1
9449,0,54729,62665,46473.75,53293.05,8255.25,9371.95,0.000000,0.000000,0.999104,85.02,1
9459,0,54735,62684,46490.27,53311.83,8244.73,9372.17,0.000000,0.000000,0.999158,85.02,1
9468,0,54735,62683,46506.76,53330.58,8228.24,9352.42,0.000000,0.000000,0.999213,85.02,1
9479,0,54725,62689,46523.20,53349.30,8201.80,9339.70,0.000000,0.000000,0.999257,85.02,1
9489,0,54721,62691,46539.59,53367.98,8181.41,9323.02,0.000000,0.000000,0.999297,85.02,1
9498,0,54731,62684,46555.98,53386.62,8175.02,9297.38,0.000000,0.000000,0.999348,85.02,1
9508,0,54734,62687,46572.33,53405.22,8161.66,9281.78,0.000000,0.000000,0.999398,85.02,1
9520,0,54738,62711,46588.67,53423.83,8149.33,9287.17,0.000000,0.000000,0.999437,85.01,1
9528,0,54735,62713,46604.96,53442.41,8130.04,9270.59,0.000000,0.000000,0.999472,85.01,1
9539,0,54724,62713,46621.20,53460.95,8102.80,9252.05,0.000000,0.000000,0.999499,85.01,1
9549,0,54739,62711,46637.44,53479.45,8101.56,9231.55,0.000000,0.000000,0.999538,85.01,1
9559,0,54743,62728,46653.65,53497.95,8089.35,9230.05,0.000000,0.000000,0.999569,85.01,1
9569,0,54744,62736,46669.83,53516.43,8074.17,9219.57,0.000000,0.000000,0.999596,85.01,1
9579,0,54740,62744,46685.97,53534.89,8054.03,9209.11,0.000000,0.000000,0.999615,85.01,1
9588,0,54744,62751,46702.09,53553.32,8041.91,9197.68,0.000000,0.000000,0.999632,85.01,1
9598,0,54747,62749,46718.18,53571.71,8028.82,9177.29,0.000000,0.000000,0.999652,85.01,1
9609,0,54751,62755,46734.25,53590.08,8016.75,9164.92,0.000000,0.000000,0.999672,85.01,1
9618,0,54758,62772,46750.30,53608.44,8007.70,9163.55,0.000000,0.000000,0.999685,85.01,1
9628,0,54755,62778,46766.31,53626.78,7988.69,9151.21,0.000000,0.000000,0.999693,85.01,1
9639,0,54751,62780,46782.28,53645.09,7968.72,9134.91,0.000000,0.000000,0.999697,85.01,1
9650,0,54763,62775,46798.25,53663.35,7964.75,9111.65,0.000000,0.000000,0.999712,85.01,1
9659,0,54767,62791,46814.19,53681.61,7952.81,9109.39,0.000000,0.000000,0.999720,85.01,1
9669,0,54765,62797,46830.09,53699.84,7934.91,9097.16,0.000000,0.000000,0.999723,85.01,1
9679,0,54758,62799,46845.94,53718.04,7912.05,9080.96,0.000000,0.000000,0.999719,85.01,1
9689,0,54759,62802,46861.77,53736.21,7897.23,9065.79,0.000000,0.000000,0.999715,85.01,1
9699,0,54765,62772,46877.58,53754.28,7887.42,9017.72,0.000000,0.000000,0.999733,85.01,1
9709,0,54756,62749,46893.34,53772.27,7862.66,8976.73,0.000000,0.000000,0.999760,85.01,1
9718,0,54743,62713,46909.04,53790.15,7833.96,8922.85,0.000000,0.000000,0.999799,85.01,1
9729,0,54726,62670,46924.67,53807.91,7801.32,8862.09,0.000000,0.000000,0.999853,85.00,1
9740,0,54704,62634,46940.23,53825.57,7763.77,8808.43,0.000000,0.000000,0.999914,85.00,1
9748,0,54698,62606,46955.75,53843.13,7742.25,8762.87,0.000000,0.000000,0.999987,85.00,1
9759,0,54698,62582,46971.23,53860.61,7726.77,8721.39,0.000000,0.000000,1.000075,85.00,1
9769,0,54688,62577,46986.67,53878.05,7701.33,8698.95,0.000000,0.000000,1.000158,85.00,1
9779,0,54684,62580,47002.06,53895.45,7681.94,8684.55,0.000000,0.000000,1.000236,84.99,1
9789,0,54686,62574,47017.43,53912.81,7668.57,8661.19,0.000000,0.000000,1.000319,84.99,1
9799,0,54693,62579,47032.78,53930.14,7660.22,8648.86,0.000000,0.000000,1.000403,84.99,1
9808,0,54695,62588,47048.11,53947.46,7646.89,8640.54,0.000000,0.000000,1.000482,84.99,1
9819,0,54698,62588,47063.41,53964.74,7634.59,8623.26,0.000000,0.000000,1.000563,84.99,1
9829,0,54698,62601,47078.68,53982.01,7619.32,8618.98,0.000000,0.000000,1.000636,84.98,1
9838,0,54695,62611,47093.91,53999.28,7601.09,8611.72,0.000000,0.000000,1.000699,84.98,1
9848,0,54705,62596,47109.14,54016.47,7595.86,8579.53,0.000000,0.000000,1.000779,84.98,1
9860,0,54711,62608,47124.34,54033.66,7586.66,8574.34,0.000000,0.000000,1.000856,84.98,1
9869,0,54710,62613,47139.51,54050.82,7570.48,8562.18,0.000000,0.000000,1.000928,84.98,1
9879,0,54705,62605,47154.65,54067.92,7550.35,8537.07,0.000000,0.000000,1.001001,84.97,1
9889,0,54697,62609,47169.73,54085.01,7527.27,8523.99,0.000000,0.000000,1.001065,84.97,1
9899,0,54705,62597,47184.80,54102.04,7520.20,8494.96,0.000000,0.000000,1.001142,84.97,1
9909,0,54696,62590,47199.83,54119.01,7496.17,8470.98,0.000000,0.000000,1.001216,84.97,1
9919,0,54690,62600,47214.81,54135.98,7475.19,8464.02,0.000000,0.000000,1.001280,84.97,1
9928,0,54683,62599,47229.75,54152.91,7453.25,8446.09,0.000000,0.000000,1.001338,84.97,1
9938,0,54684,62591,47244.66,54169.78,7439.34,8421.21,0.000000,0.000000,1.001401,84.96,1
9949,0,54679,62587,47259.53,54186.62,7419.47,8400.38,0.000000,0.000000,1.001464,84.96,1
9958,0,54681,62592,47274.37,54203.43,7406.63,8388.57,0.000000,0.000000,1.001524,84.96,1
9968,0,54678,62588,47289.18,54220.20,7388.82,8367.80,0.000000,0.000000,1.001584,84.96,1
9979,0,54679,62600,47303.96,54236.96,7375.04,8363.04,0.000000,0.000000,1.001636,84.96,1
9989,0,54671,62585,47318.70,54253.66,7352.30,8331.34,0.000000,0.000000,1.001692,84.96,1
9999,0,54676,62572,47333.41,54270.30,7342.59,8301.70,0.000000,0.000000,1.001760,84.96,1
10009,0,54671,62578,47348.09,54286.92,7322.91,8291.08,0.000000,0.000000,1.001820,84.95,1
10018,0,54668,62587,47362.73,54303.52,7305.27,8283.48,0.000000,0.000000,1.001871,84.95,1
10029,0,54662,62576,47377.33,54320.07,7284.66,8255.93,0.000000,0.000000,1.001925,84.95,1
10039,0,54664,62580,47391.91,54336.58,7272.09,8243.41,0.000000,0.000000,1.001977,84.95,1
10048,0,54670,62579,47406.47,54353.07,7263.53,8225.93,0.000000,0.000000,1.002035,84.95,1
10059,0,54666,62588,47420.99,54369.54,7245.01,8218.46,0.000000,0.000000,1.002082,84.95,1
10067,0,54668,62599,47435.48,54386.00,7232.52,8213.00,0.000000,0.000000,1.002124,84.95,1
10079,0,54671,62594,47449.96,54402.42,7221.04,8191.58,0.000000,0.000000,1.002171,84.95,1
10089,0,54664,62599,47464.39,54418.82,7199.61,8180.18,0.000000,0.000000,1.002209,84.94,1
10098,0,54669,62607,47478.80,54435.19,7190.20,8171.80,0.000000,0.000000,1.002245,84.94,1
10108,0,54670,62602,47493.18,54451.53,7176.82,8150.47,0.000000,0.000000,1.002285,84.94,1
10119,0,54676,62615,47507.55,54467.86,7168.45,8147.14,0.000000,0.000000,1.002321,84.94,1
10128,0,54677,62627,47521.89,54484.18,7155.11,8142.82,0.000000,0.000000,1.002349,84.94,1
10139,0,54680,62625,47536.21,54500.46,7143.79,8124.54,0.000000,0.000000,1.002380,84.94,1
10148,0,54685,62629,47550.51,54516.72,7134.49,8112.28,0.000000,0.000000,1.002413,84.94,1
10159,0,54689,62642,47564.78,54532.97,7124.21,8109.03,0.000000,0.000000,1.002440,84.94,1
10169,0,54686,62662,47579.03,54549.23,7106.97,8112.77,0.000000,0.000000,1.002450,84.94,1
10178,0,54685,62657,47593.24,54565.44,7091.76,8091.55,0.000000,0.000000,1.002463,84.94,1
10188,0,54686,62641,47607.43,54581.60,7078.57,8059.40,0.000000,0.000000,1.002487,84.94,1
10199,0,54693,62653,47621.60,54597.74,7071.40,8055.26,0.000000,0.000000,1.002509,84.94,1
10208,0,54698,62667,47635.75,54613.88,7062.25,8053.12,0.000000,0.000000,1.002525,84.94,1
10219,0,54700,62674,47649.88,54630.00,7050.12,8044.00,0.000000,0.000000,1.002537,84.94,1
10228,0,54696,62675,47663.98,54646.10,7032.02,8028.90,0.000000,0.000000,1.002546,84.94,1
10238,0,54691,62663,47678.03,54662.13,7012.97,8000.87,0.000000,0.000000,1.002558,84.94,1
10249,0,54697,62673,47692.07,54678.16,7004.93,7994.84,0.000000,0.000000,1.002569,84.94,1
10258,0,54701,62691,47706.09,54694.18,6994.91,7996.82,0.000000,0.000000,1.002570,84.94,1
10268,0,54696,62685,47720.07,54710.17,6975.93,7974.83,0.000000,0.000000,1.002571,84.94,1
10279,0,54693,62698,47734.02,54726.14,6958.98,7971.86,0.000000,0.000000,1.002560,84.94,1
10288,0,54700,62697,47747.95,54742.09,6952.05,7954.91,0.000000,0.000000,1.002556,84.94,1
10299,0,54700,62697,47761.85,54758.00,6938.15,7939.00,0.000000,0.000000,1.002551,84.94,1
10308,0,54698,62690,47775.72,54773.86,6922.28,7916.14,0.000000,0.000000,1.002551,84.94,1
10318,0,54687,62657,47789.55,54789.63,6897.45,7867.37,0.000000,0.000000,1.002565,84.94,1
10329,0,54669,62631,47803.31,54805.31,6865.69,7825.69,0.000000,0.000000,1.002582,84.94,1
10338,0,54655,62592,47817.01,54820.89,6837.99,7771.11,0.000000,0.000000,1.002616,84.93,1
10348,0,54650,62551,47830.68,54836.35,6819.32,7714.65,0.000000,0.000000,1.002675,84.93,1
10359,0,54642,62532,47844.30,54851.74,6797.70,7680.26,0.000000,0.000000,1.002741,84.93,1
10369,0,54630,62512,47857.88,54867.06,6772.12,7644.94,0.000000,0.000000,1.002811,84.93,1
10379,0,54623,62501,47871.41,54882.33,6751.59,7618.67,0.000000,0.000000,1.002882,84.93,1
10388,0,54631,62493,47884.93,54897.55,6746.07,7595.45,0.000000,0.000000,1.002966,84.93,1
10398,0,54627,62481,47898.41,54912.72,6728.59,7568.28,0.000000,0.000000,1.003054,84.92,1
10408,0,54626,62490,47911.87,54927.87,6714.13,7562.12,0.000000,0.000000,1.003134,84.92,1
10418,0,54630,62504,47925.31,54943.03,6704.69,7560.97,0.000000,0.000000,1.003207,84.92,1
10428,0,54632,62514,47938.73,54958.17,6693.27,7555.83,0.000000,0.000000,1.003275,84.92,1
10439,0,54642,62513,47952.14,54973.28,6689.86,7539.71,0.000000,0.000000,1.003350,84.92,1
10448,0,54645,62510,47965.52,54988.36,6679.48,7521.64,0.000000,0.000000,1.003431,84.91,1
10459,0,54646,62523,47978.89,55003.43,6667.11,7519.57,0.000000,0.000000,1.003502,84.91,1
10468,0,54643,62530,47992.21,55018.48,6650.79,7511.52,0.000000,0.000000,1.003565,84.91,1
10478,0,54645,62526,48005.52,55033.50,6639.48,7492.50,0.000000,0.000000,1.003632,84.91,1
10488,0,54645,62528,48018.80,55048.49,6626.20,7479.51,0.000000,0.000000,1.003697,84.91,1
10498,0,54647,62530,48032.05,55063.45,6614.95,7466.55,0.000000,0.000000,1.003763,84.91,1
10509,0,54650,62530,48045.29,55078.39,6604.71,7451.61,0.000000,0.000000,1.003830,84.90,1
10517,0,54652,62540,48058.51,55093.31,6593.49,7446.69,0.000000,0.000000,1.003892,84.90,1
10528,0,54648,62542,48071.69,55108.21,6576.31,7433.79,0.000000,0.000000,1.003948,84.90,1
10539,0,54653,62547,48084.85,55123.09,6568.15,7423.91,0.000000,0.000000,1.004004,84.90,1
10548,0,54661,62562,48098.00,55137.97,6563.00,7424.03,0.000000,0.000000,1.004056,84.90,1
10558,0,54664,62552,48111.14,55152.80,6552.86,7399.20,0.000000,0.000000,1.004117,84.90,1
10568,0,54660,62569,48124.23,55167.63,6535.77,7401.37,0.000000,0.000000,1.004162,84.90,1
10577,0,54664,62578,48137.32,55182.46,6526.68,7395.54,0.000000,0.000000,1.004203,84.89,1
10589,0,54660,62562,48150.36,55197.22,6509.64,7364.78,0.000000,0.000000,1.004253,84.89,1
10598,0,54668,62565,48163.40,55211.95,6504.60,7353.05,0.000000,0.000000,1.004307,84.89,1
10608,0,54670,62569,48176.41,55226.67,6493.59,7342.33,0.000000,0.000000,1.004359,84.89,1
10618,0,54667,62572,48189.40,55241.36,6477.60,7330.64,0.000000,0.000000,1.004406,84.89,1
10628,0,54664,62571,48202.35,55256.02,6461.65,7314.98,0.000000,0.000000,1.004451,84.89,1
10638,0,54662,62562,48215.27,55270.63,6446.73,7291.37,0.000000,0.000000,1.004501,84.89,1
10648,0,54662,62566,48228.16,55285.23,6433.84,7280.77,0.000000,0.000000,1.004548,84.89,1
10657,0,54669,62582,48241.05,55299.82,6427.95,7282.18,0.000000,0.000000,1.004588,84.89,1
10669,0,54670,62577,48253.91,55314.37,6416.09,7262.62,0.000000,0.000000,1.004632,84.88,1
10678,0,54663,62595,48266.72,55328.94,6396.28,7266.06,0.000000,0.000000,1.004656,84.88,1
10688,0,54667,62585,48279.53,55343.45,6387.47,7241.55,0.000000,0.000000,1.004692,84.88,1
10698,0,54676,62597,48292.32,55357.96,6383.68,7239.04,0.000000,0.000000,1.004725,84.88,1
10707,0,54683,62604,48305.10,55372.46,6377.89,7231.54,0.000000,0.000000,1.004760,84.88,1
10718,0,54681,62607,48317.86,55386.93,6363.14,7220.07,0.000000,0.000000,1.004790,84.88,1
10729,0,54681,62618,48330.59,55401.39,6350.41,7216.61,0.000000,0.000000,1.004811,84.88,1
10738,0,54687,62631,48343.30,55415.85,6343.70,7215.15,0.000000,0.000000,1.004827,84.88,1
10748,0,54686,62634,48355.99,55430.29,6330.01,7203.71,0.000000,0.000000,1.004840,84.88,1
10758,0,54692,62644,48368.66,55444.72,6323.34,7199.28,0.000000,0.000000,1.004850,84.88,1
10768,0,54690,62650,48381.31,55459.13,6308.69,7190.87,0.000000,0.000000,1.004853,84.88,1
10778,0,54688,62650,48393.92,55473.51,6294.08,7176.48,0.000000,0.000000,1.004855,84.88,1
10787,0,54697,62660,48406.53,55487.89,6290.47,7172.11,0.000000,0.000000,1.004856,84.88,1
10798,0,54701,62653,48419.12,55502.22,6281.88,7150.78,0.000000,0.000000,1.004868,84.88,1
10809,0,54697,62667,48431.68,55516.55,6265.32,7150.45,0.000000,0.000000,1.004864,84.88,1
10818,0,54697,62680,48444.21,55530.88,6252.79,7149.12,0.000000,0.000000,1.004849,84.88,1
10828,0,54704,62676,48456.73,55545.17,6247.27,7130.82,0.000000,0.000000,1.004844,84.88,1
10838,0,54697,62683,48469.21,55559.45,6227.79,7123.55,0.000000,0.000000,1.004828,84.88,1
10848,0,54707,62681,48481.69,55573.70,6225.31,7107.30,0.000000,0.000000,1.004822,84.88,1
10858,0,54715,62687,48494.16,55587.93,6220.84,7099.07,0.000000,0.000000,1.004819,84.88,1
10867,0,54710,62706,48506.59,55602.16,6203.41,7103.84,0.000000,0.000000,1.004795,84.88,1
10878,0,54717,62706,48519.01,55616.37,6197.99,7089.63,0.000000,0.000000,1.004778,84.88,1
10889,0,54713,62705,48531.40,55630.55,6181.60,7074.45,0.000000,0.000000,1.004758,84.88,1
10898,0,54718,62709,48543.78,55644.71,6174.22,7064.29,0.000000,0.000000,1.004740,84.88,1
10908,0,54729,62723,48556.15,55658.87,6172.85,7064.13,0.000000,0.000000,1.004721,84.88,1
10917,0,54730,62735,48568.50,55673.02,6161.50,7061.98,0.000000,0.000000,1.004692,84.88,1
10928,0,54726,62736,48580.82,55687.15,6145.18,7048.85,0.000000,0.000000,1.004660,84.88,1
10938,0,54729,62735,48593.11,55701.25,6135.89,7033.75,0.000000,0.000000,1.004631,84.88,1
10947,0,54737,62752,48605.40,55715.35,6131.60,7036.65,0.000000,0.000000,1.004595,84.89,1
10958,0,54742,62750,48617.67,55729.42,6124.32,7020.58,0.000000,0.000000,1.004567,84.89,1
10969,0,54738,62761,48629.92,55743.48,6108.08,7017.52,0.000000,0.000000,1.004525,84.89,1
10978,0,54741,62755,48642.14,55757.51,6098.86,6997.49,0.000000,0.000000,1.004492,84.89,1
10988,0,54743,62758,48654.34,55771.51,6088.66,6986.48,0.000000,0.000000,1.004458,84.89,1
10997,0,54739,62740,48666.51,55785.45,6072.49,6954.55,0.000000,0.000000,1.004436,84.89,1
11008,0,54728,62698,48678.64,55799.28,6049.36,6898.72,0.000000,0.000000,1.004439,84.89,1
11019,0,54709,62655,48690.70,55812.99,6018.30,6842.01,0.000000,0.000000,1.004460,84.89,1
11027,0,54687,62621,48702.69,55826.60,5984.30,6794.39,0.000000,0.000000,1.004489,84.89,1
11038,0,54684,62584,48714.66,55840.12,5969.34,6743.88,0.000000,0.000000,1.004545,84.89,1
11047,0,54681,62568,48726.59,55853.58,5954.41,6714.42,0.000000,0.000000,1.004611,84.88,1
11058,0,54668,62552,48738.48,55866.98,5929.52,6685.02,0.000000,0.000000,1.004678,84.88,1
11068,0,54663,62546,48750.32,55880.33,5912.68,6665.66,0.000000,0.000000,1.004745,84.88,1
11077,0,54661,62548,48762.14,55893.67,5898.86,6654.32,0.000000,0.000000,1.004808,84.88,1
11087,0,54660,62541,48773.94,55906.97,5886.06,6634.03,0.000000,0.000000,1.004875,84.88,1
11099,0,54667,62553,48785.73,55920.26,5881.27,6632.73,0.000000,0.000000,1.004938,84.88,1
11108,0,54668,62552,48797.50,55933.53,5870.50,6618.47,0.000000,0.000000,1.005003,84.87,1
11118,0,54664,62570,48809.23,55946.80,5854.77,6623.20,0.000000,0.000000,1.005049,84.87,1
11127,0,54666,62574,48820.94,55960.06,5845.05,6613.94,0.000000,0.000000,1.005093,84.87,1
11138,0,54665,62564,48832.63,55973.27,5832.37,6590.73,0.000000,0.000000,1.005144,84.87,1
11148,0,54672,62573,48844.31,55986.47,5827.69,6586.53,0.000000,0.000000,1.005193,84.87,1
11157,0,54670,62585,48855.96,55999.67,5814.04,6585.33,0.000000,0.000000,1.005231,84.87,1
11167,0,54672,62580,48867.60,56012.83,5804.40,6567.16,0.000000,0.000000,1.005274,84.87,1
11179,0,54669,62589,48879.20,56025.99,5789.80,6563.01,0.000000,0.000000,1.005306,84.87,1
11188,0,54671,62583,48890.79,56039.10,5780.21,6543.89,0.000000,0.000000,1.005346,84.87,1
11198,0,54679,62592,48902.37,56052.21,5776.63,6539.79,0.000000,0.000000,1.005385,84.87,1
11207,0,54689,62604,48913.94,56065.32,5775.06,6538.68,0.000000,0.000000,1.005423,84.86,1
11217,0,54683,62605,48925.48,56078.40,5757.52,6526.60,0.000000,0.000000,1.005455,84.86,1
11228,0,54680,62610,48936.99,56091.46,5743.01,6518.54,0.000000,0.000000,1.005479,84.86,1
11237,0,54680,62614,48948.48,56104.51,5731.52,6509.49,0.000000,0.000000,1.005499,84.86,1
11248,0,54683,62607,48959.95,56117.51,5723.05,6489.48,0.000000,0.000000,1.005528,84.86,1
11258,0,54685,62609,48971.40,56130.50,5713.60,6478.50,0.000000,0.000000,1.005557,84.86,1
11268,0,54678,62607,48982.82,56143.46,5695.18,6463.54,0.000000,0.000000,1.005581,84.86,1
11278,0,54677,62606,48994.21,56156.38,5682.79,6449.62,0.000000,0.000000,1.005604,84.86,1
11287,0,54675,62607,49005.57,56169.28,5669.43,6437.71,0.000000,0.000000,1.005624,84.86,1
11297,0,54681,62590,49016.92,56182.13,5664.08,6407.87,0.000000,0.000000,1.005666,84.86,1
11308,0,54685,62608,49028.26,56194.98,5656.74,6413.02,0.000000,0.000000,1.005695,84.86,1
11317,0,54682,62613,49039.57,56207.82,5642.43,6405.18,0.000000,0.000000,1.005717,84.86,1
11328,0,54678,62607,49050.85,56220.62,5627.15,6386.38,0.000000,0.000000,1.005740,84.86,1
11338,0,54684,62617,49062.11,56233.41,5621.89,6383.59,0.000000,0.000000,1.005759,84.86,1
11347,0,54686,62606,49073.36,56246.16,5612.64,6359.84,0.000000,0.000000,1.005791,84.86,1
11358,0,54686,62625,49084.59,56258.92,5601.41,6366.08,0.000000,0.000000,1.005805,84.85,1
11367,0,54682,62635,49095.78,56271.67,5586.21,6363.33,0.000000,0.000000,1.005806,84.85,1
11377,0,54684,62632,49106.96,56284.39,5577.04,6347.61,0.000000,0.000000,1.005812,84.85,1
11388,0,54691,62632,49118.13,56297.09,5572.87,6334.91,0.000000,0.000000,1.005825,84.85,1
11397,0,54696,62653,49129.29,56309.80,5566.71,6343.20,0.000000,0.000000,1.005824,84.85,1
11408,0,54693,62660,49140.42,56322.51,5552.58,6337.49,0.000000,0.000000,1.005813,84.85,1
11417,0,54702,62661,49151.54,56335.18,5550.46,6325.82,0.000000,0.000000,1.005811,84.85,1
11427,0,54699,62661,49162.64,56347.83,5536.36,6313.16,0.000000,0.000000,1.005805,84.85,1
11438,0,54705,62674,49173.72,56360.49,5531.28,6313.51,0.000000,0.000000,1.005794,84.86,1
11447,0,54708,62678,49184.79,56373.12,5523.21,6304.87,0.000000,0.000000,1.005783,84.86,1
11457,0,54704,62681,49195.83,56385.74,5508.17,6295.26,0.000000,0.000000,1.005764,84.86,1
11468,0,54714,62692,49206.87,56398.35,5507.13,6293.64,0.000000,0.000000,1.005746,84.86,1
11478,0,54703,62694,49217.86,56410.94,5485.14,6283.05,0.000000,0.000000,1.005715,84.86,1
11488,0,54708,62699,49228.84,56423.52,5479.16,6275.48,0.000000,0.000000,1.005684,84.86,1
11497,0,54724,62702,49239.83,56436.08,5484.17,6265.92,0.000000,0.000000,1.005668,84.86,1
11507,0,54721,62712,49250.80,56448.64,5470.20,6263.36,0.000000,0.000000,1.005639,84.86,1
11517,0,54717,62716,49261.73,56461.17,5455.27,6254.82,0.000000,0.000000,1.005603,84.86,1
11527,0,54710,62717,49272.63,56473.69,5437.37,6243.31,0.000000,0.000000,1.005558,84.86,1
11538,0,54717,62712,49283.52,56486.17,5433.48,6225.83,0.000000,0.000000,1.005525,84.86,1
11548,0,54725,62711,49294.40,56498.62,5430.60,6212.38,0.000000,0.000000,1.005503,84.86,1
11557,0,54725,62727,49305.26,56511.07,5419.73,6215.93,0.000000,0.000000,1.005465,84.86,1
11568,0,54718,62729,49316.09,56523.51,5401.91,6205.49,0.000000,0.000000,1.005418,84.86,1
11577,0,54722,62734,49326.91,56535.93,5395.09,6198.07,0.000000,0.000000,1.005371,84.87,1
11587,0,54719,62723,49337.69,56548.31,5381.31,6174.69,0.000000,0.000000,1.005331,84.87,1
11597,0,54723,62729,49348.46,56560.67,5374.54,6168.33,0.000000,0.000000,1.005290,84.87,1
11607,0,54726,62743,49359.22,56573.03,5366.78,6169.96,0.000000,0.000000,1.005239,84.87,1
11618,0,54726,62743,49369.95,56585.37,5356.05,6157.62,0.000000,0.000000,1.005189,84.87,1
11628,0,54720,62754,49380.66,56597.71,5339.34,6156.29,0.000000,0.000000,1.005121,84.87,1
11637,0,54725,62746,49391.34,56610.01,5333.66,6135.99,0.000000,0.000000,1.005068,84.87,1
11648,0,54730,62767,49402.02,56622.33,5327.98,6144.67,0.000000,0.000000,1.004999,84.88,1
11657,0,54739,62791,49412.69,56634.67,5326.30,6156.33,0.000000,0.000000,1.004918,84.88,1
11667,0,54740,62782,49423.35,56646.96,5316.65,6135.04,0.000000,0.000000,1.004847,84.88,1
11677,0,54732,62777,49433.97,56659.22,5298.03,6117.78,0.000000,0.000000,1.004772,84.88,1
11686,0,54732,62744,49444.57,56671.39,5287.43,6072.61,0.000000,0.000000,1.004730,84.88,1
11698,0,54718,62694,49455.12,56683.44,5262.88,6010.56,0.000000,0.000000,1.004723,84.88,1
11707,0,54700,62658,49465.61,56695.39,5234.39,5962.61,0.000000,0.000000,1.004730,84.88,1
11717,0,54683,62613,49476.05,56707.23,5206.95,5905.77,0.000000,0.000000,1.004762,84.88,1
11727,0,54665,62589,49486.42,56718.99,5178.57,5870.01,0.000000,0.000000,1.004798,84.88,1
11737,0,54657,62558,49496.76,56730.67,5160.23,5827.33,0.000000,0.000000,1.004854,84.88,1
11747,0,54660,62553,49507.09,56742.32,5152.91,5810.68,0.000000,0.000000,1.004918,84.88,1
11758,0,54652,62548,49517.39,56753.93,5134.61,5794.07,0.000000,0.000000,1.004977,84.88,1
11767,0,54648,62552,49527.65,56765.53,5120.35,5786.47,0.000000,0.000000,1.005028,84.87,1
11778,0,54649,62544,49537.89,56777.08,5111.11,5766.91,0.000000,0.000000,1.005088,84.87,1
11787,0,54648,62554,49548.11,56788.64,5099.89,5765.36,0.000000,0.000000,1.005136,84.87,1
11797,0,54662,62559,49558.34,56800.19,5103.66,5758.81,0.000000,0.000000,1.005195,84.87,1
11807,0,54656,62568,49568.54,56811.73,5087.46,5756.27,0.000000,0.000000,1.005238,84.87,1
11816,0,54654,62577,49578.71,56823.26,5075.29,5753.74,0.000000,0.000000,1.005270,84.87,1
11827,0,54656,62577,49588.87,56834.76,5067.13,5742.23,0.000000,0.000000,1.005303,84.87,1
11838,0,54667,62576,49599.03,56846.25,5067.97,5729.75,0.000000,0.000000,1.005350,84.87,1
11847,0,54673,62597,49609.18,56857.75,5063.82,5739.25,0.000000,0.000000,1.005383,84.87,1
11857,0,54665,62587,49619.29,56869.21,5045.71,5717.79,0.000000,0.000000,1.005416,84.86,1
11867,0,54660,62590,49629.37,56880.66,5030.63,5709.34,0.000000,0.000000,1.005440,84.86,1
11877,0,54660,62590,49639.43,56892.07,5020.57,5697.93,0.000000,0.000000,1.005464,84.86,1
11887,0,54671,62599,49649.50,56903.49,5021.50,5695.51,0.000000,0.000000,1.005492,84.86,1
11896,0,54668,62610,49659.54,56914.91,5008.46,5695.09,0.000000,0.000000,1.005504,84.86,1
11907,0,54675,62615,49669.57,56926.31,5005.43,5688.69,0.000000,0.000000,1.005520,84.86,1
11918,0,54680,62626,49679.60,56937.71,5000.40,5688.29,0.000000,0.000000,1.005531,84.86,1
11927,0,54673,62616,49689.58,56949.07,4983.41,5666.93,0.000000,0.000000,1.005543,84.86,1
11937,0,54677,62615,49699.56,56960.40,4977.44,5654.60,0.000000,0.000000,1.005561,84.86,1
11947,0,54682,62620,49709.53,56971.72,4972.47,5648.28,0.000000,0.000000,1.005579,84.86,1
11957,0,54678,62622,49719.46,56983.02,4958.54,5638.98,0.000000,0.000000,1.005591,84.86,1
11967,0,54675,62623,49729.38,56994.30,4945.62,5628.70,0.000000,0.000000,1.005598,84.86,1
11976,0,54670,62616,49739.26,57005.54,4930.74,5610.46,0.000000,0.000000,1.005606,84.86,1
11986,0,54669,62597,49749.12,57016.73,4919.87,5580.27,0.000000,0.000000,1.005633,84.86,1
11998,0,54675,62605,49758.98,57027.91,4916.02,5577.09,0.000000,0.000000,1.005658,84.86,1
12007,0,54677,62615,49768.82,57039.08,4908.18,5575.91,0.000000,0.000000,1.005675,84.86,1
12017,0,54674,62613,49778.63,57050.23,4895.37,5562.77,0.000000,0.000000,1.005691,84.86,1
12026,0,54674,62618,49788.42,57061.37,4885.57,5556.63,0.000000,0.000000,1.005701,84.86,1
12037,0,54679,62622,49798.21,57072.49,4880.79,5549.51,0.000000,0.000000,1.005713,84.86,1
12047,0,54685,62635,49807.99,57083.62,4877.01,5551.38,0.000000,0.000000,1.005718,84.86,1
12056,0,54672,62639,49817.72,57094.73,4854.28,5544.27,0.000000,0.000000,1.005704,84.86,1
12067,0,54672,62636,49827.43,57105.82,4844.57,5530.18,0.000000,0.000000,1.005693,84.86,1
12078,0,54674,62648,49837.12,57116.90,4836.87,5531.10,0.000000,0.000000,1.005672,84.86,1
12087,0,54684,62657,49846.82,57127.98,4837.18,5529.02,0.000000,0.000000,1.005653,84.86,1
12097,0,54687,62659,49856.50,57139.05,4830.50,5519.95,0.000000,0.000000,1.005636,84.86,1
12106,0,54686,62676,49866.16,57150.12,4819.84,5525.88,0.000000,0.000000,1.005600,84.86,1
12116,0,54683,62677,49875.80,57161.18,4807.20,5515.82,0.000000,0.000000,1.005559,84.86,1
12127,0,54685,62679,49885.42,57172.22,4799.58,5506.78,0.000000,0.000000,1.005519,84.86,1
12136,0,54691,62691,49895.03,57183.26,4795.96,5507.74,0.000000,0.000000,1.005473,84.86,1
12147,0,54701,62693,49904.65,57194.28,4796.35,5498.72,0.000000,0.000000,1.005438,84.86,1
12157,0,54698,62707,49914.23,57205.31,4783.77,5501.69,0.000000,0.000000,1.005384,84.87,1
12167,0,54694,62710,49923.79,57216.32,4770.21,5493.68,0.000000,0.000000,1.005322,84.87,1
12177,0,54690,62703,49933.32,57227.30,4756.68,5475.70,0.000000,0.000000,1.005263,84.87,1
12186,0,54704,62707,49942.86,57238.26,4761.14,5468.74,0.000000,0.000000,1.005218,84.87,1
12196,0,54703,62716,49952.39,57249.21,4750.61,5466.79,0.000000,0.000000,1.005162,84.87,1
12208,0,54696,62729,49961.87,57260.17,4734.12,5468.82,0.000000,0.000000,1.005083,84.87,1
12216,0,54706,62734,49971.36,57271.12,4734.64,5462.87,0.000000,0.000000,1.005012,84.87,1
12227,0,54705,62721,49980.83,57282.03,4724.17,5438.97,0.000000,0.000000,1.004954,84.88,1
12237,0,54708,62731,49990.28,57292.92,4717.71,5438.07,0.000000,0.000000,1.004889,84.88,1
12247,0,54709,62747,49999.72,57303.83,4709.28,5443.17,0.000000,0.000000,1.004808,84.88,1
12257,0,54707,62745,50009.14,57314.71,4697.86,5430.29,0.000000,0.000000,1.004727,84.88,1
12266,0,54710,62750,50018.54,57325.58,4691.46,5424.41,0.000000,0.000000,1.004645,84.88,1
12276,0,54711,62749,50027.93,57336.43,4683.07,5412.57,0.000000,0.000000,1.004566,84.89,1
12288,0,54721,62752,50037.32,57347.26,4683.68,5404.73,0.000000,0.000000,1.004497,84.89,1
12296,0,54722,62767,50046.69,57358.11,4675.31,5408.89,0.000000,0.000000,1.004412,84.89,1
12307,0,54717,62768,50056.03,57368.93,4660.97,5399.07,0.000000,0.000000,1.004321,84.89,1
12317,0,54720,62775,50065.36,57379.74,4654.64,5395.26,0.000000,0.000000,1.004226,84.89,1
12326,0,54721,62778,50074.67,57390.54,4646.33,5387.46,0.000000,0.000000,1.004129,84.90,1
12337,0,54725,62783,50083.97,57401.32,4641.03,5381.68,0.000000,0.000000,1.004033,84.90,1
12346,0,54732,62799,50093.27,57412.12,4638.73,5386.88,0.000000,0.000000,1.003928,84.90,1
12356,0,54734,62796,50102.55,57422.89,4631.45,5373.11,0.000000,0.000000,1.003830,84.90,1
12367,0,54729,62790,50111.81,57433.62,4617.19,5356.37,0.000000,0.000000,1.003732,84.91,1
12377,0,54723,62750,50121.03,57444.26,4601.97,5305.74,0.000000,0.000000,1.003674,84.91,1
12387,0,54702,62687,50130.19,57454.75,4571.81,5232.25,0.000000,0.000000,1.003660,84.91,1
12397,0,54687,62642,50139.31,57465.12,4547.69,5176.87,0.000000,0.000000,1.003678,84.91,1
12406,0,54667,62598,50148.37,57475.39,4518.63,5122.61,0.000000,0.000000,1.003719,84.91,1
12417,0,54648,62573,50157.37,57485.58,4490.63,5087.41,0.000000,0.000000,1.003763,84.91,1
12426,0,54641,62552,50166.33,57495.72,4474.66,5056.28,0.000000,0.000000,1.003821,84.90,1
12436,0,54641,62534,50175.28,57505.80,4465.71,5028.20,0.000000,0.000000,1.003899,84.90,1
12447,0,54637,62544,50184.21,57515.88,4452.79,5028.12,0.000000,0.000000,1.003961,84.90,1
12456,0,54639,62540,50193.12,57525.92,4445.88,5014.07,0.000000,0.000000,1.004029,84.90,1
12467,0,54631,62534,50202.00,57535.94,4429.00,4998.06,0.000000,0.000000,1.004093,84.90,1
12477,0,54636,62544,50210.87,57545.96,4425.13,4998.04,0.000000,0.000000,1.004152,84.90,1
12486,0,54638,62552,50219.72,57555.98,4418.28,4996.02,0.000000,0.000000,1.004204,84.89,1
12496,0,54647,62553,50228.58,57565.97,4418.42,4987.03,0.000000,0.000000,1.004266,84.89,1
12507,0,54639,62567,50237.40,57575.98,4401.60,4991.02,0.000000,0.000000,1.004302,84.89,1
12516,0,54638,62555,50246.20,57585.93,4391.80,4969.07,0.000000,0.000000,1.004350,84.89,1
12527,0,54643,62566,50255.00,57595.89,4388.00,4970.11,0.000000,0.000000,1.004392,84.89,1
12536,0,54650,62571,50263.79,57605.84,4386.21,4965.16,0.000000,0.000000,1.004437,84.89,1
12547,0,54652,62566,50272.57,57615.76,4379.43,4950.23,0.000000,0.000000,1.004490,84.89,1
12557,0,54651,62579,50281.32,57625.69,4369.68,4953.31,0.000000,0.000000,1.004526,84.89,1
12566,0,54644,62576,50290.05,57635.59,4353.95,4940.41,0.000000,0.000000,1.004556,84.89,1
12576,0,54643,62574,50298.76,57645.47,4344.24,4928.53,0.000000,0.000000,1.004588,84.89,1
12588,0,54653,62566,50307.46,57655.32,4345.54,4910.68,0.000000,0.000000,1.004641,84.88,1
12596,0,54657,62584,50316.16,57665.17,4340.84,4918.82,0.000000,0.000000,1.004679,84.88,1
12607,0,54658,62587,50324.85,57675.02,4333.15,4911.98,0.000000,0.000000,1.004715,84.88,1
12616,0,54655,62604,50333.51,57684.88,4321.49,4919.12,0.000000,0.000000,1.004726,84.88,1
12626,0,54654,62594,50342.15,57694.70,4311.85,4899.30,0.000000,0.000000,1.004747,84.88,1
12637,0,54657,62591,50350.78,57704.50,4306.22,4886.50,0.000000,0.000000,1.004777,84.88,1
12646,0,54662,62603,50359.41,57714.30,4302.59,4888.70,0.000000,0.000000,1.004798,84.88,1
12656,0,54657,62598,50368.00,57724.07,4289.00,4873.93,0.000000,0.000000,1.004819,84.88,1
12667,0,54657,62595,50376.58,57733.82,4280.42,4861.18,0.000000,0.000000,1.004843,84.88,1
12677,0,54651,62591,50385.13,57743.53,4265.87,4847.46,0.000000,0.000000,1.004863,84.88,1
12687,0,54659,62592,50393.67,57753.23,4265.32,4838.77,0.000000,0.000000,1.004893,84.88,1
12696,0,54660,62599,50402.21,57762.93,4257.79,4836.07,0.000000,0.000000,1.004916,84.88,1
12706,0,54656,62603,50410.72,57772.61,4245.28,4830.39,0.000000,0.000000,1.004928,84.88,1
12717,0,54655,62607,50419.21,57782.28,4235.79,4824.71,0.000000,0.000000,1.004935,84.88,1
12726,0,54657,62611,50427.68,57791.94,4229.32,4819.05,0.000000,0.000000,1.004939,84.88,1
12736,0,54661,62603,50436.15,57801.57,4224.85,4801.43,0.000000,0.000000,1.004958,84.88,1
12747,0,54670,62618,50444.62,57811.20,4225.38,4806.80,0.000000,0.000000,1.004971,84.88,1
12756,0,54664,62625,50453.06,57820.83,4210.94,4804.17,0.000000,0.000000,1.004968,84.88,1
12767,0,54660,62628,50461.47,57830.45,4198.53,4797.55,0.000000,0.000000,1.004955,84.88,1
12776,0,54666,62634,50469.88,57840.06,4196.12,4793.94,0.000000,0.000000,1.004944,84.88,1
12786,0,54675,62643,50478.30,57849.66,4196.70,4793.34,0.000000,0.000000,1.004934,84.88,1
12796,0,54675,62657,50486.69,57859.28,4188.31,4797.72,0.000000,0.000000,1.004907,84.88,1
12806,0,54684,62664,50495.08,57868.89,4188.91,4795.11,0.000000,0.000000,1.004884,84.88,1
12816,0,54673,62661,50503.44,57878.47,4169.55,4782.53,0.000000,0.000000,1.004849,84.88,1
12827,0,54685,62669,50511.81,57888.06,4173.19,4780.94,0.000000,0.000000,1.004822,84.88,1
12836,0,54687,62675,50520.16,57897.64,4166.84,4777.36,0.000000,0.000000,1.004790,84.88,1
12847,0,54690,62684,50528.50,57907.21,4161.50,4776.79,0.000000,0.000000,1.004751,84.88,1
12856,0,54691,62691,50536.83,57916.78,4154.17,4774.22,0.000000,0.000000,1.004706,84.88,1
12866,0,54687,62697,50545.13,57926.34,4141.87,4770.66,0.000000,0.000000,1.004647,84.88,1
12876,0,54695,62699,50553.43,57935.89,4141.57,4763.11,0.000000,0.000000,1.004597,84.89,1
12886,0,54699,62702,50561.73,57945.42,4137.27,4756.58,0.000000,0.000000,1.004550,84.89,1
12897,0,54701,62705,50570.01,57954.94,4130.99,4750.06,0.000000,0.000000,1.004502,84.89,1
12907,0,54701,62721,50578.27,57964.47,4122.73,4756.53,0.000000,0.000000,1.004434,84.89,1
12916,0,54700,62718,50586.51,57973.98,4113.49,4744.02,0.000000,0.000000,1.004369,84.89,1
12926,0,54693,62720,50594.73,57983.48,4098.27,4736.52,0.000000,0.000000,1.004292,84.89,1
12936,0,54706,62732,50602.95,57992.98,4103.05,4739.02,0.000000,0.000000,1.004218,84.89,1
12946,0,54707,62726,50611.16,58002.45,4095.84,4723.55,0.000000,0.000000,1.004155,84.90,1
12956,0,54707,62738,50619.35,58011.92,4087.65,4726.08,0.000000,0.000000,1.004076,84.90,1
12965,0,54708,62742,50627.53,58021.38,4080.47,4720.62,0.000000,0.000000,1.003994,84.90,1
12977,0,54710,62743,50635.69,58030.82,4074.30,4712.18,0.000000,0.000000,1.003914,84.90,1
12987,0,54721,62749,50643.87,58040.26,4077.13,4708.74,0.000000,0.000000,1.003843,84.90,1
12996,0,54720,62755,50652.02,58049.69,4067.98,4705.30,0.000000,0.000000,1.003763,84.91,1
13006,0,54714,62764,50660.15,58059.12,4053.85,4704.87,0.000000,0.000000,1.003663,84.91,1
13016,0,54715,62760,50668.26,58068.53,4046.74,4691.47,0.000000,0.000000,1.003570,84.91,1
13026,0,54716,62765,50676.35,58077.92,4039.64,4687.08,0.000000,0.000000,1.003473,84.91,1
13036,0,54727,62770,50684.46,58087.30,4042.54,4682.70,0.000000,0.000000,1.003386,84.92,1
13045,0,54722,62783,50692.53,58096.70,4029.46,4686.30,0.000000,0.000000,1.003275,84.92,1
13057,0,54720,62784,50700.59,58106.07,4019.41,4677.93,0.000000,0.000000,1.003161,84.92,1
13067,0,54722,62788,50708.64,58115.44,4013.36,4672.56,0.000000,0.000000,1.003045,84.92,1
13076,0,54725,62798,50716.67,58124.80,4008.32,4673.20,0.000000,0.000000,1.002921,84.93,1
13086,0,54726,62788,50724.69,58134.13,4001.30,4653.87,0.000000,0.000000,1.002812,84.93,1
13095,0,54715,62758,50732.67,58143.38,3982.32,4614.62,0.000000,0.000000,1.002728,84.93,1
13106,0,54695,62694,50740.60,58152.48,3954.40,4541.52,0.000000,0.000000,1.002699,84.93,1
13117,0,54676,62633,50748.47,58161.44,3927.53,4471.56,0.000000,0.000000,1.002722,84.93,1
13125,0,54656,62596,50756.29,58170.31,3899.71,4425.69,0.000000,0.000000,1.002762,84.93,1
13136,0,54640,62558,50764.06,58179.09,3875.94,4378.91,0.000000,0.000000,1.002827,84.93,1
13147,0,54635,62546,50771.80,58187.83,3863.20,4358.17,0.000000,0.000000,1.002900,84.93,1
13156,0,54626,62526,50779.51,58196.50,3846.49,4329.50,0.000000,0.000000,1.002985,84.93,1
13166,0,54613,62519,50787.18,58205.15,3825.82,4313.85,0.000000,0.000000,1.003059,84.92,1
13175,0,54621,62517,50794.85,58213.78,3826.15,4303.22,0.000000,0.000000,1.003147,84.92,1
13186,0,54632,62517,50802.52,58222.39,3829.48,4294.61,0.000000,0.000000,1.003251,84.92,1
13197,0,54624,62537,50810.16,58231.02,3813.84,4305.98,0.000000,0.000000,1.003316,84.92,1
13206,0,54623,62526,50817.79,58239.61,3805.21,4286.39,0.000000,0.000000,1.003394,84.92,1
13216,0,54620,62534,50825.40,58248.20,3794.60,4285.80,0.000000,0.000000,1.003457,84.91,1
13227,0,54631,62532,50833.01,58256.76,3797.99,4275.23,0.000000,0.000000,1.003538,84.91,1
13236,0,54636,62538,50840.62,58265.33,3795.38,4272.67,0.000000,0.000000,1.003619,84.91,1
13246,0,54632,62550,50848.21,58273.90,3783.79,4276.10,0.000000,0.000000,1.003677,84.91,1
13255,0,54633,62553,50855.78,58282.46,3777.22,4270.54,0.000000,0.000000,1.003733,84.91,1
13265,0,54628,62543,50863.32,58290.98,3764.68,4252.02,0.000000,0.000000,1.003794,84.91,1
13277,0,54638,62543,50870.87,58299.49,3767.12,4243.51,0.000000,0.000000,1.003870,84.90,1
13286,0,54641,62545,50878.41,58307.98,3762.59,4237.02,0.000000,0.000000,1.003947,84.90,1
13296,0,54637,62552,50885.93,58316.47,3751.07,4235.53,0.000000,0.000000,1.004009,84.90,1
13306,0,54635,62555,50893.43,58324.95,3741.57,4230.05,0.000000,0.000000,1.004063,84.90,1
13316,0,54632,62556,50900.91,58333.41,3731.09,4222.59,0.000000,0.000000,1.004111,84.90,1
13326,0,54645,62563,50908.40,58341.87,3736.60,4221.12,0.000000,0.000000,1.004169,84.90,1
13335,0,54642,62572,50915.87,58350.33,3726.13,4221.66,0.000000,0.000000,1.004210,84.89,1
13345,0,54640,62575,50923.32,58358.78,3716.68,4216.21,0.000000,0.000000,1.004244,84.89,1
13357,0,54646,62576,50930.77,58367.22,3715.23,4208.78,0.000000,0.000000,1.004285,84.89,1
13366,0,54645,62578,50938.20,58375.64,3706.80,4202.36,0.000000,0.000000,1.004322,84.89,1
13376,0,54649,62570,50945.62,58384.03,3703.38,4185.96,0.000000,0.000000,1.004376,84.89,1
13386,0,54645,62576,50953.02,58392.42,3691.98,4183.58,0.000000,0.000000,1.004415,84.89,1
13395,0,54651,62577,50960.41,58400.79,3690.59,4176.21,0.000000,0.000000,1.004462,84.89,1
13406,0,54638,62579,50967.77,58409.14,3670.23,4169.86,0.000000,0.000000,1.004486,84.89,1
13415,0,54639,62578,50975.12,58417.48,3663.88,4160.52,0.000000,0.000000,1.004512,84.89,1
13426,0,54642,62562,50982.45,58425.78,3659.55,4136.22,0.000000,0.000000,1.004565,84.89,1
13436,0,54646,62572,50989.78,58434.07,3656.22,4137.93,0.000000,0.000000,1.004610,84.88,1
13446,0,54639,62585,50997.08,58442.37,3641.92,4142.62,0.000000,0.000000,1.004626,84.88,1
13456,0,54639,62578,51004.37,58450.65,3634.63,4127.35,0.000000,0.000000,1.004652,84.88,1
13465,0,54633,62582,51011.62,58458.91,3621.37,4123.09,0.000000,0.000000,1.004662,84.88,1
13475,0,54647,62584,51018.89,58467.16,3628.11,4116.84,0.000000,0.000000,1.004692,84.88,1
13487,0,54648,62594,51026.16,58475.42,3621.84,4118.58,0.000000,0.000000,1.004709,84.88,1
13495,0,54645,62603,51033.39,58483.67,3611.61,4119.32,0.000000,0.000000,1.004708,84.88,1
13506,0,54645,62599,51040.62,58491.91,3604.38,4107.09,0.000000,0.000000,1.004714,84.88,1
13516,0,54642,62609,51047.82,58500.15,3594.18,4108.85,0.000000,0.000000,1.004700,84.88,1
13526,0,54649,62611,51055.03,58508.37,3593.97,4102.63,0.000000,0.000000,1.004694,84.88,1
13536,0,54654,62626,51062.23,58516.61,3591.77,4109.39,0.000000,0.000000,1.004676,84.88,1
13545,0,54653,62640,51069.41,58524.86,3583.59,4115.14,0.000000,0.000000,1.004636,84.88,1
13555,0,54654,62640,51076.58,58533.09,3577.42,4106.91,0.000000,0.000000,1.004598,84.89,1
13566,0,54651,62637,51083.73,58541.30,3567.27,4095.70,0.000000,0.000000,1.004559,84.89,1
13576,0,54661,62642,51090.88,58549.50,3570.12,4092.50,0.000000,0.000000,1.004530,84.89,1
13586,0,54666,62642,51098.03,58557.69,3567.97,4084.31,0.000000,0.000000,1.004509,84.89,1
13596,0,54667,62655,51105.17,58565.89,3561.83,4089.11,0.000000,0.000000,1.004471,84.89,1
13605,0,54668,62662,51112.30,58574.08,3555.70,4087.92,0.000000,0.000000,1.004425,84.89,1
13616,0,54660,62652,51119.39,58582.24,3540.61,4069.76,0.000000,0.000000,1.004381,84.89,1
13625,0,54671,62668,51126.50,58590.41,3544.50,4077.59,0.000000,0.000000,1.004331,84.89,1
13635,0,54671,62671,51133.59,58598.57,3537.41,4072.43,0.000000,0.000000,1.004277,84.89,1
13646,0,54674,62681,51140.67,58606.74,3533.32,4074.26,0.000000,0.000000,1.004214,84.89,1
13656,0,54669,62690,51147.73,58614.91,3521.27,4075.09,0.000000,0.000000,1.004130,84.90,1
13666,0,54670,62684,51154.78,58623.05,3515.22,4060.95,0.000000,0.000000,1.004057,84.90,1
13676,0,54683,62681,51161.84,58631.17,3521.16,4049.83,0.000000,0.000000,1.004010,84.90,1
13685,0,54681,62698,51168.88,58639.30,3512.12,4058.70,0.000000,0.000000,1.003935,84.90,1
13696,0,54679,62709,51175.90,58647.44,3503.10,4061.56,0.000000,0.000000,1.003841,84.90,1
13705,0,54678,62707,51182.91,58655.56,3495.09,4051.44,0.000000,0.000000,1.003748,84.91,1
13715,0,54682,62700,51189.91,58663.65,3492.09,4036.35,0.000000,0.000000,1.003674,84.91,1
13726,0,54683,62718,51196.89,58671.76,3486.11,4046.23,0.000000,0.000000,1.003574,84.91,1
13735,0,54690,62722,51203.88,58679.87,3486.12,4042.13,0.000000,0.000000,1.003481,84.91,1
13746,0,54686,62725,51210.85,58687.96,3475.15,4037.04,0.000000,0.000000,1.003377,84.92,1
13756,0,54682,62740,51217.79,58696.06,3464.21,4043.94,0.000000,0.000000,1.003244,84.92,1
13765,0,54688,62736,51224.73,58704.14,3463.27,4031.86,0.000000,0.000000,1.003129,84.92,1
13775,0,54699,62740,51231.68,58712.22,3467.32,4027.78,0.000000,0.000000,1.003026,84.92,1
13785,0,54697,62759,51238.61,58720.32,3458.39,4038.68,0.000000,0.000000,1.002892,84.93,1
13796,0,54699,62761,51245.53,58728.40,3453.46,4032.60,0.000000,0.000000,1.002759,84.93,1
13806,0,54698,62772,51252.44,58736.49,3445.56,4035.51,0.000000,0.000000,1.002608,84.93,1
13815,0,54706,62782,51259.35,58744.58,3446.65,4037.42,0.000000,0.000000,1.002457,84.94,1
13826,0,54716,62784,51266.26,58752.66,3449.73,4031.34,0.000000,0.000000,1.002321,84.94,1
13836,0,54723,62801,51273.18,58760.75,3449.82,4040.25,0.000000,0.000000,1.002171,84.95,1
13845,0,54724,62817,51280.08,58768.87,3443.92,4048.13,0.000000,0.000000,1.001999,84.95,1
