t_ms,trial_id,t_trial_ms,phase,red_raw,ir_raw,red_dc,ir_dc,red_ac,ir_ac,R,spo2,spo2_valid
227792,1,0,0,46208,47781,46008.09,47500.38,199.91,280.62,0.898818,87.50,1
227832,1,40,0,46214,47809,46008.51,47501.00,205.49,308.00,0.898617,87.50,1
227872,1,80,0,46221,47814,46008.93,47501.63,212.07,312.37,0.898413,87.50,1
227913,1,121,0,46222,47810,46009.36,47502.25,212.64,307.75,0.898206,87.50,1
227953,1,161,0,46219,47811,46009.78,47502.86,209.22,308.14,0.897997,87.50,1
227993,1,201,0,46226,47844,46010.21,47503.55,215.79,340.45,0.897783,87.50,1
228033,1,241,0,46241,47867,46010.68,47504.27,230.32,362.73,0.897564,87.50,1
228073,1,281,0,46254,47890,46011.16,47505.05,242.84,384.95,0.897340,87.51,1
228113,1,321,0,46262,47920,46011.67,47505.88,250.33,414.12,0.897107,87.51,1
228153,1,361,0,46277,47917,46012.20,47506.70,264.80,410.30,0.896869,87.51,1
228193,1,401,0,46279,47925,46012.73,47507.54,266.27,417.46,0.896625,87.51,1
228233,1,441,0,46279,47932,46013.27,47508.39,265.73,423.61,0.896374,87.52,1
228273,1,481,0,46279,47930,46013.80,47509.23,265.20,420.77,0.896116,87.52,1
228313,1,521,0,46278,47938,46014.33,47510.09,263.67,427.91,0.895852,87.52,1
228353,1,561,0,46275,47938,46014.86,47510.95,260.14,427.05,0.895580,87.52,1
228393,1,601,0,46282,47955,46015.39,47511.84,266.61,443.16,0.895301,87.53,1
228434,1,642,0,46284,47957,46015.93,47512.73,268.07,444.27,0.895014,87.53,1
228474,1,682,0,46269,47882,46016.44,47513.47,252.56,368.53,0.894725,87.53,1
228514,1,722,0,46213,47770,46016.83,47513.98,196.17,256.02,0.894437,87.54,1
228554,1,762,0,46168,47713,46017.14,47514.38,150.86,198.62,0.894149,87.54,1
228594,1,802,0,46166,47739,46017.44,47514.83,148.56,224.17,0.893861,87.54,1
228634,1,842,0,46188,47748,46017.78,47515.30,170.22,232.70,0.893573,87.55,1
228674,1,882,0,46192,47740,46018.13,47515.75,173.87,224.25,0.893286,87.55,1
228714,1,922,0,46195,47769,46018.49,47516.26,176.51,252.74,0.892999,87.55,1
228754,1,962,0,46201,47765,46018.86,47516.76,182.14,248.24,0.892712,87.56,1
228794,1,1002,0,46196,47747,46019.21,47517.22,176.79,229.78,0.892425,87.56,1
228834,1,1042,0,46186,47749,46019.55,47517.68,166.45,231.32,0.892139,87.56,1
228874,1,1082,0,46192,47754,46019.89,47518.16,172.11,235.84,0.891853,87.57,1
228915,1,1123,0,46199,47779,46020.25,47518.68,178.75,260.32,0.891566,87.57,1
228955,1,1163,0,46210,47804,46020.63,47519.25,189.37,284.75,0.891278,87.58,1
228995,1,1203,0,46223,47820,46021.04,47519.85,201.96,300.15,0.890988,87.58,1
229035,1,1243,0,46228,47839,46021.45,47520.49,206.55,318.51,0.890696,87.59,1
229075,1,1283,0,46236,47860,46021.88,47521.17,214.12,338.83,0.890400,87.59,1
229115,1,1323,0,46246,47875,46022.33,47521.88,223.67,353.12,0.890101,87.60,1
229155,1,1363,0,46256,47878,46022.80,47522.59,233.20,355.41,0.889799,87.60,1
229195,1,1403,0,46258,47886,46023.27,47523.32,234.73,362.68,0.889494,87.61,1
229235,1,1443,0,46260,47889,46023.75,47524.05,236.25,364.95,0.889186,87.61,1
229275,1,1483,0,46264,47904,46024.23,47524.82,239.77,379.18,0.888874,87.62,1
229315,1,1523,0,46264,47895,46024.71,47525.56,239.29,369.44,0.888559,87.62,1
229355,1,1563,0,46241,47803,46025.14,47526.11,215.86,276.89,0.888245,87.63,1
229396,1,1604,0,46179,47673,46025.45,47526.41,153.55,146.59,0.887934,87.63,1
229436,1,1644,0,46136,47637,46025.68,47526.63,110.32,110.37,0.887625,87.64,1
229476,1,1684,0,46142,47664,46025.91,47526.91,116.09,137.09,0.887318,87.64,1
229516,1,1724,0,46162,47691,46026.18,47527.24,135.82,163.76,0.887012,87.65,1
229556,1,1764,0,46177,47713,46026.49,47527.61,150.51,185.39,0.886707,87.65,1
229596,1,1804,0,46191,47726,46026.82,47528.01,164.18,197.99,0.886404,87.66,1
229636,1,1844,0,46203,47729,46027.18,47528.41,175.82,200.59,0.886104,87.66,1
229676,1,1884,0,46201,47718,46027.52,47528.79,173.48,189.21,0.885807,87.67,1
229716,1,1924,0,46199,47716,46027.87,47529.16,171.13,186.84,0.885512,87.68,1
229756,1,1964,0,46202,47722,46028.21,47529.55,173.79,192.45,0.885219,87.68,1
229796,1,2004,0,46211,47746,46028.58,47529.98,182.42,216.02,0.884929,87.69,1
229836,1,2044,0,46219,47764,46028.96,47530.45,190.04,233.55,0.884641,87.69,1
229877,1,2085,0,46232,47791,46029.37,47530.98,202.63,260.02,0.884354,87.70,1
229917,1,2125,0,46244,47809,46029.80,47531.54,214.20,277.46,0.884068,87.71,1
229957,1,2165,0,46242,47821,46030.23,47532.12,211.77,288.88,0.883782,87.71,1
229997,1,2205,0,46252,47833,46030.67,47532.72,221.33,300.28,0.883496,87.72,1
230037,1,2245,0,46259,47851,46031.13,47533.36,227.87,317.64,0.883209,87.72,1
230077,1,2285,0,46265,47867,46031.60,47534.02,233.40,332.98,0.882922,87.73,1
230117,1,2325,0,46273,47870,46032.08,47534.70,240.92,335.30,0.882634,87.74,1
230157,1,2365,0,46286,47886,46032.59,47535.40,253.41,350.60,0.882345,87.74,1
230197,1,2405,0,46289,47898,46033.11,47536.12,255.89,361.87,0.882054,87.75,1
230237,1,2445,0,46295,47868,46033.63,47536.79,261.37,331.21,0.881766,87.75,1
230277,1,2485,0,46254,47743,46034.07,47537.20,219.93,205.80,0.881484,87.76,1
230317,1,2525,0,46190,47644,46034.38,47537.42,155.62,106.58,0.881206,87.77,1
230358,1,2566,0,46165,47623,46034.64,47537.59,130.36,85.41,0.880931,87.77,1
230398,1,2606,0,46171,47651,46034.92,47537.82,136.08,113.18,0.880660,87.78,1
230438,1,2646,0,46185,47660,46035.22,47538.06,149.78,121.94,0.880392,87.79,1
230478,1,2686,0,46191,47649,46035.53,47538.29,155.47,110.71,0.880129,87.79,1
230518,1,2726,0,46199,47685,46035.86,47538.58,163.14,146.42,0.879869,87.80,1
230558,1,2766,0,46217,47681,46036.22,47538.86,180.78,142.14,0.879615,87.80,1
230598,1,2806,0,46214,47661,46036.58,47539.11,177.42,121.89,0.879367,87.81,1
230638,1,2846,0,46214,47659,46036.93,47539.35,177.07,119.65,0.879124,87.82,1
230678,1,2886,0,46213,47669,46037.29,47539.61,175.71,129.39,0.878886,87.82,1
230718,1,2926,0,46222,47681,46037.66,47539.90,184.34,141.10,0.878654,87.83,1
230758,1,2966,0,46231,47704,46038.04,47540.23,192.96,163.77,0.878428,87.84,1
230798,1,3006,0,46238,47716,46038.45,47540.58,199.55,175.42,0.878207,87.84,1
230839,1,3047,0,46243,47729,46038.86,47540.96,204.14,188.04,0.877991,87.85,1
230879,1,3087,0,46247,47733,46039.27,47541.34,207.73,191.66,0.877780,87.85,1
230919,1,3127,0,46247,47753,46039.69,47541.77,207.31,211.23,0.877574,87.86,1
230959,1,3167,0,46263,47768,46040.14,47542.22,222.86,225.78,0.877372,87.87,1
230999,1,3207,0,46267,47795,46040.59,47542.73,226.41,252.27,0.877174,87.87,1
231039,1,3247,0,46280,47810,46041.07,47543.27,238.93,266.73,0.876979,87.88,1
231079,1,3287,0,46290,47807,46041.57,47543.79,248.43,263.21,0.876789,87.89,1
231119,1,3327,0,46287,47811,46042.07,47544.33,244.93,266.67,0.876604,87.89,1
231159,1,3367,0,46289,47818,46042.56,47544.87,246.44,273.12,0.876422,87.90,1
231199,1,3407,0,46293,47806,46043.07,47545.40,249.93,260.60,0.876245,87.90,1
231239,1,3447,0,46268,47707,46043.52,47545.72,224.48,161.28,0.876077,87.91,1
231279,1,3487,0,46208,47596,46043.85,47545.82,164.15,50.18,0.875915,87.91,1
231320,1,3528,0,46179,47566,46044.12,47545.87,134.88,20.13,0.875757,87.92,1
231360,1,3568,0,46176,47594,46044.39,47545.96,131.61,48.04,0.875604,87.93,1
231400,1,3608,0,46197,47605,46044.69,47546.09,152.31,58.91,0.875456,87.93,1
231440,1,3648,0,46199,47593,46045.00,47546.18,154.00,46.82,0.875314,87.94,1
231480,1,3688,0,46195,47601,46045.30,47546.29,149.70,54.71,0.875177,87.94,1
231520,1,3728,0,46205,47600,46045.62,47546.40,159.38,53.60,0.875046,87.95,1
231560,1,3768,0,46207,47586,46045.95,47546.48,161.05,39.52,0.874922,87.95,1
231600,1,3808,0,46209,47584,46046.27,47546.56,162.73,37.44,0.874804,87.96,1
231640,1,3848,0,46205,47597,46046.59,47546.66,158.41,50.34,0.874692,87.96,1
231680,1,3888,0,46219,47625,46046.94,47546.82,172.06,78.18,0.874588,87.97,1
231720,1,3928,0,46231,47648,46047.31,47547.02,183.69,100.98,0.874490,87.97,1
231760,1,3968,0,46243,47675,46047.70,47547.28,195.30,127.72,0.874399,87.98,1
231801,1,4009,0,46255,47687,46048.12,47547.56,206.88,139.44,0.874316,87.98,1
231841,1,4049,0,46259,47708,46048.54,47547.88,210.46,160.12,0.874240,87.99,1
231881,1,4089,0,46266,47731,46048.98,47548.25,217.02,182.75,0.874171,87.99,1
231921,1,4129,0,46284,47748,46049.45,47548.65,234.55,199.35,0.874109,88.00,1
231961,1,4169,0,46290,47778,46049.93,47549.11,240.07,228.89,0.874052,88.00,1
232001,1,4209,0,46301,47799,46050.43,47549.61,250.57,249.39,0.874001,88.01,1
232041,1,4249,0,46312,47805,46050.96,47550.12,261.04,254.88,0.873956,88.01,1
232081,1,4289,0,46319,47831,46051.50,47550.68,267.50,280.32,0.873916,88.02,1
232121,1,4329,0,46333,47846,46052.06,47551.28,280.94,294.72,0.873880,88.02,1
232161,1,4369,0,46343,47848,46052.64,47551.87,290.36,296.13,0.873850,88.02,1
232201,1,4409,0,46323,47766,46053.18,47552.30,269.82,213.70,0.873831,88.03,1
232241,1,4449,0,46258,47637,46053.59,47552.47,204.41,84.53,0.873821,88.03,1
232282,1,4490,0,46214,47604,46053.91,47552.58,160.09,51.42,0.873817,88.04,1
232322,1,4530,0,46222,47631,46054.25,47552.73,167.75,78.27,0.873819,88.04,1
232362,1,4570,0,46234,47650,46054.61,47552.93,179.39,97.07,0.873828,88.04,1
232402,1,4610,0,46249,47670,46055.00,47553.16,194.00,116.84,0.873844,88.05,1
232442,1,4650,0,46260,47699,46055.41,47553.46,204.59,145.54,0.873866,88.05,1
232482,1,4690,0,46278,47705,46055.86,47553.76,222.14,151.24,0.873898,88.05,1
232522,1,4730,0,46279,47701,46056.30,47554.06,222.70,146.94,0.873938,88.06,1
232562,1,4770,0,46281,47704,46056.75,47554.36,224.25,149.64,0.873986,88.06,1
232602,1,4810,0,46281,47707,46057.20,47554.66,223.80,152.34,0.874044,88.06,1
232642,1,4850,0,46293,47734,46057.68,47555.02,235.32,178.98,0.874109,88.06,1
232682,1,4890,0,46299,47753,46058.16,47555.42,240.84,197.58,0.874182,88.07,1
232722,1,4930,0,46304,47761,46058.65,47555.84,245.35,205.16,0.874262,88.07,1
232763,1,4971,0,46309,47776,46059.15,47556.28,249.85,219.72,0.874349,88.07,1
232803,1,5011,0,46311,47781,46059.66,47556.73,251.34,224.27,0.874442,88.07,1
232843,1,5051,0,46307,47778,46060.15,47557.17,246.85,220.83,0.874540,88.07,1
232883,1,5091,0,46315,47798,46060.66,47557.66,254.34,240.34,0.874644,88.08,1
232923,1,5131,0,46315,47796,46061.18,47558.13,253.82,237.87,0.874753,88.08,1
232963,1,5171,0,46319,47804,46061.69,47558.62,257.31,245.37,0.874867,88.08,1
233003,1,5211,0,46328,47817,46062.23,47559.14,265.77,257.86,0.874986,88.08,1
233043,1,5251,0,46329,47816,46062.76,47559.66,266.24,256.34,0.875109,88.08,1
233083,1,5291,0,46320,47781,46063.28,47560.11,256.72,220.89,0.875239,88.08,1
233123,1,5331,0,46285,47674,46063.72,47560.34,221.28,113.66,0.875379,88.08,1
233163,1,5371,0,46228,47598,46064.05,47560.41,163.95,37.59,0.875526,88.08,1
233203,1,5411,0,46215,47615,46064.36,47560.52,150.64,54.48,0.875677,88.09,1
233244,1,5452,0,46233,47639,46064.70,47560.68,168.30,78.32,0.875834,88.09,1
233284,1,5492,0,46241,47659,46065.05,47560.88,175.95,98.12,0.875998,88.09,1
233324,1,5532,0,46253,47676,46065.43,47561.11,187.57,114.89,0.876167,88.09,1
233364,1,5572,0,46260,47678,46065.82,47561.34,194.18,116.66,0.876343,88.09,1
233404,1,5612,0,46248,47659,46066.19,47561.54,181.81,97.46,0.876526,88.09,1
233444,1,5652,0,46249,47659,46066.55,47561.73,182.45,97.27,0.876715,88.09,1
233484,1,5692,0,46253,47653,46066.93,47561.92,186.07,91.08,0.876912,88.09,1
233524,1,5732,0,46257,47673,46067.31,47562.14,189.69,110.86,0.877115,88.09,1
233564,1,5772,0,46262,47682,46067.70,47562.38,194.30,119.62,0.877324,88.09,1
233604,1,5812,0,46267,47695,46068.10,47562.65,198.90,132.35,0.877541,88.08,1
233644,1,5852,0,46273,47717,46068.51,47562.96,204.49,154.04,0.877763,88.08,1
233684,1,5892,0,46274,47715,46068.93,47563.26,205.07,151.74,0.877990,88.08,1
233725,1,5933,0,46275,47724,46069.34,47563.59,205.66,160.41,0.878223,88.08,1
233765,1,5973,0,46280,47744,46069.76,47563.95,210.24,180.05,0.878460,88.08,1
233805,1,6013,0,46281,47753,46070.18,47564.33,210.82,188.67,0.878700,88.08,1
233845,1,6053,0,46297,47790,46070.64,47564.78,226.36,225.22,0.878941,88.08,1
233885,1,6093,0,46304,47777,46071.11,47565.21,232.89,211.79,0.879187,88.08,1
233925,1,6133,0,46281,47696,46071.53,47565.47,209.47,130.53,0.879440,88.07,1
233965,1,6173,0,46240,47633,46071.87,47565.61,168.13,67.39,0.879699,88.07,1
234005,1,6213,0,46231,47641,46072.19,47565.76,158.81,75.24,0.879964,88.07,1
234045,1,6253,0,46241,47665,46072.53,47565.96,168.47,99.04,0.880234,88.07,1
234085,1,6293,0,46259,47699,46072.90,47566.22,186.10,132.78,0.880508,88.07,1
234125,1,6333,0,46268,47721,46073.29,47566.54,194.71,154.46,0.880787,88.06,1
234166,1,6374,0,46278,47736,46073.70,47566.87,204.30,169.12,0.881070,88.06,1
234206,1,6414,0,46281,47728,46074.12,47567.20,206.88,160.80,0.881358,88.06,1
234246,1,6454,0,46269,47719,46074.51,47567.50,194.49,151.50,0.881650,88.05,1
234286,1,6494,0,46270,47716,46074.90,47567.80,195.10,148.20,0.881947,88.05,1
234326,1,6534,0,46275,47746,46075.30,47568.16,199.70,177.84,0.882247,88.05,1
234366,1,6574,0,46286,47775,46075.72,47568.57,210.28,206.43,0.882547,88.04,1
234406,1,6614,0,46309,47799,46076.19,47569.04,232.81,229.96,0.882849,88.04,1
234446,1,6654,0,46323,47821,46076.69,47569.54,246.31,251.46,0.883150,88.04,1
234486,1,6694,0,46328,47833,46077.19,47570.07,250.81,262.93,0.883451,88.03,1
234526,1,6734,0,46332,47841,46077.70,47570.61,254.30,270.39,0.883750,88.03,1
234566,1,6774,0,46334,47856,46078.22,47571.18,255.78,284.82,0.884046,88.03,1
234606,1,6814,0,46340,47876,46078.74,47571.79,261.26,304.21,0.884336,88.02,1
234647,1,6855,0,46340,47838,46079.27,47572.32,260.73,265.68,0.884627,88.02,1
234687,1,6895,0,46297,47738,46079.70,47572.66,217.30,165.34,0.884924,88.01,1
234727,1,6935,0,46244,47664,46080.03,47572.84,163.97,91.16,0.885225,88.01,1
234767,1,6975,0,46235,47669,46080.34,47573.04,154.66,95.96,0.885531,88.00,1
234807,1,7015,0,46249,47703,46080.68,47573.30,168.32,129.70,0.885839,88.00,1
234847,1,7055,0,46266,47711,46081.05,47573.57,184.95,137.43,0.886152,88.00,1
234887,1,7095,0,46272,47717,46081.44,47573.86,190.56,143.14,0.886469,87.99,1
234927,1,7135,0,46289,47743,46081.86,47574.20,207.14,168.80,0.886790,87.99,1
234967,1,7175,0,46292,47732,46082.28,47574.52,209.72,157.48,0.887117,87.98,1
235007,1,7215,0,46287,47724,46082.69,47574.82,204.31,149.18,0.887450,87.98,1
235047,1,7255,0,46283,47724,46083.09,47575.12,199.91,148.88,0.887787,87.97,1
235087,1,7295,0,46284,47735,46083.49,47575.44,200.51,159.56,0.888128,87.97,1
235128,1,7336,0,46291,47761,46083.91,47575.81,207.09,185.19,0.888472,87.96,1
235168,1,7376,0,46302,47781,46084.35,47576.22,217.65,204.78,0.888817,87.96,1
235208,1,7416,0,46309,47791,46084.80,47576.65,224.20,214.35,0.889164,87.95,1
235248,1,7456,0,46311,47798,46085.25,47577.10,225.75,220.90,0.889510,87.94,1
235288,1,7496,0,46319,47820,46085.72,47577.59,233.28,242.41,0.889856,87.94,1
235328,1,7536,0,46327,47832,46086.20,47578.10,240.80,253.90,0.890199,87.93,1
235368,1,7576,0,46331,47828,46086.70,47578.60,244.30,249.40,0.890542,87.93,1
235408,1,7616,0,46317,47738,46087.16,47578.92,229.84,159.08,0.890892,87.92,1
235448,1,7656,0,46256,47632,46087.50,47579.02,168.50,52.98,0.891250,87.91,1
235488,1,7696,0,46223,47600,46087.77,47579.07,135.23,20.93,0.891612,87.91,1
235528,1,7736,0,46221,47624,46088.04,47579.16,132.96,44.84,0.891978,87.90,1
235568,1,7776,0,46234,47634,46088.33,47579.27,145.67,54.73,0.892349,87.90,1
235609,1,7817,0,46238,47640,46088.63,47579.39,149.37,60.61,0.892725,87.89,1
235649,1,7857,0,46244,47675,46088.95,47579.58,155.05,95.42,0.893105,87.88,1
235689,1,7897,0,46255,47677,46089.28,47579.77,165.72,97.23,0.893489,87.88,1
235729,1,7937,0,46253,47672,46089.61,47579.96,163.39,92.04,0.893879,87.87,1
235769,1,7977,0,46252,47686,46089.93,47580.18,162.07,105.82,0.894272,87.86,1
235809,1,8017,0,46263,47696,46090.28,47580.41,172.72,115.59,0.894670,87.86,1
235849,1,8057,0,46275,47719,46090.65,47580.69,184.35,138.31,0.895072,87.85,1
235889,1,8097,0,46287,47741,46091.04,47581.01,195.96,159.99,0.895476,87.84,1
235929,1,8137,0,46290,47745,46091.44,47581.34,198.56,163.66,0.895884,87.83,1
235969,1,8177,0,46293,47752,46091.85,47581.68,201.15,170.32,0.896295,87.83,1
236009,1,8217,0,46292,47752,46092.25,47582.02,199.75,169.98,0.896708,87.82,1
236049,1,8257,0,46292,47755,46092.65,47582.37,199.35,172.63,0.897123,87.81,1
236090,1,8298,0,46295,47774,46093.06,47582.75,201.94,191.25,0.897539,87.81,1
236130,1,8338,0,46297,47780,46093.47,47583.15,203.53,196.85,0.897954,87.80,1
236170,1,8378,0,46283,47703,46093.85,47583.39,189.15,119.61,0.898374,87.79,1
236210,1,8418,0,46232,47613,46094.12,47583.45,137.87,29.55,0.898800,87.78,1
236250,1,8458,0,46205,47585,46094.35,47583.45,110.65,1.55,0.899229,87.77,1
236290,1,8498,0,46213,47610,46094.59,47583.51,118.41,26.49,0.899662,87.77,1
236330,1,8538,0,46224,47636,46094.85,47583.61,129.15,52.39,0.900098,87.76,1
236370,1,8578,0,46242,47652,46095.14,47583.75,146.86,68.25,0.900538,87.75,1
236410,1,8618,0,46248,47674,46095.45,47583.93,152.55,90.07,0.900983,87.74,1
236450,1,8658,0,46258,47677,46095.78,47584.12,162.22,92.88,0.901433,87.73,1
236490,1,8698,0,46252,47664,46096.09,47584.28,155.91,79.72,0.901887,87.73,1
236530,1,8738,0,46252,47664,46096.41,47584.44,155.59,79.56,0.902347,87.72,1
236571,1,8779,0,46253,47679,46096.72,47584.63,156.28,94.37,0.902811,87.71,1
236611,1,8819,0,46261,47709,46097.05,47584.88,163.95,124.12,0.903278,87.70,1
236651,1,8859,0,46272,47728,46097.40,47585.17,174.60,142.83,0.903746,87.69,1
236691,1,8899,0,46285,47750,46097.77,47585.50,187.23,164.50,0.904216,87.68,1
236731,1,8939,0,46294,47760,46098.17,47585.86,195.83,174.14,0.904686,87.67,1
236771,1,8979,0,46303,47767,46098.58,47586.22,204.42,180.78,0.905158,87.66,1
236811,1,9019,0,46299,47766,46098.98,47586.58,200.02,179.42,0.905630,87.65,1
236851,1,9059,0,46305,47778,46099.39,47586.96,205.61,191.04,0.906103,87.65,1
236891,1,9099,0,46310,47779,46099.82,47587.35,210.18,191.65,0.906576,87.64,1
236931,1,9139,0,46307,47766,46100.23,47587.71,206.77,178.29,0.907051,87.63,1
236971,1,9179,0,46273,47668,46100.58,47587.87,172.42,80.13,0.907533,87.62,1
237012,1,9220,0,46216,47558,46100.81,47587.81,115.19,-29.81,0.908018,87.61,1
237052,1,9260,0,46184,47545,46100.98,47587.72,83.02,-42.72,0.908504,87.60,1
237092,1,9300,0,46187,47571,46101.15,47587.69,85.85,-16.69,0.908991,87.59,1
237132,1,9340,0,46206,47590,46101.36,47587.70,104.64,2.30,0.909481,87.58,1
237172,1,9380,0,46206,47612,46101.57,47587.75,104.43,24.25,0.909974,87.57,1
237212,1,9420,0,46233,47638,46101.84,47587.85,131.16,50.15,0.910470,87.56,1
237252,1,9460,0,46241,47633,46102.12,47587.94,138.88,45.06,0.910972,87.55,1
237292,1,9500,0,46240,47633,46102.39,47588.03,137.61,44.97,0.911480,87.54,1
237332,1,9540,0,46246,47636,46102.68,47588.12,143.32,47.88,0.911993,87.53,1
237372,1,9580,0,46244,47658,46102.97,47588.27,141.03,69.73,0.912510,87.52,1
237412,1,9620,0,46257,47678,46103.28,47588.45,153.72,89.55,0.913032,87.51,1
237452,1,9660,0,46264,47699,46103.60,47588.67,160.40,110.33,0.913557,87.50,1
237493,1,9701,0,46273,47712,46103.94,47588.91,169.06,123.09,0.914086,87.49,1
237533,1,9741,0,46273,47723,46104.28,47589.18,168.72,133.82,0.914617,87.48,1
237573,1,9781,0,46275,47731,46104.62,47589.47,170.37,141.53,0.915149,87.47,1
237613,1,9821,0,46280,47736,46104.98,47589.76,175.02,146.24,0.915682,87.46,1
237653,1,9861,0,46280,47757,46105.33,47590.10,174.67,166.90,0.916213,87.44,1
237693,1,9901,0,46291,47749,46105.70,47590.42,185.30,158.58,0.916745,87.43,1
237733,1,9941,0,46272,47659,46106.03,47590.55,165.97,68.45,0.917285,87.42,1
237773,1,9981,0,46215,47549,46106.25,47590.47,108.75,-41.47,0.917828,87.41,1
237813,1,10021,0,46174,47513,46106.39,47590.32,67.61,-77.32,0.918368,87.40,1
237853,1,10061,0,46182,47526,46106.54,47590.19,75.46,-64.19,0.918906,87.39,1
237893,1,10101,0,46187,47522,46106.70,47590.05,80.30,-68.05,0.919444,87.38,1
237933,1,10141,0,46184,47530,46106.86,47589.94,77.14,-59.94,0.919981,87.37,1
237974,1,10182,0,46191,47545,46107.03,47589.85,83.97,-44.85,0.920518,87.36,1
238014,1,10222,0,46191,47548,46107.20,47589.77,83.80,-41.77,0.921056,87.34,1
238054,1,10262,0,46191,47539,46107.36,47589.66,83.64,-50.66,0.921594,87.33,1
238094,1,10302,0,46188,47538,46107.53,47589.56,80.47,-51.56,0.922132,87.32,1
238134,1,10342,0,46185,47545,46107.68,47589.47,77.32,-44.47,0.922671,87.31,1
238174,1,10382,0,46197,47565,46107.86,47589.43,89.14,-24.43,0.923211,87.30,1
238214,1,10422,0,46215,47577,46108.08,47589.40,106.92,-12.40,0.923754,87.29,1
238254,1,10462,0,46216,47577,46108.30,47589.38,107.70,-12.38,0.924302,87.27,1
238294,1,10502,0,46215,47582,46108.51,47589.37,106.49,-7.37,0.924853,87.26,1
238334,1,10542,0,46213,47575,46108.72,47589.34,104.28,-14.34,0.925408,87.25,1
238374,1,10582,0,46204,47570,46108.91,47589.30,95.09,-19.30,0.925965,87.24,1
238414,1,10622,0,46199,47570,46109.09,47589.26,89.91,-19.26,0.926524,87.23,1
238455,1,10663,0,46204,47559,46109.29,47589.20,94.71,-30.20,0.927085,87.21,1
238495,1,10703,0,46175,47477,46109.42,47588.98,65.58,-111.98,0.927640,87.20,1
238535,1,10743,0,46115,47362,46109.43,47588.53,5.57,-226.53,0.928163,87.19,1
238575,1,10783,0,46082,47328,46109.37,47588.01,-27.37,-260.01,0.928647,87.18,1
238615,1,10823,0,46080,47337,46109.32,47587.51,-29.32,-250.51,0.929095,87.17,1
238655,1,10863,0,46096,47350,46109.29,47587.04,-13.29,-237.04,0.929512,87.15,1
238695,1,10903,0,46095,47342,46109.26,47586.55,-14.26,-244.55,0.929896,87.14,1
238735,1,10943,0,46103,47374,46109.25,47586.12,-6.25,-212.12,0.930255,87.13,1
238775,1,10983,0,46113,47371,46109.26,47585.69,3.74,-214.69,0.930590,87.12,1
238815,1,11023,0,46115,47374,46109.27,47585.27,5.73,-211.27,0.930900,87.11,1
238855,1,11063,0,46104,47367,46109.26,47584.84,-5.26,-217.84,0.931186,87.09,1
238895,1,11103,0,46110,47387,46109.27,47584.44,0.73,-197.44,0.931452,87.08,1
238936,1,11144,0,46123,47418,46109.29,47584.11,13.71,-166.11,0.931703,87.07,1
238976,1,11184,0,46138,47453,46109.35,47583.85,28.65,-130.85,0.931945,87.06,1
239016,1,11224,0,46149,47476,46109.43,47583.63,39.57,-107.63,0.932182,87.05,1
239056,1,11264,0,46159,47506,46109.54,47583.48,49.46,-77.48,0.932416,87.04,1
239096,1,11304,0,46165,47527,46109.65,47583.37,55.35,-56.37,0.932650,87.03,1
239136,1,11344,0,46183,47551,46109.80,47583.30,73.20,-32.30,0.932885,87.02,1
239176,1,11384,0,46198,47567,46109.97,47583.27,88.03,-16.27,0.933124,87.01,1
239216,1,11424,0,46197,47542,46110.15,47583.19,86.85,-41.19,0.933365,87.00,1
239256,1,11464,0,46161,47435,46110.25,47582.89,50.75,-147.89,0.933595,86.99,1
239296,1,11504,0,46112,47364,46110.25,47582.46,1.75,-218.46,0.933800,86.98,1
239336,1,11544,0,46094,47376,46110.22,47582.05,-16.22,-206.05,0.933982,86.97,1
239376,1,11584,0,46110,47403,46110.22,47581.69,-0.22,-178.69,0.934148,86.96,1
239417,1,11625,0,46128,47426,46110.26,47581.38,17.74,-155.38,0.934302,86.95,1
239457,1,11665,0,46137,47456,46110.31,47581.13,26.69,-125.13,0.934447,86.94,1
239497,1,11705,0,46159,47490,46110.41,47580.95,48.59,-90.95,0.934589,86.93,1
239537,1,11745,0,46172,47512,46110.54,47580.82,61.46,-68.82,0.934731,86.92,1
239577,1,11785,0,46174,47516,46110.66,47580.69,63.34,-64.69,0.934872,86.91,1
239617,1,11825,0,46188,47531,46110.82,47580.59,77.18,-49.59,0.935014,86.90,1
239657,1,11865,0,46203,47561,46111.01,47580.55,91.99,-19.55,0.935162,86.89,1
239697,1,11905,0,46215,47594,46111.22,47580.58,103.78,13.42,0.935314,86.89,1
239737,1,11945,0,46230,47624,46111.46,47580.67,118.54,43.33,0.935474,86.88,1
239777,1,11985,0,46243,47651,46111.72,47580.81,131.28,70.19,0.935640,86.87,1
239817,1,12025,0,46249,47665,46112.00,47580.98,137.00,84.02,0.935814,86.86,1
239858,1,12066,0,46256,47677,46112.29,47581.17,143.71,95.83,0.935994,86.85,1
239898,1,12106,0,46262,47694,46112.59,47581.39,149.41,112.61,0.936179,86.85,1
239938,1,12146,0,46267,47715,46112.90,47581.66,154.10,133.34,0.936369,86.84,1
239978,1,12186,0,46280,47741,46113.23,47581.98,166.77,159.02,0.936560,86.83,1
240018,1,12226,0,46281,47717,46113.57,47582.25,167.43,134.75,0.936757,86.82,1
240058,1,12266,0,46243,47600,46113.83,47582.29,129.17,17.71,0.936964,86.82,1
240098,1,12306,0,46191,47506,46113.99,47582.14,77.01,-76.14,0.937170,86.81,1
240138,1,12346,0,46175,47511,46114.11,47582.00,60.89,-71.00,0.937375,86.80,1
240178,1,12386,0,46187,47521,46114.26,47581.87,72.74,-60.88,0.937580,86.79,1
240218,1,12426,0,46198,47524,46114.43,47581.76,83.57,-57.76,0.937787,86.79,1
240258,1,12466,0,46206,47544,46114.61,47581.69,91.39,-37.69,0.937998,86.78,1
240298,1,12506,0,46220,47566,46114.82,47581.66,105.18,-15.66,0.938215,86.77,1
240339,1,12547,0,46226,47570,46115.05,47581.63,110.95,-11.63,0.938439,86.77,1
240379,1,12587,0,46225,47571,46115.27,47581.61,109.73,-10.61,0.938670,86.76,1
240419,1,12627,0,46228,47591,46115.50,47581.63,112.50,9.37,0.938908,86.75,1
240459,1,12667,0,46237,47615,46115.74,47581.70,121.26,33.30,0.939155,86.75,1
240499,1,12707,0,46252,47649,46116.02,47581.84,135.98,67.16,0.939410,86.74,1
240539,1,12747,0,46270,47678,46116.32,47582.03,153.68,95.97,0.939674,86.73,1
240579,1,12787,0,46285,47698,46116.66,47582.27,168.34,115.73,0.939947,86.72,1
240619,1,12827,0,46298,47714,46117.03,47582.53,180.97,131.47,0.940229,86.72,1
240659,1,12867,0,46303,47722,46117.40,47582.81,185.60,139.19,0.940520,86.71,1
240699,1,12907,0,46304,47723,46117.78,47583.09,186.22,139.91,0.940820,86.70,1
240739,1,12947,0,46306,47731,46118.16,47583.39,187.84,147.61,0.941128,86.70,1
240779,1,12987,0,46307,47736,46118.54,47583.70,188.46,152.30,0.941443,86.69,1
240820,1,13028,0,46310,47746,46118.92,47584.02,191.08,161.98,0.941762,86.68,1
240860,1,13068,0,46309,47757,46119.30,47584.37,189.70,172.63,0.942085,86.68,1
240900,1,13108,0,46312,47766,46119.69,47584.73,192.31,181.27,0.942408,86.67,1
240940,1,13148,0,46312,47713,46120.07,47584.99,191.93,128.01,0.942743,86.66,1
240980,1,13188,0,46259,47580,46120.35,47584.98,138.65,-4.98,0.943089,86.65,1
241020,1,13228,0,46199,47494,46120.51,47584.80,78.49,-90.80,0.943433,86.65,1
241060,1,13268,0,46192,47490,46120.66,47584.61,71.34,-94.61,0.943773,86.64,1
241100,1,13308,0,46200,47501,46120.82,47584.45,79.18,-83.45,0.944111,86.63,1
241140,1,13348,0,46205,47506,46120.98,47584.29,84.02,-78.29,0.944448,86.63,1
241180,1,13388,0,46215,47510,46121.17,47584.14,93.83,-74.14,0.944787,86.62,1
241220,1,13428,0,46221,47527,46121.37,47584.03,99.63,-57.03,0.945129,86.61,1
241260,1,13468,0,46220,47524,46121.57,47583.91,98.43,-59.91,0.945473,86.60,1
241301,1,13509,0,46222,47516,46121.77,47583.78,100.23,-67.78,0.945821,86.60,1
241341,1,13549,0,46219,47523,46121.97,47583.66,97.03,-60.66,0.946171,86.59,1
241381,1,13589,0,46220,47544,46122.16,47583.58,97.84,-39.58,0.946525,86.58,1
241421,1,13629,0,46237,47570,46122.39,47583.55,114.61,-13.55,0.946888,86.57,1
241461,1,13669,0,46247,47595,46122.64,47583.58,124.36,11.42,0.947260,86.57,1
241501,1,13709,0,46261,47608,46122.92,47583.63,138.08,24.37,0.947644,86.56,1
241541,1,13749,0,46266,47611,46123.21,47583.68,142.79,27.32,0.948041,86.55,1
241581,1,13789,0,46270,47622,46123.50,47583.76,146.50,38.24,0.948451,86.54,1
241621,1,13829,0,46271,47617,46123.80,47583.83,147.20,33.17,0.948874,86.53,1
241661,1,13869,0,46274,47621,46124.10,47583.90,149.90,37.10,0.949312,86.53,1
241701,1,13909,0,46266,47616,46124.39,47583.97,141.61,32.03,0.949761,86.52,1
241741,1,13949,0,46266,47623,46124.67,47584.05,141.33,38.95,0.950223,86.51,1
241782,1,13990,0,46263,47621,46124.95,47584.12,138.05,36.88,0.950696,86.50,1
241822,1,14030,0,46267,47637,46125.23,47584.23,141.77,52.77,0.951181,86.49,1
241862,1,14070,0,46267,47629,46125.52,47584.32,141.48,44.68,0.951677,86.48,1
241902,1,14110,0,46243,47526,46125.75,47584.20,117.25,-58.20,0.952178,86.48,1
241942,1,14150,0,46177,47414,46125.86,47583.86,51.14,-169.86,0.952655,86.47,1
241982,1,14190,0,46145,47372,46125.90,47583.44,19.10,-211.44,0.953092,86.46,1
242022,1,14230,0,46153,47397,46125.95,47583.07,27.05,-186.07,0.953500,86.45,1
242062,1,14270,0,46175,47420,46126.05,47582.74,48.95,-162.74,0.953885,86.44,1
242102,1,14310,0,46178,47430,46126.16,47582.44,51.84,-152.44,0.954253,86.43,1
242142,1,14350,0,46191,47453,46126.29,47582.18,64.71,-129.18,0.954608,86.42,1
242182,1,14390,0,46193,47457,46126.42,47581.93,66.58,-124.93,0.954954,86.41,1
242222,1,14430,0,46196,47453,46126.56,47581.67,69.44,-128.67,0.955288,86.41,1
242263,1,14471,0,46194,47453,46126.70,47581.41,67.30,-128.41,0.955611,86.40,1
242303,1,14511,0,46196,47477,46126.84,47581.21,69.16,-104.21,0.955928,86.39,1
242343,1,14551,0,46210,47503,46127.01,47581.05,82.99,-78.05,0.956244,86.38,1
242383,1,14591,0,46223,47530,46127.20,47580.95,95.80,-50.95,0.956565,86.37,1
242423,1,14631,0,46238,47561,46127.42,47580.91,110.58,-19.91,0.956894,86.36,1
242463,1,14671,0,46250,47578,46127.67,47580.91,122.33,-2.91,0.957233,86.35,1
242503,1,14711,0,46262,47591,46127.94,47580.93,134.06,10.07,0.957586,86.34,1
242543,1,14751,0,46266,47605,46128.21,47580.98,137.79,24.02,0.957953,86.33,1
242583,1,14791,0,46269,47611,46128.50,47581.04,140.50,29.96,0.958333,86.33,1
242623,1,14831,0,46272,47626,46128.79,47581.13,143.21,44.87,0.958727,86.32,1
242663,1,14871,0,46274,47637,46129.08,47581.24,144.92,55.76,0.959134,86.31,1
242703,1,14911,0,46277,47651,46129.37,47581.38,147.62,69.62,0.959554,86.30,1
242744,1,14952,0,46284,47666,46129.68,47581.55,154.32,84.45,0.959985,86.29,1
242784,1,14992,0,46279,47629,46129.98,47581.65,149.02,47.35,0.960430,86.28,1
242824,1,15032,0,46237,47515,46130.20,47581.52,106.80,-66.52,0.960880,86.27,1
242864,1,15072,0,46190,47441,46130.32,47581.24,59.68,-140.24,0.961312,86.26,1
242904,1,15112,0,46173,47450,46130.41,47580.98,42.59,-130.98,0.961728,86.25,1
242944,1,15152,0,46201,47482,46130.55,47580.78,70.45,-98.78,0.962138,86.24,1
242984,1,15192,0,46218,47488,46130.72,47580.60,87.28,-92.60,0.962545,86.24,1
243024,1,15232,0,46220,47513,46130.90,47580.46,89.10,-67.46,0.962953,86.23,1
243064,1,15272,0,46234,47531,46131.11,47580.37,102.89,-49.37,0.963366,86.22,1
243104,1,15312,0,46245,47533,46131.34,47580.27,113.66,-47.27,0.963787,86.21,1
243144,1,15352,0,46246,47541,46131.57,47580.20,114.43,-39.20,0.964216,86.20,1
243184,1,15392,0,46247,47546,46131.80,47580.13,115.20,-34.13,0.964655,86.19,1
243225,1,15433,0,46252,47571,46132.04,47580.11,119.96,-9.11,0.965105,86.18,1
243265,1,15473,0,46265,47609,46132.31,47580.17,132.69,28.83,0.965567,86.17,1
243305,1,15513,0,46278,47636,46132.60,47580.29,145.40,55.71,0.966044,86.16,1
243345,1,15553,0,46297,47664,46132.93,47580.45,164.07,83.55,0.966536,86.15,1
243385,1,15593,0,46303,47683,46133.27,47580.66,169.73,102.34,0.967041,86.14,1
243425,1,15633,0,46317,47701,46133.64,47580.90,183.36,120.10,0.967558,86.13,1
243465,1,15673,0,46320,47709,46134.01,47581.16,185.99,127.84,0.968087,86.12,1
243505,1,15713,0,46329,47723,46134.40,47581.45,194.60,141.55,0.968626,86.11,1
243545,1,15753,0,46335,47732,46134.80,47581.75,200.20,150.25,0.969173,86.10,1
243585,1,15793,0,46335,47743,46135.21,47582.07,199.79,160.93,0.969726,86.09,1
243625,1,15833,0,46340,47757,46135.62,47582.42,204.38,174.58,0.970280,86.08,1
243665,1,15873,0,46343,47771,46136.03,47582.80,206.97,188.20,0.970830,86.07,1
243706,1,15914,0,46351,47783,46136.46,47583.20,214.54,199.80,0.971376,86.06,1
243746,1,15954,0,46345,47749,46136.88,47583.54,208.12,165.46,0.971928,86.05,1
243786,1,15994,0,46297,47617,46137.20,47583.60,159.80,33.40,0.972498,86.04,1
243826,1,16034,0,46240,47538,46137.41,47583.51,102.59,-45.51,0.973073,86.03,1
243866,1,16074,0,46231,47551,46137.59,47583.45,93.41,-32.45,0.973652,86.02,1
243906,1,16114,0,46252,47579,46137.82,47583.44,114.18,-4.44,0.974241,86.00,1
243946,1,16154,0,46271,47593,46138.09,47583.46,132.91,9.54,0.974842,85.99,1
243986,1,16194,0,46279,47602,46138.37,47583.50,140.63,18.50,0.975459,85.98,1
244026,1,16234,0,46291,47620,46138.68,47583.57,152.32,36.43,0.976092,85.97,1
244066,1,16274,0,46294,47612,46138.99,47583.63,155.01,28.37,0.976742,85.96,1
244106,1,16314,0,46285,47613,46139.28,47583.69,145.72,29.31,0.977408,85.95,1
244146,1,16354,0,46287,47604,46139.58,47583.73,147.42,20.27,0.978090,85.93,1
244187,1,16395,0,46291,47624,46139.88,47583.82,151.12,40.18,0.978788,85.92,1
244227,1,16435,0,46299,47660,46140.20,47583.97,158.80,76.03,0.979500,85.91,1
244267,1,16475,0,46314,47674,46140.55,47584.15,173.45,89.85,0.980225,85.90,1
244307,1,16515,0,46322,47695,46140.91,47584.37,181.09,110.63,0.980962,85.88,1
244347,1,16555,0,46331,47711,46141.30,47584.62,189.70,126.37,0.981708,85.87,1
244387,1,16595,0,46342,47717,46141.70,47584.89,200.30,132.11,0.982465,85.86,1
244427,1,16635,0,46344,47722,46142.11,47585.17,201.89,136.83,0.983232,85.85,1
244467,1,16675,0,46349,47728,46142.52,47585.45,206.48,142.55,0.984008,85.83,1
244507,1,16715,0,46352,47724,46142.94,47585.73,209.06,138.27,0.984795,85.82,1
244547,1,16755,0,46345,47726,46143.35,47586.01,201.65,139.99,0.985590,85.81,1
244587,1,16795,0,46337,47723,46143.73,47586.29,193.27,136.71,0.986391,85.79,1
244627,1,16835,0,46342,47727,46144.13,47586.57,197.87,140.43,0.987198,85.78,1
244668,1,16876,0,46343,47741,46144.53,47586.87,198.47,154.12,0.988006,85.76,1
244708,1,16916,0,46331,47692,46144.91,47587.09,186.09,104.91,0.988826,85.75,1
244748,1,16956,0,46287,47566,46145.19,47587.05,141.81,-21.05,0.989660,85.73,1
244788,1,16996,0,46227,47477,46145.36,47586.83,81.64,-109.83,0.990482,85.72,1
244828,1,17036,0,46207,47472,46145.48,47586.60,61.52,-114.60,0.991289,85.70,1
244868,1,17076,0,46227,47495,46145.64,47586.42,81.36,-91.42,0.992087,85.69,1
244908,1,17116,0,46241,47496,46145.84,47586.24,95.16,-90.24,0.992881,85.67,1
244948,1,17156,0,46243,47513,46146.03,47586.09,96.97,-73.09,0.993674,85.66,1
244988,1,17196,0,46254,47513,46146.25,47585.95,107.75,-72.95,0.994467,85.64,1
245028,1,17236,0,46251,47506,46146.46,47585.79,104.54,-79.79,0.995260,85.63,1
245068,1,17276,0,46247,47492,46146.66,47585.60,100.34,-93.60,0.996047,85.61,1
245109,1,17317,0,46239,47485,46146.85,47585.40,92.15,-100.40,0.996826,85.59,1
245149,1,17357,0,46246,47506,46147.05,47585.25,98.95,-79.25,0.997604,85.58,1
245189,1,17397,0,46254,47534,46147.27,47585.14,106.73,-51.14,0.998385,85.56,1
245229,1,17437,0,46268,47546,46147.51,47585.07,120.49,-39.07,0.999175,85.55,1
245269,1,17477,0,46273,47571,46147.76,47585.04,125.24,-14.04,0.999977,85.53,1
245309,1,17517,0,46284,47581,46148.04,47585.03,135.96,-4.03,1.000792,85.51,1
245349,1,17557,0,46290,47587,46148.32,47585.04,141.68,1.96,1.001624,85.50,1
245389,1,17597,0,46297,47588,46148.62,47585.04,148.38,2.96,1.002472,85.48,1
245429,1,17637,0,46296,47589,46148.91,47585.05,147.09,3.95,1.003338,85.46,1
245469,1,17677,0,46294,47591,46149.21,47585.06,144.79,5.94,1.004221,85.45,1
245509,1,17717,0,46292,47594,46149.49,47585.08,142.51,8.92,1.005119,85.43,1
245549,1,17757,0,46293,47608,46149.78,47585.13,143.22,22.87,1.006033,85.41,1
245590,1,17798,0,46301,47609,46150.09,47585.18,150.91,23.82,1.006965,85.39,1
245630,1,17838,0,46291,47568,46150.37,47585.15,140.63,-17.15,1.007911,85.38,1
245670,1,17878,0,46241,47440,46150.55,47584.86,90.45,-144.86,1.008831,85.36,1
245710,1,17918,0,46190,47363,46150.63,47584.42,39.37,-221.42,1.009676,85.34,1
245750,1,17958,0,46178,47377,46150.69,47584.00,27.31,-207.00,1.010457,85.32,1
245790,1,17998,0,46202,47411,46150.79,47583.66,51.21,-172.66,1.011198,85.30,1
245830,1,18038,0,46223,47416,46150.94,47583.32,72.06,-167.32,1.011903,85.29,1
245870,1,18078,0,46238,47441,46151.11,47583.04,86.89,-142.04,1.012586,85.27,1
245910,1,18118,0,46243,47438,46151.30,47582.75,91.70,-144.75,1.013246,85.25,1
245950,1,18158,0,46245,47435,46151.48,47582.46,93.52,-147.46,1.013884,85.23,1
245990,1,18198,0,46238,47422,46151.66,47582.14,86.34,-160.14,1.014494,85.21,1
246030,1,18238,0,46234,47422,46151.82,47581.82,82.18,-159.82,1.015076,85.20,1
246071,1,18279,0,46242,47453,46152.00,47581.56,90.00,-128.56,1.015642,85.18,1
246111,1,18319,0,46259,47477,46152.22,47581.35,106.78,-104.35,1.016204,85.16,1
246151,1,18359,0,46266,47502,46152.45,47581.20,113.55,-79.20,1.016768,85.14,1
246191,1,18399,0,46281,47523,46152.71,47581.08,128.29,-58.08,1.017341,85.13,1
246231,1,18439,0,46291,47539,46152.98,47581.00,138.02,-42.00,1.017928,85.11,1
246271,1,18479,0,46296,47552,46153.27,47580.94,142.73,-28.94,1.018531,85.09,1
246311,1,18519,0,46312,47554,46153.59,47580.89,158.41,-26.89,1.019156,85.08,1
246351,1,18559,0,46310,47565,46153.91,47580.86,156.09,-15.86,1.019801,85.06,1
246391,1,18599,0,46318,47571,46154.23,47580.84,163.77,-9.84,1.020469,85.04,1
246431,1,18639,0,46318,47589,46154.56,47580.86,163.44,8.14,1.021161,85.02,1
246471,1,18679,0,46329,47585,46154.91,47580.86,174.09,4.14,1.021880,85.01,1
246511,1,18719,0,46303,47489,46155.21,47580.68,147.79,-91.68,1.022605,84.99,1
246552,1,18760,0,46243,47362,46155.39,47580.24,87.61,-218.24,1.023269,84.97,1
246592,1,18800,0,46197,47309,46155.47,47579.70,41.53,-270.70,1.023834,84.96,1
246632,1,18840,0,46198,47331,46155.56,47579.20,42.44,-248.20,1.024321,84.94,1
246672,1,18880,0,46222,47357,46155.69,47578.76,66.31,-221.76,1.024752,84.92,1
246712,1,18920,0,46232,47366,46155.84,47578.34,76.16,-212.34,1.025135,84.91,1
246752,1,18960,0,46252,47402,46156.04,47577.98,95.96,-175.98,1.025490,84.89,1
246792,1,19000,0,46263,47398,46156.25,47577.62,106.75,-179.62,1.025819,84.87,1
246832,1,19040,0,46267,47396,46156.48,47577.26,110.52,-181.26,1.026122,84.86,1
246872,1,19080,0,46264,47390,46156.69,47576.89,107.31,-186.89,1.026397,84.84,1
246912,1,19120,0,46267,47399,46156.91,47576.53,110.09,-177.53,1.026649,84.83,1
246952,1,19160,0,46277,47432,46157.16,47576.24,119.84,-144.24,1.026891,84.81,1
246992,1,19200,0,46293,47455,46157.43,47576.00,135.57,-121.00,1.027134,84.80,1
247033,1,19241,0,46300,47469,46157.71,47575.79,142.29,-106.79,1.027383,84.78,1
247073,1,19281,0,46307,47483,46158.02,47575.61,148.98,-92.61,1.027642,84.77,1
247113,1,19321,0,46308,47484,46158.32,47575.42,149.68,-91.42,1.027911,84.75,1
247153,1,19361,0,46318,47492,46158.64,47575.26,159.36,-83.26,1.028195,84.74,1
247193,1,19401,0,46318,47508,46158.96,47575.12,159.04,-67.12,1.028496,84.73,1
247233,1,19441,0,46331,47514,46159.30,47575.00,171.70,-61.00,1.028819,84.71,1
247273,1,19481,0,46344,47531,46159.67,47574.92,184.33,-43.92,1.029169,84.70,1
247313,1,19521,0,46348,47546,46160.05,47574.86,187.95,-28.86,1.029549,84.69,1
247353,1,19561,0,46357,47562,46160.45,47574.84,196.55,-12.84,1.029963,84.67,1
247393,1,19601,0,46364,47546,46160.86,47574.79,203.14,-28.79,1.030411,84.66,1
247433,1,19641,0,46330,47425,46161.20,47574.49,168.80,-149.49,1.030858,84.65,1
247473,1,19681,0,46253,47288,46161.38,47573.92,91.62,-285.92,1.031217,84.64,1
247514,1,19722,0,46221,47252,46161.50,47573.27,59.50,-321.27,1.031470,84.62,1
247554,1,19762,0,46221,47274,46161.62,47572.68,59.38,-298.68,1.031638,84.61,1
247594,1,19802,0,46242,47295,46161.78,47572.12,80.22,-277.12,1.031741,84.60,1
247634,1,19842,0,46256,47302,46161.97,47571.58,94.03,-269.58,1.031787,84.59,1
247674,1,19882,0,46268,47343,46162.19,47571.12,105.81,-228.12,1.031798,84.57,1
247714,1,19922,0,46285,47350,46162.43,47570.68,122.57,-220.68,1.031782,84.56,1
247754,1,19962,0,46288,47344,46162.69,47570.23,125.31,-226.23,1.031737,84.55,1
247794,1,20002,0,46295,47348,46162.95,47569.79,132.05,-221.79,1.031669,84.54,1
247834,1,20042,0,46297,47359,46163.22,47569.37,133.78,-210.37,1.031581,84.53,1
247874,1,20082,0,46313,47386,46163.52,47569.00,149.48,-183.00,1.031486,84.52,1
247914,1,20122,0,46325,47403,46163.85,47568.67,161.15,-165.67,1.031392,84.51,1
247954,1,20162,0,46333,47422,46164.19,47568.37,168.81,-146.37,1.031304,84.50,1
247995,1,20203,0,46337,47437,46164.54,47568.11,172.46,-131.11,1.031227,84.50,1
248035,1,20243,0,46343,47443,46164.89,47567.86,178.11,-124.86,1.031163,84.49,1
248075,1,20283,0,46348,47454,46165.26,47567.64,182.74,-113.64,1.031116,84.48,1
248115,1,20323,0,46355,47460,46165.64,47567.42,189.36,-107.42,1.031089,84.47,1
248155,1,20363,0,46356,47481,46166.02,47567.25,189.98,-86.25,1.031083,84.46,1
248195,1,20403,0,46368,47493,46166.43,47567.10,201.57,-74.10,1.031106,84.46,1
248235,1,20443,0,46380,47502,46166.86,47566.97,213.14,-64.97,1.031160,84.45,1
248275,1,20483,0,46387,47523,46167.30,47566.89,219.70,-43.89,1.031250,84.44,1
248315,1,20523,0,46394,47522,46167.75,47566.80,226.25,-44.80,1.031378,84.44,1
248355,1,20563,0,46377,47425,46168.17,47566.52,208.83,-141.52,1.031522,84.43,1
248395,1,20603,0,46300,47281,46168.44,47565.95,131.56,-284.95,1.031612,84.42,1
248435,1,20643,0,46252,47212,46168.61,47565.24,83.39,-353.24,1.031610,84.42,1
248476,1,20684,0,46245,47231,46168.76,47564.57,76.24,-333.57,1.031532,84.41,1
248516,1,20724,0,46267,47255,46168.96,47563.95,98.04,-308.95,1.031397,84.40,1
248556,1,20764,0,46268,47254,46169.16,47563.34,98.84,-309.34,1.031208,84.40,1
248596,1,20804,0,46282,47291,46169.38,47562.79,112.62,-271.79,1.030983,84.39,1
248636,1,20844,0,46296,47304,46169.64,47562.28,126.36,-258.28,1.030729,84.39,1
248676,1,20884,0,46304,47311,46169.91,47561.78,134.09,-250.78,1.030453,84.38,1
248716,1,20924,0,46312,47306,46170.19,47561.27,141.81,-255.27,1.030154,84.38,1
248756,1,20964,0,46311,47320,46170.47,47560.79,140.53,-240.79,1.029837,84.38,1
248796,1,21004,0,46324,47349,46170.78,47560.36,153.22,-211.36,1.029512,84.37,1
248836,1,21044,0,46341,47374,46171.12,47559.99,169.88,-185.99,1.029189,84.37,1
248876,1,21084,0,46354,47394,46171.49,47559.66,182.51,-165.66,1.028875,84.37,1
248916,1,21124,0,46362,47404,46171.87,47559.35,190.13,-155.35,1.028573,84.37,1
248957,1,21165,0,46364,47410,46172.26,47559.05,191.74,-149.05,1.028284,84.36,1
248997,1,21205,0,46364,47425,46172.64,47558.79,191.36,-133.79,1.028011,84.36,1
249037,1,21245,0,46365,47432,46173.03,47558.54,191.97,-126.54,1.027754,84.36,1
249077,1,21285,0,46375,47445,46173.43,47558.31,201.57,-113.31,1.027518,84.36,1
249117,1,21325,0,46382,47461,46173.85,47558.11,208.15,-97.11,1.027306,84.36,1
249157,1,21365,0,46391,47476,46174.29,47557.95,216.71,-81.95,1.027122,84.36,1
249197,1,21405,0,46402,47484,46174.74,47557.80,227.26,-73.80,1.026970,84.35,1
249237,1,21445,0,46406,47499,46175.21,47557.68,230.79,-58.68,1.026851,84.35,1
249277,1,21485,0,46412,47501,46175.68,47557.57,236.32,-56.57,1.026767,84.35,1
249317,1,21525,0,46400,47414,46176.13,47557.29,223.87,-143.29,1.026703,84.35,1
249357,1,21565,0,46329,47260,46176.44,47556.69,152.56,-296.69,1.026601,84.35,1
249397,1,21605,0,46270,47179,46176.63,47555.94,93.37,-376.94,1.026423,84.35,1
249438,1,21646,0,46256,47187,46176.79,47555.20,79.21,-368.20,1.026175,84.35,1
249478,1,21686,0,46278,47218,46176.99,47554.53,101.01,-336.53,1.025877,84.35,1
249518,1,21726,0,46287,47227,46177.21,47553.87,109.79,-326.87,1.025535,84.35,1
249558,1,21766,0,46302,47260,46177.46,47553.29,124.54,-293.29,1.025163,84.35,1
249598,1,21806,0,46316,47280,46177.74,47552.74,138.26,-272.74,1.024769,84.35,1
249638,1,21846,0,46322,47281,46178.03,47552.20,143.97,-271.20,1.024356,84.35,1
249678,1,21886,0,46325,47272,46178.33,47551.64,146.67,-279.64,1.023923,84.36,1
249718,1,21926,0,46326,47282,46178.62,47551.10,147.37,-269.10,1.023474,84.36,1
249758,1,21966,0,46337,47313,46178.94,47550.62,158.06,-237.62,1.023016,84.36,1
249798,1,22006,0,46355,47332,46179.29,47550.19,175.71,-218.19,1.022558,84.36,1
249838,1,22046,0,46367,47355,46179.67,47549.80,187.33,-194.80,1.022105,84.36,1
249878,1,22086,0,46371,47363,46180.05,47549.43,190.95,-186.43,1.021661,84.37,1
249919,1,22127,0,46376,47377,46180.45,47549.08,195.55,-172.08,1.021228,84.37,1
249959,1,22167,0,46384,47389,46180.86,47548.76,203.14,-159.76,1.020809,84.37,1
249999,1,22207,0,46385,47401,46181.27,47548.47,203.73,-147.47,1.020406,84.38,1
250039,1,22247,0,46394,47412,46181.69,47548.20,212.31,-136.20,1.020021,84.38,1
250079,1,22287,0,46397,47422,46182.12,47547.95,214.87,-125.95,1.019658,84.38,1
250119,1,22327,0,46404,47433,46182.57,47547.71,221.43,-114.71,1.019317,84.39,1
250159,1,22367,0,46418,47440,46183.04,47547.50,234.96,-107.50,1.019004,84.39,1
250199,1,22407,0,46425,47459,46183.53,47547.32,241.47,-88.32,1.018721,84.40,1
250239,1,22447,0,46431,47446,46184.02,47547.12,246.98,-101.12,1.018469,84.40,1
250279,1,22487,0,46403,47332,46184.46,47546.69,218.54,-214.69,1.018222,84.41,1
250319,1,22527,0,46331,47188,46184.75,47545.98,146.25,-357.98,1.017931,84.41,1
250359,1,22567,0,46284,47135,46184.95,47545.16,99.05,-410.16,1.017574,84.41,1
250400,1,22608,0,46289,47167,46185.16,47544.40,103.84,-377.40,1.017166,84.42,1
250440,1,22648,0,46317,47191,46185.43,47543.70,131.57,-352.70,1.016722,84.42,1
250480,1,22688,0,46319,47215,46185.70,47543.04,133.30,-328.04,1.016248,84.43,1
250520,1,22728,0,46340,47246,46186.01,47542.45,153.99,-296.45,1.015756,84.43,1
250560,1,22768,0,46355,47256,46186.35,47541.87,168.65,-285.87,1.015252,84.44,1
250600,1,22808,0,46357,47260,46186.69,47541.31,170.31,-281.31,1.014737,84.45,1
250640,1,22848,0,46360,47266,46187.04,47540.76,172.96,-274.76,1.014212,84.45,1
250680,1,22888,0,46373,47285,46187.41,47540.25,185.59,-255.25,1.013685,84.46,1
250720,1,22928,0,46389,47322,46187.82,47539.82,201.18,-217.82,1.013164,84.46,1
250760,1,22968,0,46410,47355,46188.27,47539.45,221.73,-184.45,1.012657,84.47,1
250800,1,23008,0,46424,47373,46188.74,47539.12,235.26,-166.12,1.012171,84.48,1
250840,1,23048,0,46433,47396,46189.23,47538.83,243.77,-142.83,1.011708,84.48,1
250880,1,23088,0,46435,47404,46189.72,47538.56,245.28,-134.56,1.011270,84.49,1
250921,1,23129,0,46447,47417,46190.23,47538.32,256.77,-121.32,1.010861,84.50,1
250961,1,23169,0,46451,47431,46190.76,47538.11,260.24,-107.11,1.010482,84.51,1
251001,1,23209,0,46455,47445,46191.29,47537.92,263.71,-92.92,1.010135,84.51,1
251041,1,23249,0,46468,47470,46191.84,47537.79,276.16,-67.79,1.009825,84.52,1
251081,1,23289,0,46477,47489,46192.41,47537.69,284.59,-48.69,1.009553,84.53,1
251121,1,23329,0,46496,47504,46193.02,47537.62,302.98,-33.63,1.009327,84.53,1
251161,1,23369,0,46507,47524,46193.65,47537.60,313.35,-13.60,1.009148,84.54,1
251201,1,23409,0,46515,47532,46194.30,47537.59,320.70,-5.59,1.009018,84.55,1
251241,1,23449,0,46501,47428,46194.91,47537.37,306.09,-109.37,1.008929,84.56,1
251281,1,23489,0,46428,47267,46195.38,47536.83,232.62,-269.83,1.008833,84.56,1
251321,1,23529,0,46372,47197,46195.73,47536.15,176.27,-339.15,1.008705,84.57,1
251361,1,23569,0,46366,47214,46196.07,47535.50,169.93,-321.50,1.008549,84.58,1
251402,1,23610,0,46384,47241,46196.45,47534.92,187.55,-293.92,1.008376,84.58,1
251442,1,23650,0,46396,47246,46196.85,47534.34,199.15,-288.34,1.008189,84.59,1
251482,1,23690,0,46402,47284,46197.26,47533.84,204.74,-249.84,1.007997,84.59,1
251522,1,23730,0,46427,47304,46197.72,47533.38,229.28,-229.38,1.007810,84.60,1
251562,1,23770,0,46432,47307,46198.19,47532.93,233.81,-225.93,1.007629,84.61,1
251602,1,23810,0,46437,47309,46198.67,47532.48,238.33,-223.48,1.007454,84.61,1
251642,1,23850,0,46445,47321,46199.16,47532.06,245.84,-211.06,1.007290,84.62,1
251682,1,23890,0,46459,47351,46199.68,47531.70,259.32,-180.70,1.007143,84.63,1
251722,1,23930,0,46472,47382,46200.23,47531.41,271.77,-149.41,1.007020,84.63,1
251762,1,23970,0,46493,47405,46200.82,47531.16,292.18,-126.16,1.006929,84.64,1
251802,1,24010,0,46497,47425,46201.41,47530.95,295.59,-105.95,1.006871,84.64,1
251842,1,24050,0,46506,47438,46202.02,47530.76,303.98,-92.76,1.006849,84.65,1
251883,1,24091,0,46512,47445,46202.64,47530.59,309.36,-85.59,1.006866,84.65,1
251923,1,24131,0,46520,47460,46203.28,47530.45,316.72,-70.45,1.006923,84.66,1
251963,1,24171,0,46520,47470,46203.91,47530.33,316.09,-60.33,1.007021,84.66,1
252003,1,24211,0,46530,47485,46204.56,47530.24,325.44,-45.24,1.007162,84.67,1
252043,1,24251,0,46533,47496,46205.22,47530.17,327.78,-34.17,1.007348,84.67,1
252083,1,24291,0,46543,47516,46205.89,47530.14,337.11,-14.14,1.007581,84.68,1
252123,1,24331,0,46554,47516,46206.59,47530.12,347.41,-14.12,1.007863,84.68,1
252163,1,24371,0,46562,47534,46207.30,47530.12,354.70,3.87,1.008196,84.68,1
252203,1,24411,0,46562,47472,46208.02,47530.01,353.98,-58.01,1.008578,84.69,1
252243,1,24451,0,46503,47314,46208.61,47529.58,294.39,-215.58,1.008971,84.69,1
252283,1,24491,0,46426,47203,46209.04,47528.93,216.96,-325.93,1.009330,84.69,1
252323,1,24531,0,46400,47194,46209.43,47528.26,190.57,-334.26,1.009649,84.69,1
252364,1,24572,0,46420,47222,46209.85,47527.65,210.15,-305.65,1.009941,84.70,1
252404,1,24612,0,46435,47238,46210.30,47527.07,224.70,-289.07,1.010214,84.70,1
252444,1,24652,0,46439,47257,46210.76,47526.54,228.24,-269.54,1.010473,84.70,1
252484,1,24692,0,46459,47282,46211.25,47526.05,247.75,-244.05,1.010730,84.70,1
252524,1,24732,0,46465,47287,46211.76,47525.57,253.24,-238.57,1.010985,84.70,1
252564,1,24772,0,46462,47281,46212.26,47525.08,249.74,-244.08,1.011238,84.70,1
252604,1,24812,0,46467,47282,46212.77,47524.60,254.23,-242.60,1.011489,84.70,1
252644,1,24852,0,46475,47308,46213.30,47524.16,261.70,-216.16,1.011745,84.70,1
252684,1,24892,0,46489,47341,46213.85,47523.80,275.15,-182.80,1.012015,84.70,1
252724,1,24932,0,46507,47358,46214.44,47523.47,292.56,-165.47,1.012304,84.70,1
252764,1,24972,0,46514,47368,46215.04,47523.16,298.96,-155.16,1.012615,84.70,1
252804,1,25012,0,46515,47388,46215.64,47522.89,299.36,-134.89,1.012951,84.70,1
252844,1,25052,0,46524,47389,46216.26,47522.62,307.74,-133.62,1.013314,84.70,1
252885,1,25093,0,46519,47395,46216.86,47522.37,302.14,-127.37,1.013702,84.70,1
252925,1,25133,0,46522,47406,46217.48,47522.14,304.52,-116.14,1.014117,84.70,1
252965,1,25173,0,46526,47407,46218.09,47521.91,307.91,-114.91,1.014561,84.69,1
253005,1,25213,0,46533,47431,46218.73,47521.73,314.27,-90.73,1.015035,84.69,1
253045,1,25253,0,46543,47447,46219.37,47521.58,323.62,-74.58,1.015545,84.69,1
253085,1,25293,0,46555,47461,46220.05,47521.46,334.95,-60.46,1.016093,84.69,1
253125,1,25333,0,46558,47402,46220.72,47521.22,337.28,-119.22,1.016674,84.68,1
253165,1,25373,0,46494,47236,46221.27,47520.65,272.73,-284.65,1.017239,84.68,1
253205,1,25413,0,46427,47153,46221.68,47519.92,205.32,-366.92,1.017752,84.68,1
253245,1,25453,0,46414,47152,46222.07,47519.18,191.93,-367.18,1.018212,84.67,1
253285,1,25493,0,46431,47192,46222.49,47518.53,208.51,-326.53,1.018637,84.67,1
253325,1,25533,0,46446,47198,46222.94,47517.89,223.06,-319.89,1.019033,84.66,1
253366,1,25574,0,46450,47226,46223.39,47517.31,226.61,-291.31,1.019409,84.66,1
253406,1,25614,0,46463,47239,46223.87,47516.75,239.12,-277.75,1.019770,84.66,1
253446,1,25654,0,46461,47228,46224.35,47516.18,236.65,-288.18,1.020115,84.65,1
253486,1,25694,0,46456,47232,46224.82,47515.61,231.18,-283.61,1.020442,84.65,1
253526,1,25734,0,46459,47246,46225.29,47515.07,233.71,-269.07,1.020758,84.64,1
253566,1,25774,0,46467,47276,46225.77,47514.59,241.23,-238.59,1.021070,84.64,1
253606,1,25814,0,46495,47314,46226.31,47514.20,268.69,-200.20,1.021388,84.63,1
253646,1,25854,0,46510,47329,46226.88,47513.82,283.12,-184.82,1.021719,84.63,1
253686,1,25894,0,46523,47360,46227.47,47513.52,295.53,-153.52,1.022068,84.62,1
253726,1,25934,0,46536,47366,46228.09,47513.23,307.91,-147.23,1.022440,84.61,1
253766,1,25974,0,46538,47376,46228.71,47512.95,309.29,-136.95,1.022835,84.61,1
253806,1,26014,0,46541,47392,46229.34,47512.71,311.66,-120.71,1.023255,84.60,1
253846,1,26054,0,46543,47394,46229.96,47512.48,313.04,-118.48,1.023701,84.60,1
253887,1,26095,0,46549,47416,46230.61,47512.29,318.39,-96.29,1.024175,84.59,1
253927,1,26135,0,46556,47444,46231.26,47512.15,324.74,-68.15,1.024682,84.59,1
253967,1,26175,0,46566,47417,46231.93,47511.96,334.07,-94.96,1.025220,84.58,1
254007,1,26215,0,46525,47286,46232.52,47511.51,292.48,-225.51,1.025762,84.57,1
254047,1,26255,0,46457,47183,46232.96,47510.86,224.04,-327.86,1.026270,84.57,1
254087,1,26295,0,46434,47162,46233.37,47510.16,200.63,-348.16,1.026736,84.56,1
254127,1,26335,0,46445,47192,46233.79,47509.52,211.21,-317.52,1.027172,84.55,1
254167,1,26375,0,46465,47215,46234.26,47508.94,230.74,-293.94,1.027587,84.54,1
254207,1,26415,0,46472,47231,46234.73,47508.38,237.27,-277.38,1.027988,84.54,1
254247,1,26455,0,46492,47263,46235.25,47507.89,256.75,-244.89,1.028383,84.53,1
254287,1,26495,0,46498,47269,46235.78,47507.42,262.22,-238.42,1.028776,84.52,1
254327,1,26535,0,46496,47264,46236.30,47506.93,259.70,-242.93,1.029166,84.51,1
254368,1,26576,0,46498,47271,46236.82,47506.46,261.18,-235.46,1.029553,84.51,1
254408,1,26616,0,46496,47297,46237.34,47506.05,258.66,-209.05,1.029943,84.50,1
254448,1,26656,0,46520,47335,46237.91,47505.71,282.09,-170.71,1.030345,84.49,1
254488,1,26696,0,46536,47367,46238.51,47505.43,297.49,-138.43,1.030766,84.48,1
254528,1,26736,0,46554,47396,46239.14,47505.21,314.86,-109.21,1.031213,84.48,1
254568,1,26776,0,46568,47406,46239.80,47505.02,328.20,-99.02,1.031688,84.47,1
254608,1,26816,0,46577,47421,46240.48,47504.85,336.52,-83.85,1.032195,84.46,1
254648,1,26856,0,46583,47437,46241.16,47504.71,341.84,-67.71,1.032736,84.45,1
254688,1,26896,0,46586,47442,46241.86,47504.59,344.14,-62.59,1.033311,84.44,1
254728,1,26936,0,46592,47455,46242.56,47504.49,349.44,-49.49,1.033922,84.43,1
254768,1,26976,0,46594,47458,46243.26,47504.40,350.74,-46.40,1.034569,84.42,1
254808,1,27016,0,46596,47479,46243.97,47504.35,352.03,-25.35,1.035253,84.42,1
254849,1,27057,0,46606,47494,46244.70,47504.33,361.30,-10.33,1.035977,84.41,1
254889,1,27097,0,46601,47460,46245.41,47504.25,355.59,-44.25,1.036737,84.40,1
254929,1,27137,0,46554,47304,46246.03,47503.85,307.97,-199.85,1.037505,84.39,1
254969,1,27177,0,46476,47191,46246.49,47503.22,229.51,-312.22,1.038239,84.38,1
255009,1,27217,0,46453,47192,46246.90,47502.60,206.10,-310.60,1.038937,84.37,1
255049,1,27257,0,46476,47218,46247.36,47502.04,228.64,-284.04,1.039611,84.36,1
255089,1,27297,0,46493,47225,46247.86,47501.48,245.14,-276.48,1.040266,84.34,1
255129,1,27337,0,46496,47242,46248.35,47500.96,247.65,-258.96,1.040907,84.33,1
255169,1,27377,0,46507,47260,46248.87,47500.48,258.13,-240.48,1.041540,84.32,1
255209,1,27417,0,46514,47265,46249.40,47500.01,264.60,-235.01,1.042167,84.31,1
255249,1,27457,0,46512,47257,46249.93,47499.53,262.07,-242.53,1.042787,84.30,1
255289,1,27497,0,46507,47260,46250.45,47499.05,256.55,-239.05,1.043399,84.29,1
255330,1,27538,0,46511,47279,46250.97,47498.61,260.03,-219.61,1.044008,84.28,1
255370,1,27578,0,46520,47317,46251.51,47498.25,268.49,-181.25,1.044622,84.26,1
255410,1,27618,0,46537,47334,46252.08,47497.92,284.92,-163.92,1.045247,84.25,1
255450,1,27658,0,46553,47367,46252.68,47497.66,300.32,-130.66,1.045890,84.24,1
255490,1,27698,0,46561,47386,46253.30,47497.44,307.70,-111.44,1.046554,84.23,1
255530,1,27738,0,46577,47385,46253.95,47497.21,323.05,-112.21,1.047242,84.22,1
255570,1,27778,0,46580,47397,46254.60,47497.02,325.40,-100.02,1.047956,84.20,1
255610,1,27818,0,46585,47404,46255.26,47496.83,329.74,-92.83,1.048696,84.19,1
255650,1,27858,0,46585,47405,46255.92,47496.65,329.08,-91.65,1.049463,84.18,1
255690,1,27898,0,46591,47417,46256.59,47496.49,334.41,-79.49,1.050259,84.17,1
255730,1,27938,0,46592,47424,46257.26,47496.35,334.74,-72.35,1.051085,84.15,1
255771,1,27979,0,46589,47435,46257.93,47496.23,331.07,-61.23,1.051939,84.14,1
255811,1,28019,0,46596,47434,46258.60,47496.10,337.40,-62.10,1.052823,84.12,1
255851,1,28059,0,46569,47323,46259.22,47495.76,309.78,-172.76,1.053719,84.11,1
255891,1,28099,0,46496,47169,46259.70,47495.11,236.30,-326.11,1.054573,84.10,1
255931,1,28139,0,46440,47134,46260.06,47494.38,179.94,-360.38,1.055368,84.08,1
255971,1,28179,0,46455,47173,46260.45,47493.74,194.55,-320.74,1.056122,84.07,1
256011,1,28219,0,46482,47196,46260.90,47493.15,221.10,-297.15,1.056845,84.05,1
256051,1,28259,0,46490,47217,46261.36,47492.60,228.64,-275.60,1.057546,84.04,1
256091,1,28299,0,46505,47241,46261.85,47492.09,243.15,-251.09,1.058232,84.02,1
256131,1,28339,0,46521,47246,46262.37,47491.60,258.63,-245.60,1.058908,84.01,1
256171,1,28379,0,46510,47235,46262.86,47491.09,247.14,-256.09,1.059570,83.99,1
256211,1,28419,0,46506,47234,46263.35,47490.58,242.65,-256.58,1.060218,83.98,1
256252,1,28460,0,46504,47242,46263.84,47490.08,240.16,-248.08,1.060852,83.96,1
256292,1,28500,0,46514,47281,46264.34,47489.66,249.66,-208.66,1.061483,83.95,1
256332,1,28540,0,46526,47309,46264.86,47489.30,261.14,-180.30,1.062117,83.93,1
256372,1,28580,0,46545,47332,46265.42,47488.99,279.58,-156.99,1.062761,83.92,1
256412,1,28620,0,46556,47360,46266.00,47488.73,290.00,-128.73,1.063421,83.90,1
256452,1,28660,0,46566,47376,46266.61,47488.51,299.39,-112.51,1.064099,83.89,1
256492,1,28700,0,46578,47383,46267.23,47488.30,310.77,-105.30,1.064798,83.87,1
256532,1,28740,0,46585,47398,46267.87,47488.12,317.13,-90.12,1.065521,83.86,1
256572,1,28780,0,46585,47405,46268.50,47487.96,316.50,-82.96,1.066268,83.84,1
256612,1,28820,0,46596,47421,46269.16,47487.82,326.84,-66.82,1.067043,83.83,1
256652,1,28860,0,46598,47437,46269.82,47487.72,328.18,-50.72,1.067846,83.81,1
256692,1,28900,0,46604,47463,46270.49,47487.68,333.51,-24.68,1.068679,83.80,1
256733,1,28941,0,46604,47418,46271.16,47487.54,332.84,-69.54,1.069540,83.78,1
256773,1,28981,0,46553,47277,46271.72,47487.12,281.28,-210.12,1.070399,83.76,1
256813,1,29021,0,46483,47181,46272.14,47486.51,210.86,-305.51,1.071221,83.75,1
256853,1,29061,0,46463,47176,46272.53,47485.89,190.47,-309.89,1.072003,83.73,1
256893,1,29101,0,46480,47220,46272.95,47485.36,207.05,-265.36,1.072760,83.71,1
256933,1,29141,0,46501,47242,46273.40,47484.87,227.60,-242.87,1.073501,83.70,1
256973,1,29181,0,46514,47260,46273.88,47484.43,240.12,-224.43,1.074232,83.68,1
257013,1,29221,0,46533,47295,46274.40,47484.05,258.60,-189.05,1.074963,83.66,1
257053,1,29261,0,46538,47298,46274.93,47483.68,263.07,-185.68,1.075696,83.65,1
257093,1,29301,0,46542,47306,46275.46,47483.32,266.54,-177.32,1.076432,83.63,1
257133,1,29341,0,46539,47309,46275.99,47482.97,263.01,-173.97,1.077171,83.61,1
257173,1,29381,0,46544,47338,46276.53,47482.68,267.47,-144.68,1.077919,83.60,1
257214,1,29422,0,46557,47370,46277.09,47482.46,279.91,-112.46,1.078681,83.58,1
257254,1,29462,0,46567,47404,46277.68,47482.30,289.32,-78.30,1.079463,83.56,1
257294,1,29502,0,46586,47426,46278.29,47482.19,307.71,-56.19,1.080269,83.55,1
257334,1,29542,0,46600,47450,46278.94,47482.13,321.06,-32.13,1.081103,83.53,1
257374,1,29582,0,46609,47467,46279.60,47482.10,329.40,-15.10,1.081967,83.51,1
257414,1,29622,0,46618,47482,46280.28,47482.10,337.72,-0.10,1.082862,83.49,1
257454,1,29662,0,46626,47487,46280.97,47482.11,345.03,4.89,1.083791,83.48,1
257494,1,29702,0,46627,47503,46281.66,47482.16,345.34,20.84,1.084752,83.46,1
257534,1,29742,0,46641,47514,46282.38,47482.22,358.62,31.78,1.085749,83.44,1
257574,1,29782,0,46642,47521,46283.10,47482.30,358.90,38.70,1.086780,83.42,1
257614,1,29822,0,46642,47538,46283.82,47482.41,358.18,55.59,1.087845,83.40,1
257654,1,29862,0,46652,47557,46284.55,47482.57,367.45,74.43,1.088945,83.38,1
257695,1,29903,0,46652,47542,46285.29,47482.69,366.71,59.31,1.090079,83.37,1
257735,1,29943,0,46612,47415,46285.95,47482.55,326.05,-67.55,1.091239,83.35,1
257775,1,29983,0,46540,47272,46286.45,47482.14,253.55,-210.14,1.092388,83.33,1
257815,1,30023,1,46491,47250,46286.86,47481.67,204.14,-231.67,1.093512,83.31,1
257855,1,30063,1,46505,47287,46287.30,47481.29,217.70,-194.29,1.094624,83.29,1
257895,1,30103,1,46532,47307,46287.79,47480.94,244.21,-173.94,1.095732,83.27,1
257935,1,30143,1,46542,47321,46288.30,47480.62,253.70,-159.62,1.096840,83.25,1
257975,1,30183,1,46542,47349,46288.81,47480.36,253.19,-131.36,1.097954,83.22,1
258015,1,30223,1,46563,47365,46289.36,47480.12,273.64,-115.12,1.099078,83.20,1
258055,1,30263,1,46567,47366,46289.91,47479.90,277.09,-113.90,1.100215,83.18,1
258095,1,30303,1,46557,47366,46290.45,47479.67,266.55,-113.67,1.101362,83.16,1
258135,1,30343,1,46562,47378,46290.99,47479.47,271.01,-101.47,1.102521,83.14,1
258176,1,30384,1,46571,47413,46291.55,47479.34,279.45,-66.34,1.103698,83.12,1
258216,1,30424,1,46589,47442,46292.15,47479.26,296.85,-37.26,1.104897,83.09,1
258256,1,30464,1,46604,47470,46292.78,47479.25,311.22,-9.25,1.106123,83.07,1
258296,1,30504,1,46616,47496,46293.43,47479.28,322.57,16.72,1.107378,83.05,1
258336,1,30544,1,46623,47510,46294.09,47479.34,328.91,30.66,1.108662,83.03,1
258376,1,30584,1,46638,47522,46294.77,47479.43,343.23,42.57,1.109978,83.00,1
258416,1,30624,1,46639,47533,46295.46,47479.54,343.54,53.46,1.111326,82.98,1
258456,1,30664,1,46641,47547,46296.16,47479.68,344.84,67.32,1.112703,82.96,1
258496,1,30704,1,46652,47553,46296.87,47479.82,355.13,73.18,1.114111,82.93,1
258536,1,30744,1,46652,47567,46297.58,47480.00,354.42,87.00,1.115550,82.91,1
258576,1,30784,1,46653,47577,46298.29,47480.20,354.71,96.80,1.117016,82.88,1
258617,1,30825,1,46652,47582,46299.00,47480.40,353.00,101.60,1.118510,82.86,1
258657,1,30865,1,46655,47606,46299.71,47480.65,355.29,125.35,1.120026,82.83,1
258697,1,30905,1,46656,47562,46300.43,47480.82,355.57,81.18,1.121572,82.80,1
258737,1,30945,1,46608,47422,46301.04,47480.70,306.96,-58.70,1.123141,82.78,1
258777,1,30985,1,46529,47307,46301.50,47480.35,227.50,-173.35,1.124697,82.75,1
258817,1,31025,1,46502,47295,46301.90,47479.98,200.10,-184.98,1.126233,82.72,1
258857,1,31065,1,46518,47331,46302.34,47479.68,215.66,-148.68,1.127761,82.70,1
258897,1,31105,1,46540,47346,46302.81,47479.42,237.19,-133.42,1.129289,82.67,1
258937,1,31145,1,46538,47367,46303.29,47479.20,234.71,-112.20,1.130818,82.64,1
258977,1,31185,1,46557,47389,46303.79,47479.02,253.21,-90.02,1.132357,82.61,1
259017,1,31225,1,46559,47398,46304.30,47478.86,254.70,-80.86,1.133907,82.58,1
259057,1,31265,1,46561,47394,46304.82,47478.69,256.18,-84.69,1.135468,82.55,1
259098,1,31306,1,46557,47399,46305.32,47478.53,251.68,-79.53,1.137039,82.52,1
259138,1,31346,1,46561,47423,46305.84,47478.42,255.16,-55.42,1.138624,82.50,1
259178,1,31386,1,46576,47461,46306.38,47478.39,269.62,-17.39,1.140228,82.47,1
259218,1,31426,1,46597,47493,46306.96,47478.42,290.04,14.58,1.141855,82.43,1
259258,1,31466,1,46609,47525,46307.57,47478.51,301.43,46.49,1.143506,82.40,1
259298,1,31506,1,46621,47547,46308.20,47478.65,312.80,68.35,1.145179,82.37,1
259338,1,31546,1,46633,47543,46308.85,47478.78,324.15,64.22,1.146879,82.34,1
259378,1,31586,1,46635,47557,46309.50,47478.93,325.50,78.07,1.148604,82.31,1
259418,1,31626,1,46632,47555,46310.14,47479.09,321.86,75.91,1.150353,82.28,1
259458,1,31666,1,46636,47569,46310.80,47479.27,325.20,89.73,1.152124,82.25,1
259498,1,31706,1,46636,47568,46311.45,47479.45,324.55,88.55,1.153918,82.21,1
259538,1,31746,1,46632,47576,46312.09,47479.64,319.91,96.36,1.155732,82.18,1
259579,1,31787,1,46638,47590,46312.74,47479.86,325.26,110.14,1.157564,82.15,1
259619,1,31827,1,46640,47610,46313.40,47480.12,326.60,129.87,1.159410,82.11,1
259659,1,31867,1,46645,47609,46314.06,47480.38,330.94,128.62,1.161271,82.08,1
259699,1,31907,1,46630,47520,46314.70,47480.46,315.30,39.54,1.163158,82.04,1
259739,1,31947,1,46557,47372,46315.18,47480.25,241.82,-108.25,1.165047,82.01,1
259779,1,31987,1,46502,47309,46315.55,47479.91,186.45,-170.91,1.166911,81.97,1
259819,1,32027,1,46504,47331,46315.93,47479.61,188.07,-148.61,1.168759,81.94,1
259859,1,32067,1,46520,47367,46316.34,47479.39,203.66,-112.39,1.170603,81.90,1
259899,1,32107,1,46531,47393,46316.77,47479.22,214.23,-86.22,1.172449,81.86,1
259939,1,32147,1,46544,47426,46317.23,47479.11,226.77,-53.11,1.174305,81.83,1
259979,1,32187,1,46558,47438,46317.71,47479.03,240.29,-41.03,1.176173,81.79,1
260019,1,32227,1,46557,47446,46318.20,47478.96,238.80,-32.96,1.178055,81.75,1
260060,1,32268,1,46554,47441,46318.67,47478.89,235.33,-37.89,1.179948,81.72,1
260100,1,32308,1,46552,47458,46319.14,47478.85,232.86,-20.85,1.181855,81.68,1
260140,1,32348,1,46566,47488,46319.63,47478.87,246.37,9.13,1.183778,81.64,1
260180,1,32388,1,46585,47526,46320.16,47478.96,264.84,47.04,1.185718,81.60,1
260220,1,32428,1,46604,47554,46320.73,47479.12,283.27,74.88,1.187675,81.56,1
260260,1,32468,1,46619,47574,46321.33,47479.31,297.67,94.69,1.189647,81.52,1
260300,1,32508,1,46628,47589,46321.95,47479.53,306.05,109.47,1.191633,81.48,1
260340,1,32548,1,46628,47592,46322.56,47479.75,305.44,112.25,1.193633,81.44,1
260380,1,32588,1,46629,47605,46323.17,47480.00,305.83,125.00,1.195641,81.40,1
260420,1,32628,1,46639,47611,46323.80,47480.27,315.20,130.73,1.197659,81.36,1
260460,1,32668,1,46633,47623,46324.43,47480.55,308.57,142.45,1.199681,81.32,1
260500,1,32708,1,46642,47639,46325.06,47480.87,316.94,158.13,1.201704,81.28,1
260541,1,32749,1,46640,47646,46325.70,47481.20,314.30,164.80,1.203723,81.24,1
260581,1,32789,1,46646,47683,46326.34,47481.61,319.66,201.39,1.205724,81.20,1
260621,1,32829,1,46657,47675,46327.00,47481.99,330.00,193.01,1.207713,81.16,1
260661,1,32869,1,46629,47565,46327.61,47482.16,301.39,82.84,1.209721,81.12,1
260701,1,32909,1,46557,47436,46328.07,47482.07,228.93,-46.07,1.211739,81.07,1
260741,1,32949,1,46511,47380,46328.43,47481.87,182.57,-101.87,1.213750,81.03,1
260781,1,32989,1,46511,47407,46328.80,47481.72,182.20,-74.72,1.215761,80.99,1
260821,1,33029,1,46524,47432,46329.19,47481.62,194.81,-49.62,1.217776,80.95,1
260861,1,33069,1,46534,47443,46329.60,47481.55,204.40,-38.55,1.219799,80.90,1
260901,1,33109,1,46540,47475,46330.02,47481.54,209.98,-6.54,1.221833,80.86,1
260941,1,33149,1,46551,47483,46330.46,47481.54,220.54,1.46,1.223878,80.81,1
260982,1,33190,1,46549,47476,46330.90,47481.53,218.10,-5.53,1.225935,80.77,1
261022,1,33230,1,46541,47482,46331.32,47481.53,209.68,0.47,1.228003,80.73,1
261062,1,33270,1,46541,47497,46331.75,47481.56,209.25,15.44,1.230081,80.68,1
261102,1,33310,1,46557,47533,46332.20,47481.67,224.80,51.33,1.232169,80.64,1
261142,1,33350,1,46575,47570,46332.69,47481.85,242.31,88.15,1.234262,80.59,1
261182,1,33390,1,46590,47602,46333.20,47482.09,256.80,119.91,1.236355,80.55,1
261222,1,33430,1,46606,47620,46333.75,47482.37,272.25,137.63,1.238445,80.50,1
261262,1,33470,1,46610,47634,46334.30,47482.67,275.70,151.33,1.240526,80.46,1
261302,1,33510,1,46616,47640,46334.87,47482.99,281.13,157.01,1.242597,80.41,1
261342,1,33550,1,46619,47651,46335.44,47483.32,283.56,167.68,1.244655,80.37,1
261382,1,33590,1,46622,47659,46336.02,47483.68,285.98,175.32,1.246696,80.32,1
261422,1,33630,1,46619,47664,46336.58,47484.04,282.42,179.96,1.248717,80.27,1
261463,1,33671,1,46624,47684,46337.16,47484.44,286.84,199.56,1.250711,80.23,1
261503,1,33711,1,46622,47702,46337.73,47484.88,284.27,217.12,1.252666,80.18,1
261543,1,33751,1,46634,47721,46338.32,47485.35,295.68,235.65,1.254577,80.13,1
261583,1,33791,1,46625,47655,46338.89,47485.69,286.11,169.31,1.256476,80.09,1
261623,1,33831,1,46562,47515,46339.34,47485.75,222.66,29.25,1.258387,80.04,1
261663,1,33871,1,46505,47438,46339.68,47485.66,165.32,-47.66,1.260300,80.00,1
261703,1,33911,1,46497,47451,46339.99,47485.59,157.01,-34.59,1.262215,79.95,1
261743,1,33951,1,46503,47480,46340.32,47485.58,162.68,-5.58,1.264134,79.90,1
261783,1,33991,1,46515,47494,46340.67,47485.60,174.33,8.40,1.266059,79.86,1
261823,1,34031,1,46520,47517,46341.03,47485.66,178.97,31.34,1.267990,79.81,1
261863,1,34071,1,46527,47535,46341.41,47485.76,185.59,49.24,1.269925,79.76,1
261904,1,34112,1,46530,47528,46341.79,47485.85,188.21,42.15,1.271867,79.72,1
261944,1,34152,1,46523,47531,46342.15,47485.94,180.85,45.06,1.273812,79.67,1
261984,1,34192,1,46521,47549,46342.51,47486.07,178.49,62.93,1.275759,79.62,1
262024,1,34232,1,46534,47582,46342.89,47486.26,191.11,95.74,1.277702,79.57,1
262064,1,34272,1,46543,47616,46343.29,47486.52,199.71,129.48,1.279632,79.53,1
262104,1,34312,1,46561,47646,46343.73,47486.84,217.27,159.16,1.281538,79.48,1
262144,1,34352,1,46575,47666,46344.20,47487.20,230.80,178.80,1.283415,79.43,1
262184,1,34392,1,46582,47680,46344.67,47487.59,237.33,192.41,1.285257,79.39,1
262224,1,34432,1,46582,47691,46345.15,47487.99,236.85,203.01,1.287059,79.34,1
262264,1,34472,1,46585,47696,46345.63,47488.41,239.37,207.59,1.288820,79.29,1
262304,1,34512,1,46579,47701,46346.10,47488.84,232.90,212.16,1.290537,79.25,1
262344,1,34552,1,46579,47707,46346.57,47489.27,232.43,217.73,1.292208,79.20,1
262385,1,34593,1,46575,47717,46347.02,47489.73,227.98,227.27,1.293828,79.15,1
262425,1,34633,1,46576,47746,46347.48,47490.25,228.52,255.75,1.295381,79.11,1
262465,1,34673,1,46586,47761,46347.96,47490.79,238.04,270.21,1.296864,79.06,1
262505,1,34713,1,46579,47725,46348.43,47491.26,230.57,233.74,1.298298,79.02,1
262545,1,34753,1,46537,47605,46348.80,47491.49,188.20,113.51,1.299726,78.97,1
262585,1,34793,1,46474,47511,46349.05,47491.53,124.95,19.47,1.301156,78.93,1
262625,1,34833,1,46456,47514,46349.27,47491.57,106.73,22.43,1.302586,78.88,1
262665,1,34873,1,46466,47540,46349.50,47491.67,116.50,48.33,1.304014,78.84,1
262705,1,34913,1,46472,47547,46349.75,47491.79,122.25,55.21,1.305440,78.79,1
262745,1,34953,1,46473,47560,46350.00,47491.92,123.00,68.08,1.306862,78.75,1
262785,1,34993,1,46480,47584,46350.26,47492.11,129.74,91.89,1.308276,78.70,1
262826,1,35034,1,46480,47577,46350.52,47492.28,129.48,84.72,1.309684,78.66,1
262866,1,35074,1,46472,47580,46350.77,47492.45,121.23,87.55,1.311084,78.62,1
262906,1,35114,1,46471,47583,46351.01,47492.64,119.99,90.36,1.312476,78.58,1
262946,1,35154,1,46477,47610,46351.26,47492.87,125.74,117.13,1.313853,78.53,1
262986,1,35194,1,46485,47646,46351.53,47493.18,133.47,152.82,1.315204,78.49,1
263026,1,35234,1,46502,47671,46351.83,47493.54,150.17,177.46,1.316521,78.45,1
263066,1,35274,1,46519,47687,46352.17,47493.92,166.83,193.08,1.317800,78.41,1
263106,1,35314,1,46522,47703,46352.51,47494.34,169.49,208.66,1.319035,78.37,1
263146,1,35354,1,46523,47707,46352.85,47494.77,170.15,212.23,1.320224,78.32,1
263186,1,35394,1,46526,47721,46353.20,47495.22,172.80,225.78,1.321363,78.28,1
263226,1,35434,1,46524,47721,46353.54,47495.67,170.46,225.33,1.322452,78.24,1
263266,1,35474,1,46521,47728,46353.88,47496.14,167.12,231.86,1.323490,78.20,1
263307,1,35515,1,46526,47737,46354.22,47496.62,171.78,240.38,1.324474,78.16,1
263347,1,35555,1,46528,47754,46354.57,47497.14,173.43,256.86,1.325397,78.12,1
263387,1,35595,1,46528,47772,46354.92,47497.69,173.08,274.31,1.326253,78.09,1
263427,1,35635,1,46530,47731,46355.27,47498.16,174.73,232.84,1.327064,78.05,1
263467,1,35675,1,46478,47618,46355.52,47498.40,122.48,119.60,1.327865,78.01,1
263507,1,35715,1,46431,47542,46355.67,47498.49,75.33,43.51,1.328664,77.97,1
263547,1,35755,1,46414,47527,46355.79,47498.55,58.21,28.45,1.329461,77.94,1
263587,1,35795,1,46421,47559,46355.92,47498.67,65.08,60.33,1.330254,77.90,1
263627,1,35835,1,46432,47553,46356.07,47498.78,75.93,54.22,1.331044,77.87,1
263667,1,35875,1,46433,47575,46356.23,47498.93,76.77,76.07,1.331829,77.83,1
263707,1,35915,1,46441,47590,46356.40,47499.11,84.60,90.89,1.332605,77.80,1
263748,1,35956,1,46442,47580,46356.57,47499.28,85.43,80.72,1.333375,77.76,1
263788,1,35996,1,46429,47592,46356.71,47499.46,72.29,92.54,1.334137,77.73,1
263828,1,36036,1,46433,47591,46356.87,47499.65,76.13,91.35,1.334889,77.70,1
263868,1,36076,1,46442,47630,46357.04,47499.91,84.96,130.09,1.335625,77.66,1
263908,1,36116,1,46457,47662,46357.24,47500.23,99.76,161.77,1.336336,77.63,1
263948,1,36156,1,46473,47679,46357.47,47500.59,115.53,178.41,1.337017,77.60,1
263988,1,36196,1,46480,47703,46357.72,47501.00,122.28,202.00,1.337661,77.57,1
264028,1,36236,1,46483,47709,46357.97,47501.42,125.03,207.58,1.338266,77.54,1
264068,1,36276,1,46490,47717,46358.23,47501.85,131.77,215.15,1.338831,77.51,1
264108,1,36316,1,46486,47721,46358.49,47502.29,127.51,218.71,1.339355,77.48,1
264148,1,36356,1,46485,47729,46358.75,47502.75,126.25,226.25,1.339835,77.45,1
264189,1,36397,1,46480,47744,46358.99,47503.23,121.01,240.77,1.340266,77.42,1
264229,1,36437,1,46484,47756,46359.24,47503.74,124.76,252.26,1.340645,77.39,1
264269,1,36477,1,46488,47773,46359.50,47504.28,128.50,268.72,1.340965,77.36,1
264309,1,36517,1,46497,47787,46359.77,47504.84,137.23,282.16,1.341225,77.34,1
264349,1,36557,1,46485,47724,46360.02,47505.29,124.98,218.71,1.341451,77.31,1
264389,1,36597,1,46438,47615,46360.18,47505.50,77.82,109.50,1.341669,77.29,1
264429,1,36637,1,46391,47569,46360.24,47505.63,30.76,63.37,1.341883,77.26,1
264469,1,36677,1,46384,47569,46360.29,47505.76,23.71,63.24,1.342094,77.24,1
264509,1,36717,1,46392,47586,46360.36,47505.92,31.64,80.08,1.342299,77.21,1
264549,1,36757,1,46388,47585,46360.41,47506.08,27.59,78.92,1.342499,77.19,1
264589,1,36797,1,46394,47602,46360.48,47506.27,33.52,95.73,1.342690,77.17,1
264630,1,36838,1,46401,47617,46360.56,47506.50,40.44,110.50,1.342871,77.14,1
264670,1,36878,1,46396,47614,46360.63,47506.71,35.37,107.29,1.343043,77.12,1
264710,1,36918,1,46397,47630,46360.71,47506.96,36.29,123.04,1.343201,77.10,1
264750,1,36958,1,46404,47647,46360.79,47507.24,43.21,139.76,1.343343,77.08,1
264790,1,36998,1,46418,47670,46360.91,47507.57,57.09,162.43,1.343464,77.06,1
264830,1,37038,1,46429,47694,46361.05,47507.94,67.95,186.06,1.343556,77.04,1
264870,1,37078,1,46436,47710,46361.20,47508.35,74.80,201.65,1.343617,77.02,1
264910,1,37118,1,46437,47726,46361.35,47508.79,75.65,217.21,1.343642,77.00,1
264950,1,37158,1,46442,47728,46361.52,47509.23,80.48,218.77,1.343630,76.99,1
264990,1,37198,1,46436,47740,46361.66,47509.69,74.34,230.31,1.343579,76.97,1
265031,1,37239,1,46441,47745,46361.82,47510.16,79.18,234.84,1.343488,76.95,1
265071,1,37279,1,46438,47759,46361.98,47510.66,76.02,248.34,1.343352,76.94,1
265111,1,37319,1,46444,47774,46362.14,47511.19,81.86,262.81,1.343169,76.92,1
265151,1,37359,1,46446,47796,46362.31,47511.76,83.69,284.24,1.342932,76.91,1
265191,1,37399,1,46455,47818,46362.50,47512.37,92.50,305.63,1.342635,76.89,1
265231,1,37439,1,46462,47820,46362.70,47512.99,99.30,307.01,1.342281,76.88,1
265271,1,37479,1,46447,47742,46362.86,47513.45,84.14,228.55,1.341897,76.87,1
265311,1,37519,1,46396,47655,46362.93,47513.73,33.07,141.27,1.341502,76.85,1
265351,1,37559,1,46362,47617,46362.93,47513.94,-0.93,103.06,1.341102,76.84,1
265391,1,37599,1,46361,47630,46362.93,47514.18,-1.93,115.82,1.340694,76.83,1
265431,1,37639,1,46367,47645,46362.93,47514.44,4.07,130.56,1.340276,76.82,1
265471,1,37679,1,46367,47637,46362.94,47514.68,4.06,122.32,1.339850,76.81,1
265512,1,37720,1,46369,47659,46362.95,47514.97,6.05,144.03,1.339412,76.80,1
265552,1,37760,1,46374,47669,46362.98,47515.28,11.02,153.72,1.338959,76.79,1
265592,1,37800,1,46376,47671,46363.00,47515.59,13.00,155.41,1.338493,76.79,1
265632,1,37840,1,46374,47685,46363.03,47515.93,10.97,169.07,1.338010,76.78,1
265672,1,37880,1,46380,47693,46363.06,47516.29,16.94,176.71,1.337509,76.77,1
265712,1,37920,1,46395,47724,46363.13,47516.71,31.87,207.29,1.336982,76.77,1
265752,1,37960,1,46404,47739,46363.21,47517.15,40.79,221.85,1.336427,76.76,1
265792,1,38000,1,46407,47755,46363.30,47517.63,43.70,237.37,1.335841,76.76,1
265832,1,38040,1,46410,47765,46363.39,47518.12,46.61,246.87,1.335221,76.75,1
265872,1,38080,1,46414,47777,46363.50,47518.64,50.50,258.36,1.334565,76.75,1
265913,1,38121,1,46415,47783,46363.60,47519.18,51.40,263.82,1.333872,76.75,1
265953,1,38161,1,46412,47801,46363.70,47519.74,48.30,281.26,1.333139,76.74,1
265993,1,38201,1,46417,47804,46363.81,47520.31,53.19,283.69,1.332366,76.74,1
266033,1,38241,1,46419,47818,46363.92,47520.91,55.08,297.09,1.331551,76.74,1
266073,1,38281,1,46421,47838,46364.04,47521.55,56.96,316.45,1.330689,76.74,1
266113,1,38321,1,46434,47858,46364.18,47522.22,69.82,335.78,1.329778,76.74,1
266153,1,38361,1,46436,47845,46364.32,47522.87,71.68,322.13,1.328824,76.74,1
266193,1,38401,1,46420,47778,46364.44,47523.38,55.56,254.62,1.327844,76.75,1
266233,1,38441,1,46370,47688,46364.45,47523.71,5.55,164.29,1.326855,76.75,1
266273,1,38481,1,46339,47656,46364.40,47523.98,-25.40,132.02,1.325862,76.75,1
266313,1,38521,1,46335,47672,46364.34,47524.28,-29.34,147.72,1.324862,76.75,1
266353,1,38561,1,46340,47670,46364.29,47524.57,-24.29,145.43,1.323856,76.76,1
266394,1,38602,1,46339,47671,46364.24,47524.86,-25.24,146.14,1.322844,76.76,1
266434,1,38642,1,46340,47691,46364.20,47525.20,-24.20,165.80,1.321823,76.77,1
266474,1,38682,1,46344,47695,46364.16,47525.54,-20.16,169.46,1.320792,76.78,1
266514,1,38722,1,46348,47700,46364.12,47525.89,-16.12,174.11,1.319751,76.78,1
266554,1,38762,1,46349,47708,46364.10,47526.25,-15.10,181.75,1.318699,76.79,1
266594,1,38802,1,46357,47720,46364.09,47526.64,-7.09,193.36,1.317633,76.80,1
266634,1,38842,1,46371,47739,46364.10,47527.07,6.90,211.93,1.316551,76.81,1
266674,1,38882,1,46374,47765,46364.12,47527.55,9.88,237.45,1.315448,76.82,1
266714,1,38922,1,46383,47771,46364.16,47528.04,18.84,242.96,1.314323,76.83,1
266754,1,38962,1,46385,47786,46364.20,47528.55,20.80,257.45,1.313174,76.84,1
266794,1,39002,1,46386,47785,46364.25,47529.07,21.75,255.93,1.312002,76.85,1
266834,1,39042,1,46384,47795,46364.29,47529.60,19.71,265.40,1.310805,76.86,1
266875,1,39083,1,46385,47798,46364.33,47530.14,20.67,267.86,1.309584,76.87,1
266915,1,39123,1,46378,47819,46364.36,47530.71,13.64,288.29,1.308335,76.88,1
266955,1,39163,1,46390,47832,46364.41,47531.32,25.59,300.68,1.307055,76.90,1
266995,1,39203,1,46391,47844,46364.46,47531.95,26.54,312.05,1.305745,76.91,1
267035,1,39243,1,46401,47874,46364.54,47532.63,36.46,341.37,1.304399,76.92,1
267075,1,39283,1,46414,47866,46364.64,47533.30,49.36,332.70,1.303020,76.94,1
267115,1,39323,1,46395,47825,46364.70,47533.88,30.30,291.12,1.301617,76.96,1
267155,1,39363,1,46362,47739,46364.70,47534.29,-2.70,204.71,1.300205,76.97,1
267195,1,39403,1,46323,47680,46364.61,47534.59,-41.61,145.41,1.298792,76.99,1
267235,1,39443,1,46312,47684,46364.51,47534.89,-52.51,149.11,1.297377,77.01,1
267275,1,39483,1,46315,47685,46364.41,47535.19,-49.41,149.81,1.295960,77.02,1
267316,1,39524,1,46322,47688,46364.33,47535.50,-42.33,152.50,1.294541,77.04,1
267356,1,39564,1,46319,47695,46364.24,47535.82,-45.24,159.18,1.293118,77.06,1
267396,1,39604,1,46320,47710,46364.15,47536.16,-44.15,173.84,1.291692,77.08,1
267436,1,39644,1,46328,47709,46364.08,47536.51,-36.08,172.49,1.290260,77.10,1
267476,1,39684,1,46325,47722,46364.00,47536.88,-39.00,185.12,1.288823,77.12,1
267516,1,39724,1,46335,47736,46363.95,47537.28,-28.95,198.72,1.287377,77.14,1
267556,1,39764,1,46348,47749,46363.91,47537.71,-15.91,211.29,1.285921,77.16,1
267596,1,39804,1,46353,47777,46363.89,47538.19,-10.89,238.81,1.284452,77.18,1
267636,1,39844,1,46363,47785,46363.89,47538.68,-0.89,246.32,1.282969,77.21,1
267676,1,39884,1,46364,47798,46363.89,47539.20,0.11,258.80,1.281469,77.23,1
267716,1,39924,1,46364,47802,46363.89,47539.73,0.11,262.27,1.279952,77.25,1
267756,1,39964,1,46367,47812,46363.90,47540.28,3.10,271.72,1.278418,77.28,1
267797,1,40005,1,46365,47815,46363.91,47540.83,1.09,274.17,1.276867,77.30,1
267837,1,40045,1,46364,47833,46363.91,47541.41,0.09,291.59,1.275296,77.32,1
267877,1,40085,1,46368,47845,46363.91,47542.02,4.09,302.98,1.273704,77.35,1
267917,1,40125,1,46375,47866,46363.94,47542.67,11.06,323.33,1.272088,77.38,1
267957,1,40165,1,46377,47886,46363.96,47543.36,13.04,342.64,1.270446,77.40,1
267997,1,40205,1,46389,47895,46364.02,47544.06,24.98,350.94,1.268777,77.43,1
268037,1,40245,1,46391,47864,46364.07,47544.70,26.93,319.30,1.267089,77.45,1
268077,1,40285,1,46353,47790,46364.05,47545.20,-11.05,244.80,1.265391,77.48,1
268117,1,40325,1,46318,47733,46363.96,47545.57,-45.96,187.43,1.263691,77.51,1
268157,1,40365,1,46296,47718,46363.83,47545.92,-67.83,172.08,1.261991,77.54,1
268197,1,40405,1,46304,47735,46363.71,47546.30,-59.71,188.70,1.260290,77.57,1
268238,1,40446,1,46311,47732,46363.61,47546.67,-52.61,185.33,1.258586,77.60,1
268278,1,40486,1,46306,47740,46363.49,47547.05,-57.49,192.95,1.256881,77.62,1
268318,1,40526,1,46319,47768,46363.41,47547.50,-44.41,220.50,1.255170,77.65,1
268358,1,40566,1,46322,47762,46363.32,47547.93,-41.32,214.07,1.253454,77.69,1
268398,1,40606,1,46318,47775,46363.23,47548.38,-45.23,226.62,1.251733,77.72,1
268438,1,40646,1,46329,47783,46363.17,47548.85,-34.17,234.15,1.250004,77.75,1
268478,1,40686,1,46336,47799,46363.11,47549.35,-27.11,249.65,1.248266,77.78,1
268518,1,40726,1,46346,47818,46363.08,47549.89,-17.08,268.11,1.246517,77.81,1
268558,1,40766,1,46351,47832,46363.06,47550.46,-12.06,281.54,1.244755,77.84,1
268598,1,40806,1,46366,47846,46363.07,47551.05,2.93,294.95,1.242979,77.87,1
268638,1,40846,1,46365,47851,46363.07,47551.65,1.93,299.35,1.241189,77.91,1
268678,1,40886,1,46361,47858,46363.07,47552.27,-2.07,305.73,1.239385,77.94,1
268719,1,40927,1,46360,47859,46363.06,47552.88,-3.06,306.12,1.237566,77.97,1
268759,1,40967,1,46356,47869,46363.05,47553.51,-7.05,315.49,1.235732,78.01,1
268799,1,41007,1,46358,47877,46363.04,47554.16,-5.04,322.84,1.233882,78.04,1
268839,1,41047,1,46368,47893,46363.05,47554.84,4.95,338.16,1.232016,78.08,1
268879,1,41087,1,46367,47906,46363.06,47555.54,3.94,350.46,1.230132,78.11,1
268919,1,41127,1,46380,47914,46363.10,47556.26,16.90,357.74,1.228231,78.15,1
268959,1,41167,1,46374,47890,46363.12,47556.93,10.88,333.07,1.226315,78.18,1
268999,1,41207,1,46351,47822,46363.10,47557.46,-12.10,264.54,1.224393,78.22,1
269039,1,41247,1,46308,47746,46362.99,47557.84,-54.99,188.16,1.222471,78.26,1
269079,1,41287,1,46289,47742,46362.84,47558.21,-73.84,183.79,1.220553,78.29,1
269119,1,41327,1,46298,47758,46362.71,47558.61,-64.71,199.39,1.218636,78.33,1
269159,1,41367,1,46302,47767,46362.59,47559.03,-60.59,207.97,1.216718,78.37,1
269200,1,41408,1,46309,47789,46362.48,47559.49,-53.48,229.51,1.214799,78.41,1
269240,1,41448,1,46317,47803,46362.39,47559.98,-45.39,243.02,1.212877,78.44,1
269280,1,41488,1,46322,47806,46362.32,47560.47,-40.32,245.53,1.210950,78.48,1
269320,1,41528,1,46329,47808,46362.25,47560.97,-33.25,247.03,1.209020,78.52,1
269360,1,41568,1,46322,47812,46362.17,47561.47,-40.17,250.53,1.207086,78.56,1
269400,1,41608,1,46337,47821,46362.12,47561.99,-25.12,259.01,1.205146,78.60,1
269440,1,41648,1,46336,47831,46362.07,47562.53,-26.07,268.47,1.203201,78.64,1
269480,1,41688,1,46340,47844,46362.03,47563.09,-22.03,280.91,1.201249,78.68,1
269520,1,41728,1,46347,47833,46362.00,47563.64,-15.00,269.36,1.199291,78.72,1
269560,1,41768,1,46333,47835,46361.94,47564.18,-28.94,270.82,1.197327,78.76,1
269600,1,41808,1,46333,47838,46361.88,47564.73,-28.88,273.27,1.195359,78.80,1
269641,1,41849,1,46336,47854,46361.83,47565.31,-25.83,288.69,1.193383,78.84,1
269681,1,41889,1,46345,47872,46361.80,47565.92,-16.80,306.08,1.191399,78.88,1
269721,1,41929,1,46343,47890,46361.77,47566.57,-18.77,323.43,1.189404,78.92,1
269761,1,41969,1,46358,47919,46361.76,47567.28,-3.76,351.72,1.187398,78.97,1
269801,1,42009,1,46368,47936,46361.77,47568.02,6.23,367.98,1.185378,79.01,1
269841,1,42049,1,46375,47954,46361.80,47568.79,13.20,385.21,1.183344,79.05,1
269881,1,42089,1,46386,47948,46361.85,47569.55,24.15,378.45,1.181296,79.09,1
269921,1,42129,1,46361,47886,46361.85,47570.18,-0.85,315.82,1.179241,79.14,1
269961,1,42169,1,46327,47816,46361.78,47570.67,-34.78,245.33,1.177185,79.18,1
270001,1,42209,1,46300,47773,46361.66,47571.08,-61.66,201.92,1.175132,79.22,1
270041,1,42249,1,46287,47772,46361.51,47571.48,-74.51,200.52,1.173083,79.27,1
270081,1,42289,1,46293,47782,46361.37,47571.90,-68.37,210.10,1.171037,79.31,1
270122,1,42330,1,46296,47790,46361.25,47572.34,-65.25,217.66,1.168994,79.35,1
270162,1,42370,1,46295,47802,46361.11,47572.80,-66.11,229.20,1.166952,79.40,1
270202,1,42410,1,46309,47821,46361.01,47573.30,-52.01,247.70,1.164910,79.44,1
270242,1,42450,1,46306,47811,46360.90,47573.77,-54.90,237.23,1.162868,79.49,1
270282,1,42490,1,46306,47822,46360.79,47574.27,-54.79,247.73,1.160827,79.53,1
270322,1,42530,1,46320,47823,46360.71,47574.77,-40.71,248.23,1.158785,79.58,1
270362,1,42570,1,46321,47835,46360.63,47575.29,-39.63,259.71,1.156740,79.62,1
270402,1,42610,1,46332,47853,46360.58,47575.85,-28.58,277.15,1.154693,79.67,1
270442,1,42650,1,46332,47849,46360.52,47576.39,-28.52,272.61,1.152643,79.71,1
270482,1,42690,1,46332,47854,46360.47,47576.95,-28.47,277.05,1.150590,79.76,1
270522,1,42730,1,46330,47853,46360.41,47577.50,-30.41,275.50,1.148535,79.80,1
270563,1,42771,1,46325,47860,46360.34,47578.07,-35.34,281.93,1.146477,79.85,1
270603,1,42811,1,46326,47867,46360.27,47578.65,-34.27,288.35,1.144415,79.90,1
270643,1,42851,1,46327,47876,46360.21,47579.25,-33.21,296.75,1.142350,79.94,1
270683,1,42891,1,46329,47887,46360.14,47579.86,-31.14,307.14,1.140280,79.99,1
270723,1,42931,1,46332,47900,46360.09,47580.50,-28.09,319.50,1.138206,80.04,1
270763,1,42971,1,46339,47906,46360.05,47581.16,-21.05,324.84,1.136126,80.08,1
270803,1,43011,1,46340,47884,46360.01,47581.76,-20.01,302.24,1.134042,80.13,1
270843,1,43051,1,46316,47833,46359.93,47582.27,-43.93,250.73,1.131958,80.18,1
270883,1,43091,1,46284,47756,46359.77,47582.61,-75.77,173.39,1.129881,80.22,1
270923,1,43131,1,46259,47729,46359.57,47582.91,-100.57,146.09,1.127813,80.27,1
270963,1,43171,1,46256,47744,46359.37,47583.23,-103.37,160.77,1.125756,80.32,1
271003,1,43211,1,46262,47735,46359.17,47583.54,-97.17,151.46,1.123708,80.37,1
271044,1,43252,1,46255,47738,46358.96,47583.84,-103.96,154.16,1.121670,80.41,1
271084,1,43292,1,46262,47762,46358.77,47584.20,-96.77,177.80,1.119641,80.46,1
271124,1,43332,1,46268,47764,46358.59,47584.56,-90.59,179.44,1.117618,80.51,1
271164,1,43372,1,46273,47770,46358.42,47584.93,-85.42,185.07,1.115603,80.56,1
271204,1,43412,1,46279,47793,46358.27,47585.35,-79.27,207.65,1.113592,80.61,1
271244,1,43452,1,46292,47805,46358.13,47585.79,-66.13,219.21,1.111585,80.65,1
271284,1,43492,1,46307,47829,46358.03,47586.28,-51.03,242.72,1.109578,80.70,1
271324,1,43532,1,46317,47850,46357.95,47586.81,-40.95,263.19,1.107570,80.75,1
271364,1,43572,1,46319,47857,46357.87,47587.35,-38.87,269.65,1.105561,80.80,1
271404,1,43612,1,46327,47873,46357.81,47587.93,-30.81,285.07,1.103549,80.85,1
271444,1,43652,1,46329,47868,46357.76,47588.49,-28.76,279.51,1.101535,80.90,1
271484,1,43692,1,46330,47876,46357.70,47589.07,-27.70,286.93,1.099518,80.94,1
271525,1,43733,1,46328,47881,46357.64,47589.65,-29.64,291.35,1.097498,80.99,1
271565,1,43773,1,46322,47887,46357.57,47590.25,-35.57,296.75,1.095475,81.04,1
271605,1,43813,1,46327,47896,46357.52,47590.86,-30.52,305.14,1.093449,81.09,1
271645,1,43853,1,46332,47907,46357.46,47591.50,-25.46,315.50,1.091419,81.14,1
271685,1,43893,1,46331,47906,46357.41,47592.12,-26.41,313.87,1.089385,81.19,1
271725,1,43933,1,46325,47850,46357.35,47592.64,-32.35,257.36,1.087351,81.24,1
271765,1,43973,1,46292,47779,46357.22,47593.02,-65.22,185.98,1.085322,81.29,1
271805,1,44013,1,46264,47755,46357.04,47593.34,-93.04,161.66,1.083302,81.33,1
271845,1,44053,1,46266,47767,46356.86,47593.69,-90.86,173.31,1.081291,81.38,1
271885,1,44093,1,46275,47764,46356.70,47594.03,-81.70,169.97,1.079287,81.43,1
271925,1,44133,1,46272,47771,46356.53,47594.39,-84.53,176.61,1.077290,81.48,1
271965,1,44173,1,46281,47779,46356.38,47594.76,-75.38,184.24,1.075299,81.53,1
272006,1,44214,1,46281,47780,46356.23,47595.13,-75.23,184.87,1.073315,81.58,1
272046,1,44254,1,46282,47790,46356.08,47595.52,-74.08,194.48,1.071336,81.63,1
272086,1,44294,1,46288,47792,46355.95,47595.91,-67.95,196.09,1.069361,81.68,1
272126,1,44334,1,46290,47812,46355.82,47596.35,-65.82,215.65,1.067391,81.73,1
272166,1,44374,1,46307,47833,46355.72,47596.82,-48.72,236.18,1.065422,81.78,1
272206,1,44414,1,46319,47849,46355.65,47597.32,-36.65,251.68,1.063453,81.83,1
272246,1,44454,1,46326,47861,46355.59,47597.85,-29.59,263.15,1.061483,81.87,1
272286,1,44494,1,46333,47874,46355.55,47598.41,-22.55,275.59,1.059511,81.92,1
272326,1,44534,1,46334,47874,46355.50,47598.96,-21.50,275.04,1.057538,81.97,1
272366,1,44574,1,46336,47875,46355.46,47599.51,-19.46,275.49,1.055563,82.02,1
272406,1,44614,1,46333,47888,46355.42,47600.09,-22.42,287.91,1.053585,82.07,1
272447,1,44655,1,46335,47885,46355.38,47600.66,-20.38,284.34,1.051606,82.12,1
272487,1,44695,1,46332,47898,46355.34,47601.26,-23.34,296.74,1.049624,82.17,1
272527,1,44735,1,46337,47913,46355.30,47601.88,-18.30,311.12,1.047638,82.22,1
272567,1,44775,1,46339,47899,46355.27,47602.48,-16.27,296.52,1.045650,82.27,1
272607,1,44815,1,46315,47849,46355.19,47602.97,-40.19,246.03,1.043663,82.32,1
272647,1,44855,1,46288,47782,46355.06,47603.33,-67.06,178.67,1.041682,82.37,1
272687,1,44895,1,46271,47754,46354.89,47603.63,-83.89,150.37,1.039710,82.42,1
272727,1,44935,1,46273,47776,46354.73,47603.98,-81.73,172.02,1.037746,82.46,1
272767,1,44975,1,46283,47765,46354.59,47604.30,-71.59,160.70,1.035789,82.51,1
272807,1,45015,1,46280,47766,46354.44,47604.63,-74.44,161.37,1.033838,82.56,1
272847,1,45055,1,46284,47777,46354.30,47604.98,-70.30,172.02,1.031894,82.61,1
272887,1,45095,1,46282,47767,46354.15,47605.30,-72.15,161.70,1.029958,82.66,1
272928,1,45136,1,46280,47772,46354.00,47605.64,-74.00,166.36,1.028028,82.71,1
272968,1,45176,1,46278,47772,46353.85,47605.97,-75.85,166.03,1.026105,82.76,1
273008,1,45216,1,46280,47794,46353.70,47606.35,-73.70,187.65,1.024188,82.81,1
273048,1,45256,1,46292,47816,46353.58,47606.77,-61.58,209.23,1.022275,82.86,1
273088,1,45296,1,46301,47829,46353.48,47607.21,-52.48,221.79,1.020365,82.91,1
273128,1,45336,1,46314,47841,46353.40,47607.68,-39.40,233.32,1.018456,82.96,1
273168,1,45376,1,46321,47846,46353.34,47608.16,-32.34,237.84,1.016548,83.00,1
273208,1,45416,1,46318,47855,46353.27,47608.66,-35.27,246.34,1.014641,83.05,1
273248,1,45456,1,46324,47858,46353.21,47609.16,-29.21,248.84,1.012733,83.10,1
273288,1,45496,1,46321,47860,46353.14,47609.66,-32.14,250.34,1.010826,83.15,1
273328,1,45536,1,46322,47864,46353.08,47610.17,-31.08,253.83,1.008918,83.20,1
273369,1,45577,1,46317,47871,46353.01,47610.70,-36.01,260.30,1.007011,83.25,1
273409,1,45617,1,46319,47886,46352.95,47611.25,-33.95,274.75,1.005102,83.30,1
273449,1,45657,1,46317,47864,46352.87,47611.75,-35.88,252.25,1.003194,83.35,1
273489,1,45697,1,46294,47813,46352.76,47612.16,-58.76,200.84,1.001291,83.39,1
273529,1,45737,1,46266,47761,46352.59,47612.46,-86.59,148.54,0.999396,83.44,1
273569,1,45777,1,46252,47745,46352.39,47612.72,-100.39,132.28,0.997514,83.49,1
273609,1,45817,1,46270,47770,46352.22,47613.04,-82.22,156.96,0.995640,83.54,1
273649,1,45857,1,46276,47760,46352.07,47613.34,-76.07,146.66,0.993773,83.59,1
273689,1,45897,1,46273,47774,46351.91,47613.66,-78.91,160.34,0.991915,83.64,1
273729,1,45937,1,46281,47774,46351.77,47613.98,-70.77,160.02,0.990063,83.69,1
273769,1,45977,1,46279,47775,46351.63,47614.30,-72.63,160.70,0.988218,83.73,1
273809,1,46017,1,46279,47773,46351.48,47614.62,-72.48,158.37,0.986381,83.78,1
273850,1,46058,1,46280,47775,46351.34,47614.95,-71.34,160.05,0.984550,83.83,1
273890,1,46098,1,46281,47794,46351.20,47615.30,-70.20,178.70,0.982725,83.88,1
273930,1,46138,1,46292,47807,46351.09,47615.69,-59.09,191.31,0.980905,83.93,1
273970,1,46178,1,46300,47830,46350.98,47616.12,-50.98,213.88,0.979087,83.97,1
274010,1,46218,1,46307,47843,46350.90,47616.57,-43.90,226.43,0.977271,84.02,1
274050,1,46258,1,46316,47854,46350.83,47617.05,-34.83,236.95,0.975455,84.07,1
274090,1,46298,1,46324,47864,46350.78,47617.54,-26.78,246.46,0.973639,84.12,1
274130,1,46338,1,46323,47869,46350.72,47618.05,-27.72,250.95,0.971823,84.17,1
274170,1,46378,1,46328,47875,46350.68,47618.56,-22.68,256.44,0.970005,84.21,1
274210,1,46418,1,46329,47878,46350.64,47619.08,-21.64,258.92,0.968187,84.26,1
274250,1,46458,1,46324,47885,46350.59,47619.61,-26.59,265.39,0.966367,84.31,1
274290,1,46498,1,46332,47898,46350.55,47620.17,-18.55,277.83,0.964546,84.35,1
274331,1,46539,1,46326,47885,46350.50,47620.70,-24.50,264.30,0.962723,84.40,1
274371,1,46579,1,46302,47839,46350.41,47621.14,-48.41,217.86,0.960903,84.45,1
274411,1,46619,1,46272,47773,46350.25,47621.45,-78.25,151.55,0.959092,84.50,1
274451,1,46659,1,46251,47772,46350.05,47621.75,-99.05,150.25,0.957291,84.54,1
274491,1,46699,1,46267,47783,46349.89,47622.07,-82.89,160.93,0.955499,84.59,1
274531,1,46739,1,46270,47785,46349.73,47622.40,-79.73,162.60,0.953716,84.64,1
274571,1,46779,1,46274,47784,46349.58,47622.72,-75.58,161.28,0.951939,84.68,1
274611,1,46819,1,46280,47799,46349.44,47623.08,-69.44,175.92,0.950169,84.73,1
274651,1,46859,1,46286,47802,46349.32,47623.44,-63.32,178.56,0.948404,84.78,1
274691,1,46899,1,46277,47799,46349.17,47623.79,-72.17,175.21,0.946646,84.82,1
274731,1,46939,1,46278,47808,46349.03,47624.16,-71.03,183.84,0.944893,84.87,1
274772,1,46980,1,46280,47809,46348.89,47624.53,-68.89,184.47,0.943146,84.92,1
274812,1,47020,1,46283,47832,46348.77,47624.95,-65.77,207.05,0.941404,84.96,1
274852,1,47060,1,46286,47844,46348.64,47625.39,-62.64,218.61,0.939665,85.01,1
274892,1,47100,1,46288,47851,46348.52,47625.84,-60.52,225.16,0.937930,85.06,1
274932,1,47140,1,46297,47880,46348.42,47626.35,-51.42,253.65,0.936194,85.10,1
274972,1,47180,1,46306,47880,46348.34,47626.86,-42.34,253.14,0.934459,85.15,1
275012,1,47220,1,46307,47889,46348.25,47627.38,-41.25,261.62,0.932724,85.20,1
275052,1,47260,1,46312,47891,46348.18,47627.91,-36.18,263.09,0.930988,85.24,1
275092,1,47300,1,46305,47898,46348.10,47628.45,-43.10,269.55,0.929251,85.29,1
275132,1,47340,1,46302,47906,46348.01,47629.01,-46.01,276.99,0.927514,85.33,1
275172,1,47380,1,46305,47911,46347.92,47629.57,-42.92,281.43,0.925775,85.38,1
275212,1,47420,1,46301,47908,46347.83,47630.13,-46.83,277.87,0.924036,85.42,1
275253,1,47461,1,46289,47858,46347.71,47630.59,-58.71,227.41,0.922300,85.47,1
275293,1,47501,1,46248,47806,46347.51,47630.94,-99.51,175.06,0.920575,85.52,1
275333,1,47541,1,46225,47780,46347.27,47631.24,-122.27,148.76,0.918866,85.56,1
275373,1,47581,1,46230,47796,46347.04,47631.57,-117.04,164.43,0.917171,85.61,1
275413,1,47621,1,46236,47808,46346.81,47631.93,-110.81,176.07,0.915489,85.65,1
275453,1,47661,1,46237,47802,46346.59,47632.27,-109.59,169.73,0.913819,85.70,1
275493,1,47701,1,46245,47814,46346.39,47632.63,-101.39,181.37,0.912159,85.74,1
275533,1,47741,1,46242,47808,46346.18,47632.98,-104.18,175.02,0.910510,85.79,1
275573,1,47781,1,46238,47817,46345.97,47633.36,-107.97,183.64,0.908872,85.83,1
275613,1,47821,1,46242,47807,46345.76,47633.70,-103.76,173.30,0.907246,85.88,1
275653,1,47861,1,46230,47814,46345.53,47634.07,-115.53,179.93,0.905632,85.92,1
275693,1,47901,1,46234,47822,46345.31,47634.45,-111.31,187.55,0.904029,85.96,1
275734,1,47942,1,46234,47835,46345.09,47634.85,-111.09,200.15,0.902438,86.01,1
275774,1,47982,1,46238,47850,46344.87,47635.28,-106.87,214.72,0.900855,86.05,1
275814,1,48022,1,46241,47855,46344.66,47635.72,-103.66,219.28,0.899281,86.10,1
275854,1,48062,1,46239,47872,46344.45,47636.19,-105.45,235.81,0.897715,86.14,1
275894,1,48102,1,46246,47884,46344.26,47636.69,-98.26,247.31,0.896155,86.18,1
275934,1,48142,1,46255,47887,46344.08,47637.19,-89.08,249.81,0.894599,86.23,1
275974,1,48182,1,46260,47894,46343.91,47637.70,-83.91,256.30,0.893046,86.27,1
276014,1,48222,1,46255,47907,46343.74,47638.24,-88.74,268.76,0.891496,86.31,1
276054,1,48262,1,46261,47916,46343.57,47638.80,-82.57,277.20,0.889948,86.36,1
276094,1,48302,1,46260,47902,46343.41,47639.33,-83.41,262.67,0.888403,86.40,1
276134,1,48342,1,46234,47850,46343.19,47639.75,-109.19,210.25,0.886867,86.44,1
276175,1,48383,1,46203,47795,46342.91,47640.06,-139.91,154.94,0.885350,86.49,1
276215,1,48423,1,46184,47779,46342.60,47640.34,-158.60,138.66,0.883855,86.53,1
276255,1,48463,1,46188,47794,46342.29,47640.65,-154.29,153.35,0.882381,86.57,1
276295,1,48503,1,46188,47794,46341.98,47640.96,-153.98,153.04,0.880928,86.61,1
276335,1,48543,1,46183,47798,46341.66,47641.27,-158.66,156.73,0.879496,86.65,1
276375,1,48583,1,46194,47812,46341.37,47641.62,-147.37,170.38,0.878082,86.70,1
276415,1,48623,1,46198,47807,46341.09,47641.95,-143.09,165.05,0.876684,86.74,1
276455,1,48663,1,46198,47815,46340.80,47642.30,-142.80,172.70,0.875303,86.78,1
276495,1,48703,1,46197,47815,46340.52,47642.64,-143.52,172.36,0.873939,86.82,1
276535,1,48743,1,46201,47820,46340.24,47643.00,-139.24,177.00,0.872589,86.86,1
276575,1,48783,1,46201,47838,46339.96,47643.39,-138.96,194.61,0.871252,86.90,1
276615,1,48823,1,46203,47838,46339.69,47643.78,-136.69,194.22,0.869929,86.94,1
276656,1,48864,1,46201,47852,46339.41,47644.20,-138.41,207.80,0.868619,86.98,1
276696,1,48904,1,46206,47862,46339.14,47644.64,-133.14,217.36,0.867320,87.02,1
276736,1,48944,1,46206,47870,46338.88,47645.09,-132.88,224.91,0.866031,87.06,1
276776,1,48984,1,46210,47885,46338.62,47645.57,-128.62,239.43,0.864750,87.10,1
276816,1,49024,1,46212,47894,46338.37,47646.07,-126.37,247.93,0.863477,87.14,1
276856,1,49064,1,46218,47898,46338.13,47646.57,-120.13,251.43,0.862210,87.18,1
276896,1,49104,1,46224,47911,46337.90,47647.11,-113.90,263.89,0.860947,87.22,1
276936,1,49144,1,46217,47908,46337.66,47647.63,-120.66,260.37,0.859689,87.26,1
276976,1,49184,1,46205,47873,46337.39,47648.08,-132.39,224.92,0.858440,87.30,1
277016,1,49224,1,46177,47815,46337.07,47648.42,-160.07,166.58,0.857210,87.34,1
277056,1,49264,1,46156,47780,46336.71,47648.68,-180.71,131.32,0.856005,87.37,1
277097,1,49305,1,46147,47783,46336.34,47648.95,-189.34,134.05,0.854827,87.41,1
277137,1,49345,1,46147,47788,46335.96,47649.23,-188.96,138.77,0.853674,87.45,1
277177,1,49385,1,46140,47785,46335.57,47649.51,-195.57,135.49,0.852548,87.49,1
277217,1,49425,1,46147,47803,46335.19,47649.82,-188.19,153.18,0.851447,87.52,1
277257,1,49465,1,46149,47803,46334.82,47650.12,-185.82,152.87,0.850369,87.56,1
277297,1,49505,1,46151,47816,46334.45,47650.46,-183.45,165.54,0.849313,87.59,1
277337,1,49545,1,46160,47811,46334.11,47650.78,-174.11,160.22,0.848276,87.63,1
277377,1,49585,1,46156,47821,46333.75,47651.12,-177.75,169.88,0.847259,87.67,1
277417,1,49625,1,46164,47843,46333.41,47651.51,-169.41,191.49,0.846258,87.70,1
277457,1,49665,1,46171,47847,46333.09,47651.90,-162.09,195.10,0.845271,87.74,1
277497,1,49705,1,46165,47860,46332.75,47652.32,-167.75,207.68,0.844298,87.77,1
277537,1,49745,1,46170,47864,46332.43,47652.74,-162.43,211.26,0.843338,87.81,1
277578,1,49786,1,46165,47864,46332.09,47653.16,-167.09,210.84,0.842391,87.84,1
277618,1,49826,1,46163,47876,46331.76,47653.61,-168.76,222.39,0.841457,87.87,1
277658,1,49866,1,46162,47881,46331.42,47654.07,-169.42,226.93,0.840535,87.91,1
277698,1,49906,1,46163,47896,46331.08,47654.55,-168.08,241.45,0.839624,87.94,1
277738,1,49946,1,46173,47913,46330.77,47655.07,-157.77,257.93,0.838720,87.97,1
277778,1,49986,1,46179,47914,46330.46,47655.59,-151.46,258.41,0.837822,88.01,1
277818,1,50026,1,46175,47895,46330.16,47656.07,-155.16,238.93,0.836931,88.04,1
277858,1,50066,1,46148,47835,46329.79,47656.43,-181.79,178.57,0.836058,88.07,1
277898,1,50106,1,46117,47795,46329.37,47656.71,-212.37,138.29,0.835212,88.10,1
277938,1,50146,1,46109,47785,46328.93,47656.96,-219.93,128.04,0.834396,88.13,1
277978,1,50186,1,46106,47787,46328.48,47657.23,-222.48,129.77,0.833608,88.16,1
278019,1,50227,1,46104,47776,46328.03,47657.46,-224.03,118.54,0.832850,88.19,1
278059,1,50267,1,46093,47784,46327.56,47657.72,-234.56,126.28,0.832124,88.22,1
278099,1,50307,1,46098,47794,46327.11,47657.99,-229.11,136.01,0.831428,88.25,1
278139,1,50347,1,46105,47797,46326.66,47658.27,-221.66,138.73,0.830758,88.28,1
278179,1,50387,1,46099,47813,46326.21,47658.58,-227.21,154.42,0.830115,88.31,1
278219,1,50427,1,46107,47815,46325.77,47658.89,-218.77,156.11,0.829497,88.34,1
278259,1,50467,1,46114,47828,46325.35,47659.23,-211.35,168.77,0.828899,88.37,1
278299,1,50507,1,46120,47847,46324.94,47659.61,-204.94,187.39,0.828320,88.40,1
278339,1,50547,1,46121,47850,46324.54,47659.99,-203.54,190.01,0.827758,88.42,1
278379,1,50587,1,46124,47854,46324.14,47660.38,-200.14,193.62,0.827212,88.45,1
278419,1,50627,1,46120,47854,46323.73,47660.77,-203.73,193.23,0.826682,88.48,1
278459,1,50667,1,46114,47855,46323.31,47661.16,-209.31,193.84,0.826170,88.50,1
278500,1,50708,1,46114,47863,46322.89,47661.57,-208.89,201.43,0.825674,88.53,1
278540,1,50748,1,46109,47871,46322.47,47661.99,-213.47,209.01,0.825194,88.55,1
278580,1,50788,1,46110,47877,46322.05,47662.42,-212.05,214.58,0.824730,88.58,1
278620,1,50828,1,46112,47892,46321.63,47662.88,-209.63,229.12,0.824279,88.60,1
278660,1,50868,1,46108,47876,46321.20,47663.30,-213.20,212.70,0.823842,88.63,1
278700,1,50908,1,46094,47819,46320.75,47663.62,-226.75,155.38,0.823429,88.65,1
278740,1,50948,1,46067,47785,46320.24,47663.86,-253.24,121.14,0.823047,88.67,1
278780,1,50988,1,46056,47784,46319.71,47664.10,-263.71,119.90,0.822699,88.70,1
278820,1,51028,1,46058,47782,46319.19,47664.34,-261.19,117.66,0.822384,88.72,1
278860,1,51068,1,46052,47779,46318.66,47664.57,-266.66,114.43,0.822103,88.74,1
278900,1,51108,1,46051,47781,46318.12,47664.80,-267.12,116.20,0.821856,88.76,1
278941,1,51149,1,46045,47780,46317.58,47665.04,-272.58,114.96,0.821643,88.78,1
278981,1,51189,1,46044,47781,46317.03,47665.27,-273.03,115.73,0.821465,88.80,1
279021,1,51229,1,46039,47788,46316.48,47665.52,-277.48,122.48,0.821321,88.82,1
279061,1,51269,1,46044,47795,46315.93,47665.78,-271.93,129.22,0.821209,88.84,1
279101,1,51309,1,46043,47820,46315.39,47666.09,-272.39,153.91,0.821127,88.86,1
279141,1,51349,1,46062,47833,46314.89,47666.42,-252.89,166.58,0.821068,88.88,1
279181,1,51389,1,46066,47834,46314.39,47666.76,-248.39,167.24,0.821031,88.90,1
279221,1,51429,1,46058,47857,46313.88,47667.14,-255.88,189.86,0.821015,88.92,1
279261,1,51469,1,46068,47858,46313.39,47667.52,-245.39,190.48,0.821016,88.93,1
279301,1,51509,1,46063,47859,46312.89,47667.91,-249.89,191.09,0.821036,88.95,1
279341,1,51549,1,46060,47862,46312.38,47668.30,-252.38,193.70,0.821075,88.96,1
279382,1,51590,1,46057,47871,46311.87,47668.70,-254.87,202.30,0.821130,88.98,1
279422,1,51630,1,46049,47883,46311.35,47669.13,-262.35,213.87,0.821204,88.99,1
279462,1,51670,1,46057,47891,46310.84,47669.58,-253.84,221.42,0.821291,89.01,1
279502,1,51710,1,46051,47880,46310.32,47670.00,-259.32,210.00,0.821396,89.02,1
279542,1,51750,1,46030,47841,46309.77,47670.34,-279.77,170.66,0.821526,89.03,1
279582,1,51790,1,46013,47809,46309.17,47670.62,-296.17,138.38,0.821689,89.05,1
279622,1,51830,1,46008,47802,46308.57,47670.89,-300.57,131.11,0.821886,89.06,1
279662,1,51870,1,46005,47810,46307.96,47671.17,-302.96,138.83,0.822117,89.07,1
279702,1,51910,1,46003,47803,46307.36,47671.43,-304.36,131.57,0.822382,89.08,1
279742,1,51950,1,45998,47800,46306.74,47671.69,-308.74,128.31,0.822682,89.09,1
279782,1,51990,1,45997,47810,46306.12,47671.97,-309.12,138.03,0.823016,89.10,1
279822,1,52030,1,45991,47810,46305.49,47672.25,-314.49,137.75,0.823385,89.11,1
279863,1,52071,1,45986,47810,46304.86,47672.52,-318.86,137.48,0.823789,89.12,1
279903,1,52111,1,45982,47820,46304.21,47672.82,-322.21,147.18,0.824228,89.13,1
279943,1,52151,1,45987,47829,46303.58,47673.13,-316.58,155.87,0.824699,89.14,1
279983,1,52191,1,45991,47850,46302.95,47673.49,-311.95,176.51,0.825197,89.14,1
280023,1,52231,1,45990,47862,46302.33,47673.87,-312.33,188.13,0.825720,89.15,1
280063,1,52271,1,45996,47872,46301.71,47674.27,-305.71,197.73,0.826265,89.16,1
280103,1,52311,1,46001,47875,46301.11,47674.67,-300.11,200.33,0.826829,89.16,1
280143,1,52351,1,46005,47884,46300.52,47675.09,-295.52,208.91,0.827409,89.17,1
280183,1,52391,1,45998,47883,46299.92,47675.50,-301.92,207.50,0.828008,89.17,1
280223,1,52431,1,46000,47894,46299.32,47675.94,-299.32,218.06,0.828621,89.17,1
280263,1,52471,1,45999,47896,46298.72,47676.38,-299.72,219.62,0.829249,89.18,1
280304,1,52512,1,45999,47901,46298.12,47676.83,-299.12,224.17,0.829890,89.18,1
280344,1,52552,1,45987,47895,46297.50,47677.27,-310.50,217.73,0.830548,89.18,1
280384,1,52592,1,45973,47870,46296.86,47677.66,-323.86,192.34,0.831230,89.18,1
280424,1,52632,1,45955,47821,46296.17,47677.95,-341.17,143.05,0.831945,89.18,1
280464,1,52672,1,45937,47827,46295.45,47678.25,-358.45,148.75,0.832699,89.18,1
280504,1,52712,1,45945,47827,46294.75,47678.54,-349.75,148.46,0.833487,89.18,1
280544,1,52752,1,45949,47820,46294.06,47678.83,-345.06,141.17,0.834309,89.18,1
280584,1,52792,1,45946,47821,46293.37,47679.11,-347.37,141.89,0.835165,89.18,1
280624,1,52832,1,45947,47827,46292.68,47679.41,-345.68,147.59,0.836053,89.18,1
280664,1,52872,1,45946,47832,46291.98,47679.71,-345.98,152.29,0.836972,89.17,1
280704,1,52912,1,45938,47828,46291.28,47680.01,-353.28,147.99,0.837925,89.17,1
280744,1,52952,1,45940,47832,46290.57,47680.32,-350.57,151.68,0.838908,89.17,1
280785,1,52993,1,45942,47841,46289.88,47680.64,-347.88,160.36,0.839921,89.16,1
280825,1,53033,1,45939,47858,46289.18,47681.00,-350.18,177.00,0.840960,89.15,1
280865,1,53073,1,45946,47870,46288.50,47681.37,-342.50,188.62,0.842021,89.15,1
280905,1,53113,1,45950,47888,46287.82,47681.79,-337.82,206.21,0.843099,89.14,1
280945,1,53153,1,45954,47900,46287.15,47682.23,-333.15,217.77,0.844190,89.13,1
280985,1,53193,1,45960,47898,46286.50,47682.66,-326.50,215.34,0.845293,89.13,1
281025,1,53233,1,45964,47905,46285.86,47683.11,-321.86,221.89,0.846405,89.12,1
281065,1,53273,1,45959,47913,46285.20,47683.57,-326.20,229.43,0.847526,89.11,1
281105,1,53313,1,45959,47916,46284.55,47684.03,-325.55,231.97,0.848653,89.10,1
281145,1,53353,1,45960,47925,46283.90,47684.52,-323.90,240.48,0.849785,89.09,1
281185,1,53393,1,45960,47922,46283.25,47684.99,-323.25,237.01,0.850922,89.08,1
281226,1,53434,1,45941,47895,46282.57,47685.41,-341.57,209.59,0.852074,89.07,1
281266,1,53474,1,45919,47849,46281.84,47685.74,-362.84,163.26,0.853253,89.05,1
281306,1,53514,1,45901,47830,46281.08,47686.03,-380.08,143.97,0.854467,89.04,1
281346,1,53554,1,45902,47839,46280.32,47686.34,-378.32,152.66,0.855714,89.03,1
281386,1,53594,1,45901,47845,46279.57,47686.66,-378.57,158.34,0.856991,89.02,1
281426,1,53634,1,45902,47844,46278.81,47686.98,-376.81,157.02,0.858298,89.00,1
281466,1,53674,1,45908,47850,46278.07,47687.30,-370.07,162.70,0.859632,88.99,1
281506,1,53714,1,45910,47851,46277.34,47687.63,-367.34,163.37,0.860993,88.97,1
281546,1,53754,1,45906,47860,46276.59,47687.98,-370.59,172.02,0.862378,88.96,1
281586,1,53794,1,45907,47859,46275.86,47688.32,-368.86,170.68,0.863787,88.94,1
281626,1,53834,1,45901,47861,46275.11,47688.67,-374.11,172.33,0.865221,88.92,1
281666,1,53874,1,45909,47887,46274.37,47689.07,-365.37,197.93,0.866672,88.90,1
281707,1,53915,1,45914,47892,46273.66,47689.48,-359.66,202.52,0.868137,88.89,1
281747,1,53955,1,45906,47907,46272.92,47689.91,-366.92,217.09,0.869614,88.87,1
281787,1,53995,1,45915,47919,46272.21,47690.37,-357.21,228.62,0.871098,88.85,1
281827,1,54035,1,45914,47934,46271.49,47690.86,-357.49,243.14,0.872586,88.83,1
281867,1,54075,1,45923,47941,46270.80,47691.36,-347.80,249.64,0.874073,88.81,1
281907,1,54115,1,45920,47944,46270.10,47691.87,-350.10,252.13,0.875558,88.79,1
281947,1,54155,1,45923,47957,46269.41,47692.40,-346.41,264.60,0.877038,88.77,1
281987,1,54195,1,45921,47956,46268.71,47692.93,-347.71,263.07,0.878513,88.74,1
282027,1,54235,1,45921,47967,46268.02,47693.48,-347.02,273.52,0.879981,88.72,1
282067,1,54275,1,45919,47947,46267.32,47693.99,-348.32,253.01,0.881447,88.70,1
282107,1,54315,1,45894,47913,46266.57,47694.43,-372.57,218.57,0.882924,88.68,1
282148,1,54356,1,45873,47880,46265.79,47694.80,-392.79,185.20,0.884425,88.65,1
282188,1,54396,1,45860,47873,46264.98,47695.16,-404.98,177.84,0.885952,88.63,1
282228,1,54436,1,45863,47879,46264.18,47695.52,-401.18,183.48,0.887503,88.60,1
282268,1,54476,1,45863,47892,46263.37,47695.92,-400.37,196.08,0.889075,88.58,1
282308,1,54516,1,45860,47899,46262.57,47696.32,-402.57,202.68,0.890667,88.55,1
282348,1,54556,1,45872,47903,46261.79,47696.74,-389.79,206.26,0.892274,88.53,1
282388,1,54596,1,45874,47902,46261.02,47697.15,-387.02,204.85,0.893896,88.50,1
282428,1,54636,1,45865,47903,46260.23,47697.56,-395.23,205.44,0.895535,88.47,1
282468,1,54676,1,45872,47912,46259.45,47697.99,-387.45,214.01,0.897185,88.45,1
282508,1,54716,1,45868,47911,46258.67,47698.42,-390.67,212.58,0.898848,88.42,1
282548,1,54756,1,45866,47927,46257.89,47698.87,-391.89,228.12,0.900521,88.39,1
282589,1,54797,1,45868,47925,46257.11,47699.33,-389.11,225.67,0.902202,88.36,1
282629,1,54837,1,45864,47937,46256.32,47699.80,-392.32,237.20,0.903889,88.33,1
282669,1,54877,1,45862,47944,46255.54,47700.29,-393.54,243.71,0.905581,88.31,1
282709,1,54917,1,45862,47954,46254.75,47700.80,-392.75,253.20,0.907274,88.28,1
282749,1,54957,1,45866,47965,46253.97,47701.33,-387.97,263.67,0.908965,88.25,1
282789,1,54997,1,45869,47968,46253.20,47701.87,-384.20,266.13,0.910651,88.22,1
282829,1,55037,1,45875,47972,46252.45,47702.41,-377.45,269.59,0.912332,88.18,1
282869,1,55077,1,45872,47973,46251.69,47702.95,-379.69,270.05,0.914006,88.15,1
282909,1,55117,1,45869,47973,46250.93,47703.50,-381.93,269.50,0.915675,88.12,1
282949,1,55157,1,45853,47941,46250.13,47703.97,-397.13,237.03,0.917351,88.09,1
282989,1,55197,1,45828,47900,46249.29,47704.37,-421.29,195.63,0.919047,88.06,1
283030,1,55238,1,45808,47874,46248.41,47704.71,-440.41,169.29,0.920772,88.03,1
283070,1,55278,1,45803,47888,46247.52,47705.07,-444.52,182.93,0.922524,87.99,1
283110,1,55318,1,45806,47894,46246.63,47705.45,-440.63,188.55,0.924301,87.96,1
283150,1,55358,1,45804,47893,46245.75,47705.83,-441.75,187.17,0.926103,87.93,1
283190,1,55398,1,45809,47911,46244.88,47706.24,-435.88,204.76,0.927925,87.89,1
283230,1,55438,1,45814,47908,46244.02,47706.64,-430.02,201.36,0.929764,87.86,1
283270,1,55478,1,45815,47912,46243.16,47707.05,-428.16,204.95,0.931620,87.82,1
283310,1,55518,1,45815,47919,46242.31,47707.48,-427.31,211.52,0.933491,87.79,1
283350,1,55558,1,45813,47917,46241.45,47707.90,-428.45,209.10,0.935377,87.75,1
283390,1,55598,1,45815,47930,46240.60,47708.35,-425.60,221.65,0.937275,87.72,1
283430,1,55638,1,45814,47933,46239.75,47708.80,-425.75,224.20,0.939182,87.68,1
283471,1,55679,1,45810,47942,46238.89,47709.27,-428.89,232.73,0.941098,87.65,1
283511,1,55719,1,45812,47946,46238.04,47709.74,-426.04,236.26,0.943020,87.61,1
283551,1,55759,1,45809,47957,46237.18,47710.24,-428.18,246.76,0.944946,87.57,1
283591,1,55799,1,45812,47968,46236.34,47710.75,-424.34,257.25,0.946872,87.54,1
283631,1,55839,1,45809,47979,46235.48,47711.29,-426.48,267.71,0.948796,87.50,1
283671,1,55879,1,45822,47994,46234.66,47711.86,-412.66,282.14,0.950710,87.46,1
283711,1,55919,1,45828,47998,46233.85,47712.43,-405.85,285.57,0.952611,87.42,1
283751,1,55959,1,45828,48010,46233.04,47713.03,-405.04,296.97,0.954497,87.38,1
283791,1,55999,1,45826,47990,46232.23,47713.59,-406.23,276.41,0.956374,87.34,1
283831,1,56039,1,45807,47961,46231.38,47714.08,-424.38,246.92,0.958254,87.31,1
283871,1,56079,1,45787,47923,46230.49,47714.50,-443.49,208.50,0.960150,87.27,1
283912,1,56120,1,45774,47914,46229.58,47714.90,-455.58,199.10,0.962066,87.23,1
283952,1,56160,1,45778,47928,46228.68,47715.32,-450.68,212.68,0.963997,87.19,1
283992,1,56200,1,45774,47923,46227.77,47715.74,-453.77,207.26,0.965946,87.15,1
284032,1,56240,1,45770,47934,46226.86,47716.18,-456.86,217.82,0.967909,87.11,1
284072,1,56280,1,45780,47939,46225.97,47716.62,-445.97,222.37,0.969883,87.07,1
284112,1,56320,1,45777,47938,46225.07,47717.07,-448.07,220.93,0.971870,87.02,1
284152,1,56360,1,45782,47942,46224.18,47717.52,-442.18,224.48,0.973865,86.98,1
284192,1,56400,1,45779,47948,46223.29,47717.98,-444.29,230.02,0.975869,86.94,1
284232,1,56440,1,45780,47951,46222.41,47718.45,-442.41,232.55,0.977879,86.90,1
284272,1,56480,1,45782,47959,46221.53,47718.93,-439.53,240.07,0.979894,86.86,1
284312,1,56520,1,45777,47970,46220.64,47719.43,-443.64,250.57,0.981910,86.82,1
284353,1,56561,1,45779,47969,46219.76,47719.93,-440.76,249.07,0.983928,86.77,1
284393,1,56601,1,45774,47982,46218.87,47720.46,-444.87,261.54,0.985945,86.73,1
284433,1,56641,1,45780,47989,46217.99,47721.00,-437.99,268.00,0.987958,86.69,1
284473,1,56681,1,45779,48002,46217.12,47721.56,-438.12,280.44,0.989963,86.65,1
284513,1,56721,1,45783,48020,46216.25,47722.16,-433.25,297.84,0.991953,86.60,1
284553,1,56761,1,45790,48034,46215.40,47722.78,-425.40,311.22,0.993923,86.56,1
284593,1,56801,1,45799,48040,46214.57,47723.42,-415.57,316.58,0.995871,86.51,1
284633,1,56841,1,45798,48035,46213.73,47724.04,-415.73,310.96,0.997799,86.47,1
284673,1,56881,1,45787,47998,46212.88,47724.59,-425.88,273.41,0.999720,86.43,1
284713,1,56921,1,45765,47972,46211.99,47725.09,-446.99,246.91,1.001644,86.38,1
284753,1,56961,1,45754,47963,46211.07,47725.57,-457.07,237.43,1.003576,86.34,1
284793,1,57001,1,45749,47968,46210.15,47726.05,-461.15,241.95,1.005515,86.29,1
284834,1,57042,1,45751,47962,46209.23,47726.52,-458.23,235.48,1.007463,86.25,1
284874,1,57082,1,45744,47979,46208.30,47727.03,-464.30,251.97,1.009414,86.21,1
284914,1,57122,1,45751,47990,46207.39,47727.56,-456.39,262.44,1.011366,86.16,1
284954,1,57162,1,45756,48006,46206.49,47728.12,-450.49,277.88,1.013314,86.12,1
284994,1,57202,1,45762,48023,46205.60,47728.71,-443.60,294.29,1.015250,86.07,1
285034,1,57242,1,45771,48027,46204.73,47729.30,-433.73,297.70,1.017172,86.03,1
285074,1,57282,1,45782,48051,46203.89,47729.95,-421.89,321.05,1.019073,85.98,1
285114,1,57322,1,45784,48063,46203.05,47730.62,-419.05,332.38,1.020948,85.94,1
285154,1,57362,1,45791,48069,46202.23,47731.30,-411.23,337.70,1.022795,85.89,1
285194,1,57402,1,45781,48072,46201.39,47731.98,-420.39,340.02,1.024615,85.85,1
285234,1,57442,1,45777,48078,46200.54,47732.67,-423.54,345.33,1.026409,85.80,1
285275,1,57483,1,45778,48061,46199.70,47733.33,-421.70,327.67,1.028181,85.76,1
285315,1,57523,1,45769,48067,46198.84,47734.00,-429.84,333.00,1.029932,85.71,1
285355,1,57563,1,45760,48055,46197.96,47734.64,-437.96,320.36,1.031668,85.67,1
285395,1,57603,1,45754,48054,46197.07,47735.28,-443.07,318.72,1.033389,85.62,1
285435,1,57643,1,45740,48028,46196.16,47735.87,-456.16,292.13,1.035106,85.58,1
285475,1,57683,1,45721,47982,46195.21,47736.36,-474.21,245.64,1.036832,85.53,1
285515,1,57723,1,45701,47935,46194.22,47736.76,-493.22,198.24,1.038580,85.49,1
285555,1,57763,1,45679,47930,46193.20,47737.14,-514.20,192.86,1.040353,85.44,1
285595,1,57803,1,45686,47913,46192.18,47737.50,-506.18,175.50,1.042153,85.40,1
285635,1,57843,1,45672,47905,46191.14,47737.83,-519.14,167.17,1.043983,85.35,1
285675,1,57883,1,45672,47909,46190.11,47738.18,-518.11,170.82,1.045842,85.31,1
285716,1,57924,1,45668,47905,46189.07,47738.51,-521.07,166.49,1.047731,85.26,1
285756,1,57964,1,45662,47907,46188.01,47738.85,-526.01,168.15,1.049650,85.22,1
285796,1,58004,1,45659,47909,46186.95,47739.19,-527.95,169.81,1.051600,85.17,1
285836,1,58044,1,45666,47916,46185.91,47739.55,-519.91,176.45,1.053576,85.13,1
285876,1,58084,1,45669,47926,46184.88,47739.92,-515.88,186.08,1.055576,85.08,1
285916,1,58124,1,45674,47948,46183.86,47740.34,-509.86,207.66,1.057595,85.03,1
285956,1,58164,1,45691,47949,46182.88,47740.76,-491.88,208.24,1.059629,84.99,1
285996,1,58204,1,45679,47954,46181.87,47741.18,-502.87,212.82,1.061679,84.94,1
286036,1,58244,1,45683,47956,46180.87,47741.61,-497.87,214.39,1.063743,84.90,1
286076,1,58284,1,45685,47957,46179.88,47742.05,-494.88,214.95,1.065820,84.85,1
286116,1,58324,1,45679,47951,46178.88,47742.46,-499.88,208.54,1.067913,84.80,1
286156,1,58364,1,45674,47949,46177.87,47742.88,-503.87,206.12,1.070022,84.76,1
286197,1,58405,1,45662,47906,46176.84,47743.21,-514.84,162.79,1.072158,84.71,1
286237,1,58445,1,45633,47878,46175.76,47743.48,-542.76,134.52,1.074328,84.66,1
286277,1,58485,1,45635,47875,46174.68,47743.74,-539.68,131.26,1.076533,84.62,1
286317,1,58525,1,45632,47875,46173.59,47744.01,-541.59,130.99,1.078773,84.57,1
286357,1,58565,1,45638,47881,46172.52,47744.28,-534.52,136.72,1.081045,84.52,1
286397,1,58605,1,45640,47888,46171.46,47744.57,-531.46,143.43,1.083349,84.47,1
286437,1,58645,1,45652,47898,46170.42,47744.88,-518.42,153.12,1.085678,84.42,1
286477,1,58685,1,45648,47902,46169.37,47745.20,-521.37,156.80,1.088034,84.38,1
286517,1,58725,1,45646,47898,46168.33,47745.50,-522.33,152.50,1.090416,84.33,1
286557,1,58765,1,45649,47900,46167.29,47745.81,-518.29,154.19,1.092824,84.28,1
286597,1,58805,1,45649,47910,46166.25,47746.14,-517.25,163.86,1.095255,84.23,1
286637,1,58845,1,45646,47918,46165.21,47746.48,-519.21,171.52,1.097708,84.18,1
286678,1,58886,1,45651,47925,46164.19,47746.84,-513.19,178.16,1.100180,84.13,1
286718,1,58926,1,45642,47927,46163.14,47747.21,-521.14,179.79,1.102672,84.08,1
286758,1,58966,1,45649,47935,46162.12,47747.58,-513.12,187.42,1.105180,84.02,1
286798,1,59006,1,45647,47953,46161.09,47747.99,-514.09,205.01,1.107701,83.97,1
286838,1,59046,1,45651,47963,46160.07,47748.42,-509.07,214.58,1.110231,83.92,1
286878,1,59086,1,45659,47958,46159.07,47748.84,-500.07,209.16,1.112769,83.87,1
286918,1,59126,1,45647,47933,46158.05,47749.21,-511.05,183.79,1.115324,83.82,1
286958,1,59166,1,45623,47895,46156.98,47749.51,-533.98,145.49,1.117907,83.76,1
286998,1,59206,1,45620,47880,46155.90,47749.77,-535.90,130.23,1.120520,83.71,1
287038,1,59246,1,45611,47876,46154.81,47750.02,-543.81,125.98,1.123165,83.66,1
287078,1,59286,1,45605,47867,46153.71,47750.26,-548.71,116.74,1.125844,83.60,1
287119,1,59327,1,45598,47865,46152.61,47750.49,-554.61,114.51,1.128560,83.55,1
287159,1,59367,1,45601,47887,46151.50,47750.76,-550.50,136.24,1.131307,83.49,1
287199,1,59407,1,45603,47877,46150.41,47751.02,-547.41,125.98,1.134085,83.44,1
287239,1,59447,1,45600,47891,46149.30,47751.30,-549.30,139.70,1.136894,83.38,1
287279,1,59487,1,45607,47897,46148.22,47751.59,-541.22,145.41,1.139729,83.33,1
287319,1,59527,1,45614,47899,46147.16,47751.89,-533.16,147.11,1.142589,83.27,1
287359,1,59567,1,45618,47912,46146.10,47752.21,-528.10,159.79,1.145470,83.21,1
287399,1,59607,1,45611,47921,46145.03,47752.55,-534.03,168.45,1.148371,83.15,1
287439,1,59647,1,45620,47916,46143.98,47752.87,-523.98,163.12,1.151291,83.10,1
287479,1,59687,1,45612,47926,46142.91,47753.22,-530.91,172.78,1.154229,83.04,1
287519,1,59727,1,45607,47928,46141.84,47753.57,-534.84,174.43,1.157185,82.98,1
287560,1,59768,1,45609,47930,46140.78,47753.93,-531.78,176.07,1.160157,82.92,1
287600,1,59808,1,45606,47937,46139.71,47754.30,-533.71,182.70,1.163144,82.86,1
287640,1,59848,1,45603,47949,46138.64,47754.69,-535.64,194.31,1.166143,82.80,1
287680,1,59888,1,45609,47955,46137.58,47755.09,-528.58,199.91,1.169151,82.74,1
287720,1,59928,1,45599,47931,46136.50,47755.44,-537.50,175.56,1.172176,82.68,1
287760,1,59968,1,45592,47901,46135.42,47755.73,-543.42,145.27,1.175225,82.61,1
287800,1,60008,1,45582,47885,46134.31,47755.99,-552.31,129.01,1.178304,82.55,1
287840,1,60048,1,45582,47885,46133.21,47756.25,-551.21,128.75,1.181413,82.49,1
287880,1,60088,1,45575,47877,46132.10,47756.49,-557.10,120.51,1.184553,82.43,1
287920,1,60128,1,45576,47876,46130.99,47756.73,-554.99,119.27,1.187725,82.36,1
287960,1,60168,1,45567,47884,46129.86,47756.99,-562.86,127.01,1.190927,82.30,1
288000,1,60208,1,45568,47877,46128.74,47757.23,-560.74,119.77,1.194162,82.23,1
288041,1,60249,1,45568,47881,46127.62,47757.48,-559.62,123.52,1.197427,82.17,1
288081,1,60289,1,45561,47885,46126.49,47757.74,-565.49,127.26,1.200724,82.10,1
288121,1,60329,1,45566,47900,46125.37,47758.02,-559.37,141.98,1.204046,82.04,1
288161,1,60369,1,45573,47910,46124.26,47758.33,-551.26,151.67,1.207391,81.97,1
288201,1,60409,1,45572,47927,46123.16,47758.67,-551.16,168.33,1.210752,81.90,1
288241,1,60449,1,45589,47932,46122.09,47759.02,-533.09,172.98,1.214127,81.84,1
288281,1,60489,1,45582,47935,46121.02,47759.37,-539.02,175.63,1.217513,81.77,1
288321,1,60529,1,45586,47940,46119.95,47759.73,-533.95,180.27,1.220910,81.70,1
288361,1,60569,1,45581,47934,46118.87,47760.08,-537.87,173.92,1.224319,81.63,1
288401,1,60609,1,45579,47946,46117.79,47760.46,-538.79,185.54,1.227737,81.56,1
288441,1,60649,1,45576,47948,46116.71,47760.83,-540.71,187.17,1.231163,81.49,1
288482,1,60690,1,45575,47955,46115.62,47761.22,-540.62,193.78,1.234595,81.42,1
288522,1,60730,1,45574,47956,46114.54,47761.61,-540.54,194.39,1.238032,81.35,1
288562,1,60770,1,45568,47939,46113.45,47761.97,-545.45,177.03,1.241481,81.28,1
288602,1,60810,1,45554,47916,46112.33,47762.28,-558.33,153.72,1.244951,81.20,1
288642,1,60850,1,45546,47901,46111.20,47762.55,-565.20,138.45,1.248447,81.13,1
288682,1,60890,1,45543,47911,46110.06,47762.85,-567.06,148.15,1.251967,81.06,1
288722,1,60930,1,45546,47898,46108.94,47763.12,-562.94,134.87,1.255512,80.99,1
288762,1,60970,1,45547,47900,46107.82,47763.40,-560.82,136.60,1.259082,80.91,1
288802,1,61010,1,45542,47901,46106.69,47763.68,-564.69,137.32,1.262677,80.84,1
288842,1,61050,1,45544,47897,46105.56,47763.95,-561.56,133.05,1.266298,80.76,1
288882,1,61090,1,45538,47895,46104.43,47764.21,-566.43,130.79,1.269945,80.69,1
288922,1,61130,1,45536,47891,46103.29,47764.46,-567.29,126.54,1.273620,80.61,1
288963,1,61171,1,45534,47899,46102.16,47764.73,-568.16,134.27,1.277321,80.54,1
289003,1,61211,1,45531,47903,46101.02,47765.01,-570.02,137.99,1.281047,80.46,1
289043,1,61251,1,45529,47917,46099.87,47765.31,-570.87,151.69,1.284793,80.38,1
289083,1,61291,1,45534,47917,46098.74,47765.62,-564.74,151.38,1.288559,80.30,1
289123,1,61331,1,45534,47936,46097.61,47765.96,-563.61,170.04,1.292337,80.23,1
289163,1,61371,1,45538,47938,46096.50,47766.30,-558.50,171.70,1.296127,80.15,1
289203,1,61411,1,45537,47941,46095.38,47766.66,-558.38,174.34,1.299927,80.07,1
289243,1,61451,1,45538,47941,46094.27,47767.01,-556.27,173.99,1.303737,79.99,1
289283,1,61491,1,45530,47946,46093.14,47767.37,-563.14,178.63,1.307555,79.91,1
289323,1,61531,1,45535,47955,46092.02,47767.74,-557.02,187.26,1.311378,79.83,1
289363,1,61571,1,45534,47961,46090.91,47768.13,-556.91,192.87,1.315202,79.74,1
289403,1,61611,1,45527,47938,46089.79,47768.47,-562.79,169.53,1.319039,79.66,1
