t_ms,phase,red_raw,ir_raw,red_dc,ir_dc,red_ac,ir_ac,OD_red,OD_ir,R,spo2,spo2_valid
466,0,55782,60857,34148.5,37333.12,21633.5,23523.88,0,0,0.999932,85,1
478,0,55790,60855,34581.33,37803.57,21208.66,23051.43,0,0,0.999914,85,1
487,0,55790,60870,35005.51,38264.89,20784.49,22605.11,0,0,0.999899,85,1
497,0,55795,60863,35421.3,38716.86,20373.7,22146.14,0,0,0.999883,85,1
506,0,55778,60862,35828.43,39159.76,19949.57,21702.24,0,0,0.99987,85,1
517,0,55789,60879,36227.65,39594.14,19561.35,21284.86,0,0,0.999858,85,1
527,0,55788,60880,36618.86,40019.86,19169.14,20860.14,0,0,0.999846,85,1
536,0,55772,60880,37001.92,40437.07,18770.08,20442.93,0,0,0.999837,85,1
546,0,55769,60886,37377.26,40846.04,18391.74,20039.96,0,0,0.99983,85,1
557,0,55762,60894,37744.96,41247,18017.04,19647,0,0,0.999825,85,1
566,0,55749,60900,38105.04,41640.06,17643.96,19259.94,0,0,0.999823,85,1
576,0,55726,60903,38457.46,42025.32,17268.54,18877.68,0,0,0.999825,85,1
587,0,55721,60905,38802.73,42402.92,16918.27,18502.08,0,0,0.999829,85,1
596,0,55720,60903,39141.08,42772.92,16578.92,18130.08,0,0,0.999831,85,1
607,0,55706,60903,39472.38,43135.52,16233.62,17767.48,0,0,0.999836,85,1
617,0,55702,60897,39796.97,43490.75,15905.03,17406.25,0,0,0.999841,85,1
626,0,55689,60895,40114.82,43838.83,15574.18,17056.16,0,0,0.999848,85,1
636,0,55683,60883,40426.18,44179.72,15256.82,16703.28,0,0,0.999853,85,1
647,0,55684,60893,40731.33,44513.98,14952.66,16379.02,0,0,0.99986,85,1
656,0,55683,60889,41030.37,44841.49,14652.63,16047.51,0,0,0.999866,85,1
666,0,55693,60882,41323.62,45162.3,14369.37,15719.7,0,0,0.999869,85,1
677,0,55690,60877,41610.95,45476.59,14079.05,15400.41,0,0,0.999872,85,1
686,0,55695,60877,41892.63,45784.6,13802.37,15092.4,0,0,0.999873,85,1
697,0,55703,60876,42168.84,46086.43,13534.16,14789.57,0,0,0.999873,85,1
707,0,55707,60880,42439.6,46382.3,13267.39,14497.7,0,0,0.999874,85,1
716,0,55708,60883,42704.97,46672.32,13003.03,14210.68,0,0,0.999874,85,1
727,0,55694,60876,42964.75,46956.39,12729.25,13919.61,0,0,0.999876,85,1
737,0,55691,60878,43219.28,47234.82,12471.72,13643.18,0,0,0.999878,85,1
746,0,55683,60886,43468.55,47507.85,12214.45,13378.15,0,0,0.999884,85,1
756,0,55688,60899,43712.94,47775.67,11975.05,13123.33,0,0,0.99989,85,1
766,0,55691,60911,43952.51,48038.38,11738.49,12872.62,0,0,0.999898,85,1
776,0,55685,60922,44187.16,48296.05,11497.84,12625.95,0,0,0.999908,85,1
786,0,55680,60907,44417.01,48548.27,11262.98,12358.73,0,0,0.999916,85,1
797,0,55682,60915,44642.32,48795.61,11039.68,12119.39,0,0,0.999926,85,1
806,0,55667,60922,44862.81,49038.14,10804.19,11883.86,0,0,0.999939,85,1
817,0,55669,60917,45078.94,49275.72,10590.06,11641.28,0,0,0.99995,85,1
827,0,55671,60923,45290.78,49508.67,10380.22,11414.33,0,0,0.999962,85,1
836,0,55671,60924,45498.38,49736.98,10172.62,11187.02,0,0,0.999975,85,1
846,0,55665,60912,45701.72,49960.48,9963.28,10951.52,0,0,0.999985,85,1
857,0,55662,60915,45900.92,50179.57,9761.08,10735.43,0,0,0.999997,85,1
866,0,55665,60913,46096.21,50394.24,9568.79,10518.76,0,0,1.000007,85,1
876,0,55673,60904,46287.75,50604.44,9385.25,10299.56,0,0,1.000015,85,1
886,0,55671,60897,46475.41,50810.29,9195.59,10086.71,0,0,1.000021,85,1
896,0,55678,60890,46659.46,51011.89,9018.54,9878.11,0,0,1.000024,85,1
906,0,55670,60904,46839.67,51209.73,8830.32,9694.27,0,0,1.000031,85,1
916,0,55680,60890,47016.48,51403.33,8663.52,9486.66,0,0,1.000034,85,1
926,0,55683,60890,47189.82,51593.07,8493.18,9296.93,0,0,1.000036,85,1
935,0,55679,60896,47359.6,51779.13,8319.4,9116.87,0,0,1.00004,85,1
946,0,55677,60894,47525.94,51961.43,8151.05,8932.57,0,0,1.000044,85,1
956,0,55681,60887,47689.05,52139.94,7991.95,8747.06,0,0,1.000046,85,1
966,0,55674,60894,47848.75,52315.02,7825.25,8578.98,0,0,1.00005,85,1
976,0,55668,60898,48005.13,52486.68,7662.87,8411.32,0,0,1.000056,85,1
986,0,55670,60896,48158.43,52654.87,7511.57,8241.13,0,0,1.000062,85,1
996,0,55667,60897,48308.6,52819.71,7358.4,8077.29,0,0,1.000068,85,1
1006,0,55665,60891,48455.73,52981.14,7209.27,7909.86,0,0,1.000073,85,1
1016,0,55669,60900,48600,53139.51,7069,7760.48,0,0,1.000079,85,1
1026,0,55667,60893,48741.33,53294.58,6925.66,7598.41,0,0,1.000084,85,1
1036,0,55680,60885,48880.11,53446.39,6799.89,7438.61,0,0,1.000084,85,1
1046,0,55675,60887,49016.01,53595.21,6658.99,7291.79,0,0,1.000086,85,1
1055,0,55683,60872,49149.35,53740.75,6533.65,7131.25,0,0,1.000084,85,1
1065,0,55681,60869,49279.99,53883.31,6401.01,6985.69,0,0,1.000081,85,1
1077,0,55672,60861,49407.83,54022.87,6264.17,6838.13,0,0,1.000079,85,1
1087,0,55679,60858,49533.25,54159.57,6145.75,6698.43,0,0,1.000074,85,1
1095,0,55691,60878,49656.41,54293.94,6034.59,6584.06,0,0,1.000071,85,1
1106,0,55703,60885,49777.34,54425.76,5925.66,6459.24,0,0,1.000067,85,1
1117,0,55707,60893,49895.93,54555.1,5811.07,6337.9,0,0,1.000064,85,1
1126,0,55711,60898,50012.23,54681.96,5698.77,6216.04,0,0,1.000061,85,1
1136,0,55709,60915,50126.17,54806.62,5582.83,6108.37,0,0,1.000061,85,1
1146,0,55721,60908,50238.07,54928.65,5482.93,5979.35,0,0,1.000058,85,1
1157,0,55725,60926,50347.81,55048.6,5377.19,5877.4,0,0,1.000058,85,1
1166,0,55727,60930,50455.39,55166.23,5271.61,5763.77,0,0,1.000058,85,1
1176,0,55730,60938,50560.89,55281.67,5169.11,5656.33,0,0,1.000058,85,1
1186,0,55736,60938,50664.39,55394.8,5071.61,5543.2,0,0,1.000058,85,1
1197,0,55724,60944,50765.58,55505.78,4958.41,5438.22,0,0,1.000061,85,1
1206,0,55717,60950,50864.61,55614.67,4852.39,5335.33,0,0,1.000068,85,1
1216,0,55707,60955,50961.46,55721.48,4745.54,5233.52,0,0,1.000078,85,1
1226,0,55695,60967,51056.13,55826.39,4638.87,5140.61,0,0,1.000092,85,1
1235,0,55685,60975,51148.71,55929.36,4536.29,5045.64,0,0,1.000111,85,1
1246,0,55679,60988,51239.32,56030.53,4439.68,4957.46,0,0,1.000133,85,1
1256,0,55680,60996,51328.13,56129.84,4351.87,4866.16,0,0,1.000156,85,1
1266,0,55678,61002,51415.13,56227.28,4262.87,4774.71,0,0,1.000181,85,1
1275,0,55689,61018,51500.61,56323.1,4188.39,4694.9,0,0,1.000206,84.99,1
1286,0,55696,61011,51584.51,56416.86,4111.48,4594.14,0,0,1.000228,84.99,1
1296,0,55687,61022,51666.57,56508.96,4020.43,4513.04,0,0,1.000253,84.99,1
1305,0,55678,61007,51746.79,56598.92,3931.21,4408.07,0,0,1.000277,84.99,1
1315,0,55652,61016,51824.9,56687.27,3827.1,4328.73,0,0,1.000309,84.99,1
1327,0,55642,61024,51901.24,56774,3740.76,4250,0,0,1.000344,84.99,1
1337,0,55644,61047,51976.1,56859.46,3667.9,4187.54,0,0,1.000384,84.99,1
1346,0,55656,61082,52049.7,56943.92,3606.3,4138.08,0,0,1.000427,84.99,1
1356,0,55657,61108,52121.85,57027.2,3535.15,4080.8,0,0,1.000475,84.99,1
1367,0,55671,61146,52192.83,57109.58,3478.17,4036.42,0,0,1.000527,84.99,1
1376,0,55663,61181,52262.23,57191.01,3400.77,3989.99,0,0,1.000588,84.99,1
1386,0,55670,61218,52330.39,57271.55,3339.61,3946.45,0,0,1.000654,84.98,1
1396,0,55677,61273,52397.32,57351.58,3279.68,3921.42,0,0,1.000729,84.98,1
1405,0,55680,61308,52462.98,57430.71,3217.02,3877.29,0,0,1.00081,84.98,1
1416,0,55687,61339,52527.46,57508.87,3159.54,3830.12,0,0,1.000894,84.98,1
1426,0,55684,61357,52590.59,57585.84,3093.41,3771.16,0,0,1.000981,84.98,1
1436,0,55693,61373,52652.64,57661.58,3040.36,3711.41,0,0,1.001068,84.97,1
1445,0,55694,61391,52713.47,57736.17,2980.53,3654.82,0,0,1.001157,84.97,1
1456,0,55701,61393,52773.22,57809.31,2927.78,3583.69,0,0,1.001243,84.97,1
1466,0,55698,61400,52831.71,57881.13,2866.29,3518.87,0,0,1.00133,84.97,1
1475,0,55695,61396,52888.98,57951.43,2806.02,3444.57,0,0,1.001415,84.96,1
1486,0,55686,61386,52944.92,58020.12,2741.08,3365.88,0,0,1.001499,84.96,1
1497,0,55684,61373,52999.7,58087.18,2684.3,3285.82,0,0,1.001579,84.96,1
1506,0,55669,61341,53053.09,58152.26,2615.91,3188.74,0,0,1.001655,84.96,1
1516,0,55664,61313,53105.31,58215.48,2558.69,3097.52,0,0,1.001723,84.96,1
1526,0,55657,61288,53156.34,58276.93,2500.66,3011.07,0,0,1.001787,84.96,1
1536,0,55647,61266,53206.16,58336.71,2440.84,2929.29,0,0,1.001847,84.95,1
1546,0,55630,61223,53254.64,58394.44,2375.36,2828.56,0,0,1.001901,84.95,1
1556,0,55614,61186,53301.83,58450.27,2312.17,2735.73,0,0,1.001949,84.95,1
1565,0,55600,61155,53347.8,58504.37,2252.2,2650.63,0,0,1.001993,84.95,1
1575,0,55584,61130,53392.52,58556.88,2191.48,2573.12,0,0,1.002035,84.95,1
1586,0,55585,61120,53436.37,58608.14,2148.62,2511.86,0,0,1.002073,84.95,1
1595,0,55589,61138,53479.43,58658.75,2109.57,2479.25,0,0,1.002114,84.95,1
1605,0,55592,61153,53521.68,58708.63,2070.32,2444.37,0,0,1.002156,84.95,1
1616,0,55605,61188,53563.35,58758.22,2041.65,2429.78,0,0,1.002203,84.94,1
1625,0,55635,61228,53604.78,58807.62,2030.21,2420.38,0,0,1.002251,84.94,1
1636,0,55657,61267,53645.83,58856.8,2011.17,2410.2,0,0,1.0023,84.94,1
1646,0,55680,61300,53686.52,58905.67,1993.48,2394.33,0,0,1.002351,84.94,1
1656,0,55705,61337,53726.89,58954.29,1978.11,2382.71,0,0,1.002403,84.94,1
1666,0,55714,61367,53766.64,59002.55,1947.36,2364.45,0,0,1.002458,84.94,1
1676,0,55718,61373,53805.66,59049.96,1912.34,2323.04,0,0,1.002513,84.94,1
1686,0,55739,61400,53844.33,59096.96,1894.67,2303.04,0,0,1.002568,84.94,1
1695,0,55749,61434,53882.42,59143.7,1866.57,2290.3,0,0,1.002626,84.93,1
1705,0,55764,61461,53920.06,59190.05,1843.94,2270.95,0,0,1.002687,84.93,1
1716,0,55775,61500,53957.16,59236.25,1817.84,2263.75,0,0,1.002752,84.93,1
1725,0,55789,61526,53993.8,59282.05,1795.2,2243.95,0,0,1.002818,84.93,1
1735,0,55801,61560,54029.94,59327.6,1771.05,2232.39,0,0,1.002888,84.93,1
1745,0,55821,61588,54065.76,59372.82,1755.23,2215.18,0,0,1.002958,84.93,1
1755,0,55834,61628,54101.13,59417.92,1732.87,2210.08,0,0,1.003032,84.92,1
1765,0,55859,61671,54136.29,59462.98,1722.71,2208.02,0,0,1.003109,84.92,1
1775,0,55879,61698,54171.14,59507.69,1707.86,2190.31,0,0,1.003184,84.92,1
1786,0,55900,61753,54205.72,59552.59,1694.28,2200.41,0,0,1.003266,84.92,1
1796,0,55924,61792,54240.08,59597.38,1683.91,2194.62,0,0,1.003348,84.92,1
1806,0,55949,61813,54274.26,59641.7,1674.73,2171.3,0,0,1.003427,84.91,1
1816,0,55951,61830,54307.8,59685.47,1643.2,2144.53,0,0,1.003508,84.91,1
1825,0,55966,61840,54340.96,59728.56,1625.04,2111.44,0,0,1.003586,84.91,1
1836,0,55965,61836,54373.45,59770.71,1591.55,2065.29,0,0,1.003661,84.91,1
1846,0,55960,61825,54405.18,59811.8,1554.82,2013.2,0,0,1.003735,84.91,1
1855,0,55941,61808,54435.9,59851.72,1505.1,1956.28,0,0,1.003808,84.9,1
1865,0,55928,61784,54465.74,59890.37,1462.26,1893.63,0,0,1.003878,84.9,1
1875,0,55918,61760,54494.78,59927.76,1423.21,1832.24,0,0,1.003944,84.9,1
1885,0,55900,61728,54522.89,59963.76,1377.11,1764.23,0,0,1.004006,84.9,1
1895,0,55873,61688,54549.89,59998.25,1323.11,1689.75,0,0,1.004065,84.9,1
1905,0,55846,61638,54575.82,60031.05,1270.18,1606.95,0,0,1.004118,84.9,1
1915,0,55820,61587,54600.7,60062.17,1219.3,1524.83,0,0,1.004165,84.9,1
1925,0,55777,61527,54624.23,60091.46,1152.77,1435.54,0,0,1.004208,84.89,1
1936,0,55746,61460,54646.66,60118.83,1099.34,1341.16,0,0,1.004243,84.89,1
1946,0,55713,61415,54667.99,60144.76,1045.01,1270.24,0,0,1.004275,84.89,1
1955,0,55682,61380,54688.27,60169.47,993.73,1210.53,0,0,1.004307,84.89,1
1966,0,55663,61342,54707.77,60192.92,955.23,1149.08,0,0,1.004334,84.89,1
1976,0,55652,61330,54726.65,60215.67,925.35,1114.33,0,0,1.00436,84.89,1
1985,0,55638,61334,54744.88,60238.03,893.12,1095.96,0,0,1.004391,84.89,1
1995,0,55631,61358,54762.6,60260.44,868.39,1097.56,0,0,1.00443,84.89,1
2006,0,55630,61395,54779.96,60283.13,850.04,1111.87,0,0,1.004478,84.89,1
2016,0,55642,61442,54797.2,60306.31,844.8,1135.69,0,0,1.004535,84.89,1
2025,0,55662,61504,54814.5,60330.26,847.5,1173.74,0,0,1.0046,84.88,1
2035,0,55685,61570,54831.91,60355.05,853.09,1214.95,0,0,1.004674,84.88,1
2045,0,55727,61650,54849.81,60380.95,877.19,1269.05,0,0,1.004755,84.88,1
2056,0,55787,61751,54868.55,60408.35,918.45,1342.64,0,0,1.004841,84.88,1
2065,0,55841,61841,54888,60437.01,953,1403.99,0,0,1.004932,84.88,1
2075,0,55896,61925,54908.16,60466.77,987.84,1458.23,0,0,1.005026,84.87,1
2085,0,55938,61991,54928.76,60497.26,1009.24,1493.74,0,0,1.005121,84.87,1
2096,0,55986,62055,54949.91,60528.41,1036.09,1526.59,0,0,1.005216,84.87,1
2105,0,56017,62092,54971.25,60559.69,1045.75,1532.31,0,0,1.005309,84.87,1
2115,0,56039,62120,54992.6,60590.89,1046.39,1529.11,0,0,1.005401,84.86,1
2125,0,56049,62143,55013.73,60621.94,1035.27,1521.06,0,0,1.005493,84.86,1
2135,0,56060,62139,55034.66,60652.28,1025.34,1486.72,0,0,1.00558,84.86,1
2145,0,56060,62130,55055.17,60681.84,1004.83,1448.16,0,0,1.005663,84.86,1
2155,0,56054,62130,55075.14,60710.8,978.86,1419.2,0,0,1.005747,84.86,1
2164,0,56043,62114,55094.5,60738.87,948.5,1375.13,0,0,1.005828,84.85,1
2174,0,56039,62107,55113.39,60766.23,925.61,1340.77,0,0,1.005908,84.85,1
2185,0,56031,62076,55131.75,60792.43,899.25,1283.57,0,0,1.005981,84.85,1
2196,0,56020,62076,55149.51,60818.1,870.48,1257.9,0,0,1.006056,84.85,1
2204,0,56017,62062,55166.87,60842.98,850.13,1219.02,0,0,1.006128,84.85,1
2214,0,56005,62060,55183.63,60867.32,821.37,1192.68,0,0,1.006201,84.84,1
2226,0,56005,62043,55200.06,60890.83,804.94,1152.16,0,0,1.006268,84.84,1
2236,0,56000,62044,55216.06,60913.9,783.94,1130.1,0,0,1.006336,84.84,1
2244,0,55996,62040,55231.66,60936.42,764.34,1103.58,0,0,1.006403,84.84,1
2255,0,55990,62066,55246.83,60959.01,743.17,1106.98,0,0,1.006478,84.84,1
2266,0,56010,62104,55262.09,60981.91,747.91,1122.09,0,0,1.006554,84.84,1
2276,0,56045,62164,55277.75,61005.56,767.25,1158.44,0,0,1.006633,84.83,1
2285,0,56094,62251,55294.07,61030.47,799.93,1220.53,0,0,1.006716,84.83,1
2295,0,56149,62333,55311.17,61056.52,837.82,1276.48,0,0,1.006802,84.83,1
2306,0,56207,62406,55329.09,61083.51,877.91,1322.49,0,0,1.006886,84.83,1
2314,0,56254,62481,55347.59,61111.46,906.41,1369.54,0,0,1.006972,84.83,1
2325,0,56297,62523,55366.58,61139.7,930.42,1383.3,0,0,1.007054,84.82,1
2335,0,56331,62553,55385.87,61167.96,945.13,1385.04,0,0,1.007132,84.82,1
2345,0,56357,62606,55405.3,61196.73,951.7,1409.27,0,0,1.007212,84.82,1
2355,0,56380,62610,55424.79,61224.99,955.21,1385.01,0,0,1.007287,84.82,1
2365,0,56389,62622,55444.08,61252.93,944.92,1369.07,0,0,1.00736,84.82,1
2375,0,56402,62626,55463.24,61280.39,938.76,1345.61,0,0,1.007429,84.81,1
2385,0,56411,62619,55482.19,61307.17,928.81,1311.83,0,0,1.007494,84.81,1
2395,0,56408,62611,55500.71,61333.25,907.29,1277.75,0,0,1.007556,84.81,1
2405,0,56399,62606,55518.67,61358.7,880.32,1247.3,0,0,1.007619,84.81,1
2415,0,56399,62584,55536.28,61383.21,862.71,1200.79,0,0,1.007676,84.81,1
2425,0,56391,62593,55553.38,61407.41,837.62,1185.59,0,0,1.007736,84.81,1
2435,0,56391,62595,55570.13,61431.16,820.87,1163.84,0,0,1.007796,84.81,1
2445,0,56401,62603,55586.75,61454.59,814.25,1148.41,0,0,1.007853,84.8,1
2455,0,56403,62599,55603.07,61477.48,799.93,1121.52,0,0,1.007909,84.8,1
2465,0,56414,62618,55619.3,61500.3,794.7,1117.7,0,0,1.007964,84.8,1
2475,0,56429,62637,55635.49,61523.03,793.51,1113.97,0,0,1.008019,84.8,1
2485,0,56436,62657,55651.5,61545.71,784.5,1111.29,0,0,1.008076,84.8,1
2495,0,56461,62684,55667.69,61568.48,793.31,1115.52,0,0,1.00813,84.8,1
2505,0,56477,62711,55683.88,61591.33,793.12,1119.67,0,0,1.008185,84.8,1
2514,0,56486,62725,55699.92,61614,786.08,1111,0,0,1.008241,84.79,1
2525,0,56493,62727,55715.78,61636.26,777.21,1090.73,0,0,1.008293,84.79,1
2535,0,56500,62730,55731.47,61658.14,768.53,1071.86,0,0,1.008344,84.79,1
2544,0,56498,62743,55746.8,61679.84,751.2,1063.16,0,0,1.008397,84.79,1
2554,0,56508,62750,55762.03,61701.25,745.97,1048.75,0,0,1.008448,84.79,1
2565,0,56516,62754,55777.11,61722.3,738.89,1031.7,0,0,1.008497,84.79,1
2575,0,56529,62769,55792.14,61743.24,736.86,1025.76,0,0,1.008545,84.79,1
2584,0,56527,62752,55806.84,61763.41,720.16,988.59,0,0,1.008589,84.79,1
2594,0,56528,62757,55821.26,61783.29,706.74,973.71,0,0,1.008633,84.78,1
2605,0,56522,62750,55835.28,61802.62,686.72,947.38,0,0,1.008677,84.78,1
2615,0,56518,62754,55848.93,61821.65,669.07,932.35,0,0,1.008722,84.78,1
2624,0,56521,62753,55862.37,61840.28,658.63,912.72,0,0,1.008765,84.78,1
2634,0,56521,62758,55875.55,61858.63,645.45,899.37,0,0,1.008808,84.78,1
2644,0,56522,62753,55888.48,61876.52,633.52,876.48,0,0,1.00885,84.78,1
2655,0,56525,62746,55901.21,61893.91,623.79,852.09,0,0,1.008888,84.78,1
2665,0,56518,62737,55913.54,61910.77,604.46,826.23,0,0,1.008925,84.78,1
2674,0,56512,62735,55925.51,61927.26,586.49,807.74,0,0,1.008964,84.78,1
2684,0,56508,62717,55937.16,61943.05,570.84,773.95,0,0,1.008998,84.78,1
2695,0,56502,62711,55948.46,61958.41,553.54,752.59,0,0,1.009032,84.77,1
2705,0,56498,62697,55959.45,61973.19,538.55,723.81,0,0,1.009063,84.77,1
2715,0,56494,62699,55970.14,61987.71,523.86,711.29,0,0,1.009096,84.77,1
2724,0,56495,62708,55980.64,62002.11,514.36,705.89,0,0,1.009129,84.77,1
2735,0,56505,62705,55991.13,62016.17,513.87,688.83,0,0,1.009159,84.77,1
2745,0,56510,62706,56001.51,62029.97,508.49,676.03,0,0,1.009187,84.77,1
2755,0,56508,62717,56011.64,62043.71,496.36,673.29,0,0,1.009217,84.77,1
2764,0,56515,62729,56021.71,62057.42,493.29,671.58,0,0,1.009248,84.77,1
2775,0,56517,62731,56031.62,62070.89,485.38,660.11,0,0,1.009279,84.77,1
2785,0,56525,62739,56041.48,62084.25,483.52,654.75,0,0,1.009308,84.77,1
2795,0,56532,62749,56051.3,62097.55,480.7,651.45,0,0,1.009337,84.77,1
2804,0,56534,62744,56060.95,62110.48,473.05,633.52,0,0,1.009364,84.77,1
2814,0,56538,62761,56070.5,62123.49,467.5,637.51,0,0,1.009394,84.77,1
2825,0,56551,62767,56080.1,62136.36,470.89,630.64,0,0,1.009421,84.76,1
2835,0,56557,62768,56089.64,62149,467.36,619,0,0,1.009446,84.76,1
2845,0,56569,62778,56099.23,62161.57,469.77,616.43,0,0,1.009469,84.76,1
2853,0,56570,62779,56108.64,62173.92,461.36,605.08,0,0,1.009492,84.76,1
2864,0,56568,62781,56117.83,62186.07,450.17,594.93,0,0,1.009516,84.76,1
2875,0,56575,62771,56126.98,62197.76,448.02,573.23,0,0,1.009535,84.76,1
2885,0,56578,62770,56136,62209.21,442,560.79,0,0,1.009552,84.76,1
2893,0,56575,62757,56144.78,62220.17,430.22,536.83,0,0,1.009567,84.76,1
2904,0,56560,62743,56153.08,62230.62,406.92,512.38,0,0,1.009583,84.76,1
2914,0,56561,62736,56161.24,62240.73,399.76,495.27,0,0,1.009596,84.76,1
2924,0,56548,62719,56168.98,62250.3,379.02,468.7,0,0,1.009609,84.76,1
2934,0,56554,62719,56176.67,62259.67,377.32,459.32,0,0,1.009619,84.76,1
2944,0,56548,62717,56184.1,62268.82,363.89,448.18,0,0,1.009631,84.76,1
2954,0,56548,62715,56191.39,62277.75,356.61,437.25,0,0,1.009641,84.76,1
2964,0,56555,62706,56198.66,62286.32,356.34,419.68,0,0,1.009647,84.76,1
2974,0,56557,62698,56205.83,62294.55,351.17,403.45,0,0,1.009651,84.76,1
2983,0,56541,62682,56212.53,62302.3,328.47,379.7,0,0,1.009655,84.76,1
2994,0,56537,62661,56219.02,62309.48,317.98,351.52,0,0,1.009655,84.76,1
3004,0,56530,62639,56225.24,62316.07,304.76,322.93,0,0,1.009651,84.76,1
3014,0,56510,62605,56230.94,62321.85,279.06,283.15,0,0,1.009643,84.76,1
3024,0,56490,62568,56236.12,62326.77,253.88,241.23,0,0,1.009631,84.76,1
3034,0,56468,62533,56240.76,62330.9,227.24,202.1,0,0,1.009617,84.76,1
3044,0,56446,62487,56244.87,62334.02,201.13,152.98,0,0,1.009596,84.76,1
3054,0,56416,62441,56248.29,62336.16,167.71,104.84,0,0,1.009571,84.76,1
3064,0,56394,62394,56251.21,62337.32,142.79,56.68,0,0,1.00954,84.76,1
3074,0,56371,62340,56253.6,62337.37,117.4,2.63,0,0,1.009499,84.76,1
3084,0,56333,62291,56255.19,62336.44,77.81,-45.45,0,0,1.009456,84.76,1
3094,0,56313,62245,56256.35,62334.62,56.65,-89.62,0,0,1.009405,84.76,1
3104,0,56282,62190,56256.87,62331.73,25.13,-141.73,0,0,1.009347,84.77,1
3115,0,56254,62119,56256.81,62327.47,-2.81,-208.47,0,0,1.009275,84.77,1
3125,0,56228,62063,56256.23,62322.19,-28.23,-259.19,0,0,1.009194,84.77,1
3133,0,56186,61992,56254.82,62315.58,-68.82,-323.59,0,0,1.009102,84.77,1
3143,0,56153,61913,56252.79,62307.54,-99.79,-394.54,0,0,1.008995,84.78,1
3153,0,56106,61834,56249.85,62298.07,-143.86,-464.07,0,0,1.008875,84.78,1
3164,0,56054,61730,56245.94,62286.71,-191.94,-556.71,0,0,1.008735,84.78,1
3175,0,55996,61639,56240.94,62273.76,-244.94,-634.76,0,0,1.008581,84.79,1
3183,0,55954,61557,56235.2,62259.42,-281.2,-702.43,0,0,1.008411,84.79,1
3193,0,55905,61488,56228.6,62244,-323.6,-756,0,0,1.008234,84.79,1
3204,0,55870,61423,56221.42,62227.58,-351.43,-804.58,0,0,1.008044,84.8,1
3214,0,55837,61381,56213.74,62210.65,-376.74,-829.65,0,0,1.007854,84.8,1
3223,0,55816,61357,56205.78,62193.58,-389.79,-836.58,0,0,1.007665,84.81,1
3233,0,55809,61359,56197.85,62176.89,-388.85,-817.89,0,0,1.007485,84.81,1
3244,0,55797,61357,56189.83,62160.5,-392.84,-803.5,0,0,1.007313,84.82,1
3254,0,55799,61368,56182.02,62144.65,-383.02,-776.65,0,0,1.00715,84.82,1
3264,0,55808,61366,56174.54,62129.08,-366.54,-763.08,0,0,1.006985,84.83,1
3273,0,55810,61378,56167.25,62114.05,-357.25,-736.05,0,0,1.006829,84.83,1
3283,0,55812,61397,56160.14,62099.71,-348.14,-702.71,0,0,1.006685,84.83,1
3294,0,55819,61393,56153.32,62085.58,-334.32,-692.58,0,0,1.006539,84.84,1
3304,0,55826,61397,56146.77,62071.81,-320.77,-674.81,0,0,1.006395,84.84,1
3313,0,55820,61396,56140.24,62058.3,-320.24,-662.3,0,0,1.006256,84.84,1
3323,0,55830,61397,56134.03,62045.07,-304.04,-648.07,0,0,1.006117,84.85,1
3334,0,55832,61376,56128,62031.69,-296,-655.7,0,0,1.00597,84.85,1
3344,0,55832,61369,56122.08,62018.44,-290.08,-649.44,0,0,1.005823,84.85,1
3353,0,55827,61347,56116.17,62005.01,-289.18,-658.02,0,0,1.005671,84.86,1
3363,0,55825,61334,56110.35,61991.6,-285.35,-657.6,0,0,1.005517,84.86,1
3374,0,55821,61294,56104.56,61977.64,-283.56,-683.64,0,0,1.005349,84.87,1
3384,0,55822,61274,56098.91,61963.57,-276.91,-689.57,0,0,1.005174,84.87,1
3393,0,55807,61253,56093.08,61949.36,-286.08,-696.36,0,0,1.005,84.88,1
3403,0,55803,61241,56087.28,61935.2,-284.28,-694.2,0,0,1.004825,84.88,1
3414,0,55799,61215,56081.51,61920.8,-282.51,-705.8,0,0,1.004643,84.88,1
3424,0,55803,61194,56075.94,61906.26,-272.94,-712.26,0,0,1.004454,84.89,1
3434,0,55803,61190,56070.48,61891.94,-267.48,-701.94,0,0,1.004266,84.89,1
3443,0,55803,61177,56065.13,61877.64,-262.13,-700.64,0,0,1.004076,84.9,1
3453,0,55803,61175,56059.89,61863.59,-256.89,-688.59,0,0,1.00389,84.9,1
3464,0,55802,61169,56054.73,61849.7,-252.73,-680.7,0,0,1.003705,84.91,1
3474,0,55809,61158,56049.82,61835.87,-240.82,-677.87,0,0,1.003515,84.91,1
3483,0,55805,61159,56044.92,61822.33,-239.92,-663.33,0,0,1.003333,84.92,1
3493,0,55805,61157,56040.12,61809.03,-235.13,-652.03,0,0,1.003153,84.92,1
3504,0,55810,61152,56035.52,61795.89,-225.52,-643.89,0,0,1.002973,84.93,1
3514,0,55807,61143,56030.95,61782.83,-223.95,-639.83,0,0,1.002794,84.93,1
3523,0,55800,61145,56026.33,61770.07,-226.34,-625.07,0,0,1.002622,84.93,1
3533,0,55802,61128,56021.85,61757.23,-219.85,-629.23,0,0,1.002446,84.94,1
3544,0,55795,61116,56017.31,61744.41,-222.31,-628.41,0,0,1.00227,84.94,1
3554,0,55793,61113,56012.82,61731.78,-219.82,-618.78,0,0,1.002098,84.95,1
3563,0,55793,61109,56008.43,61719.33,-215.43,-610.33,0,0,1.001927,84.95,1
3573,0,55793,61108,56004.12,61707.1,-211.12,-599.1,0,0,1.001761,84.96,1
3584,0,55786,61091,55999.76,61694.78,-213.76,-603.78,0,0,1.001592,84.96,1
3594,0,55789,61091,55995.55,61682.71,-206.55,-591.71,0,0,1.001426,84.96,1
3603,0,55791,61097,55991.46,61671,-200.46,-574,0,0,1.001265,84.97,1
3613,0,55801,61099,55987.65,61659.56,-186.65,-560.56,0,0,1.001105,84.97,1
3623,0,55808,61085,55984.06,61648.07,-176.06,-563.07,0,0,1.000939,84.98,1
3634,0,55812,61098,55980.62,61637.07,-168.62,-539.07,0,0,1.000782,84.98,1
3643,0,55810,61094,55977.21,61626.21,-167.21,-532.21,0,0,1.000626,84.98,1
3653,0,55825,61100,55974.16,61615.68,-149.16,-515.68,0,0,1.000471,84.99,1
3663,0,55820,61094,55971.08,61605.25,-151.08,-511.25,0,0,1.000319,84.99,1
3674,0,55829,61099,55968.24,61595.12,-139.24,-496.13,0,0,1.000168,85,1
3683,0,55826,61094,55965.39,61585.1,-139.39,-491.1,0,0,1.00002,85,1
3693,0,55834,61089,55962.76,61575.18,-128.77,-486.18,0,0,0.99987,85,1
3703,0,55827,61086,55960.05,61565.4,-133.05,-479.4,0,0,0.999724,85.01,1
3714,0,55829,61082,55957.43,61555.73,-128.43,-473.73,0,0,0.999579,85.01,1
3723,0,55818,61078,55954.64,61546.17,-136.64,-468.18,0,0,0.999439,85.01,1
3733,0,55813,61080,55951.81,61536.85,-138.81,-456.86,0,0,0.999306,85.02,1
3743,0,55815,61072,55949.08,61527.56,-134.08,-455.56,0,0,0.999171,85.02,1
3753,0,55815,61083,55946.4,61518.67,-131.4,-435.67,0,0,0.999045,85.02,1
3764,0,55812,61090,55943.71,61510.1,-131.71,-420.1,0,0,0.998925,85.03,1
3773,0,55819,61096,55941.21,61501.82,-122.21,-405.82,0,0,0.998809,85.03,1
3783,0,55829,61100,55938.97,61493.78,-109.97,-393.79,0,0,0.998693,85.03,1
3793,0,55819,61106,55936.57,61486.03,-117.57,-380.03,0,0,0.998586,85.04,1
3804,0,55813,61113,55934.1,61478.57,-121.1,-365.57,0,0,0.998487,85.04,1
3813,0,55821,61113,55931.84,61471.26,-110.84,-358.27,0,0,0.998387,85.04,1
3823,0,55810,61113,55929.41,61464.1,-119.41,-351.1,0,0,0.998294,85.04,1
3833,0,55824,61116,55927.3,61457.14,-103.3,-341.14,0,0,0.998199,85.05,1
3844,0,55821,61113,55925.17,61450.26,-104.17,-337.26,0,0,0.998105,85.05,1
3853,0,55812,61102,55922.91,61443.3,-110.91,-341.3,0,0,0.998013,85.05,1
3863,0,55807,61098,55920.59,61436.39,-113.59,-338.39,0,0,0.997922,85.05,1
3873,0,55801,61089,55918.2,61429.45,-117.2,-340.45,0,0,0.997832,85.05,1
3884,0,55802,61101,55915.87,61422.88,-113.87,-321.88,0,0,0.997749,85.06,1
3893,0,55809,61120,55913.74,61416.82,-104.74,-296.82,0,0,0.997673,85.06,1
3903,0,55823,61149,55911.92,61411.47,-88.93,-262.47,0,0,0.997606,85.06,1
3913,0,55822,61162,55910.13,61406.48,-88.13,-244.48,0,0,0.997547,85.06,1
3923,0,55833,61167,55908.58,61401.69,-75.59,-234.69,0,0,0.997487,85.06,1
3934,0,55840,61181,55907.21,61397.28,-67.21,-216.28,0,0,0.99743,85.06,1
3943,0,55841,61195,55905.89,61393.23,-64.89,-198.23,0,0,0.997381,85.07,1
3953,0,55851,61200,55904.79,61389.37,-53.79,-189.37,0,0,0.997331,85.07,1
3963,0,55848,61194,55903.66,61385.46,-55.66,-191.46,0,0,0.99728,85.07,1
3974,0,55845,61172,55902.49,61381.2,-57.49,-209.2,0,0,0.997223,85.07,1
3984,0,55843,61171,55901.3,61377,-58.3,-206,0,0,0.997168,85.07,1
3992,0,55839,61166,55900.06,61372.78,-61.06,-206.78,0,0,0.997113,85.07,1
4002,0,55830,61164,55898.66,61368.61,-68.66,-204.61,0,0,0.997062,85.07,1
4013,0,55821,61150,55897.11,61364.24,-76.11,-214.24,0,0,0.997009,85.07,1
4023,0,55818,61121,55895.53,61359.37,-77.53,-238.38,0,0,0.996947,85.08,1
4033,0,55813,61119,55893.88,61354.57,-80.88,-235.57,0,0,0.996887,85.08,1
4042,0,55799,61096,55891.98,61349.4,-92.98,-253.4,0,0,0.996824,85.08,1
4052,0,55788,61094,55889.91,61344.29,-101.91,-250.29,0,0,0.996766,85.08,1
4063,0,55782,61088,55887.75,61339.17,-105.75,-251.17,0,0,0.996709,85.08,1
4073,0,55774,61088,55885.48,61334.15,-111.48,-246.15,0,0,0.996657,85.08,1
4083,0,55779,61072,55883.35,61328.91,-104.35,-256.91,0,0,0.996597,85.09,1
4092,0,55760,61062,55880.88,61323.57,-120.88,-261.57,0,0,0.996541,85.09,1
4103,0,55744,61055,55878.14,61318.2,-134.14,-263.2,0,0,0.996491,85.09,1
4113,0,55729,61030,55875.16,61312.44,-146.16,-282.44,0,0,0.996437,85.09,1
4123,0,55715,61030,55871.96,61306.79,-156.96,-276.79,0,0,0.99639,85.09,1
4132,0,55714,61029,55868.8,61301.24,-154.8,-272.24,0,0,0.996344,85.09,1
4143,0,55706,61032,55865.55,61295.85,-159.55,-263.86,0,0,0.996305,85.09,1
4153,0,55700,61038,55862.24,61290.7,-162.24,-252.7,0,0,0.996272,85.09,1
4163,0,55705,61043,55859.1,61285.75,-154.1,-242.75,0,0,0.996239,85.09,1
4173,0,55704,61049,55856,61281.01,-152,-232.02,0,0,0.99621,85.09,1
4183,0,55708,61058,55853.04,61276.55,-145.04,-218.55,0,0,0.996185,85.1,1
4193,0,55702,61063,55850.02,61272.28,-148.02,-209.29,0,0,0.996164,85.1,1
4203,0,55710,61066,55847.22,61268.16,-137.22,-202.16,0,0,0.996142,85.1,1
4213,0,55711,61077,55844.5,61264.33,-133.5,-187.34,0,0,0.996125,85.1,1
4222,0,55713,61089,55841.87,61260.83,-128.87,-171.83,0,0,0.996112,85.1,1
4233,0,55725,61114,55839.53,61257.9,-114.53,-143.9,0,0,0.996104,85.1,1
4243,0,55743,61110,55837.6,61254.94,-94.6,-144.94,0,0,0.996088,85.1,1
4253,0,55743,61134,55835.71,61252.52,-92.71,-118.52,0,0,0.996081,85.1,1
4263,0,55749,61152,55833.98,61250.51,-84.98,-98.51,0,0,0.996079,85.1,1
4273,0,55760,61160,55832.5,61248.7,-72.5,-88.7,0,0,0.996076,85.1,1
4283,0,55758,61178,55831.01,61247.29,-73.01,-69.29,0,0,0.99608,85.1,1
4293,0,55763,61186,55829.65,61246.06,-66.65,-60.06,0,0,0.996085,85.1,1
4302,0,55766,61193,55828.38,61245,-62.38,-52,0,0,0.996091,85.1,1
4313,0,55771,61198,55827.23,61244.06,-56.23,-46.06,0,0,0.996096,85.1,1
4323,0,55769,61210,55826.07,61243.38,-57.07,-33.38,0,0,0.996107,85.1,1
4332,0,55770,61220,55824.95,61242.91,-54.95,-22.91,0,0,0.99612,85.1,1
4342,0,55771,61227,55823.87,61242.6,-52.88,-15.6,0,0,0.996135,85.1,1
4353,0,55778,61241,55822.96,61242.57,-44.96,-1.57,0,0,0.996152,85.1,1
4363,0,55777,61253,55822.04,61242.77,-45.04,10.23,0,0,0.996173,85.1,1
4373,0,55788,61259,55821.36,61243.1,-33.36,15.9,0,0,0.99619,85.1,1
4383,0,55795,61274,55820.83,61243.72,-25.83,30.28,0,0,0.99621,85.09,1
4393,0,55793,61297,55820.28,61244.78,-27.28,52.21,0,0,0.996236,85.09,1
4402,0,55809,61328,55820.05,61246.45,-11.05,81.55,0,0,0.996265,85.09,1
4412,0,55825,61363,55820.15,61248.78,4.85,114.22,0,0,0.996297,85.09,1
4422,0,55841,61412,55820.57,61252.05,20.43,159.95,0,0,0.996334,85.09,1
4432,0,55863,61444,55821.42,61255.89,41.58,188.11,0,0,0.996369,85.09,1
4443,0,55881,61484,55822.62,61260.45,58.38,223.55,0,0,0.996406,85.09,1
4453,0,55894,61543,55824.04,61266.1,69.96,276.9,0,0,0.996447,85.09,1
4462,0,55924,61586,55826.04,61272.5,97.96,313.5,0,0,0.996484,85.09,1
4472,0,55948,61645,55828.48,61279.95,119.52,365.05,0,0,0.996519,85.09,1
4483,0,55970,61685,55831.31,61288.05,138.69,396.95,0,0,0.996551,85.09,1
4493,0,55993,61736,55834.55,61297.01,158.45,438.99,0,0,0.996578,85.09,1
4503,0,56023,61791,55838.32,61306.89,184.68,484.11,0,0,0.996599,85.09,1
4512,0,56044,61840,55842.43,61317.55,201.57,522.45,0,0,0.996613,85.08,1
4523,0,56065,61882,55846.88,61328.84,218.12,553.16,0,0,0.996622,85.08,1
4533,0,56097,61914,55851.89,61340.55,245.11,573.45,0,0,0.996623,85.08,1
4543,0,56106,61937,55856.97,61352.48,249.03,584.52,0,0,0.996622,85.08,1
4553,0,56123,61968,55862.3,61364.79,260.7,603.21,0,0,0.996616,85.08,1
4562,0,56135,61978,55867.75,61377.06,267.25,600.94,0,0,0.996608,85.08,1
4573,0,56135,61998,55873.09,61389.48,261.91,608.52,0,0,0.996598,85.09,1
4583,0,56142,62010,55878.47,61401.89,263.53,608.11,0,0,0.996587,85.09,1
4593,0,56154,62028,55883.98,61414.41,270.02,613.59,0,0,0.996574,85.09,1
4602,0,56164,62052,55889.58,61427.16,274.42,624.84,0,0,0.996557,85.09,1
4613,0,56181,62096,55895.41,61440.54,285.59,655.46,0,0,0.996531,85.09,1
4623,0,56202,62128,55901.55,61454.29,300.45,673.71,0,0,0.996499,85.09,1
4633,0,56231,62167,55908.14,61468.54,322.86,698.46,0,0,0.996458,85.09,1
4643,0,56254,62207,55915.05,61483.31,338.95,723.69,0,0,0.996408,85.09,1
4652,0,56271,62243,55922.17,61498.51,348.83,744.49,0,0,0.99635,85.09,1
4662,0,56292,62256,55929.57,61513.66,362.43,742.34,0,0,0.996292,85.09,1
4673,0,56293,62262,55936.84,61528.62,356.16,733.38,0,0,0.996234,85.09,1
4683,0,56301,62266,55944.12,61543.37,356.88,722.63,0,0,0.996179,85.1,1
4691,0,56296,62255,55951.16,61557.61,344.84,697.39,0,0,0.996129,85.1,1
4702,0,56286,62226,55957.86,61570.98,328.14,655.02,0,0,0.99609,85.1,1
4712,0,56258,62184,55963.86,61583.24,294.14,600.76,0,0,0.996063,85.1,1
4723,0,56231,62147,55969.21,61594.51,261.79,552.48,0,0,0.996047,85.1,1
4733,0,56196,62094,55973.74,61604.5,222.26,489.5,0,0,0.996043,85.1,1
4742,0,56163,62041,55977.53,61613.23,185.47,427.77,0,0,0.99605,85.1,1
4752,0,56125,61995,55980.48,61620.87,144.52,374.13,0,0,0.996066,85.1,1
4762,0,56099,61947,55982.85,61627.39,116.15,319.61,0,0,0.996088,85.1,1
4772,0,56073,61926,55984.66,61633.37,88.34,292.63,0,0,0.996115,85.1,1
4782,0,56059,61901,55986.14,61638.72,72.86,262.28,0,0,0.996144,85.1,1
4792,0,56053,61906,55987.48,61644.07,65.52,261.93,0,0,0.996175,85.1,1
4802,0,56043,61917,55988.59,61649.53,54.41,267.47,0,0,0.996209,85.09,1
4812,0,56047,61921,55989.76,61654.96,57.24,266.04,0,0,0.996242,85.09,1
4823,0,56067,61951,55991.31,61660.88,75.69,290.12,0,0,0.996271,85.09,1
4832,0,56074,61977,55992.96,61667.21,81.04,309.79,0,0,0.996297,85.09,1
4842,0,56086,61994,55994.82,61673.74,91.18,320.26,0,0,0.996321,85.09,1
4852,0,56103,62000,55996.99,61680.27,106.01,319.73,0,0,0.996341,85.09,1
4862,0,56106,62008,55999.17,61686.82,106.83,321.18,0,0,0.99636,85.09,1
4873,0,56107,62027,56001.33,61693.63,105.67,333.37,0,0,0.996379,85.09,1
4882,0,56108,62037,56003.46,61700.5,104.54,336.5,0,0,0.996397,85.09,1
4892,0,56113,62063,56005.66,61707.75,107.34,355.25,0,0,0.996414,85.09,1
4902,0,56125,62070,56008.05,61715,116.95,355,0,0,0.996427,85.09,1
4913,0,56146,62106,56010.8,61722.82,135.2,383.18,0,0,0.996434,85.09,1
4923,0,56156,62150,56013.71,61731.36,142.29,418.64,0,0,0.996435,85.09,1
4932,0,56183,62189,56017.1,61740.52,165.9,448.48,0,0,0.996426,85.09,1
4942,0,56209,62233,56020.94,61750.37,188.06,482.63,0,0,0.996407,85.09,1
4953,0,56232,62269,56025.16,61760.74,206.84,508.26,0,0,0.996378,85.09,1
4963,0,56266,62307,56029.98,61771.67,236.02,535.33,0,0,0.996339,85.09,1
4971,0,56283,62328,56035.04,61782.79,247.96,545.21,0,0,0.996296,85.09,1
4982,0,56299,62360,56040.32,61794.33,258.68,565.66,0,0,0.996245,85.09,1
4993,0,56315,62371,56045.82,61805.87,269.18,565.13,0,0,0.996193,85.1,1
5003,0,56325,62384,56051.4,61817.43,273.6,566.57,0,0,0.996138,85.1,1
5013,0,56335,62395,56057.07,61828.98,277.93,566.02,-0.000101,-0.000187,0.996084,85.1,1
5022,0,56343,62396,56062.79,61840.32,280.21,555.68,-0.000203,-0.00037,0.996031,85.1,1
5033,0,56338,62417,56068.3,61851.85,269.7,565.14,-0.000301,-0.000557,0.995974,85.1,1
5043,0,56347,62428,56073.88,61863.38,273.12,564.62,-0.000401,-0.000743,0.995915,85.1,1
5052,0,56357,62455,56079.54,61875.21,277.46,579.79,-0.000502,-0.000934,0.995849,85.1,1
5062,0,56368,62470,56085.31,61887.11,282.69,582.89,-0.000605,-0.001127,0.99578,85.11,1
5072,0,56376,62487,56091.12,61899.1,284.88,587.89,-0.000708,-0.00132,0.995708,85.11,1
5083,0,56385,62512,56097,61911.36,288,600.64,-0.000813,-0.001518,0.995629,85.11,1
5092,0,56405,62553,56103.17,61924.19,301.83,628.8,-0.000923,-0.001726,0.995536,85.11,1
5103,0,56433,62596,56109.76,61937.63,323.23,658.37,-0.001041,-0.001943,0.995429,85.11,1
5112,0,56458,62631,56116.73,61951.5,341.27,679.5,-0.001165,-0.002167,0.99531,85.12,1
5123,0,56491,62676,56124.22,61966,366.78,710,-0.001298,-0.0024,0.995177,85.12,1
5133,0,56516,62701,56132.05,61980.69,383.95,720.3,-0.001438,-0.002638,0.99504,85.12,1
5142,0,56540,62723,56140.21,61995.54,399.79,727.46,-0.001583,-0.002877,0.9949,85.13,1
5152,0,56549,62730,56148.39,62010.23,400.61,719.77,-0.001729,-0.003114,0.994764,85.13,1
5161,0,56551,62736,56156.44,62024.75,394.55,711.25,-0.001872,-0.003348,0.994629,85.13,1
5173,0,56556,62741,56164.44,62039.08,391.56,701.92,-0.002015,-0.003579,0.994498,85.14,1
5182,0,56574,62746,56172.63,62053.22,401.37,692.78,-0.00216,-0.003807,0.994375,85.14,1
5192,0,56571,62762,56180.59,62067.39,390.41,694.61,-0.002302,-0.004035,0.994245,85.14,1
5202,0,56585,62779,56188.68,62081.62,396.32,697.38,-0.002446,-0.004265,0.994113,85.15,1
5213,0,56583,62789,56196.57,62095.77,386.43,693.23,-0.002587,-0.004493,0.993978,85.15,1
5222,0,56603,62795,56204.7,62109.76,398.3,685.24,-0.002731,-0.004718,0.993851,85.15,1
5231,0,56611,62817,56212.82,62123.9,398.18,693.1,-0.002876,-0.004945,0.993717,85.16,1
5242,0,56620,62825,56220.97,62137.92,399.03,687.07,-0.003021,-0.005171,0.993586,85.16,1
5252,0,56628,62837,56229.11,62151.91,398.89,685.09,-0.003165,-0.005396,0.993454,85.16,1
5263,0,56640,62836,56237.33,62165.59,402.67,670.41,-0.003312,-0.005616,0.993332,85.17,1
5272,0,56641,62835,56245.4,62178.98,395.6,656.02,-0.003455,-0.005832,0.993216,85.17,1
5282,0,56646,62836,56253.41,62192.12,392.59,643.88,-0.003598,-0.006043,0.993106,85.17,1
5292,0,56649,62830,56261.33,62204.88,387.67,625.12,-0.003738,-0.006248,0.993005,85.17,1
5303,0,56639,62841,56268.88,62217.6,370.12,623.4,-0.003873,-0.006453,0.992897,85.18,1
5312,0,56647,62846,56276.45,62230.17,370.55,615.83,-0.004007,-0.006655,0.992793,85.18,1
5323,0,56645,62840,56283.82,62242.37,361.18,597.63,-0.004138,-0.006851,0.992695,85.18,1
5332,0,56642,62836,56290.98,62254.24,351.02,581.76,-0.004265,-0.007041,0.992603,85.18,1
5342,0,56650,62837,56298.16,62265.9,351.84,571.1,-0.004393,-0.007229,0.992517,85.19,1
5352,0,56650,62842,56305.2,62277.42,344.8,564.58,-0.004518,-0.007414,0.99243,85.19,1
5361,0,56656,62843,56312.22,62288.73,343.78,554.27,-0.004642,-0.007595,0.992349,85.19,1
5372,0,56653,62847,56319.04,62299.9,333.96,547.1,-0.004763,-0.007774,0.992267,85.19,1
5382,0,56655,62834,56325.76,62310.58,329.24,523.41,-0.004883,-0.007946,0.992196,85.2,1
5393,0,56645,62825,56332.14,62320.87,312.86,504.13,-0.004996,-0.008111,0.992131,85.2,1
5402,0,56650,62822,56338.5,62330.9,311.5,491.1,-0.005109,-0.008272,0.99207,85.2,1
5412,0,56642,62818,56344.57,62340.64,297.43,477.36,-0.005217,-0.008428,0.992012,85.2,1
5422,0,56637,62809,56350.42,62350.01,286.58,458.99,-0.005321,-0.008578,0.991959,85.2,1
5432,0,56633,62806,56356.07,62359.13,276.93,446.87,-0.005421,-0.008725,0.991909,85.2,1
5442,0,56628,62799,56361.51,62367.93,266.49,431.07,-0.005517,-0.008866,0.991863,85.2,1
5451,0,56621,62792,56366.7,62376.41,254.3,415.59,-0.005609,-0.009002,0.99182,85.2,1
5463,0,56612,62775,56371.61,62384.39,240.39,390.61,-0.005696,-0.00913,0.991784,85.21,1
5472,0,56607,62760,56376.32,62391.9,230.68,368.1,-0.00578,-0.00925,0.991754,85.21,1
5482,0,56600,62761,56380.8,62399.28,219.2,361.72,-0.005859,-0.009368,0.991724,85.21,1
5492,0,56593,62755,56385.04,62406.4,207.96,348.6,-0.005935,-0.009482,0.991697,85.21,1
5502,0,56597,62759,56389.28,62413.45,207.71,345.55,-0.00601,-0.009595,0.991669,85.21,1
5512,0,56594,62760,56393.38,62420.38,200.62,339.62,-0.006083,-0.009707,0.991643,85.21,1
5523,0,56593,62749,56397.37,62426.96,195.63,322.04,-0.006153,-0.009812,0.991621,85.21,1
5532,0,56596,62749,56401.34,62433.4,194.66,315.6,-0.006224,-0.009915,0.9916,85.21,1
5541,0,56589,62747,56405.1,62439.67,183.9,307.33,-0.00629,-0.010015,0.99158,85.21,1
5552,0,56588,62736,56408.76,62445.6,179.24,290.4,-0.006355,-0.01011,0.991564,85.21,1
5562,0,56582,62727,56412.22,62451.23,169.78,275.77,-0.006417,-0.010201,0.99155,85.21,1
5572,0,56575,62724,56415.48,62456.68,159.52,267.32,-0.006474,-0.010288,0.991538,85.21,1
5581,0,56566,62699,56418.49,62461.53,147.51,237.47,-0.006528,-0.010365,0.991531,85.21,1
5593,0,56559,62696,56421.3,62466.22,137.7,229.78,-0.006578,-0.01044,0.991524,85.21,1
5602,0,56549,62681,56423.86,62470.51,125.14,210.48,-0.006623,-0.010509,0.991521,85.21,1
5612,0,56547,62680,56426.32,62474.71,120.68,205.29,-0.006667,-0.010576,0.991518,85.21,1
5622,0,56541,62670,56428.62,62478.61,112.38,191.39,-0.006707,-0.010639,0.991516,85.21,1
5632,0,56539,62659,56430.83,62482.22,108.17,176.78,-0.006746,-0.010697,0.991516,85.21,1
5642,0,56530,62654,56432.81,62485.66,97.19,168.34,-0.006782,-0.010752,0.991517,85.21,1
5651,0,56528,62653,56434.71,62489,93.29,164,-0.006815,-0.010805,0.991518,85.21,1
5662,0,56525,62646,56436.52,62492.15,88.48,153.85,-0.006847,-0.010856,0.99152,85.21,1
5671,0,56527,62642,56438.33,62495.15,88.67,146.85,-0.006879,-0.010904,0.991522,85.21,1
5683,0,56525,62644,56440.07,62498.12,84.93,145.88,-0.00691,-0.010951,0.991524,85.21,1
5692,0,56524,62631,56441.75,62500.78,82.25,130.21,-0.00694,-0.010994,0.991527,85.21,1
5702,0,56520,62631,56443.31,62503.39,76.69,127.61,-0.006968,-0.011035,0.99153,85.21,1
5711,0,56516,62617,56444.77,62505.66,71.23,111.34,-0.006993,-0.011072,0.991533,85.21,1
5723,0,56506,62622,56446,62507.99,60,114.01,-0.007015,-0.011109,0.991538,85.21,1
5732,0,56509,62615,56447.26,62510.13,61.74,104.87,-0.007037,-0.011143,0.991542,85.21,1
5742,0,56502,62603,56448.35,62511.99,53.65,91.01,-0.007057,-0.011173,0.991547,85.21,1
5751,0,56487,62593,56449.12,62513.61,37.88,79.39,-0.007071,-0.011199,0.991553,85.21,1
5761,0,56490,62590,56449.94,62515.14,40.05,74.86,-0.007085,-0.011223,0.991558,85.21,1
5772,0,56479,62580,56450.53,62516.44,28.47,63.56,-0.007095,-0.011244,0.991565,85.21,1
5782,0,56485,62585,56451.22,62517.81,33.78,67.19,-0.007108,-0.011266,0.99157,85.21,1
5791,0,56478,62572,56451.75,62518.9,26.25,53.1,-0.007117,-0.011284,0.991576,85.21,1
5803,0,56475,62565,56452.22,62519.82,22.78,45.18,-0.007125,-0.011298,0.99158,85.21,1
5812,0,56471,62563,56452.59,62520.69,18.41,42.31,-0.007132,-0.011312,0.991586,85.21,1
5822,0,56471,62559,56452.96,62521.46,18.04,37.54,-0.007139,-0.011324,0.99159,85.21,1
5831,0,56461,62542,56453.12,62521.87,7.88,20.13,-0.007141,-0.011331,0.991593,85.21,1
5842,0,56451,62538,56453.08,62522.19,-2.08,15.81,-0.007141,-0.011336,0.991599,85.21,1
5852,0,56454,62521,56453.1,62522.17,0.9,-1.17,-0.007141,-0.011336,0.991598,85.21,1
5862,0,56447,62518,56452.98,62522.09,-5.98,-4.09,-0.007139,-0.011335,0.991599,85.21,1
5871,0,56442,62514,56452.76,62521.93,-10.76,-7.93,-0.007135,-0.011332,0.9916,85.21,1
5881,0,56445,62525,56452.6,62521.99,-7.6,3.01,-0.007132,-0.011333,0.991604,85.21,1
5892,0,56443,62530,56452.41,62522.16,-9.41,7.84,-0.007129,-0.011336,0.99161,85.21,1
5902,0,56449,62539,56452.34,62522.5,-3.34,16.5,-0.007128,-0.011341,0.991617,85.21,1
5911,0,56462,62557,56452.53,62523.19,9.46,33.81,-0.007131,-0.011352,0.991623,85.21,1
5921,0,56465,62563,56452.78,62523.99,12.21,39.01,-0.007136,-0.011365,0.991629,85.21,1
5931,0,56470,62571,56453.13,62524.93,16.87,46.07,-0.007142,-0.01138,0.991635,85.21,1
5942,0,56479,62578,56453.64,62525.99,25.36,52.01,-0.007151,-0.011397,0.99164,85.21,1
5951,0,56484,62583,56454.25,62527.13,29.75,55.87,-0.007161,-0.011415,0.991644,85.21,1
5961,0,56490,62584,56454.97,62528.27,35.03,55.73,-0.007174,-0.011433,0.991647,85.21,1
5970,0,56490,62584,56455.67,62529.39,34.33,54.61,-0.007187,-0.011451,0.99165,85.21,1
5982,0,56479,62584,56456.14,62530.48,22.86,53.52,-0.007195,-0.011469,0.991656,85.21,1
5991,0,56478,62575,56456.57,62531.37,21.43,43.63,-0.007203,-0.011483,0.99166,85.21,1
6001,0,56478,62569,56457,62532.12,21,36.88,-0.00721,-0.011495,0.991663,85.21,1
6010,0,56475,62564,56457.36,62532.76,17.64,31.23,-0.007217,-0.011505,0.991666,85.21,1
6022,0,56470,62552,56457.62,62533.15,12.38,18.85,-0.007221,-0.011511,0.991667,85.21,1
6031,0,56472,62558,56457.91,62533.65,14.09,24.35,-0.007226,-0.011519,0.99167,85.21,1
6041,0,56457,62553,56457.89,62534.04,-0.89,18.96,-0.007226,-0.011526,0.991675,85.21,1
6050,0,56456,62558,56457.85,62534.52,-1.86,23.48,-0.007225,-0.011533,0.991683,85.21,1
6062,0,56464,62549,56457.98,62534.81,6.02,14.19,-0.007227,-0.011538,0.991685,85.21,1
6072,0,56457,62551,56457.96,62535.14,-0.96,15.86,-0.007227,-0.011543,0.99169,85.21,1
6081,0,56454,62535,56457.88,62535.13,-3.88,-0.13,-0.007226,-0.011543,0.991691,85.21,1
6092,0,56445,62538,56457.62,62535.19,-12.63,2.81,-0.007221,-0.011544,0.991697,85.21,1
6102,0,56447,62530,56457.41,62535.09,-10.41,-5.09,-0.007217,-0.011542,0.991699,85.21,1
6112,0,56442,62525,56457.1,62534.89,-15.11,-9.89,-0.007212,-0.011539,0.991702,85.21,1
6121,0,56442,62527,56456.8,62534.73,-14.8,-7.73,-0.007207,-0.011537,0.991705,85.21,1
6131,0,56445,62523,56456.57,62534.5,-11.57,-11.5,-0.007202,-0.011533,0.991706,85.21,1
6141,0,56437,62526,56456.17,62534.33,-19.18,-8.33,-0.007196,-0.01153,0.991711,85.21,1
6152,0,56441,62527,56455.87,62534.19,-14.88,-7.19,-0.00719,-0.011528,0.991714,85.21,1
6161,0,56440,62527,56455.56,62534.04,-15.56,-7.04,-0.007185,-0.011526,0.991718,85.21,1
6171,0,56429,62518,56455.03,62533.72,-26.03,-15.72,-0.007175,-0.011521,0.991723,85.21,1
6181,0,56432,62508,56454.57,62533.21,-22.57,-25.21,-0.007167,-0.011512,0.991723,85.21,1
6192,0,56421,62503,56453.9,62532.6,-32.9,-29.61,-0.007155,-0.011503,0.991726,85.21,1
6201,0,56415,62504,56453.12,62532.03,-38.12,-28.03,-0.007141,-0.011494,0.991733,85.21,1
6211,0,56413,62498,56452.32,62531.35,-39.32,-33.35,-0.007127,-0.011483,0.991738,85.21,1
6221,0,56403,62490,56451.33,62530.53,-48.33,-40.53,-0.00711,-0.011469,0.991745,85.21,1
6232,0,56402,62476,56450.34,62529.44,-48.34,-53.44,-0.007092,-0.011452,0.991745,85.21,1
6241,0,56393,62460,56449.2,62528.05,-56.2,-68.05,-0.007072,-0.01143,0.991742,85.21,1
6252,0,56394,62464,56448.09,62526.77,-54.09,-62.77,-0.007052,-0.01141,0.99174,85.21,1
6261,0,56385,62447,56446.83,62525.18,-61.83,-78.18,-0.00703,-0.011384,0.991734,85.21,1
6272,0,56382,62446,56445.53,62523.59,-63.54,-77.59,-0.007007,-0.011359,0.99173,85.21,1
6281,0,56377,62440,56444.16,62521.92,-67.16,-81.93,-0.006983,-0.011332,0.991725,85.21,1
6292,0,56376,62446,56442.8,62520.41,-66.8,-74.41,-0.006959,-0.011308,0.991725,85.21,1
6301,0,56374,62459,56441.42,62519.18,-67.43,-60.18,-0.006934,-0.011288,0.991734,85.21,1
6311,0,56379,62467,56440.17,62518.14,-61.18,-51.14,-0.006912,-0.011271,0.991744,85.21,1
6321,0,56398,62474,56439.33,62517.25,-41.34,-43.25,-0.006897,-0.011257,0.991746,85.21,1
6332,0,56404,62494,56438.63,62516.79,-34.63,-22.79,-0.006885,-0.01125,0.991753,85.21,1
6341,0,56410,62496,56438.05,62516.37,-28.05,-20.37,-0.006874,-0.011243,0.991758,85.21,1
6351,0,56410,62500,56437.49,62516.05,-27.49,-16.05,-0.006865,-0.011238,0.991764,85.21,1
6361,0,56414,62496,56437.02,62515.65,-23.02,-19.65,-0.006856,-0.011232,0.991767,85.21,1
6372,0,56429,62519,56436.86,62515.71,-7.86,3.29,-0.006853,-0.011233,0.991771,85.21,1
6381,0,56417,62506,56436.47,62515.52,-19.47,-9.52,-0.006846,-0.01123,0.991775,85.21,1
6391,0,56425,62515,56436.24,62515.51,-11.24,-0.52,-0.006842,-0.011229,0.99178,85.21,1
6401,0,56428,62512,56436.08,62515.44,-8.08,-3.45,-0.006839,-0.011228,0.991782,85.21,1
6412,0,56433,62511,56436.02,62515.35,-3.02,-4.36,-0.006838,-0.011227,0.991781,85.21,1
6421,0,56424,62517,56435.78,62515.39,-11.78,1.61,-0.006834,-0.011227,0.991786,85.21,1
6431,0,56429,62502,56435.64,62515.12,-6.64,-13.13,-0.006832,-0.011223,0.991784,85.21,1
6440,0,56423,62507,56435.39,62514.96,-12.39,-7.96,-0.006827,-0.011221,0.991786,85.21,1
6451,0,56416,62489,56435.01,62514.45,-19.01,-25.45,-0.00682,-0.011212,0.991784,85.21,1
6461,0,56426,62501,56434.83,62514.18,-8.83,-13.18,-0.006817,-0.011208,0.991783,85.21,1
6471,0,56420,62489,56434.53,62513.68,-14.53,-24.68,-0.006812,-0.0112,0.991779,85.21,1
6480,0,56409,62483,56434.02,62513.07,-25.02,-30.07,-0.006803,-0.01119,0.991778,85.21,1
6491,0,56403,62472,56433.4,62512.25,-30.4,-40.25,-0.006792,-0.011177,0.991775,85.21,1
6500,0,56400,62467,56432.73,62511.34,-32.73,-44.34,-0.00678,-0.011163,0.991771,85.21,1
6511,0,56390,62447,56431.88,62510.06,-41.88,-63.06,-0.006765,-0.011142,0.991761,85.21,1
6520,0,56389,62461,56431.02,62509.08,-42.02,-48.08,-0.00675,-0.011126,0.99176,85.21,1
6531,0,56398,62458,56430.36,62508.06,-32.36,-50.06,-0.006738,-0.01111,0.991752,85.21,1
6540,0,56393,62461,56429.62,62507.12,-36.62,-46.12,-0.006725,-0.011095,0.991749,85.21,1
6551,0,56394,62457,56428.91,62506.12,-34.91,-49.12,-0.006712,-0.011079,0.991743,85.21,1
6560,0,56391,62452,56428.15,62505.03,-37.15,-53.04,-0.006699,-0.011062,0.991736,85.21,1
6571,0,56392,62452,56427.42,62503.98,-35.43,-51.98,-0.006686,-0.011045,0.991729,85.21,1
6581,0,56388,62455,56426.64,62503,-38.64,-48,-0.006672,-0.011029,0.991726,85.21,1
6591,0,56389,62461,56425.89,62502.16,-36.89,-41.16,-0.006659,-0.011016,0.991726,85.21,1
6600,0,56394,62471,56425.25,62501.54,-31.25,-30.54,-0.006648,-0.011006,0.991728,85.21,1
6610,0,56407,62471,56424.89,62500.93,-17.89,-29.93,-0.006641,-0.010996,0.991723,85.21,1
6621,0,56403,62488,56424.45,62500.67,-21.45,-12.68,-0.006633,-0.010992,0.991728,85.21,1
6631,0,56406,62491,56424.08,62500.48,-18.09,-9.48,-0.006627,-0.010989,0.991732,85.21,1
6640,0,56416,62496,56423.92,62500.4,-7.93,-4.4,-0.006624,-0.010988,0.991734,85.21,1
6650,0,56414,62492,56423.73,62500.23,-9.73,-8.23,-0.006621,-0.010985,0.991735,85.21,1
6662,0,56414,62488,56423.54,62499.99,-9.54,-11.99,-0.006617,-0.010981,0.991734,85.21,1
6671,0,56411,62476,56423.29,62499.51,-12.29,-23.51,-0.006613,-0.010973,0.99173,85.21,1
6681,0,56404,62467,56422.9,62498.86,-18.9,-31.86,-0.006606,-0.010963,0.991725,85.21,1
6690,0,56388,62448,56422.21,62497.84,-34.21,-49.84,-0.006594,-0.010947,0.991717,85.21,1
6702,0,56377,62431,56421.3,62496.51,-44.3,-65.51,-0.006578,-0.010925,0.991706,85.21,1
6711,0,56368,62410,56420.24,62494.78,-52.24,-84.78,-0.006559,-0.010898,0.991685,85.21,1
6721,0,56342,62390,56418.67,62492.68,-76.68,-102.68,-0.006531,-0.010864,0.991668,85.21,1
6730,0,56337,62358,56417.04,62489.99,-80.04,-131.99,-0.006502,-0.010821,0.991622,85.21,1
6742,0,56317,62347,56415.04,62487.14,-98.04,-140.14,-0.006467,-0.010775,0.991586,85.21,1
6751,0,56297,62317,56412.68,62483.73,-115.68,-166.73,-0.006425,-0.010721,0.991535,85.21,1
6761,0,56280,62299,56410.03,62480.04,-130.03,-181.04,-0.006378,-0.010662,0.991483,85.21,1
6771,0,56261,62271,56407.05,62475.86,-146.05,-204.86,-0.006325,-0.010595,0.991415,85.21,1
6780,0,56250,62253,56403.91,62471.4,-153.91,-218.4,-0.006269,-0.010524,0.991335,85.22,1
6791,0,56225,62237,56400.33,62466.71,-175.33,-229.71,-0.006206,-0.010449,0.991272,85.22,1
6801,0,56208,62203,56396.49,62461.44,-188.49,-258.44,-0.006138,-0.010364,0.991174,85.22,1
6811,0,56199,62201,56392.54,62456.23,-193.54,-255.23,-0.006068,-0.010281,0.991094,85.22,1
6820,0,56191,62190,56388.51,62450.91,-197.51,-260.91,-0.005996,-0.010195,0.991009,85.22,1
6830,0,56178,62186,56384.3,62445.61,-206.3,-259.61,-0.005922,-0.010111,0.990946,85.23,1
6841,0,56171,62165,56380.03,62440,-209.03,-275,-0.005846,-0.010021,0.990853,85.23,1
6850,0,56155,62146,56375.53,62434.12,-220.54,-288.13,-0.005766,-0.009927,0.990754,85.23,1
6861,0,56142,62116,56370.87,62427.76,-228.87,-311.77,-0.005683,-0.009825,0.990614,85.23,1
6871,0,56120,62094,56365.85,62421.09,-245.85,-327.09,-0.005594,-0.009718,0.990475,85.24,1
6881,0,56113,62089,56360.79,62414.45,-247.79,-325.45,-0.005505,-0.009611,0.990345,85.24,1
6891,0,56108,62068,56355.74,62407.52,-247.74,-339.52,-0.005415,-0.0095,0.990172,85.25,1
6900,0,56096,62048,56350.55,62400.33,-254.55,-352.33,-0.005323,-0.009385,0.989978,85.25,1
6910,0,56074,62030,56345.01,62392.93,-271.02,-362.93,-0.005225,-0.009267,0.989799,85.26,1
6920,0,56072,62020,56339.56,62385.47,-267.56,-365.47,-0.005128,-0.009147,0.989599,85.26,1
6931,0,56064,62024,56334.05,62378.25,-270.05,-354.25,-0.00503,-0.009031,0.989441,85.26,1
6940,0,56071,62022,56328.79,62371.12,-257.79,-349.13,-0.004937,-0.008917,0.989262,85.27,1
6951,0,56078,62034,56323.77,62364.38,-245.77,-330.38,-0.004848,-0.008809,0.989105,85.27,1
6961,0,56075,62031,56318.8,62357.72,-243.8,-326.72,-0.004759,-0.008702,0.988951,85.28,1
6970,0,56078,62037,56313.98,62351.3,-235.98,-314.3,-0.004674,-0.008599,0.988812,85.28,1
6981,0,56075,62022,56309.21,62344.72,-234.21,-322.72,-0.004589,-0.008494,0.98864,85.28,1
6990,0,56073,62024,56304.48,62338.31,-231.48,-314.31,-0.004505,-0.008391,0.988486,85.29,1
7001,0,56078,62039,56299.95,62332.32,-221.95,-293.32,-0.004425,-0.008295,0.988365,85.29,1
7010,0,56091,62045,56295.78,62326.58,-204.78,-281.58,-0.00435,-0.008203,0.988231,85.29,1
7021,0,56100,62064,56291.86,62321.33,-191.86,-257.33,-0.004281,-0.008118,0.988128,85.3,1
7030,0,56113,62083,56288.29,62316.56,-175.29,-233.56,-0.004217,-0.008042,0.988044,85.3,1
7040,0,56127,62087,56285.06,62311.97,-158.06,-224.97,-0.00416,-0.007968,0.987941,85.3,1
7051,0,56136,62072,56282.08,62307.17,-146.08,-235.18,-0.004107,-0.007891,0.987788,85.31,1
7060,0,56120,62057,56278.84,62302.17,-158.84,-245.18,-0.004049,-0.007811,0.987635,85.31,1
7070,0,56124,62036,56275.75,62296.85,-151.75,-260.85,-0.003994,-0.007725,0.987423,85.31,1
7080,0,56106,62020,56272.35,62291.31,-166.35,-271.31,-0.003934,-0.007637,0.987214,85.32,1
7091,0,56097,61997,56268.85,62285.43,-171.85,-288.43,-0.003872,-0.007542,0.986964,85.33,1
7100,0,56092,61983,56265.31,62279.38,-173.31,-296.38,-0.003809,-0.007445,0.986693,85.33,1
7111,0,56090,61967,56261.81,62273.14,-171.81,-306.14,-0.003747,-0.007345,0.986383,85.34,1
7120,0,56084,61954,56258.25,62266.75,-174.25,-312.75,-0.003684,-0.007242,0.986056,85.35,1
7130,0,56085,61937,56254.79,62260.16,-169.79,-323.16,-0.003622,-0.007136,0.98568,85.36,1
7141,0,56083,61926,56251.35,62253.48,-168.36,-327.48,-0.003561,-0.007029,0.985281,85.37,1
7150,0,56085,61919,56248.03,62246.79,-163.03,-327.79,-0.003502,-0.006922,0.984866,85.38,1
7161,0,56071,61900,56244.48,62239.85,-173.48,-339.86,-0.003439,-0.00681,0.98443,85.39,1
7171,0,56073,61887,56241.06,62232.8,-168.06,-345.8,-0.003378,-0.006697,0.983954,85.4,1
7181,0,56054,61836,56237.32,62224.86,-183.32,-388.86,-0.003311,-0.006569,0.98334,85.42,1
7190,0,56026,61780,56233.09,62215.96,-207.09,-435.96,-0.003236,-0.006426,0.982576,85.44,1
7199,0,56001,61727,56228.45,62206.19,-227.45,-479.19,-0.003154,-0.006269,0.981655,85.46,1
7211,0,55951,61644,56222.9,62194.94,-271.9,-550.95,-0.003055,-0.006088,0.980484,85.49,1
7220,0,55924,61560,56216.92,62182.25,-292.93,-622.25,-0.002949,-0.005884,0.978935,85.53,1
7231,0,55878,61476,56210.15,62168.12,-332.15,-692.12,-0.002828,-0.005657,0.977056,85.57,1
7240,0,55846,61368,56202.87,62152.12,-356.87,-784.12,-0.002699,-0.0054,0.974558,85.64,1
7250,0,55791,61262,56194.63,62134.32,-403.63,-872.32,-0.002552,-0.005113,0.971526,85.71,1
7261,0,55736,61137,56185.46,62114.37,-449.46,-977.37,-0.002389,-0.004792,0.967741,85.81,1
7270,0,55683,61048,56175.41,62093.05,-492.41,-1045.05,-0.00221,-0.004449,0.963541,85.91,1
7280,0,55629,60953,56164.48,62070.25,-535.48,-1117.25,-0.002015,-0.004081,0.958873,86.03,1
7290,0,55607,60878,56153.33,62046.4,-546.34,-1168.4,-0.001817,-0.003697,0.953734,86.16,1
7301,0,55587,60830,56142.01,62022.08,-555.01,-1192.08,-0.001615,-0.003305,0.948445,86.29,1
7310,0,55578,60764,56130.73,61996.92,-552.73,-1232.92,-0.001414,-0.002899,0.94271,86.43,1
7320,0,55569,60719,56119.49,61971.36,-550.49,-1252.36,-0.001214,-0.002487,0.936807,86.58,1
7330,0,55556,60683,56108.22,61945.59,-552.22,-1262.59,-0.001013,-0.002071,0.930887,86.73,1
7340,0,55555,60644,56097.16,61919.56,-542.16,-1275.56,-0.000816,-0.001651,0.924828,86.88,1
7351,0,55541,60622,56086.04,61893.61,-545.04,-1271.61,-0.000618,-0.001232,0.918943,87.03,1
7360,0,55534,60600,56075,61867.74,-541,-1267.74,-0.000421,-0.000814,0.913173,87.17,1
7369,0,55521,60576,56063.92,61841.91,-542.92,-1265.91,-0.000223,-0.000396,0.907536,87.31,1
7380,0,55516,60549,56052.96,61816.05,-536.96,-1267.05,-0.000028,0.000022,0.901931,87.45,1
7390,0,55504,60525,56041.98,61790.23,-537.98,-1265.23,0.000168,0.00044,0.896446,87.59,1
7401,0,55499,60520,56031.12,61764.82,-532.13,-1244.82,0.000362,0.000851,0.891237,87.72,1
7410,0,55494,60505,56020.38,61739.63,-526.38,-1234.63,0.000554,0.001259,0.886177,87.85,1
7419,0,55499,60491,56009.96,61714.66,-510.96,-1223.66,0.00074,0.001664,0.881198,87.97,1
7431,0,55485,60471,55999.46,61689.78,-514.46,-1218.78,0.000927,0.002067,0.876366,88.09,1
7440,0,55490,60454,55989.27,61665.07,-499.27,-1211.07,0.001109,0.002468,0.871574,88.21,1
7451,0,55486,60448,55979.2,61640.73,-493.2,-1192.73,0.001289,0.002863,0.866993,88.33,1
7460,0,55492,60435,55969.46,61616.61,-477.46,-1181.61,0.001463,0.003254,0.862474,88.44,1
7470,0,55498,60427,55960.03,61592.82,-462.04,-1165.82,0.001631,0.00364,0.858063,88.55,1
7481,0,55502,60425,55950.87,61569.46,-448.88,-1144.46,0.001795,0.004019,0.853825,88.65,1
7490,0,55500,60418,55941.86,61546.44,-441.86,-1128.44,0.001956,0.004393,0.84974,88.76,1
7500,0,55503,60423,55933.08,61523.97,-430.08,-1100.97,0.002113,0.004758,0.845878,88.85,1
7511,0,55510,60420,55924.62,61501.89,-414.62,-1081.89,0.002264,0.005117,0.842129,88.95,1
7520,0,55506,60429,55916.25,61480.44,-410.25,-1051.44,0.002414,0.005466,0.838653,89.03,1
7530,0,55506,60436,55908.05,61459.55,-402.05,-1023.55,0.002561,0.005806,0.835394,89.12,1
7540,0,55510,60435,55900.08,61439.05,-390.09,-1004.05,0.002703,0.00614,0.832249,89.19,1
7550,0,55504,60441,55892.16,61419.09,-388.16,-978.09,0.002845,0.006465,0.829323,89.27,1
7560,0,55495,60441,55884.22,61399.53,-389.22,-958.54,0.002987,0.006783,0.826574,89.34,1
7570,0,55495,60443,55876.43,61380.41,-381.43,-937.41,0.003126,0.007095,0.823957,89.4,1
7580,0,55507,60440,55869.05,61361.6,-362.05,-921.6,0.003259,0.007401,0.821364,89.47,1
7589,0,55492,60433,55861.51,61343.03,-369.51,-910.03,0.003394,0.007704,0.818908,89.53,1
7601,0,55495,60424,55854.17,61324.65,-359.18,-900.65,0.003525,0.008003,0.816472,89.59,1
7610,0,55490,60402,55846.89,61306.2,-356.89,-904.2,0.003655,0.008304,0.814006,89.65,1
7620,0,55497,60400,55839.9,61288.08,-342.9,-888.08,0.003781,0.0086,0.811591,89.71,1
7630,0,55493,60386,55832.96,61270.03,-339.96,-884.04,0.003905,0.008894,0.809196,89.77,1
7640,0,55503,60384,55826.36,61252.32,-323.36,-868.32,0.004023,0.009184,0.806835,89.83,1
7650,0,55517,60372,55820.17,61234.71,-303.18,-862.71,0.004134,0.009471,0.80442,89.89,1
7659,0,55525,60379,55814.27,61217.6,-289.27,-838.6,0.00424,0.009751,0.802114,89.95,1
7670,0,55551,60385,55809.01,61200.94,-258.01,-815.95,0.004334,0.010023,0.799828,90,1
7680,0,55568,60387,55804.19,61184.66,-236.19,-797.66,0.00442,0.010289,0.797579,90.06,1
7691,0,55592,60393,55799.94,61168.83,-207.95,-775.83,0.004496,0.010548,0.79537,90.12,1
7700,0,55623,60411,55796.41,61153.67,-173.41,-742.68,0.00456,0.010795,0.793258,90.17,1
7710,0,55648,60422,55793.44,61139.04,-145.45,-717.04,0.004613,0.011035,0.791224,90.22,1
7719,0,55685,60433,55791.28,61124.92,-106.28,-691.92,0.004652,0.011266,0.789247,90.27,1
7730,0,55712,60445,55789.69,61111.32,-77.69,-666.32,0.00468,0.011488,0.787363,90.32,1
7740,0,55749,60467,55788.88,61098.44,-39.88,-631.44,0.004695,0.011699,0.785618,90.36,1
7749,0,55793,60475,55788.96,61085.97,4.04,-610.97,0.004693,0.011903,0.783951,90.4,1
7760,0,55820,60485,55789.58,61073.95,30.42,-588.95,0.004682,0.0121,0.78239,90.44,1
7770,0,55844,60481,55790.67,61062.09,53.33,-581.09,0.004662,0.012294,0.780871,90.48,1
7780,0,55869,60488,55792.24,61050.61,76.76,-562.61,0.004634,0.012482,0.779455,90.51,1
7789,0,55883,60482,55794.05,61039.24,88.95,-557.24,0.004602,0.012668,0.778072,90.55,1
7800,0,55890,60491,55795.98,61028.28,94.02,-537.28,0.004567,0.012848,0.776786,90.58,1
7810,0,55893,60482,55797.92,61017.35,95.08,-535.36,0.004533,0.013027,0.775504,90.61,1
7820,0,55909,60497,55800.14,61006.95,108.86,-509.95,0.004493,0.013198,0.774353,90.64,1
7830,0,55931,60498,55802.76,60996.77,128.24,-498.77,0.004446,0.013364,0.77328,90.67,1
7839,0,55970,60519,55806.1,60987.22,163.89,-468.22,0.004386,0.013521,0.772413,90.69,1
7849,0,56030,60558,55810.58,60978.64,219.41,-420.64,0.004306,0.013662,0.7719,90.7,1
7859,0,56102,60594,55816.41,60970.94,285.59,-376.95,0.004201,0.013788,0.771813,90.7,1
7870,0,56149,60616,55823.07,60963.85,325.93,-347.85,0.004082,0.013904,0.772028,90.7,1
7879,0,56208,60645,55830.76,60957.47,377.23,-312.47,0.003944,0.014009,0.772657,90.68,1
7890,0,56273,60728,55839.61,60952.88,433.39,-224.88,0.003786,0.014084,0.773906,90.65,1
7900,0,56397,60787,55850.76,60949.56,546.24,-162.56,0.003586,0.014139,0.776234,90.59,1
7910,0,56475,60852,55863.25,60947.61,611.75,-95.61,0.003363,0.014171,0.779329,90.52,1
7919,0,56553,60904,55877.04,60946.74,675.96,-42.74,0.003116,0.014185,0.783209,90.42,1
7929,0,56626,60970,55892.02,60947.21,733.98,22.79,0.002848,0.014177,0.787847,90.3,1
7940,0,56692,61009,55908.02,60948.44,783.98,60.55,0.002561,0.014157,0.793164,90.17,1
7949,0,56743,61045,55924.72,60950.37,818.28,94.62,0.002263,0.014125,0.798963,90.03,1
7960,0,56766,61055,55941.55,60952.47,824.45,102.53,0.001962,0.014091,0.804858,89.88,1
7969,0,56785,61066,55958.42,60954.74,826.58,111.26,0.00166,0.014054,0.810786,89.73,1
7980,0,56775,61059,55974.75,60956.83,800.25,102.17,0.001368,0.014019,0.816352,89.59,1
7990,0,56758,61052,55990.42,60958.73,767.58,93.27,0.001089,0.013988,0.821482,89.46,1
8000,0,56740,61050,56005.41,60960.56,734.59,89.44,0.000821,0.013958,0.826186,89.35,1
8009,0,56722,61031,56019.75,60961.97,702.25,69.03,0.000565,0.013935,0.830504,89.24,1
8020,0,56704,61025,56033.43,60963.23,670.57,61.77,0.000321,0.013914,0.834451,89.14,1
8030,0,56677,61023,56046.3,60964.43,630.7,58.57,0.000091,0.013895,0.83795,89.05,1
8039,0,56650,61002,56058.37,60965.18,591.63,36.82,-0.000124,0.013882,0.841041,88.97,1
8049,0,56614,60974,56069.49,60965.36,544.51,8.64,-0.000323,0.01388,0.843662,88.91,1
8058,0,56572,60966,56079.54,60965.37,492.46,0.63,-0.000502,0.013879,0.845806,88.85,1
8070,0,56527,60949,56088.49,60965.05,438.51,-16.05,-0.000661,0.013885,0.847498,88.81,1
8079,0,56486,60938,56096.44,60964.51,389.56,-26.51,-0.000803,0.013893,0.848824,88.78,1
8089,0,56436,60906,56103.23,60963.34,332.77,-57.34,-0.000924,0.013913,0.849758,88.76,1
8099,0,56406,60901,56109.29,60962.1,296.71,-61.1,-0.001032,0.013933,0.850487,88.74,1
8110,0,56384,60887,56114.78,60960.59,269.21,-73.59,-0.00113,0.013958,0.851065,88.72,1
8119,0,56357,60867,56119.63,60958.72,237.37,-91.72,-0.001217,0.013988,0.851475,88.71,1
8130,0,56322,60856,56123.68,60956.67,198.32,-100.67,-0.001289,0.014022,0.851717,88.71,1
8139,0,56301,60841,56127.23,60954.36,173.77,-113.36,-0.001352,0.01406,0.851857,88.7,1
8150,0,56284,60839,56130.37,60952.05,153.63,-113.05,-0.001408,0.014098,0.851939,88.7,1
8160,0,56272,60828,56133.2,60949.57,138.8,-121.57,-0.001458,0.014138,0.851966,88.7,1
8170,0,56255,60816,56135.64,60946.9,119.36,-130.9,-0.001502,0.014182,0.85193,88.7,1
8179,0,56228,60813,56137.49,60944.23,90.51,-131.23,-0.001535,0.014226,0.851839,88.7,1
8188,0,56217,60801,56139.08,60941.36,77.92,-140.36,-0.001563,0.014273,0.851711,88.71,1
8200,0,56192,60792,56140.14,60938.38,51.86,-146.38,-0.001582,0.014322,0.85154,88.71,1
8209,0,56173,60787,56140.8,60935.35,32.2,-148.35,-0.001594,0.014372,0.851352,88.72,1
8219,0,56171,60784,56141.4,60932.32,29.6,-148.32,-0.001604,0.014422,0.851162,88.72,1
8229,0,56158,60773,56141.73,60929.14,16.27,-156.14,-0.00161,0.014474,0.850949,88.73,1
8240,0,56155,60769,56142,60925.94,13,-156.94,-0.001615,0.014526,0.850733,88.73,1
8249,0,56149,60768,56142.14,60922.78,6.86,-154.78,-0.001618,0.014578,0.850521,88.74,1
8260,0,56157,60774,56142.44,60919.8,14.56,-145.8,-0.001623,0.014627,0.850329,88.74,1
8269,0,56147,60758,56142.53,60916.57,4.46,-158.57,-0.001625,0.01468,0.850105,88.75,1
8280,0,56143,60760,56142.54,60913.44,0.46,-153.44,-0.001625,0.014732,0.849893,88.75,1
8289,0,56149,60756,56142.67,60910.29,6.33,-154.29,-0.001627,0.014783,0.849676,88.76,1
8300,0,56154,60759,56142.9,60907.26,11.1,-148.27,-0.001631,0.014833,0.849472,88.76,1
8309,0,56160,60755,56143.24,60904.22,16.76,-149.22,-0.001637,0.014883,0.849265,88.77,1
8320,0,56170,60763,56143.78,60901.4,26.22,-138.4,-0.001647,0.014929,0.849084,88.77,1
8329,0,56188,60784,56144.66,60899.05,43.34,-115.05,-0.001662,0.014968,0.848962,88.78,1
8339,0,56213,60788,56146.03,60896.83,66.96,-108.84,-0.001687,0.015004,0.848876,88.78,1
8349,0,56246,60794,56148.04,60894.78,97.96,-100.78,-0.001723,0.015038,0.848859,88.78,1
8358,0,56269,60803,56150.46,60892.94,118.54,-89.94,-0.001766,0.015068,0.848911,88.78,1
8370,0,56312,60831,56153.69,60891.7,158.31,-60.7,-0.001823,0.015088,0.849134,88.77,1
8379,0,56362,60843,56157.85,60890.73,204.15,-47.73,-0.001897,0.015104,0.849574,88.76,1
8389,0,56400,60867,56162.69,60890.26,237.3,-23.26,-0.001984,0.015112,0.850218,88.74,1
8399,0,56430,60872,56168.04,60889.89,261.96,-17.89,-0.002079,0.015118,0.851025,88.72,1
8410,0,56457,60899,56173.82,60890.08,283.18,8.92,-0.002182,0.015115,0.851994,88.7,1
8419,0,56476,60894,56179.87,60890.16,296.13,3.84,-0.002289,0.015114,0.853068,88.67,1
8430,0,56474,60895,56185.75,60890.25,288.25,4.75,-0.002394,0.015112,0.854093,88.65,1
8439,0,56482,60900,56191.67,60890.45,290.32,9.55,-0.002499,0.015109,0.855143,88.62,1
8450,0,56461,60896,56197.06,60890.56,263.94,5.44,-0.002595,0.015107,0.856012,88.6,1
8459,0,56442,60890,56201.96,60890.55,240.04,-0.55,-0.002682,0.015107,0.856729,88.58,1
8469,0,56416,60881,56206.24,60890.37,209.76,-9.37,-0.002759,0.01511,0.857271,88.57,1
8479,0,56382,60859,56209.76,60889.74,172.24,-30.74,-0.002821,0.015121,0.857616,88.56,1
8489,0,56351,60852,56212.58,60888.99,138.42,-36.99,-0.002871,0.015133,0.857821,88.55,1
8499,0,56316,60838,56214.65,60887.97,101.35,-49.97,-0.002908,0.01515,0.8579,88.55,1
8510,0,56277,60843,56215.9,60887.07,61.1,-44.07,-0.00293,0.015164,0.857904,88.55,1
8519,0,56248,60832,56216.54,60885.97,31.46,-53.97,-0.002942,0.015183,0.857867,88.55,1
8529,0,56226,60841,56216.73,60885.07,9.27,-44.07,-0.002945,0.015197,0.857834,88.55,1
8539,0,56204,60822,56216.48,60883.82,-12.48,-61.82,-0.002941,0.015218,0.857787,88.56,1
8550,0,56187,60823,56215.89,60882.6,-28.89,-59.6,-0.00293,0.015238,0.857758,88.56,1
8559,0,56162,60819,56214.81,60881.33,-52.81,-62.33,-0.002911,0.015259,0.857762,88.56,1
8569,0,56147,60817,56213.46,60880.04,-66.46,-63.04,-0.002887,0.01528,0.857794,88.56,1
8579,0,56119,60794,56211.57,60878.32,-92.57,-84.32,-0.002853,0.015308,0.857862,88.55,1
8589,0,56113,60803,56209.6,60876.81,-96.6,-73.81,-0.002818,0.015333,0.857963,88.55,1
8599,0,56094,60791,56207.28,60875.1,-113.29,-84.1,-0.002777,0.015361,0.858107,88.55,1
8609,0,56068,60791,56204.5,60873.42,-136.5,-82.42,-0.002728,0.015389,0.858354,88.54,1
8619,0,56048,60778,56201.37,60871.51,-153.37,-93.51,-0.002672,0.01542,0.858665,88.53,1
8630,0,56023,60775,56197.8,60869.58,-174.8,-94.58,-0.002608,0.015452,0.859097,88.52,1
8639,0,56004,60774,56193.93,60867.67,-189.93,-93.67,-0.00254,0.015483,0.85963,88.51,1
8649,0,55988,60778,56189.81,60865.87,-201.81,-87.87,-0.002466,0.015513,0.86026,88.49,1
8658,0,55983,60786,56185.67,60864.28,-202.68,-78.28,-0.002393,0.015539,0.860922,88.48,1
8669,0,55968,60783,56181.32,60862.65,-213.32,-79.65,-0.002315,0.015566,0.861665,88.46,1
8679,0,55965,60777,56177,60860.94,-212,-83.94,-0.002238,0.015594,0.862395,88.44,1
8688,0,55953,60778,56172.52,60859.28,-219.52,-81.28,-0.002158,0.015621,0.863195,88.42,1
8699,0,55943,60773,56167.93,60857.56,-224.93,-84.56,-0.002077,0.015649,0.864038,88.4,1
8709,0,55942,60779,56163.41,60855.99,-221.41,-76.99,-0.001996,0.015675,0.864875,88.38,1
8719,0,55937,60776,56158.88,60854.39,-221.88,-78.39,-0.001916,0.015701,0.865721,88.36,1
8729,0,55933,60763,56154.37,60852.57,-221.37,-89.57,-0.001835,0.015731,0.866544,88.34,1
8739,0,55940,60769,56150.08,60850.89,-210.08,-81.89,-0.001759,0.015759,0.867302,88.32,1
8749,0,55930,60783,56145.68,60849.54,-215.68,-66.54,-0.001681,0.015781,0.868141,88.3,1
8760,0,55938,60802,56141.53,60848.59,-203.53,-46.59,-0.001607,0.015797,0.868923,88.28,1
8769,0,55931,60810,56137.32,60847.82,-206.32,-37.82,-0.001532,0.015809,0.869746,88.26,1
8778,0,55913,60830,56132.84,60847.46,-219.84,-17.46,-0.001452,0.015815,0.870706,88.23,1
8788,0,55921,60853,56128.6,60847.57,-207.6,5.43,-0.001376,0.015813,0.871582,88.21,1
8799,0,55917,60874,56124.37,60848.1,-207.37,25.89,-0.001301,0.015805,0.872463,88.19,1
8809,0,55926,60913,56120.4,60849.41,-194.4,63.59,-0.00123,0.015783,0.873216,88.17,1
8818,0,55915,60939,56116.3,60851.2,-201.3,87.8,-0.001157,0.015754,0.873991,88.15,1
8829,0,55924,60958,56112.45,60853.33,-188.45,104.66,-0.001089,0.015719,0.874635,88.13,1
8839,0,55910,60962,56108.41,60855.51,-198.41,106.49,-0.001016,0.015683,0.875358,88.12,1
8849,0,55922,60965,56104.68,60857.7,-182.68,107.3,-0.00095,0.015647,0.875961,88.1,1
8858,0,55915,60968,56100.89,60859.91,-185.89,108.09,-0.000882,0.015611,0.876592,88.09,1
8869,0,55914,60963,56097.15,60861.97,-183.15,101.03,-0.000816,0.015577,0.877223,88.07,1
8879,0,55904,60941,56093.29,60863.55,-189.29,77.45,-0.000747,0.015551,0.877957,88.05,1
8888,0,55905,60933,56089.53,60864.94,-184.53,68.05,-0.00068,0.015528,0.878675,88.03,1
8899,0,55886,60903,56085.46,60865.71,-199.46,37.29,-0.000607,0.015515,0.879558,88.01,1
8908,0,55883,60870,56081.41,60865.79,-198.41,4.21,-0.000535,0.015514,0.880448,87.99,1
8919,0,55870,60850,56077.18,60865.48,-207.18,-15.48,-0.00046,0.015519,0.881415,87.96,1
8928,0,55860,60817,56072.83,60864.51,-212.84,-47.51,-0.000382,0.015535,0.882405,87.94,1
8939,0,55848,60786,56068.34,60862.94,-220.34,-76.94,-0.000302,0.015561,0.883415,87.91,1
8948,0,55851,60761,56063.99,60860.9,-212.99,-99.9,-0.000225,0.015594,0.884296,87.89,1
8960,0,55842,60749,56059.55,60858.66,-217.55,-109.66,-0.000145,0.015631,0.885196,87.87,1
8969,0,55837,60730,56055.1,60856.09,-218.1,-126.09,-0.000066,0.015673,0.886047,87.85,1
8979,0,55835,60728,56050.7,60853.53,-215.7,-125.53,0.000013,0.015716,0.886884,87.83,1
8988,0,55836,60728,56046.41,60851.01,-210.41,-123.02,0.000089,0.015757,0.887684,87.81,1
8998,0,55831,60735,56042.1,60848.69,-211.1,-113.7,0.000166,0.015795,0.888534,87.79,1
9009,0,55833,60734,56037.92,60846.4,-204.92,-112.4,0.000241,0.015833,0.889334,87.77,1
9018,0,55837,60744,56033.9,60844.35,-196.9,-100.36,0.000312,0.015866,0.890108,87.75,1
9029,0,55842,60764,56030.07,60842.75,-188.07,-78.75,0.000381,0.015893,0.890873,87.73,1
9038,0,55845,60762,56026.36,60841.13,-181.36,-79.13,0.000447,0.015919,0.891583,87.71,1
9049,0,55843,60771,56022.69,60839.73,-179.7,-68.73,0.000512,0.015942,0.892312,87.69,1
9059,0,55836,60766,56018.96,60838.26,-182.96,-72.26,0.000579,0.015966,0.893067,87.67,1
9068,0,55835,60756,56015.28,60836.62,-180.28,-80.62,0.000645,0.015993,0.893782,87.66,1
9078,0,55827,60733,56011.51,60834.55,-184.52,-101.55,0.000712,0.016028,0.894472,87.64,1
9089,0,55819,60712,56007.66,60832.09,-188.66,-120.09,0.000781,0.016068,0.895132,87.62,1
9099,0,55810,60691,56003.71,60829.27,-193.71,-138.27,0.000851,0.016114,0.895763,87.61,1
9108,0,55808,60666,55999.8,60826.01,-191.8,-160.01,0.000921,0.016168,0.896263,87.59,1
9119,0,55811,60669,55996.02,60822.87,-185.02,-153.87,0.000989,0.01622,0.896735,87.58,1
9128,0,55814,60655,55992.38,60819.51,-178.38,-164.51,0.001054,0.016275,0.897084,87.57,1
9139,0,55817,60652,55988.87,60816.16,-171.88,-164.16,0.001116,0.01633,0.897377,87.57,1
9149,0,55806,60644,55985.22,60812.72,-179.22,-168.72,0.001181,0.016386,0.897714,87.56,1
9158,0,55814,60641,55981.8,60809.28,-167.8,-168.29,0.001243,0.016443,0.897949,87.55,1
9168,0,55811,60648,55978.38,60806.06,-167.38,-158.06,0.001304,0.016496,0.898245,87.54,1
9179,0,55810,60639,55975.01,60802.72,-165.01,-163.72,0.001364,0.016551,0.898486,87.54,1
9189,0,55814,60640,55971.79,60799.47,-157.79,-159.47,0.001421,0.016604,0.898691,87.53,1
9198,0,55805,60633,55968.46,60796.14,-163.46,-163.14,0.001481,0.016659,0.898925,87.53,1
9207,0,55806,60636,55965.21,60792.94,-159.21,-156.94,0.001539,0.016712,0.899162,87.52,1
9219,0,55811,60618,55962.13,60789.44,-151.13,-171.44,0.001594,0.016769,0.899234,87.52,1
9228,0,55813,60604,55959.15,60785.73,-146.15,-181.73,0.001647,0.01683,0.899192,87.52,1
9239,0,55819,60604,55956.34,60782.09,-137.34,-178.09,0.001697,0.01689,0.899102,87.52,1
9248,0,55823,60585,55953.68,60778.15,-130.68,-193.15,0.001745,0.016955,0.898847,87.53,1
9259,0,55831,60580,55951.23,60774.19,-120.23,-194.19,0.001789,0.01702,0.898504,87.54,1
9269,0,55835,60570,55948.9,60770.1,-113.9,-200.1,0.00183,0.017087,0.898066,87.55,1
9278,0,55829,60561,55946.5,60765.92,-117.5,-204.92,0.001873,0.017156,0.89761,87.56,1
9288,0,55829,60562,55944.15,60761.84,-115.15,-199.84,0.001915,0.017223,0.897177,87.57,1
9297,0,55828,60555,55941.83,60757.71,-113.83,-202.71,0.001957,0.017291,0.896708,87.58,1
9309,0,55825,60559,55939.49,60753.73,-114.49,-194.73,0.001999,0.017357,0.896308,87.59,1
9318,0,55825,60549,55937.2,60749.64,-112.2,-200.64,0.002039,0.017424,0.895838,87.6,1
9329,0,55831,60545,55935.08,60745.55,-104.08,-200.55,0.002077,0.017492,0.895311,87.62,1
9338,0,55823,60541,55932.84,60741.46,-109.84,-200.46,0.002117,0.017559,0.89482,87.63,1
9348,0,55827,60550,55930.73,60737.63,-103.73,-187.63,0.002155,0.017622,0.894393,87.64,1
9359,0,55834,60547,55928.79,60733.82,-94.79,-186.82,0.00219,0.017685,0.89391,87.65,1
9368,0,55830,60538,55926.82,60729.91,-96.82,-191.91,0.002225,0.017749,0.893395,87.67,1
9378,0,55836,60528,55925,60725.87,-89,-197.87,0.002258,0.017816,0.892776,87.68,1
9388,0,55839,60519,55923.28,60721.73,-84.29,-202.73,0.002288,0.017884,0.892082,87.7,1
9399,0,55848,60530,55921.78,60717.9,-73.78,-187.9,0.002315,0.017947,0.891457,87.71,1
9408,0,55868,60534,55920.71,60714.22,-52.71,-180.22,0.002334,0.018007,0.890799,87.73,1
9419,0,55887,60535,55920.03,60710.64,-33.03,-175.64,0.002347,0.018066,0.890111,87.75,1
9428,0,55907,60534,55919.77,60707.1,-12.77,-173.11,0.002351,0.018125,0.889401,87.76,1
9438,0,55937,60548,55920.12,60703.92,16.88,-155.93,0.002345,0.018177,0.888813,87.78,1
9448,0,55955,60542,55920.82,60700.69,34.18,-158.69,0.002332,0.01823,0.888224,87.79,1
9458,0,55972,60545,55921.84,60697.57,50.16,-152.57,0.002314,0.018282,0.887717,87.81,1
9468,0,55985,60538,55923.1,60694.39,61.89,-156.39,0.002292,0.018334,0.887219,87.82,1
9478,0,55994,60534,55924.52,60691.18,69.48,-157.18,0.002266,0.018387,0.886744,87.83,1
9489,0,56009,60535,55926.21,60688.05,82.79,-153.05,0.002236,0.018438,0.886364,87.84,1
9498,0,56032,60544,55928.33,60685.17,103.67,-141.17,0.002198,0.018486,0.886198,87.85,1
9508,0,56076,60557,55931.28,60682.61,144.71,-125.61,0.002145,0.018528,0.886485,87.84,1
9518,0,56121,60570,55935.08,60680.35,185.92,-110.36,0.002077,0.018565,0.887343,87.82,1
9528,0,56154,60593,55939.46,60678.61,214.54,-85.61,0.001999,0.018594,0.88874,87.78,1
9538,0,56190,60610,55944.47,60677.24,245.53,-67.24,0.00191,0.018617,0.890732,87.73,1
9547,0,56208,60636,55949.74,60676.41,258.26,-40.41,0.001815,0.01863,0.893051,87.67,1
9559,0,56226,60637,55955.27,60675.62,270.73,-38.63,0.001717,0.018643,0.895631,87.61,1
9568,0,56223,60646,55960.62,60675.03,262.38,-29.03,0.001621,0.018653,0.898085,87.55,1
9578,0,56233,60657,55966.07,60674.67,266.93,-17.67,0.001523,0.018659,0.900663,87.48,1
9588,0,56255,60660,55971.85,60674.38,283.14,-14.38,0.00142,0.018664,0.903594,87.41,1
9598,0,56289,60686,55978.2,60674.61,310.8,11.39,0.001307,0.01866,0.907171,87.32,1
9608,0,56311,60694,55984.85,60675,326.14,19,0.001188,0.018654,0.911133,87.22,1
9619,0,56336,60714,55991.88,60675.78,344.12,38.22,0.001062,0.018641,0.91555,87.11,1
9628,0,56356,60720,55999.16,60676.66,356.84,43.34,0.000932,0.018626,0.920318,86.99,1
9638,0,56393,60755,56007.04,60678.23,385.96,76.77,0.000792,0.0186,0.925831,86.85,1
9648,0,56423,60771,56015.36,60680.08,407.64,90.91,0.000643,0.01857,0.931959,86.7,1
9657,0,56436,60777,56023.78,60682.02,412.22,94.98,0.000493,0.018538,0.938223,86.54,1
9668,0,56441,60785,56032.12,60684.08,408.88,100.92,0.000344,0.018504,0.944361,86.39,1
9677,0,56451,60785,56040.5,60686.1,410.5,98.9,0.000194,0.018471,0.950574,86.24,1
9689,0,56456,60787,56048.82,60688.12,407.18,98.88,0.000046,0.018437,0.956694,86.08,1
9698,0,56470,60780,56057.24,60689.96,412.76,90.04,-0.000104,0.018407,0.963054,85.92,1
9708,0,56478,60799,56065.65,60692.14,412.35,106.86,-0.000254,0.018371,0.969315,85.77,1
9717,0,56493,60804,56074.2,60694.38,418.8,109.62,-0.000407,0.018334,0.975778,85.61,1
9729,0,56519,60813,56083.09,60696.75,435.91,116.25,-0.000565,0.018295,0.982777,85.43,1
9738,0,56536,60817,56092.15,60699.16,443.85,117.84,-0.000727,0.018256,0.990044,85.25,1
9749,0,56547,60837,56101.25,60701.92,445.75,135.08,-0.000889,0.01821,0.99724,85.07,1
9758,0,56552,60832,56110.26,60704.52,441.73,127.48,-0.00105,0.018167,1.004362,84.89,1
9767,0,56558,60836,56119.22,60707.15,438.78,128.85,-0.001209,0.018124,1.011372,84.72,1
9778,0,56563,60833,56128.1,60709.67,434.9,123.33,-0.001367,0.018082,1.018298,84.54,1
9788,0,56554,60832,56136.62,60712.12,417.38,119.88,-0.001519,0.018042,1.024669,84.38,1
9798,0,56551,60835,56144.91,60714.57,406.09,120.43,-0.001667,0.018002,1.030675,84.23,1
9807,0,56555,60826,56153.11,60716.8,401.89,109.2,-0.001813,0.017965,1.036649,84.08,1
9819,0,56558,60841,56161.21,60719.29,396.79,121.71,-0.001957,0.017924,1.04237,83.94,1
9828,0,56571,60840,56169.41,60721.71,401.59,118.29,-0.002103,0.017884,1.048287,83.79,1
9837,0,56592,60855,56177.86,60724.37,414.14,130.63,-0.002253,0.01784,1.054513,83.64,1
9848,0,56606,60855,56186.42,60726.99,419.57,128.01,-0.002406,0.017797,1.060955,83.48,1
9858,0,56612,60867,56194.94,60729.79,417.06,137.21,-0.002557,0.017751,1.067227,83.32,1
9868,0,56629,60875,56203.62,60732.69,425.38,142.3,-0.002712,0.017703,1.073734,83.16,1
9877,0,56645,60876,56212.44,60735.56,432.55,140.44,-0.002869,0.017656,1.080515,82.99,1
9888,0,56650,60888,56221.2,60738.61,428.8,149.39,-0.003025,0.017606,1.087062,82.82,1
9897,0,56659,60889,56229.96,60741.62,429.04,147.38,-0.00318,0.017556,1.093645,82.66,1
9909,0,56664,60894,56238.64,60744.67,425.36,149.33,-0.003335,0.017506,1.100078,82.5,1
9918,0,56651,60893,56246.89,60747.64,404.11,145.36,-0.003482,0.017457,1.105841,82.35,1
9927,0,56648,60884,56254.91,60750.37,393.09,133.63,-0.003624,0.017412,1.11139,82.22,1
9938,0,56626,60874,56262.33,60752.84,363.67,121.16,-0.003756,0.017372,1.116171,82.1,1
9948,0,56600,60867,56269.08,60755.12,330.91,111.87,-0.003876,0.017334,1.12012,82,1
9958,0,56564,60853,56274.99,60757.08,289.01,95.92,-0.003981,0.017302,1.123153,81.92,1
9967,0,56525,60839,56279.99,60758.72,245.01,80.28,-0.00407,0.017275,1.125343,81.87,1
9977,0,56472,60824,56283.83,60760.03,188.17,63.97,-0.004138,0.017253,1.12662,81.83,1
9988,0,56419,60815,56286.53,60761.13,132.46,53.87,-0.004186,0.017235,1.127209,81.82,1
9997,0,56363,60800,56288.07,60761.91,74.93,38.09,-0.004213,0.017222,1.127369,81.82,1
10008,0,56300,60777,56288.3,60762.21,11.7,14.79,-0.004218,0.017217,1.127366,81.82,1
10017,0,56238,60763,56287.3,60762.23,-49.3,0.77,-0.0042,0.017217,1.127495,81.81,1
10028,0,56174,60758,56285.03,60762.15,-111.04,-4.15,-0.004159,0.017218,1.128093,81.8,1
10037,0,56129,60767,56281.91,60762.25,-152.91,4.75,-0.004104,0.017217,1.12922,81.77,1
10048,0,56081,60770,56277.9,60762.4,-196.9,7.6,-0.004033,0.017214,1.13108,81.72,1
10057,0,56019,60770,56272.72,60762.55,-253.72,7.45,-0.003941,0.017212,1.134162,81.65,1
10067,0,55959,60775,56266.44,60762.8,-307.45,12.2,-0.003829,0.017208,1.138688,81.53,1
10078,0,55907,60818,56259.26,60763.91,-352.26,54.09,-0.003701,0.017189,1.144514,81.39,1
10088,0,55897,60889,56252.01,60766.41,-355.02,122.59,-0.003573,0.017148,1.149842,81.25,1
10097,0,55881,60951,56244.6,60770.1,-363.6,180.89,-0.003441,0.017087,1.154551,81.14,1
10107,0,55882,61015,56237.35,60775,-355.35,240,-0.003312,0.017007,1.157652,81.06,1
10118,0,55878,61073,56230.16,60780.96,-352.16,292.04,-0.003184,0.016909,1.15915,81.02,1
10127,0,55877,61128,56223.1,60787.91,-346.1,340.09,-0.003059,0.016794,1.158803,81.03,1
10138,0,55873,61202,56216.1,60796.19,-343.1,405.81,-0.002934,0.016658,1.155742,81.11,1
10147,0,55874,61268,56209.26,60805.62,-335.26,462.38,-0.002812,0.016503,1.149893,81.25,1
10158,0,55879,61328,56202.65,60816.07,-323.65,511.93,-0.002695,0.016331,1.141332,81.47,1
10168,0,55879,61418,56196.18,60828.11,-317.18,589.89,-0.00258,0.016133,1.128524,81.79,1
10177,0,55912,61514,56190.5,60841.83,-278.5,672.17,-0.002479,0.015908,1.110179,82.25,1
10187,0,55960,61613,56185.89,60857.25,-225.89,755.75,-0.002396,0.015654,1.086154,82.85,1
10198,0,55987,61686,56181.91,60873.83,-194.91,812.17,-0.002326,0.015382,1.059302,83.52,1
10208,0,56015,61760,56178.57,60891.55,-163.57,868.45,-0.002266,0.015091,1.030099,84.25,1
10218,0,56051,61827,56176.02,60910.26,-125.02,916.74,-0.002221,0.014784,0.999494,85.01,1
10227,0,56079,61895,56174.08,60929.96,-95.08,965.04,-0.002186,0.01446,0.968025,85.8,1
10237,0,56115,61963,56172.9,60950.62,-57.9,1012.38,-0.002165,0.014121,0.936102,86.6,1
10248,0,56154,62007,56172.52,60971.75,-18.52,1035.25,-0.002159,0.013775,0.905503,87.36,1
10257,0,56180,62033,56172.67,60992.98,7.32,1040.02,-0.002161,0.013427,0.877222,88.07,1
10268,0,56191,62069,56173.04,61014.5,17.96,1054.5,-0.002168,0.013074,0.850525,88.74,1
10277,0,56212,62090,56173.82,61036.01,38.18,1053.99,-0.002182,0.012721,0.825981,89.35,1
10289,0,56227,62123,56174.88,61057.75,52.12,1065.25,-0.002201,0.012365,0.802831,89.93,1
10298,0,56241,62143,56176.21,61079.46,64.79,1063.54,-0.002224,0.01201,0.781469,90.46,1
10307,0,56256,62158,56177.8,61101.03,78.2,1056.97,-0.002253,0.011657,0.761876,90.95,1
10318,0,56264,62175,56179.53,61122.51,84.47,1052.49,-0.002283,0.011305,0.743736,91.41,1
10328,0,56279,62201,56181.52,61144.08,97.48,1056.92,-0.002319,0.010952,0.726645,91.83,1
10337,0,56293,62214,56183.75,61165.48,109.25,1048.52,-0.002358,0.010602,0.710903,92.23,1
10348,0,56305,62238,56186.17,61186.93,118.82,1051.07,-0.002402,0.010252,0.696044,92.6,1
10357,0,56321,62264,56188.87,61208.48,132.13,1055.52,-0.00245,0.0099,0.681982,92.95,1
10368,0,56347,62297,56192.04,61230.25,154.96,1066.75,-0.002506,0.009544,0.668586,93.29,1
10378,0,56357,62326,56195.34,61252.16,161.66,1073.84,-0.002565,0.009186,0.655789,93.61,1
10387,0,56376,62357,56198.95,61274.26,177.05,1082.74,-0.002629,0.008825,0.643606,93.91,1
10398,0,56407,62393,56203.12,61296.64,203.88,1096.36,-0.002703,0.00846,0.632052,94.2,1
10407,0,56417,62422,56207.39,61319.15,209.61,1102.85,-0.002779,0.008093,0.621023,94.47,1
10417,0,56439,62452,56212.03,61341.8,226.97,1110.2,-0.002862,0.007724,0.610625,94.73,1
10428,0,56461,62471,56217.01,61364.39,243.99,1106.61,-0.00295,0.007356,0.601058,94.97,1
10437,0,56481,62488,56222.29,61386.87,258.71,1101.13,-0.003044,0.006989,0.59228,95.19,1
10448,0,56495,62507,56227.74,61409.27,267.26,1097.73,-0.003141,0.006624,0.584108,95.4,1
10458,0,56503,62522,56233.25,61431.53,269.75,1090.47,-0.003239,0.006262,0.576477,95.59,1
10467,0,56507,62520,56238.72,61453.3,268.28,1066.7,-0.003336,0.005908,0.569556,95.76,1
10478,0,56511,62517,56244.17,61474.57,266.83,1042.43,-0.003433,0.005562,0.563282,95.92,1
10487,0,56507,62507,56249.42,61495.22,257.57,1011.78,-0.003527,0.005226,0.557569,96.06,1
10497,0,56499,62502,56254.42,61515.36,244.58,986.64,-0.003615,0.004898,0.55223,96.19,1
10508,0,56497,62488,56259.27,61534.82,237.73,953.18,-0.003702,0.004582,0.547419,96.31,1
10517,0,56484,62472,56263.77,61553.56,220.23,918.44,-0.003782,0.004278,0.542967,96.43,1
10527,0,56469,62465,56267.87,61571.79,201.13,893.21,-0.003855,0.003982,0.538711,96.53,1
10537,0,56465,62447,56271.82,61589.3,193.18,857.7,-0.003925,0.003697,0.534875,96.63,1
10547,0,56453,62439,56275.44,61606.3,177.55,832.7,-0.003989,0.003421,0.53123,96.72,1
10557,0,56440,62408,56278.74,61622.33,161.26,785.67,-0.004048,0.003161,0.527986,96.8,1
10567,0,56424,62389,56281.64,61637.67,142.36,751.33,-0.004099,0.002912,0.524967,96.88,1
10577,0,56410,62372,56284.21,61652.35,125.79,719.64,-0.004145,0.002674,0.522156,96.95,1
10587,0,56399,62341,56286.51,61666.13,112.49,674.87,-0.004186,0.002451,0.519676,97.01,1
10598,0,56376,62311,56288.3,61679.03,87.7,631.97,-0.004217,0.002241,0.517427,97.06,1
10607,0,56355,62291,56289.63,61691.27,65.37,599.73,-0.004241,0.002043,0.515342,97.12,1
10616,0,56336,62251,56290.56,61702.46,45.44,548.54,-0.004258,0.001861,0.513567,97.16,1
10628,0,56310,62232,56290.95,61713.06,19.05,518.94,-0.004265,0.00169,0.511945,97.2,1
10637,0,56293,62198,56290.99,61722.76,2.01,475.24,-0.004265,0.001533,0.510584,97.24,1
10647,0,56273,62169,56290.63,61731.68,-17.63,437.32,-0.004259,0.001388,0.509447,97.26,1
10656,0,56253,62129,56289.88,61739.63,-36.88,389.37,-0.004246,0.001259,0.508586,97.29,1
10668,0,56229,62097,56288.66,61746.78,-59.66,350.22,-0.004224,0.001144,0.507971,97.3,1
10677,0,56205,62080,56286.99,61753.44,-81.99,326.55,-0.004194,0.001036,0.507552,97.31,1
10688,0,56190,62056,56285.05,61759.5,-95.05,296.5,-0.00416,0.000938,0.507321,97.32,1
10697,0,56172,62026,56282.79,61764.83,-110.79,261.17,-0.00412,0.000851,0.507314,97.32,1
10706,0,56144,61998,56280.01,61769.5,-136.02,228.5,-0.00407,0.000776,0.507605,97.31,1
10718,0,56135,61996,56277.12,61774.02,-142.12,221.98,-0.004019,0.000702,0.507971,97.3,1
10727,0,56135,61993,56274.27,61778.4,-139.27,214.6,-0.003968,0.000632,0.508334,97.29,1
10737,0,56145,62010,56271.69,61783.03,-126.69,226.96,-0.003922,0.000557,0.508555,97.29,1
10747,0,56158,62029,56269.41,61787.95,-111.41,241.05,-0.003882,0.000477,0.508615,97.28,1
10758,0,56175,62046,56267.53,61793.12,-92.53,252.88,-0.003848,0.000393,0.508507,97.29,1
10767,0,56176,62040,56265.7,61798.06,-89.7,241.94,-0.003816,0.000313,0.508417,97.29,1
10776,0,56172,62039,56263.83,61802.88,-91.83,236.12,-0.003783,0.000235,0.508357,97.29,1
10787,0,56174,62026,56262.03,61807.34,-88.03,218.66,-0.003751,0.000163,0.508327,97.29,1
10797,0,56165,62025,56260.09,61811.7,-95.09,213.3,-0.003716,0.000093,0.508357,97.29,1
10807,0,56153,62009,56257.95,61815.64,-104.95,193.36,-0.003678,0.000029,0.508511,97.29,1
10817,0,56151,61985,56255.82,61819.03,-104.82,165.97,-0.00364,-0.000026,0.508732,97.28,1
10827,0,56146,61989,56253.62,61822.43,-107.62,166.57,-0.003601,-0.000081,0.508975,97.28,1
10836,0,56145,61979,56251.44,61825.56,-106.45,153.44,-0.003563,-0.000132,0.509239,97.27,1
10847,0,56147,61971,56249.36,61828.47,-102.36,142.53,-0.003525,-0.000179,0.509497,97.26,1
10857,0,56138,61960,56247.14,61831.1,-109.14,128.9,-0.003486,-0.000221,0.509834,97.25,1
10866,0,56130,61948,56244.8,61833.44,-114.8,114.56,-0.003444,-0.000259,0.510245,97.24,1
10877,0,56121,61931,56242.32,61835.39,-121.32,95.61,-0.0034,-0.000291,0.510744,97.23,1
10887,0,56114,61928,56239.76,61837.25,-125.76,90.75,-0.003355,-0.000321,0.511294,97.22,1
10898,0,56118,61947,56237.32,61839.44,-119.32,107.55,-0.003312,-0.000356,0.511766,97.21,1
10907,0,56133,61953,56235.24,61841.71,-102.24,111.29,-0.003274,-0.000393,0.512092,97.2,1
10916,0,56151,61978,56233.55,61844.44,-82.55,133.56,-0.003244,-0.000437,0.51224,97.19,1
10928,0,56174,62000,56232.36,61847.55,-58.36,152.45,-0.003223,-0.000487,0.512215,97.19,1
10937,0,56191,62012,56231.54,61850.84,-40.54,161.16,-0.003209,-0.00054,0.512098,97.2,1
10947,0,56197,62032,56230.85,61854.47,-33.85,177.53,-0.003196,-0.000599,0.511915,97.2,1
10956,0,56209,62043,56230.41,61858.24,-21.41,184.76,-0.003189,-0.00066,0.511681,97.21,1
10967,0,56208,62039,56229.97,61861.85,-21.97,177.14,-0.003181,-0.000718,0.511467,97.21,1
10977,0,56217,62033,56229.71,61865.28,-12.71,167.72,-0.003176,-0.000774,0.511263,97.22,1
10986,0,56209,62025,56229.3,61868.48,-20.3,156.52,-0.003169,-0.000825,0.511098,97.22,1
10997,0,56193,62012,56228.57,61871.35,-35.57,140.65,-0.003156,-0.000872,0.511007,97.22,1
11006,0,56184,61988,56227.68,61873.68,-43.68,114.32,-0.00314,-0.00091,0.510997,97.23,1
11018,0,56173,61979,56226.59,61875.79,-53.59,103.21,-0.003121,-0.000944,0.511048,97.22,1
11027,0,56158,61961,56225.22,61877.49,-67.22,83.51,-0.003096,-0.000971,0.5112,97.22,1
11037,0,56149,61947,56223.69,61878.89,-74.7,68.11,-0.003069,-0.000994,0.511418,97.21,1
11046,0,56139,61928,56222,61879.87,-83,48.13,-0.003039,-0.00101,0.511713,97.21,1
11056,0,56127,61912,56220.1,61880.51,-93.11,31.49,-0.003005,-0.00102,0.512097,97.2,1
11067,0,56106,61890,56217.82,61880.7,-111.82,9.3,-0.002965,-0.001023,0.512659,97.18,1
11076,0,56100,61873,56215.47,61880.55,-115.47,-7.55,-0.002923,-0.001021,0.51326,97.17,1
11086,0,56081,61849,56212.78,61879.92,-131.78,-30.92,-0.002875,-0.00101,0.514034,97.15,1
11097,0,56068,61835,56209.89,61879.02,-141.89,-44.02,-0.002824,-0.000996,0.514928,97.13,1
11107,0,56055,61817,56206.79,61877.78,-151.79,-60.78,-0.002768,-0.000976,0.51594,97.1,1
11116,0,56042,61811,56203.5,61876.44,-161.5,-65.45,-0.00271,-0.000954,0.517092,97.07,1
11127,0,56047,61803,56200.37,61874.98,-153.37,-71.98,-0.002654,-0.00093,0.518125,97.05,1
11137,0,56047,61789,56197.3,61873.26,-150.3,-84.26,-0.0026,-0.000903,0.519102,97.02,1
11147,0,56036,61803,56194.07,61871.85,-158.07,-68.85,-0.002542,-0.00088,0.520224,96.99,1
11157,0,56025,61785,56190.69,61870.11,-165.7,-85.11,-0.002482,-0.000852,0.521442,96.96,1
11166,0,56020,61776,56187.28,61868.23,-167.28,-92.23,-0.002421,-0.000821,0.52268,96.93,1
11176,0,56010,61752,56183.73,61865.91,-173.73,-113.91,-0.002358,-0.000784,0.523979,96.9,1
11187,0,56004,61743,56180.14,61863.45,-176.14,-120.45,-0.002294,-0.000744,0.52531,96.87,1
11197,0,55992,61733,56176.38,61860.84,-184.38,-127.84,-0.002227,-0.000702,0.526772,96.83,1
11206,0,55995,61720,56172.75,61858.02,-177.75,-138.02,-0.002163,-0.000657,0.528093,96.8,1
11217,0,55985,61726,56169,61855.38,-184,-129.38,-0.002096,-0.000614,0.529561,96.76,1
11227,0,55987,61728,56165.35,61852.83,-178.36,-124.84,-0.002031,-0.000573,0.53095,96.73,1
11236,0,55992,61734,56161.89,61850.46,-169.89,-116.46,-0.001969,-0.000534,0.532226,96.69,1
11247,0,55994,61739,56158.53,61848.23,-164.53,-109.23,-0.001909,-0.000498,0.533441,96.66,1
11256,0,56003,61747,56155.42,61846.21,-152.42,-99.21,-0.001854,-0.000466,0.534497,96.64,1
11268,0,56018,61773,56152.67,61844.75,-134.68,-71.75,-0.001805,-0.000442,0.535362,96.62,1
11277,0,56033,61784,56150.28,61843.53,-117.29,-59.54,-0.001763,-0.000422,0.536029,96.6,1
11286,0,56044,61803,56148.16,61842.72,-104.16,-39.72,-0.001725,-0.000409,0.536579,96.59,1
11296,0,56059,61820,56146.38,61842.27,-87.38,-22.27,-0.001693,-0.000402,0.53698,96.58,1
11307,0,56064,61820,56144.73,61841.82,-80.73,-21.82,-0.001664,-0.000395,0.537326,96.57,1
11317,0,56075,61842,56143.34,61841.83,-68.34,0.17,-0.001639,-0.000395,0.537585,96.56,1
11326,0,56084,61858,56142.15,61842.15,-58.15,15.85,-0.001618,-0.0004,0.537776,96.56,1
11337,0,56094,61871,56141.19,61842.73,-47.19,28.27,-0.001601,-0.000409,0.537899,96.55,1
11346,0,56100,61872,56140.36,61843.32,-40.36,28.68,-0.001586,-0.000419,0.53799,96.55,1
11357,0,56105,61876,56139.66,61843.97,-34.66,32.03,-0.001573,-0.000429,0.538055,96.55,1
11366,0,56105,61879,56138.97,61844.67,-33.97,34.33,-0.001561,-0.000441,0.538116,96.55,1
11377,0,56113,61887,56138.45,61845.52,-25.45,41.48,-0.001552,-0.000454,0.538141,96.55,1
11386,0,56113,61873,56137.94,61846.07,-24.95,26.93,-0.001543,-0.000463,0.538176,96.55,1
11397,0,56105,61866,56137.29,61846.47,-32.29,19.53,-0.001531,-0.00047,0.53824,96.54,1
11406,0,56093,61844,56136.4,61846.42,-43.4,-2.42,-0.001515,-0.000469,0.538357,96.54,1
11417,0,56081,61825,56135.3,61845.99,-54.3,-20.99,-0.001496,-0.000462,0.538529,96.54,1
11426,0,56062,61800,56133.83,61845.07,-71.83,-45.07,-0.001469,-0.000447,0.538809,96.53,1
11437,0,56045,61775,56132.05,61843.67,-87.05,-68.68,-0.001438,-0.000425,0.539196,96.52,1
11446,0,56010,61754,56129.61,61841.88,-119.61,-87.88,-0.001394,-0.000395,0.539947,96.5,1
11457,0,56004,61738,56127.1,61839.81,-123.1,-101.81,-0.00135,-0.000362,0.540715,96.48,1
11466,0,56005,61756,56124.66,61838.13,-119.66,-82.13,-0.001306,-0.000335,0.541495,96.46,1
11475,0,56014,61755,56122.45,61836.47,-108.45,-81.47,-0.001267,-0.000308,0.542123,96.45,1
11487,0,56015,61754,56120.3,61834.82,-105.3,-80.82,-0.001229,-0.000281,0.542717,96.43,1
11496,0,56011,61727,56118.12,61832.67,-107.12,-105.67,-0.001189,-0.000246,0.543264,96.42,1
11507,0,56006,61725,56115.88,61830.51,-109.88,-105.52,-0.00115,-0.000212,0.543855,96.4,1
11516,0,55989,61717,56113.34,61828.25,-124.34,-111.25,-0.001104,-0.000175,0.544648,96.38,1
11526,0,55976,61698,56110.6,61825.64,-134.6,-127.64,-0.001056,-0.000133,0.545553,96.36,1
11537,0,55971,61676,56107.8,61822.65,-136.8,-146.65,-0.001006,-0.000085,0.546417,96.34,1
11546,0,55953,61649,56104.71,61819.18,-151.71,-170.18,-0.000951,-0.000028,0.547444,96.31,1
11556,0,55940,61653,56101.41,61815.85,-161.41,-162.86,-0.000892,0.000025,0.548716,96.28,1
11567,0,55934,61634,56098.07,61812.22,-164.07,-178.22,-0.000832,0.000084,0.549963,96.25,1
11576,0,55929,61616,56094.68,61808.3,-165.68,-192.3,-0.000772,0.000148,0.551162,96.22,1
11586,0,55921,61588,56091.21,61803.89,-170.21,-215.89,-0.00071,0.000219,0.552301,96.19,1
11596,0,55907,61554,56087.53,61798.89,-180.53,-244.89,-0.000644,0.0003,0.553457,96.16,1
11607,0,55895,61543,56083.67,61793.78,-188.68,-250.78,-0.000576,0.000383,0.554766,96.13,1
11616,0,55878,61504,56079.56,61787.98,-201.56,-283.98,-0.000502,0.000477,0.556104,96.1,1
11626,0,55870,61494,56075.37,61782.1,-205.37,-288.1,-0.000428,0.000572,0.557503,96.06,1
11636,0,55871,61463,56071.28,61775.72,-200.28,-312.72,-0.000355,0.000675,0.558499,96.04,1
11645,0,55861,61445,56067.07,61769.11,-206.07,-324.11,-0.00028,0.000782,0.559522,96.01,1
11657,0,55855,61426,56062.83,61762.25,-207.84,-336.25,-0.000204,0.000893,0.560447,95.99,1
11666,0,55847,61410,56058.52,61755.2,-211.52,-345.2,-0.000127,0.001007,0.561364,95.97,1
11677,0,55848,61392,56054.32,61747.94,-206.32,-355.94,-0.000052,0.001125,0.561992,95.95,1
11686,0,55836,61379,56049.95,61740.56,-213.95,-361.56,0.000026,0.001244,0.562762,95.93,1
11696,0,55823,61349,56045.41,61732.73,-222.41,-383.73,0.000107,0.001371,0.56348,95.91,1
11707,0,55814,61333,56040.79,61724.74,-226.79,-391.74,0.000189,0.0015,0.564213,95.89,1
11716,0,55811,61306,56036.19,61716.37,-225.19,-410.37,0.000271,0.001636,0.564622,95.88,1
11727,0,55787,61281,56031.21,61707.66,-244.21,-426.66,0.00036,0.001777,0.565384,95.87,1
11737,0,55765,61247,56025.88,61698.45,-260.88,-451.45,0.000455,0.001926,0.566312,95.84,1
11746,0,55738,61199,56020.13,61688.46,-282.13,-489.46,0.000558,0.002088,0.567356,95.82,1
11757,0,55700,61153,56013.73,61677.75,-313.73,-524.75,0.000672,0.002262,0.568987,95.78,1
11766,0,55666,61099,56006.77,61666.18,-340.77,-567.18,0.000797,0.00245,0.570912,95.73,1
11777,0,55633,61042,55999.3,61653.69,-366.3,-611.7,0.00093,0.002652,0.573016,95.67,1
11786,0,55590,60980,55991.12,61640.22,-401.12,-660.22,0.001076,0.002871,0.575652,95.61,1
11796,0,55552,60919,55982.33,61625.8,-430.34,-706.8,0.001233,0.003105,0.578574,95.54,1
11806,0,55525,60864,55973.19,61610.56,-448.19,-746.56,0.001396,0.003352,0.581312,95.47,1
11816,0,55484,60803,55963.41,61594.41,-479.41,-791.41,0.001571,0.003614,0.584437,95.39,1
11827,0,55438,60741,55952.91,61577.34,-514.91,-836.34,0.001759,0.003891,0.588165,95.3,1
11836,0,55408,60682,55942.01,61559.44,-534.01,-877.44,0.001954,0.004182,0.591608,95.21,1
11846,0,55374,60619,55930.65,61540.63,-556.65,-921.63,0.002157,0.004488,0.594863,95.13,1
11856,0,55350,60574,55919.03,61521.3,-569.04,-947.3,0.002364,0.004802,0.597845,95.05,1
11866,0,55336,60525,55907.37,61501.37,-571.38,-976.37,0.002573,0.005126,0.599915,95,1
11877,0,55306,60489,55895.35,61481.12,-589.35,-992.13,0.002788,0.005455,0.602342,94.94,1
11886,0,55294,60432,55883.32,61460.14,-589.32,-1028.14,0.003003,0.005796,0.603596,94.91,1
11895,0,55277,60417,55871.2,61439.28,-594.2,-1022.28,0.00322,0.006136,0.60514,94.87,1
11907,0,55260,60410,55858.98,61418.69,-598.98,-1008.7,0.003439,0.006471,0.607135,94.82,1
11916,0,55241,60406,55846.62,61398.44,-605.62,-992.45,0.00366,0.006801,0.60969,94.76,1
11925,0,55237,60432,55834.42,61379.12,-597.43,-947.12,0.003879,0.007116,0.612732,94.68,1
11936,0,55244,60479,55822.62,61361.11,-578.62,-882.11,0.00409,0.007409,0.616153,94.6,1
11945,0,55272,60543,55811.6,61344.75,-539.61,-801.75,0.004287,0.007676,0.619373,94.52,1
11957,0,55314,60621,55801.66,61330.27,-487.66,-709.27,0.004466,0.007912,0.622153,94.45,1
11966,0,55346,60674,55792.55,61317.15,-446.55,-643.15,0.004629,0.008126,0.62451,94.39,1
11975,0,55382,60738,55784.33,61305.57,-402.34,-567.57,0.004776,0.008315,0.62654,94.34,1
11986,0,55416,60782,55776.97,61295.1,-360.97,-513.1,0.004908,0.008486,0.628101,94.3,1
11996,0,55435,60805,55770.13,61285.3,-335.13,-480.3,0.005031,0.008645,0.629386,94.27,1
12007,0,55442,60821,55763.57,61276.01,-321.57,-455.02,0.005148,0.008797,0.630622,94.23,1
12016,0,55450,60807,55757.3,61266.64,-307.3,-459.64,0.005261,0.00895,0.631477,94.21,1
12025,0,55429,60788,55750.73,61257.07,-321.73,-469.07,0.005379,0.009106,0.632546,94.19,1
12037,0,55414,60772,55744,61247.37,-330,-475.37,0.005499,0.009265,0.633728,94.16,1
12046,0,55407,60768,55737.26,61237.78,-330.26,-469.78,0.00562,0.009421,0.634968,94.13,1
12056,0,55396,60747,55730.44,61227.97,-334.44,-480.97,0.005743,0.009581,0.636169,94.1,1
12066,0,55382,60719,55723.47,61217.79,-341.47,-498.79,0.005868,0.009748,0.637316,94.07,1
12076,0,55377,60699,55716.54,61207.41,-339.54,-508.41,0.005992,0.009917,0.638287,94.04,1
12087,0,55383,60736,55709.87,61197.98,-326.87,-461.98,0.006112,0.010071,0.639494,94.01,1
12096,0,55397,60784,55703.62,61189.71,-306.62,-405.71,0.006224,0.010206,0.640832,93.98,1
12105,0,55421,60860,55697.97,61183.11,-276.97,-323.11,0.006325,0.010314,0.642291,93.94,1
12116,0,55474,60968,55693.49,61178.81,-219.49,-210.81,0.006406,0.010384,0.643477,93.91,1
12126,0,55527,61084,55690.16,61176.92,-163.16,-92.92,0.006466,0.010415,0.644349,93.89,1
12136,0,55600,61191,55688.36,61177.2,-88.36,13.8,0.006498,0.010411,0.644654,93.88,1
12146,0,55658,61263,55687.76,61178.92,-29.76,84.08,0.006509,0.010383,0.644622,93.88,1
12155,0,55699,61302,55687.98,61181.38,11.02,120.62,0.006505,0.010342,0.644464,93.89,1
12166,0,55710,61318,55688.42,61184.11,21.57,133.89,0.006497,0.010298,0.644274,93.89,1
12175,0,55727,61326,55689.2,61186.95,37.8,139.05,0.006483,0.010251,0.644098,93.9,1
12186,0,55725,61333,55689.92,61189.87,35.08,143.13,0.00647,0.010204,0.643899,93.9,1
12195,0,55728,61355,55690.68,61193.18,37.32,161.82,0.006456,0.01015,0.643632,93.91,1
12206,0,55750,61403,55691.87,61197.37,58.13,205.63,0.006435,0.010081,0.643229,93.92,1
12216,0,55775,61478,55693.53,61202.99,81.47,275.01,0.006405,0.009989,0.642514,93.94,1
12226,0,55830,61581,55696.26,61210.55,133.74,370.45,0.006356,0.009866,0.641417,93.96,1
12235,0,55890,61687,55700.14,61220.08,189.86,466.92,0.006287,0.00971,0.639962,94,1
12246,0,55953,61783,55705.19,61231.33,247.8,551.66,0.006196,0.009526,0.63837,94.04,1
12256,0,56015,61860,55711.39,61243.91,303.61,616.09,0.006084,0.009321,0.637018,94.07,1
12265,0,56060,61917,55718.37,61257.37,341.63,659.63,0.005959,0.009101,0.635927,94.1,1
12276,0,56093,61975,55725.86,61271.73,367.14,703.27,0.005825,0.008867,0.634799,94.13,1
12285,0,56114,62018,55733.62,61286.65,380.38,731.35,0.005686,0.008623,0.633573,94.16,1
12297,0,56135,62063,55741.65,61302.18,393.35,760.82,0.005542,0.00837,0.632218,94.19,1
12306,0,56150,62097,55749.82,61318.08,400.18,778.92,0.005395,0.008111,0.630772,94.23,1
12315,0,56179,62131,55758.4,61334.34,420.6,796.66,0.005241,0.007845,0.62966,94.26,1
12326,0,56200,62176,55767.23,61351.17,432.77,824.82,0.005083,0.007571,0.628428,94.29,1
12336,0,56230,62202,55776.49,61368.19,453.51,833.81,0.004917,0.007294,0.627734,94.31,1
12346,0,56246,62242,55785.88,61385.67,460.12,856.33,0.004748,0.007009,0.626848,94.33,1
12356,0,56265,62274,55795.47,61403.44,469.53,870.56,0.004577,0.00672,0.626031,94.35,1
12365,0,56303,62316,55805.62,61421.69,497.38,894.31,0.004395,0.006422,0.625711,94.36,1
12376,0,56323,62343,55815.97,61440.12,507.03,902.88,0.004209,0.006122,0.625568,94.36,1
12385,0,56350,62390,55826.65,61459.12,523.35,930.88,0.004018,0.005813,0.625444,94.36,1
12396,0,56383,62437,55837.78,61478.67,545.22,958.32,0.003818,0.005495,0.625545,94.36,1
12405,0,56420,62467,55849.42,61498.44,570.57,968.56,0.00361,0.005174,0.626337,94.34,1
12417,0,56452,62511,55861.48,61518.69,590.52,992.31,0.003394,0.004844,0.627341,94.32,1
12426,0,56473,62532,55873.71,61538.96,599.29,993.04,0.003175,0.004515,0.628595,94.29,1
12435,0,56493,62551,55886.1,61559.2,606.9,991.8,0.002954,0.004186,0.63008,94.25,1
12446,0,56508,62574,55898.53,61579.5,609.46,994.5,0.002731,0.003856,0.631532,94.21,1
12455,0,56533,62586,55911.23,61599.63,621.77,986.37,0.002504,0.00353,0.633489,94.16,1
12466,0,56542,62606,55923.84,61619.76,618.16,986.24,0.002278,0.003203,0.635231,94.12,1
12476,0,56559,62617,55936.55,61639.7,622.45,977.3,0.002051,0.002879,0.637194,94.07,1
12485,0,56569,62633,55949.19,61659.57,619.8,973.43,0.001825,0.002557,0.639049,94.02,1
12495,0,56584,62638,55961.89,61679.14,622.11,958.86,0.001598,0.00224,0.641144,93.97,1
12506,0,56593,62660,55974.51,61698.76,618.49,961.24,0.001373,0.001922,0.642997,93.93,1
12516,0,56605,62678,55987.12,61718.34,617.88,959.66,0.001147,0.001604,0.644782,93.88,1
12525,0,56622,62702,55999.82,61738.01,622.18,963.98,0.000921,0.001285,0.646557,93.84,1
12535,0,56633,62727,56012.49,61757.8,620.51,969.2,0.000695,0.000965,0.648128,93.8,1
12546,0,56648,62731,56025.2,61777.26,622.8,953.74,0.000468,0.00065,0.64995,93.75,1
12555,0,56646,62745,56037.62,61796.62,608.38,948.38,0.000246,0.000337,0.651372,93.72,1
12566,0,56656,62743,56049.99,61815.55,606.01,927.45,0.000025,0.00003,0.652992,93.68,1
12575,0,56659,62753,56062.17,61834.3,596.83,918.7,-0.000192,-0.000273,0.654436,93.64,1
12587,0,56662,62760,56074.16,61852.81,587.84,907.19,-0.000406,-0.000572,0.65576,93.61,1
12596,0,56663,62748,56085.94,61870.72,577.05,877.28,-0.000616,-0.000862,0.657183,93.57,1
12605,0,56662,62754,56097.46,61888.38,564.54,865.62,-0.000821,-0.001147,0.65841,93.54,1
12615,0,56670,62761,56108.91,61905.83,561.09,855.16,-0.001026,-0.001429,0.65966,93.51,1
12625,0,56675,62753,56120.24,61922.78,554.76,830.22,-0.001227,-0.001703,0.661049,93.47,1
12636,0,56675,62771,56131.33,61939.74,543.66,831.26,-0.001425,-0.001977,0.662131,93.45,1
12645,0,56673,62766,56142.17,61956.27,530.83,809.73,-0.001618,-0.002244,0.663164,93.42,1
12655,0,56680,62767,56152.93,61972.48,527.07,794.52,-0.00181,-0.002505,0.664278,93.39,1
12665,0,56680,62765,56163.47,61988.33,516.53,776.66,-0.001997,-0.002761,0.66535,93.37,1
12676,0,56681,62770,56173.82,62003.97,507.18,766.03,-0.002182,-0.003013,0.666327,93.34,1
12686,0,56691,62783,56184.17,62019.55,506.83,763.45,-0.002366,-0.003264,0.667309,93.32,1
12695,0,56694,62787,56194.36,62034.9,499.64,752.1,-0.002547,-0.003512,0.668254,93.29,1
12704,0,56697,62789,56204.42,62049.98,492.58,739.02,-0.002726,-0.003755,0.669186,93.27,1
12716,0,56701,62788,56214.35,62064.75,486.65,723.25,-0.002903,-0.003993,0.670157,93.25,1
12725,0,56700,62781,56224.07,62079.07,475.93,701.93,-0.003076,-0.004224,0.671131,93.22,1
12736,0,56697,62788,56233.53,62093.25,463.47,694.75,-0.003244,-0.004452,0.671928,93.2,1
12745,0,56686,62772,56242.58,62106.83,443.42,665.17,-0.003405,-0.004671,0.672646,93.18,1
12754,0,56671,62767,56251.15,62120.03,419.85,646.96,-0.003557,-0.004883,0.67312,93.17,1
12766,0,56649,62745,56259.1,62132.53,389.89,612.46,-0.003699,-0.005084,0.673423,93.16,1
12775,0,56638,62738,56266.69,62144.65,371.31,593.35,-0.003833,-0.005279,0.673608,93.16,1
12785,0,56624,62731,56273.83,62156.38,350.16,574.62,-0.003961,-0.005468,0.673645,93.16,1
12795,0,56612,62714,56280.6,62167.53,331.4,546.46,-0.004081,-0.005648,0.673659,93.16,1
12806,0,56609,62715,56287.17,62178.49,321.83,536.51,-0.004197,-0.005824,0.673626,93.16,1
12815,0,56608,62709,56293.58,62189.1,314.41,519.9,-0.004311,-0.005994,0.67363,93.16,1
12825,0,56599,62689,56299.69,62199.1,299.3,489.9,-0.00442,-0.006155,0.673672,93.16,1
12835,0,56601,62686,56305.72,62208.83,295.28,477.16,-0.004527,-0.006312,0.673759,93.16,1
12845,0,56594,62674,56311.49,62218.14,282.51,455.86,-0.004629,-0.006461,0.673845,93.15,1
12856,0,56591,62669,56317.08,62227.16,273.92,441.84,-0.004729,-0.006606,0.673928,93.15,1
12865,0,56580,62648,56322.34,62235.57,257.66,412.43,-0.004822,-0.006741,0.674023,93.15,1
12874,0,56584,62643,56327.57,62243.72,256.43,399.28,-0.004915,-0.006872,0.674188,93.15,1
12886,0,56584,62637,56332.7,62251.58,251.3,385.41,-0.005006,-0.006999,0.674384,93.14,1
12895,0,56583,62632,56337.71,62259.19,245.29,372.8,-0.005095,-0.007121,0.674591,93.14,1
12906,0,56591,62625,56342.78,62266.51,248.22,358.49,-0.005185,-0.007238,0.674914,93.13,1
12915,0,56593,62622,56347.78,62273.62,245.22,348.38,-0.005274,-0.007353,0.675262,93.12,1
12924,0,56596,62617,56352.75,62280.49,243.25,336.51,-0.005362,-0.007463,0.675656,93.11,1
12936,0,56601,62631,56357.71,62287.5,243.29,343.5,-0.00545,-0.007575,0.676013,93.1,1
12945,0,56601,62618,56362.58,62294.11,238.42,323.89,-0.005536,-0.007682,0.676427,93.09,1
12955,0,56612,62626,56367.57,62300.75,244.43,325.25,-0.005625,-0.007788,0.6769,93.08,1
12965,0,56619,62616,56372.6,62307.05,246.4,308.95,-0.005714,-0.007889,0.677482,93.06,1
12975,0,56619,62628,56377.53,62313.47,241.47,314.53,-0.005802,-0.007992,0.677983,93.05,1
12985,0,56623,62623,56382.44,62319.66,240.56,303.34,-0.005888,-0.008092,0.678535,93.04,1
12995,0,56629,62621,56387.37,62325.69,241.63,295.3,-0.005976,-0.008188,0.679141,93.02,1
13005,0,56632,62623,56392.26,62331.64,239.74,291.36,-0.006063,-0.008284,0.67975,93.01,1
13015,0,56634,62617,56397.1,62337.35,236.9,279.65,-0.006148,-0.008375,0.680387,92.99,1
13026,0,56639,62633,56401.94,62343.26,237.06,289.73,-0.006234,-0.00847,0.680979,92.98,1
13035,0,56633,62628,56406.56,62348.96,226.44,279.04,-0.006316,-0.008562,0.681511,92.96,1
13044,0,56635,62631,56411.13,62354.6,223.87,276.39,-0.006397,-0.008652,0.682031,92.95,1
13056,0,56633,62636,56415.57,62360.23,217.43,275.77,-0.006476,-0.008742,0.682489,92.94,1
13065,0,56635,62631,56419.96,62365.65,215.04,265.35,-0.006554,-0.008829,0.682975,92.93,1
13076,0,56641,62636,56424.38,62371.06,216.62,264.94,-0.006632,-0.008916,0.683483,92.91,1
13085,0,56635,62632,56428.59,62376.28,206.41,255.72,-0.006707,-0.009,0.683931,92.9,1
13094,0,56632,62633,56432.66,62381.41,199.34,251.59,-0.006779,-0.009082,0.68433,92.89,1
13105,0,56626,62616,56436.53,62386.1,189.47,229.89,-0.006847,-0.009157,0.684733,92.88,1
13115,0,56623,62612,56440.26,62390.62,182.74,221.38,-0.006914,-0.00923,0.685113,92.87,1
13125,0,56610,62607,56443.65,62394.95,166.35,212.05,-0.006974,-0.009299,0.685389,92.87,1
13134,0,56597,62599,56446.72,62399.03,150.28,199.97,-0.007028,-0.009364,0.685585,92.86,1
13145,0,56602,62595,56449.83,62402.95,152.17,192.05,-0.007083,-0.009427,0.685827,92.85,1
13155,0,56589,62574,56452.61,62406.37,136.39,167.63,-0.007132,-0.009482,0.686038,92.85,1
13164,0,56586,62565,56455.28,62409.55,130.72,155.45,-0.00718,-0.009533,0.686249,92.84,1
13175,0,56578,62562,56457.73,62412.59,120.27,149.41,-0.007223,-0.009582,0.686411,92.84,1
13185,0,56572,62546,56460.02,62415.26,111.98,130.73,-0.007264,-0.009625,0.686576,92.84,1
13196,0,56574,62557,56462.3,62418.1,111.7,138.9,-0.007304,-0.00967,0.686718,92.83,1
13205,0,56564,62539,56464.34,62420.52,99.66,118.48,-0.00734,-0.009709,0.686846,92.83,1
13214,0,56559,62539,56466.23,62422.89,92.77,116.11,-0.007374,-0.009747,0.686944,92.83,1
13225,0,56553,62540,56467.97,62425.24,85.03,114.76,-0.007404,-0.009784,0.68701,92.82,1
13235,0,56546,62523,56469.53,62427.19,76.47,95.8,-0.007432,-0.009816,0.687079,92.82,1
13245,0,56552,62529,56471.18,62429.23,80.82,99.77,-0.007461,-0.009848,0.687159,92.82,1
13254,0,56544,62513,56472.64,62430.91,71.36,82.09,-0.007487,-0.009875,0.687232,92.82,1
13265,0,56545,62509,56474.08,62432.47,70.92,76.53,-0.007513,-0.0099,0.687314,92.82,1
13275,0,56542,62497,56475.44,62433.76,66.56,63.23,-0.007537,-0.009921,0.687397,92.82,1
13285,0,56532,62502,56476.57,62435.13,55.43,66.87,-0.007557,-0.009943,0.687439,92.81,1
13294,0,56529,62486,56477.62,62436.14,51.38,49.86,-0.007575,-0.009959,0.687488,92.81,1
13305,0,56529,62492,56478.65,62437.26,50.35,54.74,-0.007593,-0.009977,0.68753,92.81,1
13315,0,56522,62482,56479.52,62438.16,42.48,43.84,-0.007609,-0.009991,0.687563,92.81,1
13325,0,56515,62475,56480.23,62438.9,34.77,36.1,-0.007621,-0.010003,0.687584,92.81,1
13335,0,56510,62459,56480.82,62439.3,29.18,19.7,-0.007632,-0.01001,0.687603,92.81,1
13344,0,56502,62452,56481.25,62439.55,20.75,12.45,-0.007639,-0.010014,0.687613,92.81,1
13355,0,56497,62438,56481.56,62439.53,15.44,-1.53,-0.007645,-0.010013,0.687617,92.81,1
13364,0,56484,62426,56481.61,62439.26,2.39,-13.26,-0.007646,-0.010009,0.687611,92.81,1
13375,0,56475,62426,56481.48,62438.99,-6.48,-12.99,-0.007644,-0.010005,0.687609,92.81,1
13384,0,56468,62414,56481.21,62438.5,-13.21,-24.5,-0.007639,-0.009997,0.687605,92.81,1
13394,0,56453,62401,56480.64,62437.75,-27.64,-36.75,-0.007629,-0.009985,0.687612,92.81,1
13404,0,56455,62395,56480.13,62436.89,-25.13,-41.89,-0.00762,-0.009971,0.687607,92.81,1
13415,0,56445,62379,56479.43,62435.73,-34.43,-56.73,-0.007607,-0.009952,0.6876,92.81,1
13424,0,56437,62371,56478.58,62434.44,-41.58,-63.44,-0.007592,-0.009932,0.687602,92.81,1
13434,0,56425,62358,56477.51,62432.91,-52.51,-74.91,-0.007573,-0.009907,0.687619,92.81,1
13445,0,56420,62352,56476.36,62431.29,-56.36,-79.29,-0.007553,-0.009881,0.687642,92.81,1
13455,0,56411,62346,56475.05,62429.58,-64.05,-83.59,-0.00753,-0.009854,0.687689,92.81,1
13464,0,56413,62332,56473.81,62427.64,-60.81,-95.64,-0.007508,-0.009823,0.687688,92.81,1
13475,0,56404,62330,56472.41,62425.69,-68.41,-95.69,-0.007483,-0.009791,0.687725,92.81,1
13485,0,56399,62319,56470.95,62423.55,-71.95,-104.55,-0.007457,-0.009757,0.687754,92.81,1
13495,0,56403,62325,56469.59,62421.58,-66.59,-96.59,-0.007433,-0.009726,0.687779,92.81,1
13504,0,56397,62315,56468.14,62419.46,-71.14,-104.46,-0.007407,-0.009692,0.687805,92.8,1
13515,0,56400,62318,56466.78,62417.43,-66.78,-99.43,-0.007383,-0.009659,0.687823,92.8,1
13524,0,56395,62314,56465.34,62415.36,-70.34,-101.36,-0.007358,-0.009626,0.687854,92.8,1
13535,0,56398,62322,56464,62413.5,-66,-91.5,-0.007334,-0.009596,0.687893,92.8,1
13544,0,56404,62315,56462.8,62411.53,-58.8,-96.53,-0.007313,-0.009565,0.68788,92.8,1
13554,0,56399,62311,56461.52,62409.52,-62.52,-98.52,-0.00729,-0.009532,0.687879,92.8,1
13564,0,56399,62309,56460.27,62407.51,-61.27,-98.51,-0.007268,-0.0095,0.687872,92.8,1
13574,0,56394,62321,56458.95,62405.78,-64.95,-84.78,-0.007245,-0.009473,0.687927,92.8,1
13585,0,56396,62311,56457.69,62403.89,-61.69,-92.89,-0.007222,-0.009442,0.68794,92.8,1
13594,0,56394,62312,56456.41,62402.05,-62.41,-90.05,-0.0072,-0.009413,0.687966,92.8,1
13604,0,56393,62307,56455.14,62400.15,-62.14,-93.15,-0.007177,-0.009382,0.687981,92.8,1
13614,0,56393,62304,56453.9,62398.23,-60.9,-94.23,-0.007155,-0.009351,0.687986,92.8,1
13625,0,56396,62301,56452.74,62396.28,-56.74,-95.28,-0.007135,-0.00932,0.687967,92.8,1
13634,0,56399,62308,56451.67,62394.51,-52.67,-86.52,-0.007116,-0.009292,0.687955,92.8,1
13644,0,56396,62306,56450.55,62392.75,-54.55,-86.75,-0.007096,-0.009264,0.687951,92.8,1
13654,0,56394,62296,56449.42,62390.81,-55.42,-94.81,-0.007076,-0.009233,0.687926,92.8,1
13665,0,56398,62296,56448.39,62388.91,-50.39,-92.91,-0.007058,-0.009202,0.687883,92.8,1
13674,0,56396,62295,56447.34,62387.03,-51.34,-92.04,-0.007039,-0.009172,0.687846,92.8,1
13684,0,56394,62298,56446.28,62385.26,-52.28,-87.26,-0.00702,-0.009144,0.68783,92.8,1
13694,0,56402,62294,56445.39,62383.43,-43.39,-89.43,-0.007004,-0.009114,0.687766,92.81,1
13705,0,56399,62308,56444.46,62381.92,-45.46,-73.93,-0.006988,-0.00909,0.687759,92.81,1
13714,0,56406,62314,56443.7,62380.57,-37.7,-66.57,-0.006975,-0.009068,0.68774,92.81,1
13725,0,56412,62309,56443.07,62379.14,-31.07,-70.14,-0.006963,-0.009046,0.687688,92.81,1
13734,0,56418,62319,56442.57,62377.94,-24.57,-58.94,-0.006954,-0.009026,0.687646,92.81,1
13745,0,56418,62318,56442.07,62376.74,-24.07,-58.74,-0.006946,-0.009007,0.687603,92.81,1
13754,0,56423,62310,56441.69,62375.4,-18.7,-65.4,-0.006939,-0.008986,0.687531,92.81,1
13763,0,56422,62327,56441.3,62374.43,-19.3,-47.43,-0.006932,-0.00897,0.687501,92.81,1
13774,0,56422,62324,56440.92,62373.42,-18.92,-49.43,-0.006925,-0.008954,0.687466,92.81,1
13784,0,56420,62334,56440.5,62372.64,-20.5,-38.64,-0.006918,-0.008941,0.687455,92.81,1
13794,0,56428,62329,56440.25,62371.76,-12.25,-42.76,-0.006913,-0.008927,0.687421,92.81,1
13804,0,56431,62329,56440.07,62370.91,-9.07,-41.91,-0.00691,-0.008914,0.687384,92.82,1
13814,0,56429,62322,56439.85,62369.93,-10.85,-47.93,-0.006906,-0.008898,0.687337,92.82,1
13824,0,56435,62325,56439.75,62369.03,-4.75,-44.03,-0.006905,-0.008883,0.687291,92.82,1
13835,0,56433,62318,56439.62,62368.01,-6.62,-50.01,-0.006902,-0.008867,0.687233,92.82,1
13844,0,56434,62325,56439.5,62367.15,-5.5,-42.15,-0.0069,-0.008853,0.687191,92.82,1
13854,0,56431,62327,56439.33,62366.35,-8.34,-39.35,-0.006897,-0.00884,0.687156,92.82,1
13863,0,56437,62327,56439.29,62365.56,-2.29,-38.56,-0.006896,-0.008828,0.687118,92.82,1
13875,0,56434,62331,56439.18,62364.87,-5.18,-33.88,-0.006894,-0.008817,0.687089,92.82,1
13884,0,56442,62332,56439.24,62364.22,2.76,-32.22,-0.006896,-0.008806,0.68706,92.82,1
13894,0,56441,62336,56439.28,62363.66,1.72,-27.66,-0.006896,-0.008797,0.687037,92.82,1
13903,0,56447,62335,56439.43,62363.08,7.57,-28.08,-0.006899,-0.008788,0.687015,92.82,1
13915,0,56441,62330,56439.46,62362.42,1.54,-32.42,-0.006899,-0.008777,0.686985,92.83,1
13924,0,56449,62326,56439.66,62361.69,9.34,-35.7,-0.006903,-0.008766,0.686952,92.83,1
13934,0,56457,62318,56440,62360.82,17,-42.82,-0.006909,-0.008752,0.686914,92.83,1
13943,0,56446,62322,56440.12,62360.05,5.88,-38.05,-0.006911,-0.008739,0.686874,92.83,1
13955,0,56455,62313,56440.42,62359.11,14.57,-46.11,-0.006917,-0.008724,0.686825,92.83,1
13964,0,56455,62301,56440.72,62357.95,14.28,-56.95,-0.006922,-0.008706,0.686747,92.83,1
13974,0,56460,62304,56441.1,62356.87,18.89,-52.87,-0.006929,-0.008689,0.686687,92.83,1
13983,0,56464,62295,56441.57,62355.63,22.43,-60.63,-0.006937,-0.008669,0.686613,92.83,1
13995,0,56467,62289,56442.07,62354.3,24.93,-65.3,-0.006946,-0.008647,0.68653,92.84,1
14004,0,56460,62285,56442.43,62352.91,17.57,-67.91,-0.006952,-0.008625,0.68642,92.84,1
14014,0,56461,62283,56442.8,62351.51,18.2,-68.52,-0.006959,-0.008603,0.686309,92.84,1
14024,0,56462,62282,56443.19,62350.13,18.81,-68.13,-0.006965,-0.00858,0.6862,92.85,1
14034,0,56459,62284,56443.5,62348.81,15.5,-64.81,-0.006971,-0.008559,0.686094,92.85,1
14044,0,56457,62282,56443.78,62347.47,13.22,-65.47,-0.006976,-0.008538,0.685982,92.85,1
14055,0,56460,62281,56444.1,62346.14,15.9,-65.14,-0.006982,-0.008516,0.685875,92.85,1
14064,0,56460,62283,56444.42,62344.88,15.58,-61.88,-0.006987,-0.008496,0.685777,92.86,1
14074,0,56463,62285,56444.79,62343.69,18.21,-58.69,-0.006994,-0.008477,0.685695,92.86,1
14084,0,56462,62299,56445.14,62342.8,16.86,-43.8,-0.007,-0.008463,0.68565,92.86,1
14093,0,56461,62297,56445.45,62341.88,15.55,-44.88,-0.007006,-0.008448,0.685601,92.86,1
14104,0,56458,62301,56445.71,62341.07,12.29,-40.07,-0.00701,-0.008435,0.685557,92.86,1
14113,0,56464,62306,56446.07,62340.37,17.93,-34.37,-0.007017,-0.008424,0.685536,92.86,1
14124,0,56457,62319,56446.29,62339.94,10.71,-20.94,-0.00702,-0.008417,0.685525,92.86,1
14133,0,56463,62316,56446.63,62339.46,16.37,-23.46,-0.007026,-0.008409,0.68552,92.86,1
14144,0,56464,62329,56446.98,62339.25,17.02,-10.25,-0.007033,-0.008406,0.68553,92.86,1
14153,0,56466,62332,56447.36,62339.11,18.64,-7.11,-0.007039,-0.008404,0.685547,92.86,1
14163,0,56465,62331,56447.72,62338.95,17.28,-7.95,-0.007046,-0.008401,0.685561,92.86,1
14174,0,56467,62335,56448.1,62338.87,18.89,-3.87,-0.007053,-0.0084,0.685581,92.86,1
14184,0,56462,62333,56448.38,62338.75,13.62,-5.75,-0.007058,-0.008398,0.685589,92.86,1
14193,0,56465,62347,56448.72,62338.92,16.28,8.08,-0.007063,-0.008401,0.685604,92.86,1
14203,0,56462,62340,56448.98,62338.94,13.02,1.05,-0.007068,-0.008401,0.685614,92.86,1
14213,0,56462,62354,56449.24,62339.25,12.76,14.75,-0.007073,-0.008406,0.68562,92.86,1
14224,0,56470,62352,56449.66,62339.5,20.34,12.5,-0.00708,-0.00841,0.685645,92.86,1
14233,0,56463,62350,56449.92,62339.71,13.07,10.29,-0.007085,-0.008413,0.685654,92.86,1
14243,0,56463,62339,56450.19,62339.7,12.81,-0.7,-0.007089,-0.008413,0.685663,92.86,1
14253,0,56448,62337,56450.15,62339.64,-2.15,-2.64,-0.007089,-0.008412,0.685663,92.86,1
14264,0,56449,62330,56450.13,62339.45,-1.13,-9.45,-0.007088,-0.008409,0.685659,92.86,1
14274,0,56444,62332,56450.01,62339.3,-6.01,-7.3,-0.007086,-0.008407,0.68566,92.86,1
14283,0,56433,62318,56449.67,62338.88,-16.67,-20.88,-0.00708,-0.0084,0.685668,92.86,1
14295,0,56429,62326,56449.25,62338.62,-20.25,-12.62,-0.007073,-0.008396,0.685699,92.86,1
14304,0,56433,62316,56448.93,62338.17,-15.93,-22.17,-0.007067,-0.008389,0.685703,92.86,1
14314,0,56427,62326,56448.49,62337.93,-21.49,-11.93,-0.007059,-0.008385,0.68574,92.86,1
14323,0,56428,62323,56448.08,62337.63,-20.08,-14.63,-0.007052,-0.00838,0.685768,92.86,1
14334,0,56430,62325,56447.72,62337.38,-17.72,-12.38,-0.007046,-0.008376,0.685792,92.86,1
14344,0,56432,62327,56447.41,62337.17,-15.41,-10.18,-0.00704,-0.008373,0.68581,92.85,1
14354,0,56430,62329,56447.07,62337.01,-17.07,-8.01,-0.007034,-0.00837,0.685836,92.85,1
14363,0,56426,62317,56446.64,62336.61,-20.64,-19.61,-0.007027,-0.008364,0.685861,92.85,1
14374,0,56429,62319,56446.29,62336.26,-17.29,-17.26,-0.00702,-0.008358,0.685877,92.85,1
14384,0,56413,62314,56445.62,62335.82,-32.63,-21.82,-0.007009,-0.008351,0.685959,92.85,1
14393,0,56403,62310,56444.77,62335.3,-41.77,-25.3,-0.006994,-0.008343,0.686099,92.85,1
14403,0,56394,62308,56443.76,62334.76,-49.76,-26.76,-0.006976,-0.008334,0.686305,92.84,1
14413,0,56382,62302,56442.52,62334.1,-60.52,-32.11,-0.006954,-0.008323,0.686613,92.83,1
14424,0,56380,62275,56441.28,62332.92,-61.28,-57.93,-0.006932,-0.008304,0.686843,92.83,1
14433,0,56350,62249,56439.45,62331.25,-89.45,-82.25,-0.006899,-0.008278,0.687351,92.82,1
14444,0,56329,62214,56437.24,62328.91,-108.24,-114.91,-0.00686,-0.00824,0.687975,92.8,1
14453,0,56305,62176,56434.6,62325.85,-129.6,-149.85,-0.006813,-0.008191,0.68874,92.78,1
14464,0,56287,62150,56431.65,62322.33,-144.65,-172.33,-0.006761,-0.008134,0.689632,92.76,1
14474,0,56272,62127,56428.46,62318.42,-156.46,-191.43,-0.006704,-0.008072,0.690606,92.73,1
14483,0,56255,62105,56424.99,62314.16,-169.99,-209.16,-0.006643,-0.008003,0.691736,92.71,1
14493,0,56229,62066,56421.07,62309.2,-192.07,-243.2,-0.006573,-0.007924,0.693049,92.67,1
14503,0,56211,62038,56416.87,62303.78,-205.87,-265.78,-0.006499,-0.007837,0.694445,92.64,1
14514,0,56198,62021,56412.49,62298.12,-214.49,-277.13,-0.006421,-0.007746,0.695944,92.6,1
14523,0,56187,61997,56407.98,62292.1,-220.98,-295.11,-0.006341,-0.007649,0.697304,92.57,1
14533,0,56171,61973,56403.24,62285.73,-232.24,-312.73,-0.006257,-0.007547,0.698726,92.53,1
14543,0,56156,61951,56398.3,62279.03,-242.3,-328.03,-0.00617,-0.007439,0.700206,92.49,1
14554,0,56149,61931,56393.32,62272.07,-244.32,-341.07,-0.006082,-0.007328,0.701419,92.46,1
14564,0,56132,61911,56388.09,62264.85,-256.09,-353.85,-0.005989,-0.007212,0.702828,92.43,1
14573,0,56124,61905,56382.81,62257.66,-258.81,-352.66,-0.005895,-0.007096,0.704375,92.39,1
14583,0,56116,61876,56377.47,62250.02,-261.47,-374.02,-0.0058,-0.006974,0.705424,92.36,1
14594,0,56098,61869,56371.89,62242.4,-273.89,-373.4,-0.005701,-0.006851,0.707088,92.32,1
14603,0,56109,61850,56366.63,62234.55,-257.63,-384.55,-0.005608,-0.006725,0.707592,92.31,1
14614,0,56091,61855,56361.12,62226.96,-270.12,-371.96,-0.00551,-0.006603,0.709052,92.27,1
14623,0,56097,61846,56355.83,62219.34,-258.84,-373.34,-0.005417,-0.006481,0.709896,92.25,1
14632,0,56097,61853,56350.66,62212.01,-253.66,-359.02,-0.005325,-0.006363,0.710877,92.23,1
14644,0,56095,61843,56345.55,62204.64,-250.55,-361.64,-0.005234,-0.006244,0.711627,92.21,1
14653,0,56087,61846,56340.37,62197.47,-253.38,-351.47,-0.005142,-0.006129,0.712764,92.18,1
14664,0,56092,61854,56335.41,62190.6,-243.41,-336.6,-0.005054,-0.006018,0.713822,92.15,1
14673,0,56086,61841,56330.42,62183.6,-244.42,-342.61,-0.004966,-0.005906,0.714754,92.13,1
14683,0,56082,61839,56325.46,62176.71,-243.46,-337.71,-0.004877,-0.005795,0.715754,92.11,1
14694,0,56079,61838,56320.53,62169.94,-241.53,-331.95,-0.00479,-0.005686,0.716801,92.08,1
14703,0,56070,61835,56315.51,62163.25,-245.52,-328.25,-0.004701,-0.005579,0.718097,92.05,1
14714,0,56073,61835,56310.67,62156.68,-237.67,-321.68,-0.004615,-0.005473,0.719199,92.02,1
14724,0,56070,61826,56305.85,62150.07,-235.86,-324.07,-0.004529,-0.005367,0.720154,92,1
14733,0,56064,61820,56301.02,62143.46,-237.02,-323.46,-0.004444,-0.00526,0.721158,91.97,1
14744,0,56061,61817,56296.22,62136.94,-235.22,-319.94,-0.004358,-0.005155,0.72216,91.95,1
14753,0,56065,61808,56291.6,62130.36,-226.6,-322.36,-0.004276,-0.005049,0.722742,91.93,1
14763,0,56057,61812,56286.91,62123.99,-229.91,-311.99,-0.004193,-0.004947,0.723697,91.91,1
14774,0,56051,61817,56282.19,62117.85,-231.19,-300.85,-0.004109,-0.004848,0.724951,91.88,1
14783,0,56054,61802,56277.62,62111.53,-223.62,-309.54,-0.004028,-0.004746,0.725689,91.86,1
14793,0,56049,61816,56273.05,62105.62,-224.05,-289.63,-0.003947,-0.004651,0.72689,91.83,1
14803,0,56050,61811,56268.59,62099.73,-218.59,-288.73,-0.003867,-0.004556,0.727888,91.8,1
14813,0,56063,61816,56264.48,62094.06,-201.48,-278.06,-0.003794,-0.004465,0.72848,91.79,1
14824,0,56052,61812,56260.23,62088.42,-208.23,-276.42,-0.003719,-0.004374,0.729346,91.77,1
14833,0,56055,61818,56256.13,62083.01,-201.13,-265.02,-0.003646,-0.004287,0.730188,91.75,1
14843,0,56057,61826,56252.15,62077.87,-195.15,-251.88,-0.003575,-0.004204,0.73108,91.72,1
14854,0,56060,61830,56248.3,62072.92,-188.3,-242.92,-0.003507,-0.004124,0.731909,91.7,1
14863,0,56062,61823,56244.58,62067.92,-182.58,-244.93,-0.003441,-0.004044,0.732509,91.69,1
14873,0,56060,61825,56240.89,62063.07,-180.89,-238.07,-0.003375,-0.003966,0.733182,91.67,1
14883,0,56061,61829,56237.29,62058.39,-176.29,-229.39,-0.003311,-0.00389,0.733868,91.65,1
14893,0,56061,61833,56233.76,62053.88,-172.76,-220.88,-0.003248,-0.003818,0.734595,91.64,1
14903,0,56067,61831,56230.42,62049.42,-163.43,-218.42,-0.003189,-0.003746,0.735082,91.62,1
14913,0,56069,61838,56227.19,62045.19,-158.2,-207.2,-0.003131,-0.003678,0.735609,91.61,1
14923,0,56067,61838,56223.99,62041.05,-156.99,-203.05,-0.003074,-0.003611,0.736171,91.6,1
14932,0,56068,61845,56220.87,62037.13,-152.87,-192.13,-0.003019,-0.003548,0.736793,91.58,1
14943,0,56070,61845,56217.85,62033.29,-147.85,-188.29,-0.002965,-0.003486,0.737337,91.57,1
14953,0,56076,61850,56215.01,62029.62,-139.02,-179.63,-0.002915,-0.003427,0.737781,91.56,1
14962,0,56071,61844,56212.13,62025.91,-141.13,-181.91,-0.002863,-0.003367,0.738246,91.54,1
14973,0,56080,61856,56209.49,62022.52,-129.49,-166.52,-0.002817,-0.003312,0.738643,91.53,1
