t_ms,phase,red_raw,ir_raw,red_dc,ir_dc,red_ac,ir_ac,OD_red,OD_ir,R,spo2,spo2_valid
466,0,53632,59132,33055.04,36494.73,20576.96,22637.27,0,0,0.999876,85,1
477,0,53602,59093,33465.98,36946.69,20136.02,22146.31,0,0,0.999865,85,1
487,0,53577,59047,33868.2,37388.7,19708.8,21658.3,0,0,0.999852,85,1
496,0,53543,59014,34261.69,37821.21,19281.31,21192.79,0,0,0.999839,85,1
506,0,53522,58965,34646.9,38244.08,18875.1,20720.91,0,0,0.999823,85,1
517,0,53485,58914,35023.66,38657.48,18461.34,20256.52,0,0,0.999806,85,1
526,0,53460,58866,35392.39,39061.66,18067.61,19804.34,0,0,0.999786,85.01,1
537,0,53437,58815,35753.28,39456.73,17683.72,19358.27,0,0,0.999763,85.01,1
547,0,53417,58765,36106.55,39842.89,17310.45,18922.11,0,0,0.999736,85.01,1
557,0,53383,58710,36452.08,40220.24,16930.91,18489.76,0,0,0.999707,85.01,1
567,0,53352,58625,36790.08,40588.33,16561.92,18036.66,0,0,0.999671,85.01,1
577,0,53316,58531,37120.6,40947.19,16195.4,17583.81,0,0,0.999626,85.01,1
586,0,53286,58485,37443.91,41297.95,15842.09,17187.05,0,0,0.999581,85.01,1
596,0,53289,58456,37760.81,41641.11,15528.19,16814.89,0,0,0.999531,85.01,1
606,0,53293,58425,38071.46,41976.79,15221.54,16448.21,0,0,0.999477,85.01,1
616,0,53286,58415,38375.75,42305.56,14910.25,16109.44,0,0,0.999424,85.01,1
627,0,53286,58416,38673.95,42627.77,14612.05,15788.23,0,0,0.999372,85.02,1
636,0,53291,58428,38966.29,42943.77,14324.71,15484.23,0,0,0.999323,85.02,1
647,0,53300,58437,39252.97,43253.64,14047.03,15183.36,0,0,0.999275,85.02,1
657,0,53298,58463,39533.87,43557.83,13764.13,14905.17,0,0,0.999233,85.02,1
666,0,53309,58485,39809.37,43856.37,13499.62,14628.63,0,0,0.999194,85.02,1
676,0,53307,58493,40079.33,44149.1,13227.67,14343.89,0,0,0.999157,85.02,1
687,0,53312,58519,40343.98,44436.5,12968.02,14082.5,0,0,0.999125,85.02,1
696,0,53319,58534,40603.48,44718.45,12715.52,13815.55,0,0,0.999095,85.02,1
706,0,53320,58547,40857.81,44995.03,12462.19,13551.97,0,0,0.999068,85.02,1
717,0,53315,58570,41106.95,45266.53,12208.05,13303.47,0,0,0.999047,85.02,1
727,0,53324,58588,41351.3,45532.96,11972.7,13055.04,0,0,0.999027,85.02,1
737,0,53332,58595,41590.91,45794.2,11741.09,12800.8,0,0,0.999007,85.02,1
747,0,53336,58616,41825.82,46050.64,11510.18,12565.36,0,0,0.998991,85.03,1
756,0,53344,58638,42056.18,46302.39,11287.82,12335.61,0,0,0.998978,85.03,1
766,0,53356,58652,42282.18,46549.38,11073.82,12102.62,0,0,0.998965,85.03,1
777,0,53354,58671,42503.61,46791.81,10850.39,11879.19,0,0,0.998956,85.03,1
786,0,53369,58687,42720.92,47029.71,10648.08,11657.29,0,0,0.998947,85.03,1
796,0,53373,58700,42933.96,47263.12,10439.04,11436.88,0,0,0.99894,85.03,1
805,0,53380,58707,43142.89,47492,10237.11,11215,0,0,0.998933,85.03,1
816,0,53381,58700,43347.65,47716.16,10033.35,10983.84,0,0,0.998924,85.03,1
827,0,53373,58690,43548.16,47935.64,9824.84,10754.36,0,0,0.998915,85.03,1
835,0,53373,58686,43744.66,48150.64,9628.34,10535.36,0,0,0.998906,85.03,1
846,0,53375,58685,43937.27,48361.33,9437.73,10323.67,0,0,0.998896,85.03,1
857,0,53364,58678,44125.8,48567.66,9238.2,10110.34,0,0,0.998888,85.03,1
867,0,53361,58679,44310.51,48769.89,9050.49,9909.11,0,0,0.99888,85.03,1
876,0,53361,58688,44491.51,48968.25,8869.48,9719.75,0,0,0.998875,85.03,1
886,0,53371,58684,44669.11,49162.57,8701.89,9521.43,0,0,0.998866,85.03,1
897,0,53374,58694,44843.21,49353.2,8530.79,9340.8,0,0,0.998859,85.03,1
906,0,53380,58697,45013.94,49540.08,8366.05,9156.92,0,0,0.998851,85.03,1
916,0,53375,58702,45181.17,49723.32,8193.83,8978.68,0,0,0.998846,85.03,1
926,0,53364,58686,45344.83,49902.57,8019.17,8783.43,0,0,0.998839,85.03,1
936,0,53362,58677,45505.17,50078.06,7856.83,8598.94,0,0,0.998832,85.03,1
946,0,53354,58669,45662.15,50249.88,7691.85,8419.12,0,0,0.998825,85.03,1
956,0,53356,58676,45816.03,50418.4,7539.97,8257.6,0,0,0.998819,85.03,1
966,0,53351,58673,45966.73,50583.5,7384.27,8089.5,0,0,0.998813,85.03,1
976,0,53350,58662,46114.39,50745.07,7235.61,7916.93,0,0,0.998806,85.03,1
986,0,53342,58663,46258.95,50903.43,7083.05,7759.57,0,0,0.9988,85.03,1
996,0,53336,58658,46400.49,51058.52,6935.51,7599.48,0,0,0.998796,85.03,1
1006,0,53333,58665,46539.14,51210.66,6793.86,7454.34,0,0,0.998793,85.03,1
1016,0,53338,58684,46675.12,51360.12,6662.88,7323.87,0,0,0.998793,85.03,1
1026,0,53348,58703,46808.58,51506.98,6539.42,7196.02,0,0,0.998795,85.03,1
1036,0,53356,58712,46939.53,51651.08,6416.47,7060.92,0,0,0.998796,85.03,1
1046,0,53371,58726,47068.16,51792.58,6302.84,6933.42,0,0,0.998797,85.03,1
1055,0,53375,58742,47194.3,51931.57,6180.7,6810.43,0,0,0.998801,85.03,1
1065,0,53387,58741,47318.15,52067.76,6068.85,6673.24,0,0,0.998801,85.03,1
1076,0,53384,58743,47439.47,52201.26,5944.53,6541.73,0,0,0.998803,85.03,1
1085,0,53392,58751,47558.52,52332.26,5833.48,6418.74,0,0,0.998804,85.03,1
1095,0,53384,58756,47675.03,52460.74,5708.97,6295.26,0,0,0.998808,85.03,1
1105,0,53389,58756,47789.31,52586.64,5599.69,6169.36,0,0,0.998811,85.03,1
1117,0,53398,58774,47901.49,52710.39,5496.51,6063.61,0,0,0.998816,85.03,1
1125,0,53402,58786,48011.5,52831.91,5390.5,5954.09,0,0,0.998822,85.03,1
1136,0,53402,58784,48119.31,52950.95,5282.69,5833.05,0,0,0.998827,85.03,1
1146,0,53413,58796,48225.18,53067.85,5187.82,5728.15,0,0,0.998832,85.03,1
1156,0,53416,58810,48329,53182.69,5087,5627.3,0,0,0.99884,85.03,1
1166,0,53426,58825,48430.94,53295.54,4995.06,5529.46,0,0,0.998848,85.03,1
1176,0,53442,58862,48531.16,53406.87,4910.84,5455.13,0,0,0.99886,85.03,1
1186,0,53459,58899,48629.72,53516.71,4829.28,5382.29,0,0,0.998876,85.03,1
1196,0,53476,58948,48726.65,53625.34,4749.35,5322.66,0,0,0.998898,85.03,1
1206,0,53494,58974,48822,53732.32,4672,5241.68,0,0,0.998921,85.03,1
1216,0,53515,59027,48915.86,53838.21,4599.14,5188.79,0,0,0.99895,85.03,1
1225,0,53538,59076,49008.3,53942.97,4529.7,5133.03,0,0,0.998984,85.03,1
1235,0,53561,59129,49099.36,54046.69,4461.64,5082.31,0,0,0.999022,85.02,1
1246,0,53594,59205,49189.25,54149.86,4404.75,5055.14,0,0,0.999069,85.02,1
1255,0,53634,59261,49278.15,54252.08,4355.85,5008.92,0,0,0.999116,85.02,1
1265,0,53666,59306,49365.91,54353.16,4300.09,4952.84,0,0,0.999165,85.02,1
1275,0,53697,59350,49452.53,54453.1,4244.47,4896.9,0,0,0.999214,85.02,1
1285,0,53722,59380,49537.92,54551.64,4184.08,4828.36,0,0,0.999263,85.02,1
1295,0,53741,59391,49621.98,54648.43,4119.02,4742.57,0,0,0.999309,85.02,1
1306,0,53750,59399,49704.55,54743.44,4045.45,4655.56,0,0,0.999353,85.02,1
1316,0,53750,59403,49785.46,54836.63,3964.54,4566.37,0,0,0.999398,85.02,1
1326,0,53745,59381,49864.65,54927.52,3880.35,4453.48,0,0,0.999438,85.01,1
1336,0,53726,59335,49941.87,55015.67,3784.12,4319.33,0,0,0.999472,85.01,1
1346,0,53705,59292,50017.14,55101.2,3687.86,4190.8,0,0,0.999502,85.01,1
1355,0,53663,59241,50090.06,55184,3572.94,4057,0,0,0.99953,85.01,1
1366,0,53632,59183,50160.9,55263.98,3471.1,3919.02,0,0,0.999552,85.01,1
1376,0,53596,59132,50229.6,55341.34,3366.4,3790.66,0,0,0.999571,85.01,1
1386,0,53562,59089,50296.25,55416.3,3265.75,3672.7,0,0,0.99959,85.01,1
1395,0,53540,59058,50361.12,55489.13,3178.87,3568.87,0,0,0.999606,85.01,1
1405,0,53515,59028,50424.2,55559.91,3090.8,3468.09,0,0,0.999621,85.01,1
1416,0,53501,59014,50485.74,55629,3015.26,3385,0,0,0.999636,85.01,1
1425,0,53492,59013,50545.86,55696.68,2946.14,3316.32,0,0,0.999654,85.01,1
1435,0,53484,58984,50604.62,55762.42,2879.37,3221.57,0,0,0.999666,85.01,1
1445,0,53465,58977,50661.83,55826.72,2803.16,3150.28,0,0,0.999681,85.01,1
1455,0,53460,58964,50717.8,55889.46,2742.2,3074.54,0,0,0.999694,85.01,1
1465,0,53453,58945,50772.5,55950.57,2680.5,2994.43,0,0,0.999704,85.01,1
1475,0,53431,58920,50825.67,56009.96,2605.32,2910.04,0,0,0.999714,85.01,1
1486,0,53420,58897,50877.56,56067.7,2542.44,2829.3,0,0,0.999721,85.01,1
1495,0,53404,58885,50928.09,56124.05,2475.91,2760.95,0,0,0.999729,85.01,1
1506,0,53380,58854,50977.13,56178.65,2402.87,2675.35,0,0,0.999736,85.01,1
1516,0,53372,58823,51025.03,56231.54,2346.97,2591.46,0,0,0.999738,85.01,1
1525,0,53346,58785,51071.44,56282.61,2274.55,2502.39,0,0,0.999737,85.01,1
1536,0,53319,58752,51116.39,56332,2202.61,2420,0,0,0.999735,85.01,1
1546,0,53286,58725,51159.78,56379.85,2126.21,2345.14,0,0,0.999736,85.01,1
1555,0,53253,58697,51201.65,56426.2,2051.35,2270.8,0,0,0.999738,85.01,1
1565,0,53219,58696,51242,56471.59,1977,2224.41,0,0,0.99975,85.01,1
1575,0,53186,58681,51280.87,56515.78,1905.13,2165.21,0,0,0.999768,85.01,1
1585,0,53159,58675,51318.44,56558.97,1840.56,2116.03,0,0,0.999792,85.01,1
1595,0,53126,58680,51354.59,56601.39,1771.41,2078.61,0,0,0.999826,85,1
1605,0,53102,58680,51389.54,56642.96,1712.46,2037.04,0,0,0.999867,85,1
1615,0,53080,58708,51423.35,56684.26,1656.65,2023.73,0,0,0.999921,85,1
1625,0,53071,58745,51456.3,56725.48,1614.7,2019.52,0,0,0.999986,85,1
1635,0,53092,58791,51489.02,56766.79,1602.98,2024.21,0,0,1.000056,85,1
1645,0,53135,58855,51521.94,56808.56,1613.06,2046.44,0,0,1.000129,85,1
1654,0,53173,58902,51554.96,56850.42,1618.04,2051.57,0,0,1.0002,84.99,1
1665,0,53206,58953,51587.98,56892.48,1618.02,2060.52,0,0,1.000274,84.99,1
1676,0,53226,58974,51620.75,56934.11,1605.25,2039.89,0,0,1.000346,84.99,1
1686,0,53253,59005,51653.39,56975.53,1599.61,2029.47,0,0,1.000417,84.99,1
1695,0,53273,59029,51685.78,57016.6,1587.21,2012.4,0,0,1.000487,84.99,1
1705,0,53297,59040,51718.01,57057.07,1578.99,1982.93,0,0,1.000551,84.99,1
1716,0,53298,59062,51749.61,57097.17,1548.39,1964.83,0,0,1.000619,84.98,1
1725,0,53312,59072,51780.86,57136.67,1531.14,1935.33,0,0,1.000684,84.98,1
1735,0,53312,59070,51811.48,57175.33,1500.52,1894.66,0,0,1.000748,84.98,1
1745,0,53317,59075,51841.59,57213.33,1475.41,1861.67,0,0,1.00081,84.98,1
1755,0,53328,59083,51871.32,57250.73,1456.68,1832.27,0,0,1.00087,84.98,1
1765,0,53328,59094,51900.45,57287.59,1427.55,1806.41,0,0,1.000932,84.98,1
1775,0,53335,59126,51929.14,57324.36,1405.86,1801.64,0,0,1.000999,84.98,1
1784,0,53358,59137,51957.72,57360.62,1400.28,1776.38,0,0,1.00106,84.97,1
1795,0,53372,59163,51986.01,57396.67,1385.99,1766.33,0,0,1.001123,84.97,1
1805,0,53390,59195,52014.09,57432.63,1375.91,1762.37,0,0,1.001188,84.97,1
1814,0,53412,59239,52042.05,57468.76,1369.95,1770.24,0,0,1.001256,84.97,1
1824,0,53443,59290,52070.07,57505.19,1372.93,1784.81,0,0,1.001326,84.97,1
1836,0,53479,59321,52098.25,57541.51,1380.75,1779.49,0,0,1.001393,84.97,1
1846,0,53497,59350,52126.22,57577.68,1370.78,1772.32,0,0,1.00146,84.96,1
1855,0,53519,59377,52154.08,57613.67,1364.92,1763.33,0,0,1.001527,84.96,1
1865,0,53526,59381,52181.51,57649.01,1344.48,1731.98,0,0,1.001591,84.96,1
1875,0,53536,59392,52208.6,57683.87,1327.39,1708.13,0,0,1.001654,84.96,1
1885,0,53539,59384,52235.21,57717.88,1303.79,1666.12,0,0,1.001713,84.96,1
1895,0,53530,59356,52261.11,57750.64,1268.89,1605.36,0,0,1.001767,84.96,1
1905,0,53521,59335,52286.31,57782.33,1234.69,1552.67,0,0,1.001816,84.95,1
1914,0,53500,59299,52310.58,57812.67,1189.41,1486.33,0,0,1.001863,84.95,1
1925,0,53468,59248,52333.73,57841.37,1134.27,1406.63,0,0,1.001904,84.95,1
1935,0,53447,59201,52356,57868.57,1091,1332.43,0,0,1.001938,84.95,1
1944,0,53419,59155,52377.26,57894.3,1041.73,1260.7,0,0,1.001969,84.95,1
1954,0,53392,59095,52397.56,57918.31,994.44,1176.69,0,0,1.00199,84.95,1
1965,0,53371,59055,52417.03,57941.05,953.97,1113.95,0,0,1.002007,84.95,1
1974,0,53350,59019,52435.69,57962.6,914.31,1056.39,0,0,1.00202,84.95,1
1984,0,53333,58985,52453.64,57983.05,879.36,1001.95,0,0,1.002028,84.95,1
1994,0,53317,58952,52470.91,58002.43,846.09,949.57,0,0,1.002032,84.95,1
2004,0,53300,58916,52487.49,58020.71,812.51,895.29,0,0,1.002032,84.95,1
2014,0,53283,58887,52503.4,58038.03,779.6,848.97,0,0,1.002027,84.95,1
2024,0,53279,58868,52518.91,58054.63,760.09,813.37,0,0,1.00202,84.95,1
2034,0,53269,58837,52533.91,58070.28,735.09,766.72,0,0,1.002006,84.95,1
2044,0,53255,58806,52548.34,58085,706.66,721,0,0,1.001988,84.95,1
2055,0,53242,58787,52562.21,58099.03,679.79,687.96,0,0,1.001968,84.95,1
2064,0,53236,58760,52575.69,58112.25,660.31,647.75,0,0,1.001943,84.95,1
2074,0,53228,58749,52588.74,58124.99,639.26,624.01,0,0,1.001918,84.95,1
2084,0,53218,58731,52601.32,58137.11,616.68,593.89,0,0,1.001891,84.95,1
2095,0,53216,58724,52613.62,58148.85,602.38,575.15,0,0,1.001864,84.95,1
2105,0,53214,58709,52625.63,58160.05,588.37,548.95,0,0,1.001832,84.95,1
2114,0,53201,58696,52637.14,58170.77,563.86,525.23,0,0,1.001802,84.95,1
2124,0,53197,58689,52648.33,58181.14,548.66,507.86,0,0,1.001771,84.96,1
2135,0,53190,58681,52659.17,58191.14,530.83,489.86,0,0,1.001741,84.96,1
2145,0,53195,58690,52669.89,58201.12,525.11,488.88,0,0,1.001713,84.96,1
2154,0,53200,58722,52680.49,58211.54,519.51,510.46,0,0,1.001693,84.96,1
2164,0,53208,58741,52691.04,58222.13,516.96,518.87,0,0,1.001677,84.96,1
2174,0,53223,58757,52701.68,58232.83,521.32,524.17,0,0,1.001661,84.96,1
2185,0,53231,58776,52712.27,58243.69,518.73,532.3,0,0,1.001649,84.96,1
2194,0,53245,58786,52722.92,58254.54,522.08,531.46,0,0,1.001635,84.96,1
2204,0,53245,58804,52733.36,58265.53,511.64,538.47,0,0,1.001626,84.96,1
2214,0,53250,58800,52743.69,58276.22,506.3,523.78,0,0,1.001616,84.96,1
2225,0,53246,58802,52753.74,58286.74,492.26,515.26,0,0,1.001607,84.96,1
2235,0,53254,58812,52763.75,58297.24,490.25,514.76,0,0,1.001598,84.96,1
2244,0,53247,58815,52773.41,58307.6,473.59,507.4,0,0,1.001593,84.96,1
2254,0,53260,58839,52783.14,58318.23,476.86,520.77,0,0,1.001592,84.96,1
2265,0,53266,58841,52792.8,58328.68,473.2,512.32,0,0,1.001588,84.96,1
2275,0,53289,58859,52802.73,58339.29,486.27,519.71,0,0,1.001583,84.96,1
2284,0,53302,58870,52812.71,58349.9,489.29,520.1,0,0,1.001577,84.96,1
2294,0,53323,58887,52822.92,58360.64,500.08,526.36,0,0,1.001569,84.96,1
2305,0,53327,58899,52833,58371.41,494,527.59,0,0,1.001563,84.96,1
2315,0,53353,58915,52843.4,58382.29,509.6,532.71,0,0,1.001554,84.96,1
2325,0,53373,58946,52854,58393.56,519,552.44,0,0,1.001548,84.96,1
2333,0,53386,58965,52864.64,58404.99,521.36,560.01,0,0,1.001543,84.96,1
2344,0,53414,58987,52875.62,58416.63,538.38,570.37,0,0,1.001536,84.96,1
2355,0,53422,58998,52886.55,58428.26,535.45,569.74,0,0,1.001529,84.96,1
2365,0,53429,59008,52897.4,58439.86,531.6,568.14,0,0,1.001524,84.96,1
2373,0,53422,58985,52907.9,58450.76,514.1,534.24,0,0,1.001513,84.96,1
2383,0,53401,58957,52917.76,58460.89,483.24,496.11,0,0,1.001502,84.96,1
2395,0,53372,58899,52926.85,58469.65,445.15,429.35,0,0,1.001483,84.96,1
2405,0,53331,58837,52934.93,58477,396.07,360,0,0,1.001459,84.96,1
2415,0,53281,58778,52941.85,58483.02,339.14,294.98,0,0,1.001434,84.96,1
2423,0,53243,58727,52947.88,58487.9,295.12,239.1,0,0,1.001406,84.96,1
2434,0,53215,58691,52953.22,58491.96,261.78,199.04,0,0,1.001377,84.97,1
2444,0,53198,58630,52958.12,58494.72,239.88,135.28,0,0,1.001334,84.97,1
2454,0,53169,58599,52962.34,58496.81,206.66,102.19,0,0,1.001292,84.97,1
2463,0,53162,58547,52966.33,58497.82,195.67,49.18,0,0,1.001236,84.97,1
2473,0,53155,58513,52970.11,58498.12,184.89,14.88,0,0,1.001172,84.97,1
2484,0,53154,58480,52973.78,58497.76,180.21,-17.76,0,0,1.001099,84.97,1
2494,0,53152,58438,52977.35,58496.57,174.65,-58.57,0,0,1.001013,84.97,1
2504,0,53154,58425,52980.88,58495.14,173.12,-70.14,0,0,1.000923,84.98,1
2513,0,53154,58409,52984.34,58493.42,169.66,-84.42,0,0,1.00083,84.98,1
2524,0,53147,58403,52987.59,58491.61,159.41,-88.61,0,0,1.000739,84.98,1
2534,0,53151,58391,52990.86,58489.6,160.14,-98.6,0,0,1.000644,84.98,1
2544,0,53137,58375,52993.78,58487.31,143.21,-112.31,0,0,1.00055,84.99,1
2554,0,53131,58363,52996.53,58484.82,134.47,-121.82,0,0,1.000457,84.99,1
2564,0,53114,58342,52998.88,58481.97,115.12,-139.97,0,0,1.000363,84.99,1
2574,0,53096,58320,53000.83,58478.73,95.17,-158.73,0,0,1.00027,84.99,1
2584,0,53073,58292,53002.27,58475,70.73,-183,0,0,1.000178,85,1
2594,0,53056,58276,53003.35,58471.01,52.65,-195.02,0,0,1.000087,85,1
2605,0,53055,58271,53004.39,58467.01,50.61,-196.02,0,0,0.999997,85,1
2614,0,53043,58252,53005.16,58462.71,37.84,-210.71,0,0,0.999906,85,1
2624,0,53030,58236,53005.66,58458.18,24.34,-222.18,0,0,0.999816,85,1
2634,0,53027,58227,53006.08,58453.55,20.91,-226.55,0,0,0.999726,85.01,1
2644,0,53033,58212,53006.62,58448.72,26.37,-236.72,0,0,0.99963,85.01,1
2655,0,53037,58224,53007.23,58444.23,29.77,-220.23,0,0,0.999538,85.01,1
2663,0,53046,58220,53008.01,58439.75,37.99,-219.75,0,0,0.999444,85.01,1
2673,0,53060,58230,53009.05,58435.55,50.95,-205.55,0,0,0.99935,85.02,1
2683,0,53080,58223,53010.47,58431.3,69.53,-208.3,0,0,0.999248,85.02,1
2694,0,53089,58217,53012.04,58427.02,76.96,-210.02,0,0,0.999143,85.02,1
2704,0,53107,58229,53013.94,58423.06,93.05,-194.06,0,0,0.999037,85.02,1
2713,0,53116,58222,53015.99,58419.04,100.01,-197.04,0,0,0.998928,85.03,1
2723,0,53131,58222,53018.29,58415.1,112.71,-193.1,0,0,0.998816,85.03,1
2734,0,53139,58205,53020.71,58410.9,118.29,-205.9,0,0,0.998697,85.03,1
2744,0,53139,58191,53023.07,58406.5,115.93,-215.5,0,0,0.998575,85.04,1
2754,0,53126,58182,53025.13,58402.01,100.87,-220.02,0,0,0.998457,85.04,1
2763,0,53116,58162,53026.95,58397.21,89.05,-235.21,0,0,0.998337,85.04,1
2774,0,53102,58141,53028.45,58392.09,73.55,-251.09,0,0,0.998217,85.04,1
2784,0,53102,58127,53029.92,58386.79,72.07,-259.79,0,0,0.998095,85.05,1
2794,0,53103,58129,53031.39,58381.64,71.61,-252.64,0,0,0.997975,85.05,1
2804,0,53113,58138,53033.02,58376.76,79.98,-238.77,0,0,0.997857,85.05,1
2813,0,53123,58125,53034.82,58371.73,88.18,-246.73,0,0,0.997733,85.06,1
2824,0,53121,58125,53036.55,58366.8,84.45,-241.8,0,0,0.997613,85.06,1
2834,0,53135,58110,53038.51,58361.66,96.48,-251.66,0,0,0.997484,85.06,1
2844,0,53193,58146,53041.6,58357.35,151.39,-211.35,0,0,0.997351,85.07,1
2854,0,53250,58169,53045.77,58353.58,204.23,-184.59,0,0,0.99721,85.07,1
2863,0,53324,58194,53051.34,58350.39,272.66,-156.39,0,0,0.997056,85.07,1
2874,0,53404,58211,53058.39,58347.6,345.61,-136.61,0,0,0.996886,85.08,1
2884,0,53511,58324,53067.44,58347.14,443.56,-23.14,0,0,0.996727,85.08,1
2894,0,53693,58407,53079.95,58348.33,613.05,58.66,0,0,0.996549,85.09,1
2903,0,53818,58466,53094.71,58350.69,723.29,115.31,0,0,0.996363,85.09,1
2913,0,53942,58543,53111.66,58354.54,830.34,188.46,0,0,0.996177,85.1,1
2923,0,54056,58600,53130.55,58359.45,925.45,240.55,0,0,0.995989,85.1,1
2933,0,54158,58638,53151.1,58365.02,1006.9,272.98,0,0,0.995797,85.11,1
2944,0,54244,58690,53172.96,58371.52,1071.04,318.48,0,0,0.995608,85.11,1
2953,0,54313,58722,53195.76,58378.53,1117.23,343.46,0,0,0.995421,85.11,1
2963,0,54369,58748,53219.23,58385.92,1149.77,362.07,0,0,0.995236,85.12,1
2974,0,54425,58771,53243.35,58393.62,1181.65,377.38,0,0,0.995053,85.12,1
2984,0,54475,58795,53267.98,58401.65,1207.02,393.35,0,0,0.994872,85.13,1
2993,0,54496,58817,53292.54,58409.96,1203.46,407.04,0,0,0.994697,85.13,1
3004,0,54525,58809,53317.19,58417.94,1207.81,391.06,0,0,0.994519,85.14,1
3014,0,54559,58827,53342.02,58426.12,1216.98,400.88,0,0,0.994344,85.14,1
3022,0,54588,58850,53366.94,58434.6,1221.05,415.4,0,0,0.994175,85.15,1
3034,0,54634,58878,53392.29,58443.47,1241.71,434.53,0,0,0.99401,85.15,1
3044,0,54683,58906,53418.1,58452.72,1264.89,453.28,0,0,0.99385,85.15,1
3054,0,54720,58930,53444.14,58462.27,1275.86,467.73,0,0,0.993694,85.16,1
3063,0,54749,58952,53470.24,58472.06,1278.76,479.94,0,0,0.993543,85.16,1
3074,0,54777,58985,53496.38,58482.32,1280.62,502.68,0,0,0.993399,85.17,1
3084,0,54818,58990,53522.81,58492.48,1295.19,497.52,0,0,0.993255,85.17,1
3094,0,54841,59026,53549.17,58503.15,1291.82,522.85,0,0,0.99312,85.17,1
3103,0,54872,59048,53575.63,58514.05,1296.37,533.95,0,0,0.992988,85.18,1
3113,0,54915,59085,53602.42,58525.46,1312.58,559.54,0,0,0.992864,85.18,1
3124,0,54977,59102,53629.91,58537,1347.09,565,0,0,0.99274,85.18,1
3134,0,55026,59154,53657.83,58549.33,1368.16,604.66,0,0,0.992628,85.18,1
3143,0,55108,59211,53686.84,58562.57,1421.16,648.43,0,0,0.992525,85.19,1
3153,0,55253,59329,53718.16,58577.9,1534.84,751.1,0,0,0.992444,85.19,1
3164,0,55392,59415,53751.64,58594.64,1640.36,820.36,0,0,0.992381,85.19,1
3174,0,55542,59513,53787.45,58613.01,1754.55,899.99,0,0,0.992341,85.19,1
3183,0,55692,59606,53825.54,58632.87,1866.46,973.13,0,0,0.992325,85.19,1
3193,0,55828,59694,53865.59,58654.1,1962.41,1039.9,0,0,0.992334,85.19,1
3204,0,55973,59789,53907.74,58676.8,2065.26,1112.2,0,0,0.99237,85.19,1
3214,0,56088,59858,53951.35,58700.42,2136.65,1157.58,0,0,0.992427,85.19,1
3223,0,56192,59913,53996.16,58724.67,2195.84,1188.32,0,0,0.992504,85.19,1
3233,0,56264,59946,54041.52,58749.1,2222.48,1196.9,0,0,0.992592,85.19,1
3244,0,56320,60009,54087.09,58774.3,2232.91,1234.7,0,0,0.99269,85.18,1
3253,0,56419,60105,54133.73,58800.92,2285.27,1304.08,0,0,0.992809,85.18,1
3263,0,56581,60223,54182.67,58829.36,2398.32,1393.64,0,0,0.992967,85.18,1
3273,0,56759,60314,54234.2,58859.06,2524.8,1454.94,0,0,0.993172,85.17,1
3282,0,56862,60381,54286.76,58889.5,2575.24,1491.5,0,0,0.9934,85.17,1
3293,0,56924,60420,54339.5,58920.11,2584.5,1499.89,0,0,0.993636,85.16,1
3303,0,56975,60494,54392.21,58951.58,2582.79,1542.41,0,0,0.993877,85.15,1
3312,0,57093,60633,54446.23,58985.21,2646.77,1647.79,0,0,0.994143,85.15,1
3323,0,57321,60840,54503.73,59022.31,2817.27,1817.69,0,0,0.994474,85.14,1
3334,0,57657,61081,54566.79,59063.49,3090.21,2017.51,0,0,0.994921,85.13,1
3344,0,58005,61304,54635.56,59108.3,3369.44,2195.7,0,0,0.995505,85.11,1
3353,0,58300,61503,54708.85,59156.19,3591.15,2346.81,0,0,0.99621,85.09,1
3363,0,58535,61664,54785.37,59206.35,3749.63,2457.65,0,0,0.997009,85.07,1
3374,0,58783,61821,54865.32,59258.65,3917.68,2562.35,0,0,0.997916,85.05,1
3383,0,59029,62020,54948.6,59313.87,4080.4,2706.12,0,0,0.998919,85.03,1
3393,0,59307,62194,55035.76,59371.48,4271.23,2822.52,0,0,1.000058,85,1
3403,0,59556,62352,55126.17,59431.08,4429.83,2920.91,0,0,1.001317,84.97,1
3412,0,59759,62457,55218.83,59491.6,4540.17,2965.39,0,0,1.002676,84.93,1
3423,0,59914,62532,55312.73,59552.41,4601.27,2979.59,0,0,1.004098,84.9,1
3433,0,60029,62604,55407.06,59613.44,4621.94,2990.55,0,0,1.005543,84.86,1
3442,0,60125,62656,55501.42,59674.3,4623.58,2981.7,0,0,1.007,84.82,1
3452,0,60162,62671,55594.63,59734.23,4567.37,2936.77,0,0,1.008424,84.79,1
3463,0,60191,62670,55686.56,59792.95,4504.44,2877.05,0,0,1.009815,84.75,1
3474,0,60196,62671,55776.75,59850.51,4419.25,2820.49,0,0,1.011149,84.72,1
3482,0,60192,62650,55865.05,59906.5,4326.95,2743.5,0,0,1.012428,84.69,1
3493,0,60175,62634,55951.25,59961.05,4223.75,2672.95,0,0,1.013642,84.66,1
3504,0,60143,62632,56035.09,60014.47,4107.91,2617.53,0,0,1.014772,84.63,1
3513,0,60140,62636,56117.19,60066.9,4022.81,2569.1,0,0,1.015848,84.6,1
3523,0,60158,62650,56198.01,60118.57,3959.99,2531.43,0,0,1.016889,84.58,1
3533,0,60192,62672,56277.89,60169.64,3914.11,2502.36,0,0,1.017906,84.55,1
3543,0,60219,62695,56356.71,60220.14,3862.29,2474.86,0,0,1.018893,84.53,1
3553,0,60250,62709,56434.57,60269.92,3815.43,2439.08,0,0,1.01986,84.5,1
3563,0,60270,62735,56511.28,60319.22,3758.72,2415.78,0,0,1.020792,84.48,1
3572,0,60306,62761,56587.18,60368.06,3718.82,2392.94,0,0,1.021705,84.46,1
3582,0,60350,62787,56662.44,60416.44,3687.56,2370.56,0,0,1.022606,84.43,1
3593,0,60407,62841,56737.33,60464.93,3669.67,2376.07,0,0,1.023496,84.41,1
3602,0,60470,62882,56811.98,60513.27,3658.02,2368.73,0,0,1.024387,84.39,1
3612,0,60537,62930,56886.48,60561.61,3650.52,2368.39,0,0,1.025277,84.37,1
3623,0,60636,62997,56961.47,60610.32,3674.53,2386.68,0,0,1.02619,84.35,1
3633,0,60751,63075,57037.26,60659.61,3713.73,2415.39,0,0,1.027133,84.32,1
3643,0,60866,63153,57113.84,60709.48,3752.16,2443.52,0,0,1.028107,84.3,1
3653,0,60988,63218,57191.32,60759.65,3796.68,2458.35,0,0,1.029124,84.27,1
3662,0,61097,63280,57269.44,60810.06,3827.56,2469.94,0,0,1.030174,84.25,1
3673,0,61197,63322,57348,60860.3,3849,2461.7,0,0,1.031257,84.22,1
3683,0,61276,63367,57426.56,60910.44,3849.44,2456.56,0,0,1.032349,84.19,1
3693,0,61355,63396,57505.13,60960.16,3849.87,2435.84,0,0,1.03346,84.16,1
3702,0,61425,63440,57583.53,61009.75,3841.47,2430.25,0,0,1.034572,84.14,1
3713,0,61499,63473,57661.84,61059.02,3837.16,2413.98,0,0,1.035694,84.11,1
3723,0,61568,63510,57739.96,61108.04,3828.04,2401.96,0,0,1.03682,84.08,1
3732,0,61644,63550,57818.05,61156.88,3825.95,2393.12,0,0,1.037956,84.05,1
3742,0,61703,63583,57895.75,61205.4,3807.25,2377.6,0,0,1.039087,84.02,1
3753,0,61793,63635,57973.69,61254,3819.31,2381,0,0,1.040236,83.99,1
3762,0,61847,63655,58051.16,61302.02,3795.84,2352.98,0,0,1.041383,83.97,1
3773,0,61873,63658,58127.6,61349.14,3745.4,2308.86,0,0,1.042505,83.94,1
3783,0,61882,63670,58202.69,61395.56,3679.31,2274.44,0,0,1.043582,83.91,1
3792,0,61899,63686,58276.62,61441.37,3622.38,2244.63,0,0,1.044622,83.88,1
3803,0,61932,63705,58349.73,61486.64,3582.27,2218.36,0,0,1.045642,83.86,1
3813,0,61968,63729,58422.09,61531.49,3545.91,2197.51,0,0,1.046642,83.83,1
3822,0,62029,63760,58494.23,61576.06,3534.77,2183.94,0,0,1.047644,83.81,1
3832,0,62096,63816,58566.26,61620.86,3529.73,2195.14,0,0,1.048644,83.78,1
3843,0,62186,63878,58638.66,61666,3547.34,2212,0,0,1.04966,83.76,1
3853,0,62313,63961,58712.15,61711.9,3600.85,2249.1,0,0,1.05072,83.73,1
3862,0,62452,64054,58786.94,61758.74,3665.05,2295.26,0,0,1.051832,83.7,1
3872,0,62600,64134,58863.21,61806.25,3736.79,2327.75,0,0,1.053013,83.67,1
3883,0,62736,64213,58940.66,61854.39,3795.34,2358.61,0,0,1.054251,83.64,1
3892,0,62862,64279,59019.09,61902.88,3842.91,2376.12,0,0,1.055542,83.61,1
3902,0,62968,64329,59098.07,61951.4,3869.93,2377.6,0,0,1.056871,83.58,1
3913,0,63044,64368,59176.99,61999.73,3867.01,2368.27,0,0,1.05821,83.54,1
3921,0,63105,64388,59255.55,62047.5,3849.45,2340.5,0,0,1.059551,83.51,1
3933,0,63129,64403,59333.02,62094.61,3795.98,2308.39,0,0,1.060854,83.48,1
3943,0,63160,64420,59409.56,62141.12,3750.44,2278.88,0,0,1.062127,83.45,1
3952,0,63175,64430,59484.87,62186.9,3690.13,2243.1,0,0,1.063356,83.42,1
3962,0,63176,64425,59558.69,62231.66,3617.31,2193.34,0,0,1.064537,83.39,1
3973,0,63185,64429,59631.22,62275.61,3553.78,2153.39,0,0,1.065676,83.36,1
3982,0,63190,64435,59702.39,62318.8,3487.61,2116.2,0,0,1.066768,83.33,1
3992,0,63199,64452,59772.33,62361.46,3426.67,2090.54,0,0,1.067813,83.3,1
4002,0,63216,64461,59841.2,62403.45,3374.8,2057.55,0,0,1.068827,83.28,1
4012,0,63247,64487,59909.32,62445.12,3337.68,2041.88,0,0,1.069816,83.25,1
4022,0,63312,64541,59977.37,62487.04,3334.62,2053.96,0,0,1.070802,83.23,1
4032,0,63389,64578,60045.61,62528.86,3343.39,2049.14,0,0,1.071808,83.2,1
4043,0,63460,64616,60113.9,62570.61,3346.1,2045.39,0,0,1.072826,83.18,1
4051,0,63518,64649,60181.98,62612.18,3336.02,2036.82,0,0,1.073846,83.15,1
4063,0,63551,64640,60249.36,62652.74,3301.64,1987.26,0,0,1.074864,83.13,1
4073,0,63560,64648,60315.58,62692.64,3244.42,1955.36,0,0,1.075845,83.1,1
4082,0,63566,64659,60380.59,62731.97,3185.41,1927.03,0,0,1.076784,83.08,1
4092,0,63572,64648,60444.42,62770.3,3127.58,1877.7,0,0,1.077696,83.06,1
4103,0,63550,64627,60506.53,62807.43,3043.46,1819.57,0,0,1.078559,83.04,1
4112,0,63520,64620,60566.8,62843.68,2953.2,1776.32,0,0,1.07936,83.02,1
4122,0,63507,64597,60625.61,62878.75,2881.39,1718.25,0,0,1.080126,83,1
4132,0,63486,64592,60682.82,62913.01,2803.18,1678.98,0,0,1.080842,82.98,1
4142,0,63476,64581,60738.68,62946.38,2737.32,1634.62,0,0,1.081525,82.96,1
4152,0,63460,64571,60793.1,62978.87,2666.89,1592.13,0,0,1.08217,82.95,1
4162,0,63449,64568,60846.23,63010.66,2602.77,1557.34,0,0,1.082779,82.93,1
4171,0,63462,64575,60898.54,63041.94,2563.46,1533.05,0,0,1.083371,82.92,1
4182,0,63484,64590,60950.25,63072.91,2533.75,1517.09,0,0,1.083951,82.9,1
4193,0,63509,64610,61001.43,63103.65,2507.57,1506.35,0,0,1.084518,82.89,1
4201,0,63531,64612,61052.02,63133.82,2478.98,1478.18,0,0,1.085081,82.87,1
4212,0,63532,64603,61101.62,63163.2,2430.37,1439.8,0,0,1.085625,82.86,1
4222,0,63519,64587,61149.97,63191.68,2369.03,1395.32,0,0,1.086142,82.85,1
4232,0,63501,64568,61196.99,63219.21,2304.01,1348.79,0,0,1.086631,82.83,1
4242,0,63468,64547,61242.41,63245.76,2225.59,1301.23,0,0,1.087081,82.82,1
4252,0,63423,64509,61286.03,63271.03,2136.97,1237.97,0,0,1.087494,82.81,1
4262,0,63363,64478,61327.57,63295.17,2035.43,1182.83,0,0,1.087856,82.8,1
4272,0,63313,64454,61367.28,63318.35,1945.72,1135.65,0,0,1.088178,82.8,1
4282,0,63262,64416,61405.17,63340.3,1856.82,1075.7,0,0,1.088464,82.79,1
4292,0,63221,64406,61441.49,63361.62,1779.51,1044.38,0,0,1.088716,82.78,1
4301,0,63195,64405,61476.56,63382.49,1718.44,1022.51,0,0,1.088943,82.78,1
4312,0,63188,64403,61510.79,63402.9,1677.21,1000.1,0,0,1.089156,82.77,1
4323,0,63205,64423,61544.68,63423.3,1660.32,999.7,0,0,1.089363,82.77,1
4331,0,63252,64462,61578.83,63444.07,1673.17,1017.93,0,0,1.089577,82.76,1
4342,0,63308,64495,61613.41,63465.09,1694.59,1029.91,0,0,1.089803,82.75,1
4353,0,63361,64528,61648.37,63486.35,1712.63,1041.65,0,0,1.090042,82.75,1
4362,0,63407,64565,61683.54,63507.92,1723.46,1057.07,0,0,1.090286,82.74,1
4372,0,63454,64591,61718.95,63529.59,1735.05,1061.41,0,0,1.09054,82.74,1
4382,0,63495,64594,61754.47,63550.88,1740.53,1043.12,0,0,1.090809,82.73,1
4391,0,63511,64597,61789.6,63571.8,1721.4,1025.2,0,0,1.091075,82.72,1
4402,0,63492,64591,61823.65,63592.19,1668.35,998.81,0,0,1.09132,82.72,1
4412,0,63466,64565,61856.5,63611.65,1609.5,953.35,0,0,1.091546,82.71,1
4422,0,63449,64571,61888.35,63630.83,1560.65,940.16,0,0,1.091751,82.71,1
4431,0,63450,64577,61919.58,63649.76,1530.41,927.24,0,0,1.091946,82.7,1
4442,0,63462,64584,61950.43,63668.44,1511.57,915.55,0,0,1.092137,82.7,1
4452,0,63461,64573,61980.64,63686.54,1480.36,886.46,0,0,1.092322,82.69,1
4462,0,63441,64574,62009.85,63704.29,1431.15,869.71,0,0,1.092487,82.69,1
4471,0,63428,64568,62038.21,63721.56,1389.79,846.44,0,0,1.09264,82.68,1
4482,0,63429,64575,62066.03,63738.63,1362.97,836.37,0,0,1.092785,82.68,1
4492,0,63460,64606,62093.91,63755.98,1366.09,850.02,0,0,1.092931,82.68,1
4502,0,63483,64623,62121.69,63773.33,1361.31,849.67,0,0,1.093078,82.67,1
4511,0,63500,64630,62149.26,63790.46,1350.74,839.54,0,0,1.093224,82.67,1
4521,0,63511,64617,62176.49,63807,1334.51,810,0,0,1.093374,82.67,1
4532,0,63507,64619,62203.1,63823.23,1303.89,795.77,0,0,1.093513,82.66,1
4541,0,63502,64625,62229.08,63839.27,1272.92,785.73,0,0,1.093643,82.66,1
4551,0,63512,64632,62254.74,63855.12,1257.26,776.88,0,0,1.09377,82.66,1
4561,0,63508,64619,62279.8,63870.4,1228.2,748.6,0,0,1.093891,82.65,1
4572,0,63507,64611,62304.35,63885.21,1202.65,725.79,0,0,1.094009,82.65,1
4581,0,63504,64606,62328.34,63899.63,1175.66,706.37,0,0,1.094121,82.65,1
4591,0,63490,64598,62351.58,63913.6,1138.42,684.4,0,0,1.094223,82.64,1
4601,0,63482,64590,62374.19,63927.13,1107.81,662.87,0,0,1.094318,82.64,1
4612,0,63478,64592,62396.26,63940.43,1081.74,651.57,0,0,1.094406,82.64,1
4621,0,63478,64586,62417.89,63953.34,1060.11,632.66,0,0,1.094491,82.64,1
4631,0,63476,64576,62439.06,63965.79,1036.94,610.21,0,0,1.094573,82.64,1
4641,0,63460,64567,62459.48,63977.82,1000.52,589.18,0,0,1.094646,82.63,1
4653,0,63450,64566,62479.29,63989.58,970.71,576.42,0,0,1.094711,82.63,1
4661,0,63458,64585,62498.86,64001.49,959.14,583.51,0,0,1.094773,82.63,1
4671,0,63486,64606,62518.6,64013.58,967.39,592.41,0,0,1.094839,82.63,1
4681,0,63545,64642,62539.13,64026.16,1005.87,615.84,0,0,1.094917,82.63,1
4692,0,63611,64689,62560.57,64039.41,1050.43,649.59,0,0,1.095011,82.62,1
4701,0,63681,64738,62582.98,64053.39,1098.02,684.61,0,0,1.095121,82.62,1
4711,0,63757,64775,62606.46,64067.82,1150.54,707.18,0,0,1.095255,82.62,1
4722,0,63832,64811,62630.97,64082.69,1201.03,728.31,0,0,1.095415,82.61,1
4730,0,63913,64846,62656.62,64097.95,1256.38,748.05,0,0,1.095606,82.61,1
4741,0,63934,64855,62682.16,64113.1,1251.84,741.9,0,0,1.0958,82.6,1
4751,0,63936,64837,62707.24,64127.57,1228.76,709.43,0,0,1.095993,82.6,1
4762,0,63921,64829,62731.51,64141.6,1189.48,687.4,0,0,1.096171,82.6,1
4770,0,63875,64797,62754.39,64154.71,1120.61,642.29,0,0,1.096324,82.59,1
4782,0,63822,64773,62775.74,64167.08,1046.26,605.92,0,0,1.096446,82.59,1
4792,0,63780,64735,62795.83,64178.44,984.17,556.56,0,0,1.096551,82.59,1
4802,0,63731,64725,62814.54,64189.37,916.46,535.63,0,0,1.096631,82.58,1
4810,0,63685,64698,62831.95,64199.55,853.05,498.45,0,0,1.096693,82.58,1
4820,0,63649,64673,62848.29,64209.02,800.71,463.98,0,0,1.096743,82.58,1
4832,0,63615,64655,62863.63,64217.94,751.37,437.06,0,0,1.096781,82.58,1
4842,0,63581,64645,62877.98,64226.48,703.02,418.52,0,0,1.096807,82.58,1
4852,0,63551,64622,62891.44,64234.39,659.56,387.61,0,0,1.096826,82.58,1
4860,0,63502,64583,62903.65,64241.37,598.35,341.63,0,0,1.096834,82.58,1
4871,0,63449,64535,62914.56,64247.24,534.44,287.76,0,0,1.096832,82.58,1
4881,0,63379,64488,62923.85,64252.06,455.15,235.94,0,0,1.096819,82.58,1
4891,0,63287,64436,62931.11,64255.74,355.89,180.26,0,0,1.096797,82.58,1
4900,0,63176,64354,62936.01,64257.7,239.99,96.3,0,0,1.096768,82.58,1
4911,0,63048,64284,62938.25,64258.23,109.75,25.77,0,0,1.096743,82.58,1
4921,0,62941,64187,62938.31,64256.8,2.69,-69.8,0,0,1.096715,82.58,1
4931,0,62799,64098,62935.52,64253.63,-136.52,-155.63,0,0,1.096705,82.58,1
4941,0,62653,64019,62929.87,64248.94,-276.87,-229.94,0,0,1.096731,82.58,1
4951,0,62513,63921,62921.53,64242.38,-408.54,-321.38,0,0,1.096788,82.58,1
4961,0,62349,63833,62910.08,64234.19,-561.09,-401.2,0,0,1.096913,82.58,1
4971,0,62225,63746,62896.39,64224.43,-671.39,-478.43,0,0,1.09708,82.57,1
4981,0,62127,63713,62881,64214.2,-754,-501.2,0,0,1.097317,82.57,1
4990,0,62051,63677,62864.4,64203.46,-813.4,-526.46,0,0,1.097601,82.56,1
5001,0,62010,63668,62847.32,64192.75,-837.32,-524.75,0,0,1.097917,82.55,1
5011,0,62004,63665,62830.45,64182.2,-826.45,-517.2,0.000268,0.000164,1.098229,82.54,1
5022,0,62022,63684,62814.28,64172.23,-792.28,-488.23,0.000526,0.00032,1.09853,82.54,1
5031,0,62067,63718,62799.33,64163.15,-732.34,-445.15,0.000764,0.000461,1.098802,82.53,1
5041,0,62125,63748,62785.85,64154.85,-660.85,-406.85,0.000978,0.000591,1.09903,82.52,1
5052,0,62175,63785,62773.64,64147.45,-598.64,-362.45,0.001173,0.000706,1.09923,82.52,1
5061,0,62220,63811,62762.56,64140.72,-542.56,-329.72,0.001349,0.000811,1.099403,82.51,1
5071,0,62271,63854,62752.73,64134.98,-481.73,-280.98,0.001506,0.0009,1.099556,82.51,1
5082,0,62341,63887,62744.5,64130.02,-403.5,-243.02,0.001637,0.000978,1.099669,82.51,1
5092,0,62378,63904,62737.17,64125.5,-359.17,-221.5,0.001754,0.001048,1.099761,82.51,1
5101,0,62387,63916,62730.16,64121.32,-343.16,-205.32,0.001866,0.001113,1.099852,82.5,1
5110,0,62376,63911,62723.08,64117.11,-347.08,-206.11,0.001979,0.001179,1.099946,82.5,1
5122,0,62380,63906,62716.22,64112.89,-336.22,-206.89,0.002088,0.001245,1.100031,82.5,1
5131,0,62384,63905,62709.58,64108.73,-325.58,-203.73,0.002194,0.00131,1.100111,82.5,1
5142,0,62386,63905,62703.1,64104.66,-317.11,-199.66,0.002297,0.001373,1.100187,82.5,1
5151,0,62371,63896,62696.46,64100.49,-325.46,-204.49,0.002403,0.001438,1.100267,82.49,1
5161,0,62365,63902,62689.83,64096.52,-324.83,-194.52,0.002509,0.0015,1.100353,82.49,1
5171,0,62377,63904,62683.57,64092.67,-306.57,-188.67,0.002609,0.00156,1.10043,82.49,1
5182,0,62389,63924,62677.68,64089.3,-288.68,-165.3,0.002703,0.001613,1.100508,82.49,1
5191,0,62419,63944,62672.51,64086.39,-253.51,-142.39,0.002785,0.001658,1.100575,82.49,1
5200,0,62441,63972,62667.88,64084.11,-226.88,-112.11,0.002859,0.001694,1.100641,82.48,1
5212,0,62487,64001,62664.26,64082.45,-177.27,-81.45,0.002917,0.00172,1.100691,82.48,1
5221,0,62539,64030,62661.76,64081.4,-122.76,-51.4,0.002957,0.001736,1.100725,82.48,1
5231,0,62605,64064,62660.63,64081.06,-55.63,-17.06,0.002975,0.001741,1.100741,82.48,1
5240,0,62663,64103,62660.68,64081.5,2.32,21.5,0.002974,0.001735,1.100747,82.48,1
5252,0,62718,64144,62661.83,64082.75,56.17,61.25,0.002956,0.001715,1.100747,82.48,1
5261,0,62757,64175,62663.73,64084.59,93.27,90.41,0.002925,0.001686,1.100745,82.48,1
5271,0,62804,64181,62666.54,64086.52,137.46,94.48,0.002881,0.001656,1.100735,82.48,1
5280,0,62837,64212,62669.95,64089.03,167.05,122.97,0.002826,0.001617,1.100725,82.48,1
5292,0,62849,64213,62673.53,64091.51,175.47,121.49,0.002769,0.001578,1.100715,82.48,1
5301,0,62850,64217,62677.06,64094.02,172.94,122.98,0.002713,0.001539,1.100704,82.48,1
5311,0,62842,64205,62680.36,64096.25,161.64,108.75,0.00266,0.001505,1.100694,82.48,1
5321,0,62836,64200,62683.48,64098.32,152.52,101.68,0.00261,0.001472,1.100683,82.48,1
5331,0,62850,64224,62686.81,64100.84,163.19,123.16,0.002557,0.001433,1.100674,82.48,1
5341,0,62856,64234,62690.19,64103.5,165.8,130.5,0.002503,0.001391,1.100666,82.48,1
5352,0,62874,64255,62693.87,64106.53,180.13,148.46,0.002444,0.001344,1.100659,82.48,1
5361,0,62885,64250,62697.7,64109.41,187.3,140.59,0.002384,0.001299,1.10065,82.48,1
5370,0,62896,64254,62701.66,64112.3,194.34,141.7,0.00232,0.001254,1.100641,82.48,1
5381,0,62903,64262,62705.69,64115.29,197.31,146.71,0.002256,0.001207,1.100632,82.48,1
5391,0,62902,64251,62709.62,64118,192.38,133,0.002193,0.001165,1.100623,82.48,1
5401,0,62897,64258,62713.37,64120.8,183.63,137.2,0.002134,0.001121,1.100614,82.48,1
5410,0,62897,64264,62717.04,64123.67,179.96,140.33,0.002075,0.001077,1.100607,82.48,1
5422,0,62906,64267,62720.82,64126.54,185.18,140.46,0.002015,0.001032,1.100599,82.49,1
5431,0,62924,64263,62724.89,64129.27,199.11,133.73,0.00195,0.000989,1.100589,82.49,1
5441,0,62934,64291,62729.07,64132.5,204.93,158.5,0.001883,0.000939,1.100582,82.49,1
5451,0,62940,64293,62733.29,64135.71,206.71,157.29,0.001816,0.000889,1.100574,82.49,1
5462,0,62954,64305,62737.71,64139.1,216.29,165.9,0.001746,0.000836,1.100568,82.49,1
5471,0,62951,64280,62741.97,64141.92,209.03,138.08,0.001678,0.000792,1.100559,82.49,1
5480,0,62937,64276,62745.87,64144.6,191.13,131.39,0.001615,0.00075,1.100551,82.49,1
5491,0,62916,64277,62749.27,64147.25,166.73,129.75,0.001561,0.000709,1.100544,82.49,1
5500,0,62902,64260,62752.33,64149.51,149.67,110.49,0.001513,0.000674,1.100536,82.49,1
5511,0,62885,64266,62754.98,64151.84,130.02,114.16,0.00147,0.000638,1.100531,82.49,1
5521,0,62889,64254,62757.66,64153.88,131.34,100.12,0.001428,0.000606,1.100524,82.49,1
5531,0,62902,64268,62760.55,64156.16,141.45,111.84,0.001382,0.00057,1.100518,82.49,1
5540,0,62923,64291,62763.8,64158.86,159.2,132.14,0.00133,0.000528,1.100512,82.49,1
5552,0,62969,64328,62767.91,64162.25,201.09,165.75,0.001264,0.000475,1.100506,82.49,1
5561,0,63038,64376,62773.31,64166.52,264.69,209.48,0.001178,0.000409,1.100502,82.49,1
5570,0,63109,64416,62780.03,64171.51,328.97,244.48,0.001071,0.000331,1.100506,82.49,1
5581,0,63189,64457,62788.21,64177.23,400.79,279.77,0.000941,0.000242,1.100526,82.49,1
5591,0,63274,64509,62797.93,64183.86,476.07,325.14,0.000786,0.000139,1.100568,82.49,1
5601,0,63335,64545,62808.67,64191.08,526.33,353.91,0.000615,0.000026,1.100629,82.48,1
5610,0,63408,64575,62820.66,64198.76,587.34,376.23,0.000424,-0.000094,1.100725,82.48,1
5621,0,63460,64614,62833.45,64207.07,626.55,406.93,0.000221,-0.000223,1.100838,82.48,1
5630,0,63516,64633,62847.1,64215.59,668.9,417.41,0.000003,-0.000356,1.100986,82.48,1
5642,0,63556,64671,62861.28,64224.7,694.72,446.3,-0.000222,-0.000498,1.101143,82.47,1
5651,0,63609,64711,62876.24,64234.43,732.76,476.57,-0.00046,-0.000649,1.101321,82.47,1
5660,0,63668,64739,62892.07,64244.52,775.93,494.48,-0.000712,-0.000806,1.101537,82.46,1
5670,0,63734,64787,62908.91,64255.37,825.09,531.63,-0.00098,-0.000975,1.101787,82.46,1
5681,0,63817,64831,62927.08,64266.89,889.92,564.11,-0.001268,-0.001154,1.1021,82.45,1
5691,0,63917,64887,62946.88,64279.29,970.12,607.71,-0.001583,-0.001347,1.102496,82.44,1
5700,0,64000,64942,62967.94,64292.54,1032.06,649.46,-0.001918,-0.001553,1.102954,82.43,1
5711,0,64090,64989,62990.38,64306.47,1099.62,682.53,-0.002274,-0.00177,1.103502,82.41,1
5721,0,64170,65026,63013.98,64320.86,1156.02,705.14,-0.002648,-0.001994,1.104138,82.4,1
5730,0,64228,65063,63038.26,64335.71,1189.74,727.29,-0.003034,-0.002224,1.104821,82.38,1
5741,0,64284,65095,63063.17,64350.89,1220.83,744.11,-0.003429,-0.00246,1.105554,82.36,1
5750,0,64340,65124,63088.71,64366.35,1251.29,757.64,-0.003834,-0.002701,1.106342,82.34,1
5761,0,64384,65154,63114.62,64382.11,1269.38,771.89,-0.004244,-0.002945,1.107157,82.32,1
5771,0,64423,65180,63140.78,64398.07,1282.21,781.93,-0.004659,-0.003193,1.107993,82.3,1
5780,0,64462,65202,63167.21,64414.15,1294.79,787.85,-0.005077,-0.003443,1.108857,82.28,1
5790,0,64493,65220,63193.72,64430.26,1299.28,789.73,-0.005497,-0.003693,1.109735,82.26,1
5800,0,64525,65239,63220.35,64446.44,1304.65,792.56,-0.005918,-0.003944,1.110628,82.23,1
5811,0,64563,65268,63247.2,64462.87,1315.8,805.13,-0.006343,-0.004199,1.111534,82.21,1
5820,0,64594,65279,63274.14,64479.19,1319.86,799.8,-0.006769,-0.004452,1.112467,82.19,1
5831,0,64635,65313,63301.36,64495.87,1333.64,817.13,-0.007199,-0.004711,1.113411,82.16,1
5840,0,64680,65348,63328.93,64512.92,1351.07,835.08,-0.007634,-0.004975,1.114374,82.14,1
5850,0,64740,65384,63357.16,64530.34,1382.84,853.66,-0.00808,-0.005245,1.115397,82.12,1
5861,0,64804,65411,63386.09,64547.95,1417.91,863.05,-0.008536,-0.005518,1.116509,82.09,1
5870,0,64873,65444,63415.83,64565.87,1457.16,878.13,-0.009005,-0.005796,1.117715,82.06,1
5881,0,64918,65473,63445.88,64584.02,1472.12,888.98,-0.009479,-0.006077,1.118951,82.03,1
5891,0,64949,65480,63475.94,64601.94,1473.06,878.06,-0.009953,-0.006354,1.120221,81.99,1
5900,0,64956,65491,63505.54,64619.72,1450.46,871.28,-0.010419,-0.006629,1.12144,81.96,1
5911,0,64989,65509,63535.21,64637.51,1453.79,871.49,-0.010886,-0.006905,1.122676,81.93,1
5920,0,65059,65211,63565.69,64648.98,1493.31,562.02,-0.011366,-0.007082,1.124601,81.88,1
5931,0,65166,65285,63597.7,64661.7,1568.3,623.3,-0.011869,-0.007279,1.126708,81.83,1
5941,0,65272,65338,63631.19,64675.23,1640.81,662.77,-0.012395,-0.007488,1.129026,81.77,1
5950,0,65381,65382,63666.19,64689.36,1714.81,692.64,-0.012945,-0.007706,1.131589,81.71,1
5960,0,65459,65408,63702.04,64703.74,1756.96,704.26,-0.013508,-0.007929,1.134312,81.64,1
5970,0,65517,65425,63738.34,64718.16,1778.66,706.84,-0.014078,-0.008152,1.137131,81.57,1
5981,0,65216,65447,63767.9,64732.74,1448.1,714.26,-0.014542,-0.008377,1.138714,81.53,1
5991,0,65237,65459,63797.28,64747.27,1439.72,711.73,-0.015002,-0.008601,1.140284,81.49,1
6000,0,65250,65469,63826.33,64761.7,1423.66,707.3,-0.015458,-0.008824,1.141819,81.45,1
6010,0,65300,65514,63855.81,64776.75,1444.19,737.25,-0.015919,-0.009056,1.143371,81.42,1
6021,0,65372,65554,63886.14,64792.29,1485.86,761.71,-0.016394,-0.009296,1.145024,81.37,1
6030,0,65448,65593,63917.37,64808.31,1530.63,784.69,-0.016883,-0.009544,1.146796,81.33,1
6041,0,65528,65654,63949.58,64825.22,1578.41,828.78,-0.017387,-0.009804,1.148651,81.28,1
6050,0,65600,65691,63982.59,64842.54,1617.41,848.46,-0.017903,-0.010072,1.150616,81.23,1
6061,0,65683,65742,64016.6,64860.53,1666.4,881.47,-0.018434,-0.010349,1.152699,81.18,1
6071,0,65769,65805,64051.65,64879.42,1717.35,925.58,-0.018981,-0.01064,1.154878,81.13,1
6080,0,65860,65843,64087.82,64898.69,1772.18,944.3,-0.019546,-0.010937,1.157247,81.07,1
6090,0,65922,65874,64124.5,64918.2,1797.5,955.8,-0.020118,-0.011238,1.159698,81.01,1
6100,0,65955,65884,64161.12,64937.52,1793.88,946.48,-0.020689,-0.011535,1.162167,80.95,1
6110,0,65985,65901,64197.59,64956.79,1787.41,944.21,-0.021258,-0.011832,1.164617,80.88,1
6120,0,66005,65900,64233.75,64975.66,1771.25,924.34,-0.02182,-0.012122,1.16706,80.82,1
6130,0,66005,65902,64269.17,64994.18,1735.82,907.82,-0.022372,-0.012407,1.169399,80.77,1
6140,0,66007,65915,64303.93,65012.6,1703.07,902.4,-0.022913,-0.012691,1.171617,80.71,1
6151,0,66006,65899,64337.98,65030.33,1668.02,868.67,-0.023442,-0.012963,1.173788,80.66,1
6160,0,65985,65874,64370.92,65047.21,1614.08,826.79,-0.023954,-0.013223,1.175857,80.6,1
6170,0,65977,65877,64403.04,65063.8,1573.96,813.2,-0.024453,-0.013478,1.177806,80.55,1
6180,0,65965,65858,64434.28,65079.69,1530.72,778.31,-0.024938,-0.013722,1.179683,80.51,1
6190,0,65940,65845,64464.4,65095,1475.6,750,-0.025405,-0.013957,1.181426,80.46,1
6200,0,65912,65824,64493.35,65109.58,1418.65,714.42,-0.025854,-0.014181,1.183052,80.42,1
6210,0,65867,65778,64520.82,65122.94,1346.18,655.05,-0.02628,-0.014387,1.184563,80.39,1
6220,0,65801,65733,64546.43,65135.15,1254.57,597.85,-0.026677,-0.014574,1.185894,80.35,1
6231,0,65725,65681,64570,65146.07,1155,534.93,-0.027042,-0.014742,1.187041,80.32,1
6240,0,65622,65600,64591.05,65155.14,1030.95,444.86,-0.027368,-0.014881,1.18799,80.3,1
6250,0,65510,65526,64609.42,65162.56,900.57,363.44,-0.027652,-0.014995,1.188726,80.28,1
6260,0,65384,65444,64624.92,65168.19,759.08,275.81,-0.027892,-0.015081,1.189254,80.27,1
6269,0,65270,65378,64637.82,65172.39,632.18,205.61,-0.028091,-0.015146,1.189612,80.26,1
6280,0,65157,65318,64648.21,65175.3,508.79,142.7,-0.028252,-0.01519,1.189829,80.25,1
6290,0,65068,65271,64656.6,65177.22,411.4,93.78,-0.028382,-0.01522,1.189954,80.25,1
6300,0,65002,65248,64663.51,65178.64,338.49,69.36,-0.028489,-0.015241,1.190021,80.25,1
6309,0,64952,65212,64669.28,65179.3,282.72,32.7,-0.028578,-0.015252,1.190052,80.25,1
6321,0,64916,65201,64674.22,65179.74,241.78,21.26,-0.028654,-0.015258,1.190061,80.25,1
6330,0,64883,65176,64678.39,65179.66,204.61,-3.66,-0.028719,-0.015257,1.19005,80.25,1
6339,0,64847,65167,64681.77,65179.41,165.23,-12.41,-0.028771,-0.015253,1.190028,80.25,1
6350,0,64812,65143,64684.37,65178.68,127.62,-35.68,-0.028811,-0.015242,1.189991,80.25,1
6360,0,64789,65133,64686.47,65177.77,102.53,-44.77,-0.028844,-0.015228,1.189948,80.25,1
6370,0,64771,65123,64688.16,65176.67,82.84,-53.68,-0.02887,-0.015211,1.189902,80.25,1
6379,0,64761,65115,64689.62,65175.44,71.38,-60.45,-0.028892,-0.015193,1.189853,80.25,1
6390,0,64730,65097,64690.43,65173.88,39.57,-76.88,-0.028905,-0.015168,1.189798,80.26,1
6400,0,64706,65075,64690.74,65171.9,15.26,-96.9,-0.02891,-0.015138,1.189734,80.26,1
6410,0,64683,65071,64690.59,65169.88,-7.59,-98.88,-0.028908,-0.015107,1.189676,80.26,1
6419,0,64664,65060,64690.06,65167.69,-26.06,-107.69,-0.028899,-0.015073,1.189618,80.26,1
6430,0,64664,65067,64689.54,65165.67,-25.54,-98.68,-0.028891,-0.015043,1.189568,80.26,1
6439,0,64666,65072,64689.07,65163.8,-23.07,-91.8,-0.028884,-0.015014,1.189522,80.26,1
6450,0,64682,65092,64688.93,65162.37,-6.93,-70.37,-0.028882,-0.014992,1.189486,80.26,1
6460,0,64701,65107,64689.17,65161.26,11.83,-54.27,-0.028886,-0.014975,1.189454,80.26,1
6470,0,64729,65136,64689.97,65160.76,39.03,-24.76,-0.028898,-0.014967,1.189432,80.26,1
6479,0,64771,65161,64691.59,65160.76,79.41,0.23,-0.028923,-0.014967,1.189414,80.26,1
6490,0,64798,65175,64693.72,65161.05,104.28,13.95,-0.028956,-0.014972,1.1894,80.27,1
6500,0,64832,65188,64696.49,65161.59,135.51,26.41,-0.028999,-0.01498,1.189392,80.27,1
6510,0,64849,65200,64699.54,65162.36,149.46,37.64,-0.029046,-0.014992,1.189389,80.27,1
6519,0,64863,65202,64702.81,65163.16,160.19,38.84,-0.029096,-0.015004,1.18939,80.27,1
6529,0,64873,65211,64706.22,65164.11,166.78,46.89,-0.029149,-0.015019,1.189393,80.27,1
6540,0,64877,65216,64709.63,65165.15,167.37,50.85,-0.029202,-0.015034,1.189398,80.27,1
6549,0,64885,65225,64713.14,65166.35,171.86,58.65,-0.029256,-0.015053,1.189405,80.26,1
6560,0,64894,65228,64716.76,65167.58,177.24,60.41,-0.029312,-0.015072,1.189415,80.26,1
6569,0,64891,65220,64720.25,65168.63,170.75,51.37,-0.029366,-0.015088,1.189422,80.26,1
6580,0,64898,65228,64723.8,65169.82,174.2,58.18,-0.029421,-0.015106,1.189432,80.26,1
6589,0,64896,65226,64727.25,65170.94,168.75,55.05,-0.029474,-0.015123,1.18944,80.26,1
6600,0,64907,65251,64730.85,65172.55,176.15,78.45,-0.02953,-0.015148,1.18945,80.26,1
6609,0,64931,65251,64734.85,65174.12,196.15,76.88,-0.029592,-0.015172,1.18947,80.26,1
6620,0,64956,65268,64739.28,65176,216.72,92,-0.02966,-0.015201,1.189499,80.26,1
6630,0,64980,65288,64744.09,65178.24,235.91,109.76,-0.029734,-0.015235,1.189536,80.26,1
6640,0,65017,65315,64749.55,65180.98,267.45,134.02,-0.029819,-0.015277,1.189588,80.26,1
6649,0,65043,65342,64755.42,65184.2,287.57,157.8,-0.029909,-0.015327,1.189645,80.26,1
6660,0,65091,65355,64762.14,65187.62,328.86,167.38,-0.030013,-0.015379,1.189739,80.26,1
6670,0,65139,65384,64769.68,65191.55,369.32,192.45,-0.030129,-0.01544,1.189864,80.25,1
6679,0,65182,65412,64777.93,65195.96,404.07,216.04,-0.030257,-0.015507,1.190017,80.25,1
6690,0,65228,65444,64786.93,65200.92,441.07,243.08,-0.030396,-0.015583,1.190201,80.24,1
6700,0,65254,65460,64796.27,65206.1,457.73,253.9,-0.03054,-0.015663,1.190402,80.24,1
6709,0,65290,65482,64806.14,65211.62,483.86,270.38,-0.030692,-0.015747,1.190631,80.23,1
6720,0,65329,65505,64816.6,65217.49,512.4,287.51,-0.030853,-0.015837,1.190895,80.23,1
6729,0,65376,65533,64827.79,65223.8,548.21,309.2,-0.031026,-0.015934,1.191204,80.22,1
6739,0,65413,65564,64839.5,65230.61,573.5,333.39,-0.031207,-0.016038,1.191532,80.21,1
6750,0,65437,65578,64851.44,65237.56,585.55,340.44,-0.031391,-0.016145,1.191879,80.2,1
6759,0,65474,65591,64863.9,65244.63,610.1,346.37,-0.031583,-0.016253,1.192281,80.19,1
6769,0,65504,65619,64876.7,65252.12,627.3,366.88,-0.03178,-0.016368,1.19269,80.18,1
6779,0,65540,65639,64889.97,65259.85,650.03,379.14,-0.031985,-0.016487,1.19314,80.17,1
6790,0,65575,65675,64903.67,65268.16,671.33,406.84,-0.032196,-0.016614,1.19359,80.16,1
6799,0,65602,65685,64917.64,65276.5,684.36,408.5,-0.032411,-0.016742,1.194079,80.15,1
6809,0,65630,65696,64931.89,65284.89,698.11,411.11,-0.032631,-0.01687,1.194611,80.13,1
6819,0,65649,65694,64946.23,65293.07,702.77,400.93,-0.032852,-0.016996,1.195188,80.12,1
6829,0,65648,65695,64960.27,65301.11,687.73,393.89,-0.033068,-0.017119,1.19574,80.11,1
6840,0,65638,65690,64973.83,65308.89,664.17,381.11,-0.033276,-0.017238,1.196254,80.09,1
6849,0,65611,65674,64986.57,65316.2,624.43,357.8,-0.033473,-0.01735,1.196707,80.08,1
6858,0,65597,65658,64998.78,65323.03,598.21,334.96,-0.03366,-0.017454,1.197141,80.07,1
6870,0,65576,65624,65010.33,65329.05,565.67,294.95,-0.033838,-0.017547,1.19757,80.06,1
6879,0,65535,65599,65020.82,65334.46,514.18,264.54,-0.033999,-0.017629,1.197926,80.05,1
6890,0,65490,65578,65030.21,65339.33,459.79,238.67,-0.034144,-0.017704,1.198202,80.04,1
6899,0,65462,65554,65038.85,65343.62,423.15,210.38,-0.034277,-0.01777,1.198445,80.04,1
6908,0,65414,65522,65046.35,65347.19,367.65,174.81,-0.034392,-0.017824,1.198629,80.03,1
6920,0,65386,65499,65053.14,65350.23,332.86,148.77,-0.034496,-0.017871,1.198785,80.03,1
6929,0,65347,65476,65059.02,65352.75,287.98,123.25,-0.034587,-0.017909,1.198898,80.03,1
6940,0,65313,65453,65064.1,65354.75,248.89,98.25,-0.034665,-0.01794,1.198981,80.03,1
6949,0,65272,65438,65068.26,65356.42,203.73,81.58,-0.034729,-0.017965,1.199028,80.02,1
6959,0,65232,65407,65071.54,65357.43,160.46,49.57,-0.034779,-0.017981,1.199052,80.02,1
6969,0,65188,65374,65073.87,65357.76,114.12,16.24,-0.034815,-0.017986,1.199053,80.02,1
6979,0,65152,65356,65075.44,65357.73,76.56,-1.73,-0.034839,-0.017985,1.199041,80.02,1
6989,0,65115,65344,65076.23,65357.46,38.77,-13.46,-0.034851,-0.017981,1.199025,80.02,1
6999,0,65091,65323,65076.53,65356.77,14.47,-33.77,-0.034856,-0.017971,1.199003,80.02,1
7009,0,65069,65310,65076.37,65355.83,-7.38,-45.84,-0.034853,-0.017956,1.198979,80.03,1
7019,0,65039,65291,65075.63,65354.54,-36.63,-63.54,-0.034842,-0.017937,1.198956,80.03,1
7029,0,65009,65273,65074.3,65352.91,-65.3,-79.91,-0.034821,-0.017912,1.198935,80.03,1
7038,0,64980,65253,65072.41,65350.91,-92.41,-97.91,-0.034792,-0.017881,1.198916,80.03,1
7050,0,64952,65245,65070.01,65348.79,-118.01,-103.79,-0.034756,-0.017849,1.198917,80.03,1
7059,0,64933,65222,65067.27,65346.26,-134.27,-124.26,-0.034713,-0.01781,1.198908,80.03,1
7069,0,64911,65210,65064.14,65343.53,-153.14,-133.53,-0.034665,-0.017768,1.198909,80.03,1
7079,0,64862,65180,65060.1,65340.26,-198.1,-160.26,-0.034603,-0.017718,1.198933,80.03,1
7089,0,64812,65144,65055.14,65336.33,-243.14,-192.34,-0.034527,-0.017658,1.198973,80.03,1
7099,0,64761,65103,65049.26,65331.67,-288.26,-228.67,-0.034437,-0.017586,1.199025,80.02,1
7109,0,64719,65076,65042.65,65326.55,-323.65,-250.55,-0.034335,-0.017508,1.199105,80.02,1
7119,0,64668,65058,65035.16,65321.18,-367.16,-263.18,-0.03422,-0.017426,1.19927,80.02,1
7130,0,64623,65024,65026.92,65315.24,-403.92,-291.24,-0.034093,-0.017335,1.19946,80.01,1
7139,0,64560,64992,65017.58,65308.78,-457.58,-316.78,-0.033949,-0.017236,1.199747,80.01,1
7149,0,64519,64979,65007.6,65302.18,-488.61,-323.18,-0.033796,-0.017135,1.200128,80,1
7159,0,64478,64962,64997.01,65295.37,-519.01,-333.38,-0.033633,-0.017031,1.200595,79.99,1
7169,0,64471,64962,64986.49,65288.71,-515.49,-326.71,-0.033471,-0.016929,1.201076,79.97,1
7179,0,64470,64966,64976.16,65282.25,-506.16,-316.25,-0.033312,-0.01683,1.201562,79.96,1
7189,0,64465,64965,64965.94,65275.91,-500.94,-310.91,-0.033155,-0.016733,1.202049,79.95,1
7199,0,64487,64984,64956.36,65270.07,-469.36,-286.07,-0.033007,-0.016643,1.202501,79.94,1
7208,0,64509,64993,64947.41,65264.53,-438.41,-271.54,-0.03287,-0.016558,1.202889,79.93,1
7219,0,64533,65001,64939.13,65259.26,-406.13,-258.27,-0.032742,-0.016478,1.203208,79.92,1
7229,0,64529,64991,64930.92,65253.9,-401.93,-262.9,-0.032616,-0.016395,1.2035,79.91,1
7238,0,64512,64978,64922.55,65248.38,-410.55,-270.38,-0.032487,-0.016311,1.203799,79.91,1
7249,0,64500,64978,64914.1,65242.98,-414.1,-264.98,-0.032357,-0.016228,1.20413,79.9,1
7259,0,64492,64981,64905.66,65237.74,-413.66,-256.74,-0.032227,-0.016148,1.204491,79.89,1
7268,0,64502,64995,64897.58,65232.88,-395.58,-237.88,-0.032102,-0.016073,1.204849,79.88,1
7279,0,64512,64996,64889.87,65228.15,-377.87,-232.15,-0.031983,-0.016001,1.205166,79.87,1
7288,0,64517,64990,64882.41,65223.39,-365.41,-233.39,-0.031868,-0.015928,1.205439,79.86,1
7300,0,64499,64969,64874.75,65218.3,-375.75,-249.3,-0.03175,-0.01585,1.205699,79.86,1
7309,0,64454,64932,64866.33,65212.58,-412.33,-280.58,-0.03162,-0.015762,1.205983,79.85,1
7318,0,64402,64906,64857.05,65206.45,-455.05,-300.45,-0.031477,-0.015668,1.206362,79.84,1
7329,0,64350,64876,64846.91,65199.84,-496.91,-323.84,-0.031321,-0.015567,1.20683,79.83,1
7339,0,64298,64844,64835.93,65192.72,-537.93,-348.72,-0.031152,-0.015457,1.207384,79.82,1
7350,0,64258,64834,64824.37,65185.55,-566.37,-351.55,-0.030973,-0.015347,1.208073,79.8,1
7359,0,64242,64827,64812.73,65178.38,-570.73,-351.38,-0.030794,-0.015237,1.20879,79.78,1
7368,0,64240,64823,64801.27,65171.27,-561.27,-348.27,-0.030617,-0.015128,1.209477,79.76,1
7379,0,64240,64830,64790.05,65164.45,-550.05,-334.45,-0.030444,-0.015024,1.210174,79.75,1
7389,0,64241,64841,64779.07,65157.98,-538.07,-316.98,-0.030274,-0.014924,1.210893,79.73,1
7399,0,64252,64841,64768.53,65151.64,-516.53,-310.64,-0.030112,-0.014827,1.211536,79.71,1
7409,0,64249,64828,64758.14,65145.17,-509.14,-317.17,-0.029951,-0.014728,1.212117,79.7,1
7418,0,64237,64823,64747.71,65138.73,-510.71,-315.73,-0.02979,-0.014629,1.212717,79.68,1
7429,0,64225,64823,64737.26,65132.41,-512.26,-309.41,-0.029629,-0.014532,1.213357,79.67,1
7439,0,64215,64818,64726.82,65126.12,-511.82,-308.13,-0.029467,-0.014435,1.214005,79.65,1
7449,0,64211,64823,64716.5,65120.07,-505.5,-297.07,-0.029308,-0.014342,1.214674,79.63,1
7458,0,64204,64815,64706.25,65113.97,-502.25,-298.97,-0.02915,-0.014249,1.215323,79.62,1
7469,0,64216,64822,64696.45,65108.13,-480.45,-286.13,-0.028998,-0.014159,1.215924,79.6,1
7479,0,64216,64824,64686.84,65102.45,-470.84,-278.45,-0.02885,-0.014072,1.216515,79.59,1
7488,0,64228,64829,64677.66,65096.98,-449.66,-267.98,-0.028708,-0.013988,1.217052,79.57,1
7499,0,64235,64849,64668.81,65092.03,-433.81,-243.03,-0.028571,-0.013912,1.217619,79.56,1
7508,0,64258,64867,64660.6,65087.53,-402.6,-220.53,-0.028444,-0.013843,1.218134,79.55,1
7518,0,64307,64879,64653.53,65083.35,-346.53,-204.36,-0.028334,-0.013778,1.21848,79.54,1
7529,0,64326,64893,64646.98,65079.55,-320.98,-186.55,-0.028233,-0.01372,1.218791,79.53,1
7538,0,64351,64911,64641.06,65076.18,-290.06,-165.18,-0.028142,-0.013668,1.219062,79.52,1
7547,0,64370,64923,64635.64,65073.12,-265.64,-150.12,-0.028058,-0.013621,1.219297,79.52,1
7559,0,64392,64934,64630.76,65070.33,-238.77,-136.34,-0.027982,-0.013578,1.219489,79.51,1
7568,0,64418,64936,64626.51,65067.65,-208.51,-131.65,-0.027917,-0.013537,1.219613,79.51,1
7579,0,64421,64940,64622.41,65065.1,-201.41,-125.1,-0.027853,-0.013498,1.219734,79.51,1
7588,0,64395,64924,64617.86,65062.28,-222.86,-138.28,-0.027783,-0.013455,1.219881,79.5,1
7598,0,64362,64892,64612.74,65058.87,-250.74,-166.87,-0.027703,-0.013402,1.220031,79.5,1
7609,0,64312,64852,64606.73,65054.73,-294.73,-202.73,-0.02761,-0.013339,1.22021,79.49,1
7618,0,64249,64813,64599.57,65049.9,-350.57,-236.9,-0.0275,-0.013264,1.220474,79.49,1
7629,0,64178,64764,64591.14,65044.19,-413.14,-280.19,-0.027369,-0.013177,1.22083,79.48,1
7639,0,64091,64727,64581.14,65037.84,-490.14,-310.84,-0.027214,-0.013079,1.221442,79.46,1
7648,0,64018,64696,64569.88,65031.01,-551.88,-335.01,-0.02704,-0.012974,1.222304,79.44,1
7659,0,63958,64636,64557.64,65023.11,-599.64,-387.11,-0.02685,-0.012852,1.223166,79.42,1
7668,0,63860,64561,64543.69,65013.87,-683.69,-452.87,-0.026634,-0.01271,1.224189,79.4,1
7678,0,63729,64481,64527.4,65003.21,-798.4,-522.21,-0.026382,-0.012546,1.22563,79.36,1
7689,0,63573,64389,64508.31,64990.93,-935.31,-601.93,-0.026086,-0.012357,1.227691,79.31,1
7698,0,63415,64286,64486.45,64976.83,-1071.45,-690.83,-0.025747,-0.01214,1.23035,79.24,1
7709,0,63270,64199,64462.12,64961.28,-1192.12,-762.28,-0.02537,-0.011901,1.233688,79.16,1
7718,0,63105,64089,64434.98,64943.83,-1329.98,-854.84,-0.024948,-0.011632,1.237713,79.06,1
7729,0,62946,64001,64405.2,64924.98,-1459.2,-923.98,-0.024486,-0.011342,1.242695,78.93,1
7739,0,62782,63909,64372.74,64904.66,-1590.74,-995.66,-0.023982,-0.011029,1.248689,78.78,1
7748,0,62643,63829,64338.15,64883.14,-1695.15,-1054.14,-0.023444,-0.010698,1.255454,78.61,1
7759,0,62532,63769,64302.03,64860.86,-1770.03,-1091.86,-0.022883,-0.010354,1.2628,78.43,1
7769,0,62430,63709,64264.59,64837.83,-1834.59,-1128.83,-0.022301,-0.009999,1.270521,78.24,1
7778,0,62329,63651,64225.88,64814.09,-1896.88,-1163.09,-0.021698,-0.009633,1.278604,78.03,1
7789,0,62240,63610,64186.16,64790.01,-1946.16,-1180.01,-0.021079,-0.009261,1.287114,77.82,1
7798,0,62176,63583,64145.96,64765.87,-1969.96,-1182.87,-0.020453,-0.008888,1.295793,77.61,1
7808,0,62147,63569,64105.98,64741.93,-1958.98,-1172.93,-0.019829,-0.008519,1.304181,77.4,1
7819,0,62144,63574,64066.75,64718.58,-1922.75,-1144.58,-0.019217,-0.008158,1.312165,77.2,1
7828,0,62159,63591,64028.59,64696.03,-1869.59,-1105.03,-0.018622,-0.007809,1.319674,77.01,1
7838,0,62186,63600,63991.74,64674.11,-1805.74,-1074.11,-0.018046,-0.007471,1.326394,76.84,1
7848,0,62218,63621,63956.27,64653.05,-1738.27,-1032.05,-0.017491,-0.007145,1.332535,76.69,1
7859,0,62241,63619,63921.96,64632.37,-1680.96,-1013.37,-0.016955,-0.006825,1.337908,76.55,1
7868,0,62246,63617,63888.44,64612.06,-1642.45,-995.06,-0.01643,-0.006511,1.342868,76.43,1
7879,0,62247,63625,63855.62,64592.32,-1608.62,-967.32,-0.015916,-0.006205,1.347677,76.31,1
7888,0,62246,63620,63823.43,64572.88,-1577.43,-952.88,-0.015412,-0.005904,1.352164,76.2,1
7898,0,62243,63615,63791.82,64553.72,-1548.82,-938.72,-0.014917,-0.005607,1.356382,76.09,1
7909,0,62248,63622,63760.94,64535.09,-1512.95,-913.09,-0.014433,-0.005319,1.360423,75.99,1
7918,0,62253,63617,63730.78,64516.73,-1477.79,-899.73,-0.01396,-0.005034,1.364112,75.9,1
7927,0,62240,63618,63700.97,64498.76,-1460.97,-880.76,-0.013492,-0.004756,1.367818,75.8,1
7939,0,62236,63628,63671.67,64481.34,-1435.67,-853.34,-0.013032,-0.004486,1.37155,75.71,1
7948,0,62240,63619,63643.04,64464.1,-1403.04,-845.1,-0.012582,-0.004218,1.374919,75.63,1
7959,0,62243,63620,63615.04,64447.21,-1372.04,-827.21,-0.012142,-0.003956,1.378106,75.55,1
7968,0,62239,63605,63587.52,64430.37,-1348.52,-825.38,-0.011709,-0.003695,1.380981,75.48,1
7977,0,62218,63610,63560.13,64413.97,-1342.13,-803.97,-0.011278,-0.00344,1.384065,75.4,1
7989,0,62209,63606,63533.1,64397.81,-1324.11,-791.81,-0.010853,-0.003189,1.387068,75.32,1
7998,0,62210,63614,63506.64,64382.14,-1296.64,-768.14,-0.010436,-0.002946,1.390037,75.25,1
8007,0,62222,63622,63480.95,64366.94,-1258.95,-744.94,-0.010032,-0.00271,1.392839,75.18,1
8018,0,62246,63640,63456.26,64352.41,-1210.26,-712.41,-0.009643,-0.002484,1.395473,75.11,1
8028,0,62274,63652,63432.61,64338.4,-1158.61,-686.4,-0.00927,-0.002266,1.397833,75.05,1
8039,0,62320,63693,63410.36,64325.49,-1090.36,-632.49,-0.008919,-0.002066,1.400093,75,1
8048,0,62372,63727,63389.59,64313.52,-1017.59,-586.52,-0.008591,-0.00188,1.402115,74.95,1
8057,0,62441,63768,63370.62,64302.61,-929.63,-534.61,-0.008292,-0.00171,1.403832,74.9,1
8069,0,62508,63810,63353.37,64292.76,-845.38,-482.76,-0.00802,-0.001557,1.405302,74.87,1
8078,0,62583,63847,63337.97,64283.85,-754.97,-436.85,-0.007777,-0.001418,1.406445,74.84,1
8088,0,62635,63887,63323.91,64275.91,-688.91,-388.91,-0.007555,-0.001295,1.40749,74.81,1
8098,0,62658,63877,63310.59,64267.93,-652.59,-390.93,-0.007344,-0.00117,1.408266,74.79,1
8108,0,62654,63857,63297.46,64259.71,-643.46,-402.71,-0.007137,-0.001043,1.408887,74.78,1
8118,0,62603,63817,63283.57,64250.86,-680.57,-433.86,-0.006917,-0.000905,1.409509,74.76,1
8128,0,62538,63765,63268.66,64241.15,-730.66,-476.15,-0.006682,-0.000754,1.410119,74.75,1
8138,0,62445,63710,63252.19,64230.53,-807.19,-520.53,-0.006422,-0.000588,1.41091,74.73,1
8147,0,62337,63647,63233.88,64218.86,-896.88,-571.86,-0.006132,-0.000407,1.411948,74.7,1
8157,0,62235,63579,63213.91,64206.06,-978.91,-627.06,-0.005816,-0.000207,1.413132,74.67,1
8168,0,62109,63491,63191.81,64191.76,-1082.81,-700.76,-0.005466,0.000015,1.414455,74.64,1
8177,0,61970,63403,63167.37,64175.98,-1197.37,-772.98,-0.00508,0.000261,1.416074,74.6,1
8188,0,61819,63311,63140.4,64158.68,-1321.4,-847.68,-0.004653,0.000531,1.418101,74.55,1
8198,0,61656,63199,63110.71,64139.49,-1454.71,-940.49,-0.004182,0.00083,1.420363,74.49,1
8209,0,61479,63090,63078.08,64118.5,-1599.08,-1028.5,-0.003665,0.001157,1.423137,74.42,1
8218,0,61295,62974,63042.42,64095.62,-1747.42,-1121.62,-0.0031,0.001514,1.426403,74.34,1
8227,0,61103,62851,63003.63,64070.73,-1900.63,-1219.73,-0.002484,0.001903,1.43014,74.25,1
8239,0,60906,62740,62961.68,64044.11,-2055.68,-1304.11,-0.001818,0.002318,1.434733,74.13,1
8248,0,60718,62625,62916.81,64015.73,-2198.81,-1390.73,-0.001105,0.002761,1.439876,74,1
8257,0,60543,62519,62869.33,63985.8,-2326.33,-1466.8,-0.00035,0.003229,1.445491,73.86,1
8268,0,60398,62439,62819.91,63954.86,-2421.91,-1515.86,0.000436,0.003713,1.451596,73.71,1
8278,0,60256,62342,62768.63,63922.6,-2512.63,-1580.61,0.001253,0.004217,1.457591,73.56,1
8288,0,60106,62245,62715.38,63889.05,-2609.38,-1644.05,0.002102,0.004742,1.46362,73.41,1
8298,0,59949,62155,62660.05,63854.37,-2711.05,-1699.38,0.002984,0.005285,1.470012,73.25,1
8308,0,59802,62051,62602.89,63818.31,-2800.89,-1767.31,0.003897,0.00585,1.476064,73.1,1
8317,0,59646,61949,62543.76,63780.92,-2897.76,-1831.93,0.004842,0.006436,1.482021,72.95,1
8328,0,59503,61859,62482.94,63742.49,-2979.94,-1883.49,0.005815,0.007039,1.487922,72.8,1
8338,0,59346,61770,62420.2,63703.04,-3074.2,-1933.04,0.006819,0.007658,1.494096,72.65,1
8347,0,59209,61668,62355.98,63662.34,-3146.98,-1994.34,0.007849,0.008297,1.499643,72.51,1
8358,0,59075,61595,62290.36,63620.99,-3215.36,-2025.99,0.008902,0.008947,1.505401,72.36,1
8368,0,58946,61518,62223.48,63578.93,-3277.48,-2060.93,0.009976,0.009608,1.511108,72.22,1
8377,0,58819,61436,62155.39,63536.07,-3336.39,-2100.07,0.011071,0.010283,1.516558,72.09,1
8388,0,58703,61376,62086.34,63492.87,-3383.34,-2116.87,0.012182,0.010963,1.522172,71.95,1
8397,0,58579,61285,62016.19,63448.72,-3437.19,-2163.72,0.013313,0.011658,1.527196,71.82,1
8408,0,58474,61216,61945.35,63404.07,-3471.35,-2188.07,0.014456,0.012362,1.531908,71.7,1
8418,0,58378,61164,61874,63359.26,-3496,-2195.27,0.015608,0.013069,1.536628,71.58,1
8428,0,58289,61103,61802.3,63314.14,-3513.3,-2211.14,0.016768,0.013782,1.54097,71.48,1
8437,0,58187,61033,61730,63268.52,-3543,-2235.52,0.017938,0.014502,1.54497,71.38,1
8449,0,58086,60971,61657.12,63222.57,-3571.12,-2251.57,0.01912,0.015229,1.548848,71.28,1
8458,0,57984,60911,61583.66,63176.34,-3599.66,-2265.34,0.020312,0.01596,1.552682,71.18,1
8467,0,57906,60861,61510.1,63130.03,-3604.11,-2269.03,0.021507,0.016694,1.5563,71.09,1
8478,0,57850,60856,61436.91,63084.55,-3586.91,-2228.55,0.022698,0.017414,1.560448,70.99,1
8487,0,57812,60834,61364.41,63039.54,-3552.41,-2205.54,0.023878,0.018128,1.564368,70.89,1
8498,0,57802,60819,61293.16,62995.13,-3491.16,-2176.13,0.02504,0.018833,1.567799,70.81,1
8508,0,57798,60811,61223.26,62951.45,-3425.26,-2140.45,0.026181,0.019527,1.570859,70.73,1
8517,0,57787,60810,61154.53,62908.62,-3367.53,-2098.62,0.027304,0.020207,1.573845,70.65,1
8527,0,57772,60799,61086.88,62866.43,-3314.88,-2067.43,0.028411,0.020878,1.576617,70.58,1
8538,0,57757,60801,61020.28,62825.12,-3263.29,-2024.12,0.029502,0.021535,1.579455,70.51,1
8548,0,57754,60790,60954.96,62784.42,-3200.96,-1994.42,0.030573,0.022183,1.58194,70.45,1
8557,0,57762,60797,60891.1,62744.67,-3129.1,-1947.68,0.031621,0.022817,1.584304,70.39,1
8568,0,57787,60816,60829.01,62706.1,-3042.02,-1890.11,0.032641,0.023432,1.586564,70.34,1
8578,0,57816,60828,60768.76,62668.54,-2952.76,-1840.54,0.033632,0.024031,1.588561,70.29,1
8587,0,57825,60831,60709.88,62631.79,-2884.88,-1800.79,0.034602,0.024617,1.590399,70.24,1
8598,0,57839,60838,60652.47,62595.92,-2813.47,-1757.92,0.035548,0.02519,1.592104,70.2,1
8607,0,57835,60829,60596.12,62560.58,-2761.12,-1731.58,0.036477,0.025755,1.593626,70.16,1
8617,0,57811,60821,60540.42,62525.79,-2729.42,-1704.79,0.037397,0.026311,1.595211,70.12,1
8627,0,57797,60813,60485.55,62491.53,-2688.55,-1678.54,0.038304,0.026859,1.596748,70.08,1
8638,0,57772,60803,60431.28,62457.76,-2659.28,-1654.77,0.039201,0.0274,1.598324,70.04,1
8647,0,57763,60794,60377.92,62424.49,-2614.92,-1630.49,0.040085,0.027933,1.599788,70.01,1
8656,0,57754,60793,60325.44,62391.86,-2571.44,-1598.86,0.040954,0.028455,1.601264,69.97,1
8668,0,57754,60790,60274.01,62359.83,-2520.01,-1569.83,0.041807,0.028969,1.602635,69.93,1
8677,0,57745,60783,60223.42,62328.29,-2478.43,-1545.29,0.042647,0.029475,1.603937,69.9,1
8687,0,57711,60766,60173.17,62297.05,-2462.18,-1531.05,0.043482,0.029976,1.605273,69.87,1
8697,0,57688,60738,60123.48,62265.87,-2435.48,-1527.87,0.044308,0.030477,1.606386,69.84,1
8708,0,57653,60718,60074.07,62234.91,-2421.07,-1516.91,0.04513,0.030974,1.607508,69.81,1
8717,0,57627,60708,60025.12,62204.37,-2398.12,-1496.38,0.045945,0.031465,1.60869,69.78,1
8728,0,57611,60700,59976.84,62174.29,-2365.84,-1474.29,0.04675,0.031949,1.609866,69.75,1
8737,0,57598,60688,59929.27,62144.57,-2331.27,-1456.57,0.047543,0.032427,1.610957,69.73,1
8747,0,57570,60662,59882.08,62114.91,-2312.08,-1452.91,0.048331,0.032904,1.611916,69.7,1
8758,0,57537,60643,59835.18,62085.48,-2298.18,-1442.48,0.049114,0.033378,1.612884,69.68,1
8767,0,57484,60612,59788.16,62056.01,-2304.16,-1444.01,0.049901,0.033853,1.613881,69.65,1
8777,0,57434,60573,59741.07,62026.35,-2307.07,-1453.35,0.050688,0.034331,1.614774,69.63,1
8787,0,57396,60568,59694.17,61997.18,-2298.17,-1429.18,0.051474,0.034801,1.615902,69.6,1
8797,0,57382,60559,59647.93,61968.42,-2265.93,-1409.42,0.052249,0.035265,1.616997,69.58,1
8807,0,57379,60546,59602.55,61939.98,-2223.55,-1393.98,0.05301,0.035725,1.617915,69.55,1
8817,0,57386,60558,59558.22,61912.34,-2172.22,-1354.34,0.053754,0.036171,1.618892,69.53,1
8827,0,57388,60562,59514.82,61885.33,-2126.82,-1323.33,0.054483,0.036607,1.619868,69.5,1
8837,0,57402,60562,59472.56,61858.86,-2070.56,-1296.86,0.055193,0.037035,1.6207,69.48,1
8848,0,57417,60587,59431.45,61833.42,-2014.45,-1246.43,0.055885,0.037446,1.621675,69.46,1
8857,0,57441,60601,59391.64,61808.78,-1950.64,-1207.78,0.056555,0.037845,1.622591,69.44,1
8866,0,57479,60610,59353.39,61784.8,-1874.39,-1174.8,0.057199,0.038233,1.623297,69.42,1
8878,0,57499,60639,59316.3,61761.89,-1817.3,-1122.89,0.057824,0.038604,1.624143,69.4,1
8887,0,57534,60651,59280.66,61739.67,-1746.66,-1088.67,0.058425,0.038964,1.624843,69.38,1
8897,0,57568,60667,59246.4,61718.21,-1678.4,-1051.21,0.059003,0.039311,1.625453,69.36,1
8907,0,57577,60667,59213.01,61697.19,-1636.02,-1030.19,0.059567,0.039652,1.625988,69.35,1
8918,0,57582,60668,59180.4,61676.61,-1598.4,-1008.61,0.060118,0.039986,1.626486,69.34,1
8927,0,57574,60657,59148.27,61656.22,-1574.27,-999.22,0.060661,0.040316,1.626918,69.33,1
8937,0,57560,60653,59116.51,61636.15,-1556.51,-983.15,0.061198,0.040642,1.627391,69.32,1
8947,0,57525,60636,59084.68,61616.15,-1559.68,-980.15,0.061737,0.040966,1.627913,69.3,1
8956,0,57497,60600,59052.93,61595.83,-1555.93,-995.83,0.062274,0.041296,1.62826,69.29,1
8968,0,57454,60580,59020.95,61575.51,-1566.95,-995.52,0.062816,0.041626,1.628682,69.28,1
8977,0,57395,60520,58988.43,61554.41,-1593.43,-1034.41,0.063367,0.041969,1.62889,69.28,1
8987,0,57309,60463,58954.84,61532.58,-1645.84,-1069.58,0.063936,0.042323,1.629088,69.27,1
8997,0,57192,60387,58919.58,61509.67,-1727.59,-1122.67,0.064535,0.042696,1.62929,69.27,1
9007,0,57081,60314,58882.82,61485.76,-1801.82,-1171.76,0.065159,0.043085,1.629484,69.26,1
9016,0,56964,60235,58844.44,61460.74,-1880.44,-1225.74,0.065811,0.043492,1.629646,69.26,1
9027,0,56839,60163,58804.33,61434.79,-1965.34,-1271.79,0.066493,0.043914,1.629923,69.25,1
9036,0,56722,60093,58762.69,61407.95,-2040.69,-1314.95,0.067201,0.044351,1.63028,69.24,1
9047,0,56635,60056,58720.14,61380.92,-2085.14,-1324.92,0.067926,0.044791,1.63089,69.23,1
9057,0,56567,60015,58677.07,61353.6,-2110.07,-1338.6,0.068659,0.045236,1.631536,69.21,1
9067,0,56519,59976,58633.91,61326.05,-2114.91,-1350.05,0.069395,0.045686,1.632072,69.2,1
9076,0,56449,59923,58590.22,61297.99,-2141.22,-1374.99,0.07014,0.046143,1.632506,69.19,1
9088,0,56349,59865,58545.39,61269.33,-2196.39,-1404.34,0.070906,0.046611,1.633035,69.17,1
9097,0,56269,59824,58499.87,61240.43,-2230.87,-1416.43,0.071684,0.047083,1.633712,69.16,1
9106,0,56198,59776,58453.83,61211.14,-2255.83,-1435.14,0.072471,0.047561,1.634357,69.14,1
9117,0,56127,59736,58407.3,61181.64,-2280.3,-1445.64,0.073267,0.048043,1.635081,69.12,1
9126,0,56052,59698,58360.19,61151.96,-2308.19,-1453.96,0.074074,0.048528,1.635947,69.1,1
9137,0,55981,59653,58312.61,61121.98,-2331.61,-1468.98,0.07489,0.049019,1.636818,69.08,1
9147,0,55926,59621,58264.88,61091.97,-2338.88,-1470.97,0.075709,0.04951,1.637725,69.06,1
9156,0,55882,59587,58217.22,61061.87,-2335.22,-1474.87,0.076527,0.050003,1.638538,69.04,1
9166,0,55845,59582,58169.78,61032.27,-2324.78,-1450.27,0.077342,0.050488,1.639598,69.01,1
9177,0,55828,59566,58122.94,61002.95,-2294.94,-1436.95,0.078148,0.050968,1.640557,68.99,1
9187,0,55801,59542,58076.5,60973.73,-2275.5,-1431.73,0.078947,0.051447,1.641405,68.96,1
9196,0,55772,59515,58030.42,60944.56,-2258.42,-1429.56,0.079741,0.051926,1.642122,68.95,1
9207,0,55741,59497,57984.63,60915.61,-2243.63,-1418.61,0.08053,0.052401,1.642854,68.93,1
9217,0,55707,59469,57939.08,60886.67,-2232.08,-1417.68,0.081316,0.052876,1.643492,68.91,1
9226,0,55675,59442,57893.8,60857.78,-2218.8,-1415.79,0.082098,0.053351,1.644036,68.9,1
9237,0,55629,59421,57848.5,60829.05,-2219.5,-1408.05,0.082881,0.053823,1.644691,68.88,1
9246,0,55592,59394,57803.37,60800.35,-2211.37,-1406.35,0.083661,0.054295,1.645296,68.87,1
9256,0,55546,59357,57758.23,60771.48,-2212.23,-1414.48,0.084442,0.05477,1.645798,68.86,1
9267,0,55500,59328,57713.06,60742.61,-2213.06,-1414.61,0.085225,0.055245,1.646306,68.84,1
9277,0,55445,59294,57667.7,60713.64,-2222.7,-1419.64,0.086011,0.055722,1.646833,68.83,1
9286,0,55383,59238,57622.01,60684.13,-2239.01,-1446.13,0.086804,0.056208,1.647143,68.82,1
9296,0,55296,59176,57575.49,60653.97,-2279.49,-1477.97,0.087611,0.056705,1.647378,68.82,1
9307,0,55198,59106,57527.94,60623.01,-2329.95,-1517.01,0.088437,0.057216,1.647525,68.81,1
9316,0,55095,59037,57479.28,60591.29,-2384.29,-1554.29,0.089284,0.057739,1.647646,68.81,1
9327,0,54987,58996,57429.44,60559.38,-2442.44,-1563.38,0.090151,0.058266,1.648198,68.8,1
9336,0,54911,58962,57379.07,60527.43,-2468.07,-1565.43,0.091029,0.058794,1.648968,68.78,1
9346,0,54844,58925,57328.37,60495.39,-2484.37,-1570.39,0.091913,0.059323,1.649823,68.75,1
9357,0,54799,58904,57277.78,60463.56,-2478.78,-1559.56,0.092795,0.05985,1.650778,68.73,1
9366,0,54754,58893,57227.3,60432.15,-2473.3,-1539.15,0.093677,0.060369,1.651971,68.7,1
9376,0,54706,58866,57176.88,60400.83,-2470.88,-1534.83,0.094559,0.060888,1.653195,68.67,1
9387,0,54674,58848,57126.82,60369.77,-2452.82,-1521.77,0.095434,0.061402,1.654423,68.64,1
9397,0,54641,58827,57077.11,60338.92,-2436.11,-1511.92,0.096305,0.061913,1.655623,68.61,1
9406,0,54614,58807,57027.85,60308.28,-2413.85,-1501.28,0.097169,0.062421,1.656755,68.58,1
9417,0,54584,58806,56978.97,60278.24,-2394.97,-1472.24,0.098026,0.062919,1.658106,68.55,1
9426,0,54566,58788,56930.71,60248.44,-2364.71,-1460.44,0.098873,0.063414,1.65933,68.52,1
9436,0,54529,58769,56882.68,60218.85,-2353.68,-1449.85,0.099717,0.063905,1.66059,68.49,1
9447,0,54498,58759,56834.99,60189.65,-2336.99,-1430.65,0.100556,0.06439,1.661947,68.45,1
9456,0,54465,58741,56787.59,60160.68,-2322.59,-1419.68,0.10139,0.064871,1.663313,68.42,1
9465,0,54429,58718,56740.42,60131.83,-2311.42,-1413.83,0.102221,0.065351,1.664647,68.38,1
9477,0,54393,58710,56693.47,60103.39,-2300.47,-1393.39,0.103049,0.065824,1.666144,68.35,1
9486,0,54352,58694,56646.64,60075.2,-2294.64,-1381.2,0.103876,0.066293,1.667738,68.31,1
9496,0,54310,58664,56599.91,60046.98,-2289.91,-1382.98,0.104701,0.066763,1.669258,68.27,1
9506,0,54263,58645,56553.17,60018.94,-2290.17,-1373.94,0.105527,0.06723,1.670888,68.23,1
9517,0,54208,58614,56506.27,59990.84,-2298.27,-1376.84,0.106357,0.067698,1.672543,68.19,1
9526,0,54141,58586,56458.96,59962.75,-2317.96,-1376.75,0.107194,0.068167,1.674365,68.14,1
9537,0,54081,58560,56411.41,59934.69,-2330.41,-1374.69,0.108037,0.068635,1.676314,68.09,1
9546,0,54009,58534,56363.36,59906.68,-2354.36,-1372.68,0.108889,0.069102,1.678493,68.04,1
9555,0,53959,58515,56315.27,59878.85,-2356.27,-1363.85,0.109742,0.069567,1.680789,67.98,1
9567,0,53895,58501,56266.87,59851.29,-2371.87,-1350.29,0.110602,0.070027,1.683384,67.92,1
9576,0,53838,58484,56218.29,59823.95,-2380.29,-1339.95,0.111466,0.070484,1.68617,67.85,1
9586,0,53779,58461,56169.51,59796.69,-2390.51,-1335.69,0.112334,0.07094,1.689085,67.77,1
9596,0,53706,58457,56120.24,59769.9,-2414.24,-1312.9,0.113212,0.071388,1.692486,67.69,1
9606,0,53637,58474,56070.57,59743.98,-2433.57,-1269.98,0.114097,0.071822,1.696573,67.59,1
9616,0,53622,58534,56021.6,59719.78,-2399.61,-1185.78,0.114971,0.072227,1.701311,67.47,1
9626,0,53632,58624,55973.82,59697.87,-2341.82,-1073.87,0.115824,0.072594,1.706726,67.33,1
9636,0,53649,58716,55927.32,59678.23,-2278.32,-962.23,0.116655,0.072923,1.712675,67.18,1
9646,0,53685,58844,55882.47,59661.55,-2197.47,-817.55,0.117457,0.073203,1.719203,67.02,1
9657,0,53728,58973,55839.38,59647.78,-2111.38,-674.78,0.118229,0.073433,1.726102,66.85,1
9666,0,53783,59075,55798.26,59636.32,-2015.26,-561.32,0.118966,0.073625,1.732973,66.68,1
9676,0,53821,59186,55758.71,59627.32,-1937.71,-441.32,0.119675,0.073777,1.739914,66.5,1
9687,0,53860,59282,55720.74,59620.41,-1860.74,-338.41,0.120356,0.073892,1.746757,66.33,1
9696,0,53915,59375,55684.62,59615.5,-1769.63,-240.5,0.121004,0.073975,1.753307,66.17,1
9706,0,53977,59502,55650.47,59613.23,-1673.47,-111.23,0.121618,0.074013,1.759523,66.01,1
9716,0,54059,59630,55618.64,59613.57,-1559.64,16.43,0.12219,0.074007,1.765152,65.87,1
9725,0,54142,59758,55589.11,59616.46,-1447.11,141.54,0.122721,0.073959,1.770075,65.75,1
9737,0,54214,59859,55561.61,59621.32,-1347.61,237.68,0.123216,0.073877,1.7743,65.64,1
9746,0,54302,59981,55536.42,59628.51,-1234.42,352.49,0.123669,0.073756,1.77762,65.56,1
9756,0,54393,60107,55513.55,59638.08,-1120.55,468.92,0.124081,0.073596,1.779917,65.5,1
9766,0,54472,60197,55492.73,59649.26,-1020.73,547.74,0.124456,0.073409,1.781351,65.47,1
9776,0,54544,60284,55473.75,59661.96,-929.75,622.04,0.124798,0.073196,1.781944,65.45,1
9786,0,54607,60352,55456.42,59675.76,-849.42,676.24,0.125111,0.072964,1.781841,65.45,1
9796,0,54666,60421,55440.61,59690.66,-774.61,730.34,0.125396,0.072715,1.781048,65.47,1
9806,0,54722,60486,55426.24,59706.57,-704.24,779.43,0.125655,0.072448,1.779603,65.51,1
9816,0,54767,60531,55413.06,59723.06,-646.06,807.94,0.125893,0.072172,1.777711,65.56,1
9826,0,54812,60580,55401.03,59740.2,-589.04,839.8,0.12611,0.071885,1.775348,65.62,1
9836,0,54856,60618,55390.14,59757.76,-534.14,860.24,0.126307,0.071591,1.772624,65.68,1
9845,0,54899,60662,55380.32,59775.84,-481.32,886.16,0.126484,0.071289,1.769498,65.76,1
9857,0,54944,60724,55371.59,59794.81,-427.59,929.19,0.126642,0.070971,1.765804,65.85,1
9866,0,54993,60795,55364.02,59814.81,-371.02,980.19,0.126778,0.070637,1.761442,65.96,1
9875,0,55037,60856,55357.48,59835.64,-320.48,1020.36,0.126897,0.070289,1.756532,66.09,1
9886,0,55102,60907,55352.37,59857.07,-250.37,1049.93,0.126989,0.069931,1.751154,66.22,1
9895,0,55151,60964,55348.34,59879.21,-197.34,1084.79,0.127062,0.069561,1.745288,66.37,1
9907,0,55200,61020,55345.37,59902.02,-145.38,1117.98,0.127115,0.06918,1.73896,66.53,1
9916,0,55248,61062,55343.43,59925.22,-95.43,1136.78,0.12715,0.068793,1.732353,66.69,1
9925,0,55280,61091,55342.16,59948.54,-62.16,1142.46,0.127173,0.068404,1.725658,66.86,1
9936,0,55318,61123,55341.68,59972.03,-23.68,1150.97,0.127182,0.068012,1.718841,67.03,1
9946,0,55351,61152,55341.87,59995.63,9.13,1156.37,0.127179,0.067619,1.711952,67.2,1
9956,0,55376,61174,55342.55,60019.2,33.45,1154.8,0.127166,0.067226,1.705088,67.37,1
9966,0,55405,61196,55343.8,60042.73,61.2,1153.27,0.127144,0.066834,1.698248,67.54,1
9975,0,55426,61214,55345.44,60066.16,80.55,1147.84,0.127114,0.066444,1.691488,67.71,1
9986,0,55432,61211,55347.18,60089.06,84.82,1121.94,0.127083,0.066063,1.685056,67.87,1
9996,0,55446,61219,55349.16,60111.66,96.84,1107.34,0.127047,0.065687,1.678805,68.03,1
10006,0,55461,61221,55351.39,60133.84,109.61,1087.16,0.127006,0.065318,1.672797,68.18,1
10015,0,55460,61217,55353.57,60155.51,106.43,1061.49,0.126967,0.064957,1.667088,68.32,1
10025,0,55461,61202,55355.71,60176.44,105.29,1025.56,0.126928,0.064609,1.661777,68.46,1
10036,0,55454,61191,55357.68,60196.73,96.32,994.27,0.126893,0.064272,1.656799,68.58,1
10045,0,55452,61176,55359.57,60216.32,92.43,959.68,0.126859,0.063947,1.652173,68.7,1
10056,0,55442,61180,55361.21,60235.59,80.79,944.41,0.126829,0.063627,1.647695,68.81,1
10065,0,55442,61172,55362.83,60254.32,79.17,917.68,0.1268,0.063316,1.643472,68.91,1
10075,0,55440,61172,55364.38,60272.68,75.62,899.32,0.126772,0.063011,1.639416,69.01,1
10086,0,55444,61175,55365.97,60290.73,78.03,884.27,0.126743,0.062712,1.63549,69.11,1
10095,0,55447,61169,55367.59,60308.29,79.41,860.71,0.126714,0.062421,1.63177,69.21,1
10106,0,55450,61161,55369.24,60325.35,80.76,835.65,0.126684,0.062138,1.628263,69.29,1
10116,0,55449,61154,55370.84,60341.92,78.16,812.08,0.126655,0.061863,1.624949,69.38,1
10126,0,55441,61156,55372.25,60358.21,68.75,797.79,0.12663,0.061593,1.621746,69.46,1
10135,0,55436,61135,55373.52,60373.74,62.48,761.26,0.126607,0.061336,1.618834,69.53,1
10145,0,55422,61124,55374.49,60388.75,47.51,735.25,0.126589,0.061087,1.61612,69.6,1
10156,0,55411,61096,55375.22,60402.9,35.78,693.1,0.126576,0.060853,1.613718,69.66,1
10165,0,55399,61082,55375.7,60416.48,23.3,665.52,0.126567,0.060628,1.611508,69.71,1
10176,0,55388,61070,55375.95,60429.55,12.05,640.45,0.126563,0.060412,1.609465,69.76,1
10185,0,55377,61048,55375.97,60441.92,1.03,606.08,0.126563,0.060207,1.607645,69.81,1
10195,0,55363,61030,55375.71,60453.69,-12.71,576.31,0.126567,0.060013,1.606011,69.85,1
10206,0,55349,61008,55375.18,60464.77,-26.18,543.23,0.126577,0.059829,1.604574,69.89,1
10216,0,55336,60997,55374.39,60475.42,-38.39,521.58,0.126591,0.059653,1.603259,69.92,1
10225,0,55325,60989,55373.41,60485.69,-48.41,503.3,0.126609,0.059483,1.602044,69.95,1
10234,0,55309,60969,55372.12,60495.36,-63.12,473.64,0.126632,0.059324,1.600989,69.98,1
10246,0,55306,60961,55370.8,60504.67,-64.8,456.32,0.126656,0.05917,1.600014,70,1
10255,0,55299,60944,55369.36,60513.46,-70.36,430.54,0.126682,0.059024,1.599162,70.02,1
10266,0,55287,60933,55367.71,60521.85,-80.71,411.15,0.126712,0.058886,1.598401,70.04,1
10275,0,55275,60926,55365.86,60529.93,-90.86,396.07,0.126745,0.058752,1.597711,70.06,1
10286,0,55275,60926,55364.05,60537.85,-89.05,388.14,0.126778,0.058621,1.597045,70.07,1
10296,0,55277,60926,55362.3,60545.62,-85.3,380.38,0.126809,0.058493,1.596401,70.09,1
10305,0,55268,60927,55360.42,60553.25,-92.42,373.75,0.126843,0.058367,1.595786,70.11,1
10315,0,55273,60916,55358.67,60560.5,-85.67,355.5,0.126875,0.058247,1.595232,70.12,1
10324,0,55266,60913,55356.82,60567.56,-90.82,345.44,0.126908,0.058131,1.594717,70.13,1
10336,0,55261,60900,55354.9,60574.21,-93.9,325.79,0.126943,0.058021,1.594275,70.14,1
10345,0,55258,60891,55352.96,60580.54,-94.96,310.46,0.126978,0.057917,1.593886,70.15,1
10356,0,55250,60888,55350.91,60586.69,-100.91,301.3,0.127015,0.057815,1.59353,70.16,1
10365,0,55245,60872,55348.79,60592.4,-103.79,279.6,0.127053,0.057721,1.593246,70.17,1
10375,0,55230,60859,55346.41,60597.73,-116.41,261.27,0.127096,0.057633,1.593032,70.17,1
10386,0,55228,60855,55344.05,60602.88,-116.05,252.12,0.127139,0.057548,1.592842,70.18,1
10395,0,55215,60837,55341.47,60607.57,-126.47,229.43,0.127186,0.057471,1.592725,70.18,1
10406,0,55210,60832,55338.84,60612.06,-128.84,219.94,0.127233,0.057396,1.592634,70.18,1
10416,0,55201,60812,55336.08,60616.06,-135.08,195.94,0.127283,0.05733,1.592607,70.18,1
10425,0,55185,60790,55333.06,60619.54,-148.06,170.46,0.127338,0.057273,1.592652,70.18,1
10436,0,55169,60783,55329.78,60622.81,-160.78,160.19,0.127397,0.057219,1.592735,70.18,1
10445,0,55156,60755,55326.31,60625.46,-170.31,129.54,0.12746,0.057175,1.592882,70.18,1
10455,0,55139,60737,55322.57,60627.69,-183.57,109.31,0.127527,0.057139,1.593078,70.17,1
10466,0,55122,60720,55318.56,60629.53,-196.56,90.46,0.1276,0.057108,1.593317,70.17,1
10475,0,55105,60693,55314.29,60630.8,-209.29,62.2,0.127677,0.057087,1.5936,70.16,1
10485,0,55081,60676,55309.62,60631.71,-228.63,44.29,0.127761,0.057072,1.593932,70.15,1
10496,0,55073,60662,55304.89,60632.32,-231.89,29.68,0.127847,0.057062,1.594273,70.14,1
10505,0,55053,60641,55299.85,60632.49,-246.86,8.51,0.127938,0.057059,1.594646,70.13,1
10515,0,55043,60632,55294.72,60632.48,-251.72,-0.48,0.128031,0.05706,1.595029,70.12,1
10524,0,55031,60630,55289.44,60632.44,-258.45,-2.44,0.128126,0.05706,1.59543,70.11,1
10535,0,55025,60628,55284.16,60632.35,-259.16,-4.35,0.128222,0.057062,1.595834,70.1,1
10545,0,55018,60613,55278.83,60631.96,-260.83,-18.96,0.128318,0.057068,1.596235,70.09,1
10556,0,55014,60606,55273.54,60631.45,-259.54,-25.45,0.128414,0.057077,1.596629,70.08,1
10565,0,55001,60593,55268.09,60630.68,-267.09,-37.68,0.128513,0.057089,1.597033,70.07,1
10575,0,54999,60590,55262.71,60629.87,-263.71,-39.87,0.12861,0.057103,1.597428,70.06,1
10585,0,54988,60575,55257.22,60628.77,-269.22,-53.77,0.128709,0.057121,1.597822,70.05,1
10595,0,54972,60561,55251.51,60627.41,-279.52,-66.41,0.128812,0.057143,1.598227,70.04,1
10605,0,54964,60548,55245.77,60625.83,-281.77,-77.83,0.128916,0.057169,1.598622,70.03,1
10614,0,54956,60536,55239.98,60624.03,-283.98,-88.03,0.129021,0.057199,1.599005,70.02,1
10626,0,54947,60534,55234.12,60622.23,-287.12,-88.23,0.129127,0.057229,1.5994,70.02,1
10635,0,54945,60539,55228.34,60620.57,-283.34,-81.57,0.129232,0.057256,1.5998,70.01,1
10646,0,54942,60542,55222.61,60619,-280.61,-77,0.129336,0.057282,1.600203,69.99,1
10655,0,54952,60538,55217.2,60617.38,-265.2,-79.38,0.129434,0.057309,1.60056,69.99,1
10664,0,54952,60553,55211.89,60616.09,-259.89,-63.09,0.12953,0.05733,1.600934,69.98,1
10675,0,54951,60558,55206.67,60614.93,-255.68,-56.93,0.129624,0.057349,1.601309,69.97,1
10685,0,54961,60555,55201.76,60613.73,-240.76,-58.73,0.129713,0.057369,1.601643,69.96,1
10695,0,54959,60570,55196.91,60612.86,-237.91,-42.86,0.129801,0.057383,1.601994,69.95,1
10704,0,54968,60568,55192.33,60611.96,-224.33,-43.96,0.129884,0.057398,1.60231,69.94,1
10716,0,54968,60572,55187.84,60611.16,-219.84,-39.16,0.129966,0.057411,1.602624,69.93,1
10725,0,54964,60565,55183.37,60610.24,-219.37,-45.24,0.130047,0.057426,1.602929,69.93,1
10734,0,54964,60567,55178.98,60609.38,-214.98,-42.38,0.130126,0.057441,1.603229,69.92,1
10745,0,54954,60562,55174.48,60608.43,-220.48,-46.43,0.130208,0.057456,1.60354,69.91,1
10755,0,54953,60552,55170.05,60607.3,-217.05,-55.3,0.130288,0.057475,1.60383,69.9,1
10765,0,54946,60540,55165.58,60605.96,-219.58,-65.96,0.130369,0.057497,1.60411,69.9,1
10775,0,54943,60538,55161.13,60604.6,-218.13,-66.6,0.13045,0.057519,1.604387,69.89,1
10785,0,54948,60540,55156.87,60603.31,-208.87,-63.31,0.130527,0.057541,1.604647,69.88,1
10795,0,54945,60535,55152.63,60601.94,-207.63,-66.95,0.130604,0.057563,1.604898,69.88,1
10804,0,54940,60539,55148.38,60600.69,-208.38,-61.69,0.130681,0.057584,1.605163,69.87,1
10815,0,54932,60532,55144.05,60599.32,-212.05,-67.32,0.130759,0.057607,1.60543,69.86,1
10824,0,54927,60513,55139.71,60597.59,-212.71,-84.59,0.130838,0.057635,1.605662,69.86,1
10835,0,54920,60511,55135.32,60595.86,-215.32,-84.86,0.130918,0.057664,1.605902,69.85,1
10845,0,54926,60506,55131.13,60594.07,-205.13,-88.07,0.130994,0.057693,1.606107,69.85,1
10855,0,54916,60507,55126.83,60592.33,-210.83,-85.33,0.131072,0.057722,1.606337,69.84,1
10865,0,54917,60500,55122.64,60590.48,-205.64,-90.48,0.131148,0.057752,1.606541,69.84,1
10874,0,54913,60510,55118.44,60588.87,-205.45,-78.87,0.131224,0.057779,1.606773,69.83,1
10885,0,54913,60499,55114.34,60587.08,-201.34,-88.08,0.131298,0.057809,1.606974,69.83,1
10894,0,54903,60482,55110.11,60584.98,-207.11,-102.98,0.131375,0.057843,1.607151,69.82,1
10905,0,54895,60482,55105.81,60582.92,-210.81,-100.92,0.131453,0.057877,1.607346,69.82,1
10914,0,54887,60476,55101.43,60580.78,-214.43,-104.78,0.131533,0.057913,1.607541,69.81,1
10925,0,54885,60468,55097.1,60578.53,-212.11,-110.53,0.131611,0.05795,1.607713,69.81,1
10935,0,54877,60465,55092.7,60576.26,-215.7,-111.26,0.131691,0.057987,1.607894,69.8,1
10944,0,54879,60456,55088.43,60573.85,-209.43,-117.86,0.131769,0.058027,1.608035,69.8,1
10955,0,54880,60464,55084.26,60571.66,-204.27,-107.66,0.131844,0.058063,1.608196,69.8,1
10964,0,54874,60456,55080.06,60569.35,-206.06,-113.35,0.13192,0.058101,1.608343,69.79,1
10974,0,54873,60456,55075.92,60567.08,-202.92,-111.08,0.131996,0.058139,1.608491,69.79,1
10985,0,54874,60445,55071.89,60564.64,-197.89,-119.64,0.132069,0.058179,1.608595,69.79,1
10994,0,54860,60433,55067.65,60562.01,-207.65,-129.01,0.132146,0.058223,1.608693,69.78,1
11005,0,54858,60429,55063.46,60559.35,-205.46,-130.35,0.132222,0.058267,1.60878,69.78,1
11015,0,54851,60415,55059.21,60556.46,-208.21,-141.46,0.132299,0.058314,1.608831,69.78,1
11024,0,54843,60402,55054.88,60553.37,-211.88,-151.37,0.132378,0.058365,1.60885,69.78,1
11035,0,54831,60399,55050.41,60550.28,-219.41,-151.29,0.132459,0.058416,1.608893,69.78,1
11044,0,54826,60391,55045.92,60547.1,-219.92,-156.1,0.132541,0.058469,1.608916,69.78,1
11054,0,54821,60373,55041.42,60543.62,-220.42,-170.62,0.132622,0.058526,1.608868,69.78,1
11065,0,54807,60354,55036.73,60539.83,-229.73,-185.83,0.132707,0.058589,1.60877,69.78,1
11074,0,54797,60339,55031.94,60535.81,-234.94,-196.81,0.132794,0.058655,1.608625,69.78,1
11085,0,54785,60328,55027,60531.66,-242,-203.66,0.132884,0.058724,1.608463,69.79,1
11095,0,54774,60313,55021.94,60527.28,-247.95,-214.29,0.132976,0.058796,1.608253,69.79,1
11104,0,54760,60281,55016.71,60522.36,-256.71,-241.36,0.133071,0.058877,1.607887,69.8,1
11115,0,54740,60264,55011.17,60517.2,-271.18,-253.2,0.133172,0.058963,1.607487,69.81,1
11124,0,54720,60245,55005.35,60511.75,-285.35,-266.75,0.133278,0.059053,1.607036,69.82,1
11134,0,54706,60226,54999.37,60506.04,-293.37,-280.04,0.133387,0.059147,1.606505,69.84,1
11145,0,54699,60209,54993.36,60500.1,-294.36,-291.1,0.133496,0.059245,1.605876,69.85,1
11154,0,54681,60193,54987.12,60493.96,-306.12,-300.96,0.133609,0.059347,1.605206,69.87,1
11164,0,54670,60180,54980.77,60487.68,-310.77,-307.68,0.133725,0.059451,1.60449,69.89,1
11174,0,54658,60164,54974.32,60481.21,-316.32,-317.21,0.133842,0.059558,1.603702,69.91,1
11184,0,54644,60144,54967.71,60474.46,-323.71,-330.46,0.133962,0.059669,1.60281,69.93,1
11195,0,54628,60118,54960.92,60467.33,-332.92,-349.34,0.134086,0.059787,1.601755,69.96,1
11204,0,54613,60099,54953.96,60459.97,-340.96,-360.97,0.134212,0.059909,1.600605,69.98,1
11214,0,54593,60066,54946.75,60452.09,-353.75,-386.09,0.134344,0.060039,1.599217,70.02,1
11225,0,54570,60046,54939.21,60443.98,-369.21,-397.98,0.134481,0.060173,1.597763,70.06,1
11234,0,54549,60017,54931.41,60435.44,-382.41,-418.44,0.134623,0.060315,1.596111,70.1,1
11244,0,54523,59992,54923.24,60426.57,-400.24,-434.57,0.134772,0.060461,1.594342,70.14,1
11254,0,54502,59966,54914.82,60417.36,-412.82,-451.36,0.134925,0.060614,1.592408,70.19,1
11265,0,54489,59945,54906.3,60407.91,-417.3,-462.91,0.13508,0.06077,1.590325,70.24,1
11275,0,54471,59930,54897.59,60398.35,-426.59,-468.36,0.135239,0.060928,1.588218,70.29,1
11284,0,54455,59910,54888.75,60388.59,-433.75,-478.59,0.1354,0.06109,1.585997,70.35,1
11294,0,54443,59881,54879.83,60378.44,-436.83,-497.44,0.135562,0.061258,1.583489,70.41,1
11304,0,54426,59870,54870.76,60368.27,-444.76,-498.27,0.135728,0.061427,1.581022,70.47,1
11314,0,54419,59852,54861.72,60357.95,-442.72,-505.95,0.135892,0.061598,1.578408,70.54,1
11325,0,54397,59846,54852.43,60347.71,-455.43,-501.71,0.136062,0.061767,1.575959,70.6,1
11334,0,54383,59822,54843.04,60337.2,-460.04,-515.2,0.136233,0.061942,1.573314,70.67,1
11344,0,54372,59801,54833.62,60326.48,-461.63,-525.48,0.136405,0.062119,1.5705,70.74,1
11355,0,54353,59786,54824.01,60315.67,-471.01,-529.67,0.13658,0.062298,1.567687,70.81,1
11364,0,54347,59768,54814.47,60304.71,-467.47,-536.71,0.136754,0.06248,1.564717,70.88,1
11374,0,54329,59751,54804.76,60293.64,-475.76,-542.64,0.136931,0.062664,1.561709,70.96,1
11384,0,54317,59739,54795.01,60282.55,-478.01,-543.55,0.137109,0.062848,1.558704,71.03,1
11394,0,54315,59730,54785.41,60271.5,-470.41,-541.5,0.137284,0.063031,1.555675,71.11,1
11405,0,54313,59748,54775.96,60261.03,-462.96,-513.04,0.137457,0.063205,1.553095,71.17,1
11414,0,54319,59769,54766.82,60251.19,-447.82,-482.2,0.137624,0.063368,1.550914,71.23,1
11424,0,54334,59788,54758.17,60241.93,-424.17,-453.93,0.137782,0.063522,1.548998,71.28,1
11435,0,54362,59820,54750.24,60233.5,-388.24,-413.5,0.137926,0.063662,1.547417,71.31,1
11444,0,54384,59857,54742.92,60225.97,-358.92,-368.97,0.13806,0.063787,1.546235,71.34,1
11454,0,54408,59884,54736.22,60219.13,-328.22,-335.13,0.138183,0.0639,1.54527,71.37,1
11464,0,54428,59919,54730.06,60213.12,-302.06,-294.13,0.138295,0.064,1.544602,71.38,1
11473,0,54447,59937,54724.4,60207.6,-277.4,-270.6,0.138399,0.064092,1.544032,71.4,1
11485,0,54464,59968,54719.19,60202.81,-255.19,-234.81,0.138494,0.064171,1.543673,71.41,1
11494,0,54488,59991,54714.57,60198.57,-226.57,-207.57,0.138578,0.064242,1.543397,71.42,1
11503,0,54497,60003,54710.22,60194.66,-213.22,-191.66,0.138658,0.064307,1.543179,71.42,1
11514,0,54508,60030,54706.18,60191.37,-198.18,-161.38,0.138732,0.064361,1.5431,71.42,1
11524,0,54529,60052,54702.64,60188.58,-173.64,-136.59,0.138796,0.064408,1.543069,71.42,1
11534,0,54548,60069,54699.55,60186.19,-151.55,-117.2,0.138853,0.064447,1.543057,71.42,1
11544,0,54559,60091,54696.74,60184.29,-137.74,-93.29,0.138904,0.064479,1.543105,71.42,1
11553,0,54580,60108,54694.41,60182.77,-114.41,-74.77,0.138947,0.064504,1.543151,71.42,1
11565,0,54593,60136,54692.38,60181.83,-99.38,-45.84,0.138984,0.06452,1.543239,71.42,1
11574,0,54614,60133,54690.81,60180.86,-76.81,-47.86,0.139012,0.064536,1.543272,71.42,1
11585,0,54611,60146,54689.21,60180.16,-78.21,-34.16,0.139042,0.064548,1.543336,71.42,1
11594,0,54612,60139,54687.67,60179.34,-75.67,-40.34,0.13907,0.064561,1.543384,71.42,1
11603,0,54600,60131,54685.91,60178.38,-85.91,-47.38,0.139102,0.064577,1.543438,71.41,1
11614,0,54592,60127,54684.03,60177.35,-92.04,-50.35,0.139136,0.064594,1.5435,71.41,1
11624,0,54593,60117,54682.21,60176.14,-89.21,-59.14,0.13917,0.064614,1.543531,71.41,1
11634,0,54589,60112,54680.35,60174.86,-91.35,-62.86,0.139204,0.064636,1.543556,71.41,1
11643,0,54594,60112,54678.62,60173.6,-84.62,-61.6,0.139235,0.064657,1.54357,71.41,1
11655,0,54589,60118,54676.83,60172.49,-87.84,-54.49,0.139268,0.064675,1.543611,71.41,1
11664,0,54590,60110,54675.1,60171.24,-85.1,-61.24,0.1393,0.064696,1.543627,71.41,1
11673,0,54575,60104,54673.1,60169.89,-98.1,-65.89,0.139336,0.064718,1.54366,71.41,1
11684,0,54573,60089,54671.1,60168.28,-98.1,-79.28,0.139373,0.064745,1.543646,71.41,1
11694,0,54567,60086,54669.02,60166.63,-102.02,-80.63,0.139411,0.064772,1.543636,71.41,1
11704,0,54563,60085,54666.9,60165,-103.9,-80,0.13945,0.0648,1.543634,71.41,1
11713,0,54565,60086,54664.87,60163.42,-99.87,-77.42,0.139487,0.064826,1.543631,71.41,1
11724,0,54566,60099,54662.89,60162.13,-96.89,-63.13,0.139523,0.064847,1.543671,71.41,1
11734,0,54571,60097,54661.05,60160.83,-90.05,-63.83,0.139557,0.064869,1.543691,71.41,1
11745,0,54579,60111,54659.41,60159.83,-80.41,-48.84,0.139587,0.064885,1.543732,71.41,1
11754,0,54581,60118,54657.85,60159,-76.85,-41,0.139615,0.064899,1.543785,71.41,1
11763,0,54583,60120,54656.35,60158.22,-73.35,-38.22,0.139643,0.064912,1.543836,71.4,1
11773,0,54590,60126,54655.03,60157.57,-65.03,-31.57,0.139667,0.064923,1.543884,71.4,1
11784,0,54587,60125,54653.67,60156.92,-66.67,-31.93,0.139692,0.064934,1.543934,71.4,1
11794,0,54593,60129,54652.45,60156.37,-59.45,-27.37,0.139714,0.064943,1.543979,71.4,1
11803,0,54603,60142,54651.46,60156.08,-48.46,-14.08,0.139732,0.064948,1.544023,71.4,1
11814,0,54614,60158,54650.72,60156.12,-36.72,1.88,0.139746,0.064947,1.544062,71.4,1
11824,0,54620,60169,54650.1,60156.38,-30.11,12.62,0.139757,0.064943,1.544093,71.4,1
11834,0,54632,60183,54649.75,60156.91,-17.75,26.09,0.139764,0.064934,1.544104,71.4,1
11843,0,54654,60211,54649.83,60158,4.17,53,0.139762,0.064916,1.54406,71.4,1
11854,0,54668,60236,54650.19,60159.55,17.8,76.45,0.139755,0.06489,1.543948,71.4,1
11864,0,54685,60250,54650.89,60161.36,34.11,88.64,0.139743,0.06486,1.543791,71.41,1
11874,0,54690,60264,54651.67,60163.42,38.32,100.58,0.139728,0.064826,1.543583,71.41,1
11883,0,54695,60274,54652.54,60165.63,42.46,108.37,0.139712,0.064789,1.543336,71.42,1
11894,0,54710,60290,54653.69,60168.12,56.31,121.88,0.139691,0.064748,1.543023,71.42,1
11904,0,54717,60299,54654.96,60170.74,62.04,128.26,0.139668,0.064704,1.542675,71.43,1
11913,0,54726,60307,54656.38,60173.47,69.62,133.53,0.139642,0.064659,1.542298,71.44,1
11924,0,54730,60309,54657.85,60176.18,72.14,132.82,0.139615,0.064614,1.541925,71.45,1
11933,0,54732,60300,54659.34,60178.66,72.66,121.34,0.139588,0.064573,1.541622,71.46,1
11944,0,54734,60311,54660.83,60181.3,73.17,129.7,0.139561,0.064529,1.541264,71.47,1
11954,0,54736,60310,54662.33,60183.88,73.66,126.12,0.139533,0.064486,1.540927,71.48,1
11964,0,54737,60318,54663.83,60186.56,73.17,131.44,0.139506,0.064441,1.54055,71.49,1
11973,0,54738,60329,54665.31,60189.41,72.69,139.59,0.139479,0.064394,1.540111,71.5,1
11983,0,54751,60344,54667.03,60192.5,83.97,151.5,0.139447,0.064343,1.539596,71.51,1
11994,0,54760,60351,54668.89,60195.67,91.11,155.32,0.139413,0.06429,1.539058,71.52,1
12003,0,54770,60375,54670.91,60199.26,99.09,175.74,0.139376,0.06423,1.53835,71.54,1
12014,0,54797,60421,54673.43,60203.69,123.57,217.3,0.13933,0.064157,1.537251,71.57,1
12023,0,54832,60472,54676.6,60209.06,155.39,262.94,0.139272,0.064067,1.535644,71.61,1
12035,0,54873,60528,54680.53,60215.44,192.46,312.56,0.1392,0.063962,1.53339,71.67,1
12044,0,54911,60568,54685.14,60222.49,225.86,345.51,0.139116,0.063844,1.5307,71.73,1
12053,0,54956,60610,54690.56,60230.24,265.44,379.76,0.139017,0.063716,1.527563,71.81,1
12064,0,54978,60651,54696.31,60238.66,281.69,412.34,0.138912,0.063576,1.523806,71.9,1
12073,0,55016,60677,54702.71,60247.42,313.29,429.58,0.138795,0.063431,1.519906,72,1
12083,0,55035,60701,54709.35,60256.49,325.65,444.51,0.138674,0.06328,1.515752,72.11,1
12094,0,55061,60719,54716.38,60265.74,344.62,453.26,0.138545,0.063126,1.511569,72.21,1
12103,0,55076,60728,54723.57,60274.99,352.43,453.01,0.138414,0.062973,1.507488,72.31,1
12114,0,55091,60746,54730.92,60284.41,360.07,461.59,0.138279,0.062817,1.503275,72.42,1
12124,0,55101,60745,54738.33,60293.62,362.67,451.38,0.138144,0.062664,1.499376,72.52,1
12133,0,55108,60749,54745.72,60302.73,362.28,446.27,0.138009,0.062513,1.495617,72.61,1
12144,0,55118,60775,54753.17,60312.17,364.83,462.83,0.137873,0.062356,1.491465,72.71,1
12153,0,55146,60791,54761.02,60321.75,384.98,469.25,0.13773,0.062198,1.48739,72.82,1
12163,0,55164,60821,54769.08,60331.73,394.91,489.27,0.137582,0.062032,1.482902,72.93,1
12174,0,55191,60857,54777.53,60342.24,413.47,514.76,0.137428,0.061858,1.477939,73.05,1
12183,0,55238,60893,54786.74,60353.26,451.26,539.74,0.13726,0.061675,1.472773,73.18,1
12194,0,55281,60939,54796.62,60364.98,484.38,574.02,0.13708,0.061481,1.467057,73.32,1
12204,0,55318,60982,54807.05,60377.32,510.95,604.68,0.136889,0.061277,1.460808,73.48,1
12213,0,55349,61005,54817.89,60389.87,531.11,615.13,0.136692,0.061069,1.454623,73.63,1
12224,0,55391,61033,54829.36,60402.74,561.64,630.26,0.136482,0.060856,1.448536,73.79,1
12233,0,55415,61053,54841.07,60415.74,573.93,637.26,0.136269,0.060641,1.442526,73.94,1
12242,0,55441,61064,54853.07,60428.71,587.93,635.29,0.13605,0.060426,1.436941,74.08,1
12254,0,55462,61074,54865.25,60441.62,596.75,632.38,0.135828,0.060212,1.431713,74.21,1
12263,0,55472,61070,54877.39,60454.18,594.61,615.82,0.135607,0.060005,1.427083,74.32,1
12274,0,55475,61083,54889.34,60466.76,585.66,616.24,0.135389,0.059797,1.422345,74.44,1
12283,0,55474,61080,54901.04,60479.03,572.96,600.97,0.135176,0.059594,1.417938,74.55,1
12293,0,55477,61070,54912.56,60490.85,564.44,579.15,0.134966,0.059398,1.414112,74.65,1
12304,0,55474,61071,54923.79,60502.45,550.21,568.55,0.134762,0.059206,1.410402,74.74,1
12313,0,55476,61058,54934.83,60513.57,541.17,544.43,0.134561,0.059023,1.407274,74.82,1
12322,0,55470,61058,54945.53,60524.46,524.46,533.54,0.134366,0.058843,1.4042,74.89,1
12334,0,55466,61043,54955.94,60534.83,510.05,508.17,0.134176,0.058671,1.401601,74.96,1
12343,0,55464,61050,54966.11,60545.13,497.89,504.87,0.133991,0.058501,1.398914,75.03,1
12354,0,55464,61052,54976.07,60555.27,487.93,496.73,0.13381,0.058334,1.396301,75.09,1
12363,0,55470,61037,54985.95,60564.9,484.05,472.1,0.133631,0.058175,1.394256,75.14,1
12372,0,55464,61030,54995.51,60574.21,468.49,455.79,0.133457,0.058021,1.392376,75.19,1
12384,0,55467,61024,55004.94,60583.2,462.06,440.8,0.133285,0.057873,1.390753,75.23,1
12393,0,55452,61012,55013.88,60591.78,438.12,420.22,0.133123,0.057731,1.389248,75.27,1
12402,0,55440,60996,55022.41,60599.86,417.59,396.14,0.132968,0.057598,1.387972,75.3,1
12413,0,55422,60979,55030.4,60607.44,391.6,371.56,0.132822,0.057473,1.386846,75.33,1
12423,0,55406,60965,55037.92,60614.59,368.08,350.41,0.132686,0.057355,1.385829,75.35,1
12434,0,55398,60967,55045.12,60621.64,352.88,345.36,0.132555,0.057238,1.384725,75.38,1
12443,0,55395,60958,55052.12,60628.37,342.88,329.63,0.132428,0.057127,1.383783,75.41,1
12452,0,55385,60947,55058.77,60634.75,326.23,312.25,0.132307,0.057022,1.382949,75.43,1
12464,0,55378,60938,55065.16,60640.81,312.84,297.19,0.132191,0.056922,1.382215,75.44,1
12473,0,55374,60932,55071.33,60646.64,302.66,285.36,0.132079,0.056826,1.381557,75.46,1
12482,0,55359,60921,55077.09,60652.12,281.91,268.88,0.131974,0.056736,1.380939,75.48,1
12493,0,55350,60906,55082.55,60657.2,267.45,248.8,0.131875,0.056652,1.380463,75.49,1
12503,0,55331,60884,55087.52,60661.74,243.48,222.26,0.131785,0.056577,1.380116,75.5,1
12514,0,55323,60866,55092.23,60665.82,230.77,200.18,0.131699,0.05651,1.379918,75.5,1
12523,0,55306,60856,55096.51,60669.63,209.49,186.37,0.131622,0.056447,1.379705,75.51,1
12532,0,55299,60841,55100.56,60673.06,198.44,167.94,0.131548,0.056391,1.379592,75.51,1
12544,0,55279,60831,55104.13,60676.22,174.87,154.78,0.131484,0.056339,1.379446,75.51,1
12553,0,55267,60825,55107.39,60679.19,159.61,145.8,0.131424,0.056289,1.379285,75.52,1
12562,0,55268,60836,55110.6,60682.33,157.4,153.67,0.131366,0.056238,1.379046,75.52,1
12573,0,55265,60838,55113.69,60685.45,151.31,152.55,0.13131,0.056186,1.378783,75.53,1
12582,0,55276,60842,55116.93,60688.58,159.07,153.42,0.131251,0.056135,1.378551,75.54,1
12594,0,55270,60847,55120,60691.75,150,155.25,0.131196,0.056082,1.378252,75.54,1
12603,0,55277,60842,55123.14,60694.76,153.86,147.24,0.131139,0.056033,1.378042,75.55,1
12612,0,55272,60848,55126.12,60697.83,145.88,150.17,0.131085,0.055982,1.377762,75.56,1
12623,0,55274,60845,55129.08,60700.77,144.92,144.23,0.131031,0.055934,1.377526,75.56,1
12633,0,55268,60829,55131.85,60703.33,136.14,125.67,0.130981,0.055892,1.377391,75.57,1
12644,0,55264,60845,55134.5,60706.16,129.5,138.84,0.130933,0.055845,1.377119,75.57,1
12653,0,55266,60844,55137.13,60708.92,128.87,135.08,0.130885,0.0558,1.376873,75.58,1
12662,0,55264,60842,55139.67,60711.58,124.33,130.41,0.130839,0.055756,1.376641,75.58,1
12674,0,55273,60852,55142.34,60714.39,130.66,137.61,0.13079,0.05571,1.376378,75.59,1
12683,0,55276,60858,55145.01,60717.27,130.99,140.73,0.130742,0.055662,1.376087,75.6,1
12692,0,55286,60873,55147.83,60720.39,138.17,152.61,0.130691,0.055611,1.375722,75.61,1
12703,0,55292,60871,55150.71,60723.4,141.29,147.6,0.130639,0.055561,1.375419,75.61,1
12712,0,55305,60878,55153.8,60726.49,151.2,151.51,0.130582,0.05551,1.375133,75.62,1
12724,0,55308,60882,55156.89,60729.6,151.11,152.4,0.130527,0.055459,1.374836,75.63,1
12733,0,55305,60881,55159.85,60732.63,145.14,148.37,0.130473,0.055409,1.37454,75.64,1
12742,0,55305,60878,55162.76,60735.54,142.24,142.46,0.13042,0.055361,1.374281,75.64,1
12753,0,55307,60875,55165.65,60738.33,141.35,136.67,0.130368,0.055315,1.374068,75.65,1
12763,0,55302,60875,55168.37,60741.06,133.63,133.94,0.130318,0.05527,1.373835,75.65,1
12772,0,55297,60861,55170.95,60743.46,126.05,117.54,0.130272,0.055231,1.373697,75.66,1
12783,0,55283,60850,55173.19,60745.59,109.81,104.41,0.130231,0.055196,1.373577,75.66,1
12792,0,55283,60829,55175.39,60747.26,107.61,81.74,0.130191,0.055168,1.373587,75.66,1
12804,0,55272,60817,55177.32,60748.66,94.68,68.34,0.130156,0.055145,1.37361,75.66,1
12813,0,55246,60792,55178.69,60749.52,67.3,42.48,0.130131,0.055131,1.373636,75.66,1
12822,0,55226,60762,55179.64,60749.77,46.36,12.23,0.130114,0.055127,1.373664,75.66,1
12832,0,55195,60718,55179.95,60749.14,15.05,-31.14,0.130109,0.055137,1.373611,75.66,1
12843,0,55162,60670,55179.59,60747.55,-17.59,-77.55,0.130115,0.055163,1.373364,75.67,1
12853,0,55116,60624,55178.32,60745.08,-62.32,-121.09,0.130138,0.055204,1.372874,75.68,1
12862,0,55079,60581,55176.33,60741.8,-97.33,-160.8,0.130174,0.055258,1.372086,75.7,1
12873,0,55044,60541,55173.68,60737.79,-129.68,-196.79,0.130222,0.055324,1.370976,75.73,1
12882,0,55020,60517,55170.61,60733.37,-150.61,-216.38,0.130278,0.055397,1.369693,75.76,1
12894,0,55005,60504,55167.3,60728.78,-162.3,-224.79,0.130338,0.055473,1.368351,75.79,1
12903,0,54985,60486,55163.66,60723.93,-178.66,-237.93,0.130404,0.055552,1.366907,75.83,1
12912,0,54968,60474,55159.74,60718.93,-191.74,-244.93,0.130475,0.055635,1.365451,75.86,1
12923,0,54963,60477,55155.81,60714.09,-192.81,-237.09,0.130546,0.055714,1.364156,75.9,1
12933,0,54959,60466,55151.87,60709.13,-192.88,-243.13,0.130617,0.055796,1.362735,75.93,1
12942,0,54949,60465,55147.82,60704.25,-198.82,-239.25,0.130691,0.055877,1.361452,75.96,1
12953,0,54950,60466,55143.86,60699.49,-193.86,-233.49,0.130763,0.055955,1.360222,75.99,1
12962,0,54953,60458,55140.05,60694.66,-187.05,-236.66,0.130832,0.056035,1.358851,76.03,1
12974,0,54949,60478,55136.23,60690.33,-187.23,-212.33,0.130901,0.056106,1.357937,76.05,1
12983,0,54956,60477,55132.62,60686.07,-176.63,-209.07,0.130967,0.056176,1.356966,76.08,1
12992,0,54965,60480,55129.27,60681.95,-164.27,-201.95,0.131027,0.056244,1.355994,76.1,1
13003,0,54972,60492,55126.13,60678.15,-154.13,-186.15,0.131084,0.056307,1.355187,76.12,1
13012,0,54963,60480,55122.87,60674.19,-159.87,-194.19,0.131144,0.056372,1.354294,76.14,1
13022,0,54957,60475,55119.55,60670.21,-162.55,-195.21,0.131204,0.056438,1.353404,76.16,1
13033,0,54965,60471,55116.46,60666.23,-151.46,-195.23,0.13126,0.056503,1.352405,76.19,1
13042,0,54963,60476,55113.39,60662.42,-150.39,-186.42,0.131315,0.056566,1.351539,76.21,1
13053,0,54955,60471,55110.23,60658.59,-155.23,-187.59,0.131373,0.056629,1.350694,76.23,1
13063,0,54952,60463,55107.07,60654.68,-155.07,-191.68,0.13143,0.056693,1.349771,76.26,1
13072,0,54951,60451,55103.94,60650.61,-152.95,-199.61,0.131487,0.056761,1.348683,76.28,1
13083,0,54951,60466,55100.89,60646.92,-149.89,-180.92,0.131542,0.056822,1.347884,76.3,1
13092,0,54957,60465,55098.01,60643.28,-141.01,-178.28,0.131595,0.056881,1.347043,76.32,1
13102,0,54962,60466,55095.29,60639.74,-133.29,-173.74,0.131644,0.05694,1.346202,76.34,1
13113,0,54964,60459,55092.66,60636.12,-128.66,-177.13,0.131692,0.056999,1.345261,76.37,1
13122,0,54955,60470,55089.91,60632.8,-134.91,-162.8,0.131742,0.057054,1.344598,76.39,1
13133,0,54971,60481,55087.54,60629.76,-116.54,-148.77,0.131785,0.057104,1.343986,76.4,1
13143,0,54972,60489,55085.23,60626.95,-113.23,-137.95,0.131827,0.057151,1.343493,76.41,1
13152,0,54977,60482,55083.07,60624.05,-106.07,-142.05,0.131866,0.057199,1.342888,76.43,1
13163,0,54979,60495,55080.98,60621.47,-101.98,-126.47,0.131904,0.057241,1.342455,76.44,1
13172,0,54984,60481,55079.05,60618.66,-95.05,-137.66,0.131939,0.057288,1.341824,76.45,1
13181,0,54970,60477,55076.87,60615.83,-106.87,-138.83,0.131978,0.057334,1.341255,76.47,1
13193,0,54970,60459,55074.73,60612.69,-104.73,-153.7,0.132017,0.057386,1.340449,76.49,1
13202,0,54963,60445,55072.5,60609.34,-109.5,-164.34,0.132058,0.057441,1.339502,76.51,1
13213,0,54954,60438,55070.13,60605.91,-116.13,-167.91,0.132101,0.057498,1.338543,76.54,1
13222,0,54941,60422,55067.55,60602.24,-126.55,-180.24,0.132148,0.057559,1.337449,76.56,1
13232,0,54932,60399,55064.83,60598.17,-132.84,-199.18,0.132197,0.057626,1.336039,76.6,1
13243,0,54916,60387,55061.86,60593.95,-145.86,-206.95,0.132251,0.057695,1.334591,76.64,1
13252,0,54899,60365,55058.6,60589.37,-159.61,-224.38,0.13231,0.057771,1.3329,76.68,1
13261,0,54887,60351,55055.17,60584.61,-168.17,-233.61,0.132372,0.057849,1.331086,76.72,1
13273,0,54878,60335,55051.63,60579.62,-173.63,-244.62,0.132437,0.057932,1.329062,76.77,1
13282,0,54875,60324,55048.1,60574.51,-173.1,-250.51,0.132501,0.058016,1.326875,76.83,1
13293,0,54861,60316,55044.35,60569.34,-183.36,-253.34,0.132569,0.058102,1.324743,76.88,1
13302,0,54850,60300,55040.47,60563.95,-190.47,-263.95,0.132639,0.05819,1.322419,76.94,1
13312,0,54843,60285,55036.52,60558.37,-193.52,-273.38,0.132711,0.058283,1.319872,77,1
13323,0,54832,60276,55032.43,60552.73,-200.43,-276.73,0.132786,0.058376,1.317329,77.07,1
13332,0,54826,60258,55028.3,60546.83,-202.3,-288.83,0.132861,0.058473,1.314455,77.14,1
13341,0,54816,60267,55024.05,60541.24,-208.05,-274.24,0.132938,0.058566,1.312105,77.2,1
13352,0,54811,60257,55019.79,60535.55,-208.79,-278.55,0.133015,0.058659,1.309641,77.26,1
13362,0,54811,60254,55015.62,60529.92,-204.62,-275.92,0.133091,0.058752,1.30719,77.32,1
13373,0,54808,60262,55011.46,60524.56,-203.46,-262.56,0.133167,0.058841,1.305102,77.37,1
13382,0,54810,60252,55007.44,60519.11,-197.44,-267.11,0.13324,0.058931,1.302792,77.43,1
13391,0,54801,60240,55003.31,60513.53,-202.31,-273.53,0.133315,0.059023,1.300372,77.49,1
13403,0,54794,60234,54999.12,60507.94,-205.12,-273.94,0.133391,0.059116,1.297985,77.55,1
13412,0,54788,60234,54994.9,60502.46,-206.9,-268.46,0.133468,0.059206,1.295787,77.61,1
13421,0,54781,60210,54990.62,60496.62,-209.63,-286.62,0.133545,0.059303,1.293094,77.67,1
13432,0,54771,60182,54986.23,60490.33,-215.23,-308.33,0.133625,0.059407,1.289808,77.75,1
13442,0,54749,60164,54981.49,60483.8,-232.49,-319.8,0.133712,0.059515,1.286454,77.84,1
13453,0,54736,60149,54976.58,60477.11,-240.58,-328.11,0.133801,0.059625,1.282979,77.93,1
13462,0,54712,60112,54971.29,60469.8,-259.29,-357.8,0.133897,0.059746,1.278812,78.03,1
13471,0,54687,60063,54965.6,60461.67,-278.6,-398.67,0.134001,0.059881,1.273462,78.16,1
13483,0,54666,60018,54959.61,60452.8,-293.61,-434.8,0.13411,0.060027,1.266948,78.33,1
13492,0,54630,59977,54953.02,60443.28,-323.02,-466.29,0.13423,0.060185,1.259797,78.51,1
13502,0,54605,59921,54946.06,60432.84,-341.06,-511.84,0.134356,0.060358,1.251008,78.72,1
13512,0,54573,59884,54938.6,60421.87,-365.6,-537.87,0.134492,0.060539,1.241764,78.96,1
13521,0,54551,59825,54930.85,60409.93,-379.85,-584.93,0.134633,0.060737,1.230647,79.23,1
13532,0,54524,59772,54922.71,60397.17,-398.71,-625.17,0.134781,0.060948,1.218195,79.55,1
13542,0,54492,59713,54914.1,60383.49,-422.1,-670.49,0.134938,0.061175,1.204305,79.89,1
13551,0,54462,59666,54905.06,60369.14,-443.06,-703.14,0.135103,0.061412,1.189766,80.26,1
13562,0,54443,59635,54895.82,60354.46,-452.82,-719.46,0.135271,0.061655,1.175286,80.62,1
13572,0,54409,59599,54886.08,60339.35,-477.08,-740.35,0.135448,0.061906,1.161118,80.97,1
13582,0,54389,59584,54876.14,60324.25,-487.14,-740.25,0.135629,0.062156,1.148035,81.3,1
13592,0,54381,59579,54866.24,60309.34,-485.24,-730.34,0.13581,0.062403,1.136088,81.6,1
13601,0,54390,59584,54856.72,60294.83,-466.72,-710.83,0.135984,0.062644,1.125115,81.87,1
13612,0,54394,59603,54847.46,60281,-453.46,-678,0.136152,0.062873,1.115796,82.11,1
13622,0,54408,59614,54838.67,60267.66,-430.68,-653.66,0.136313,0.063095,1.107259,82.32,1
13632,0,54413,59630,54830.16,60254.91,-417.16,-624.91,0.136468,0.063306,1.099857,82.5,1
13642,0,54426,59646,54822.08,60242.73,-396.08,-596.73,0.136615,0.063508,1.093236,82.67,1
13651,0,54429,59653,54814.22,60230.94,-385.22,-577.94,0.136759,0.063704,1.087222,82.82,1
13662,0,54432,59650,54806.57,60219.32,-374.57,-569.32,0.136898,0.063897,1.081398,82.97,1
13672,0,54431,59658,54799.07,60208.09,-368.07,-550.09,0.137035,0.064084,1.076223,83.09,1
13681,0,54431,59662,54791.71,60197.17,-360.71,-535.17,0.137169,0.064265,1.071481,83.21,1
13692,0,54434,59669,54784.55,60186.61,-350.55,-517.61,0.1373,0.06444,1.067162,83.32,1
13702,0,54434,59662,54777.54,60176.12,-343.54,-514.12,0.137428,0.064615,1.062864,83.43,1
13712,0,54425,59661,54770.49,60165.82,-345.49,-504.82,0.137557,0.064786,1.058967,83.53,1
13722,0,54428,59660,54763.64,60155.7,-335.64,-495.7,0.137682,0.064954,1.055185,83.62,1
13731,0,54416,59650,54756.69,60145.58,-340.69,-495.59,0.137809,0.065122,1.051572,83.71,1
13742,0,54416,59640,54749.87,60135.48,-333.88,-495.48,0.137933,0.06529,1.047862,83.8,1
13752,0,54406,59626,54743,60125.29,-337,-499.29,0.138059,0.06546,1.044162,83.9,1
13761,0,54389,59608,54735.92,60114.94,-346.92,-506.95,0.138188,0.065632,1.040511,83.99,1
13772,0,54387,59610,54728.94,60104.85,-341.94,-494.85,0.138316,0.0658,1.037155,84.07,1
13782,0,54382,59598,54722,60094.71,-340,-496.71,0.138442,0.065969,1.033749,84.16,1
13792,0,54380,59580,54715.17,60084.42,-335.17,-504.42,0.138567,0.06614,1.030062,84.25,1
13802,0,54368,59584,54708.23,60074.41,-340.23,-490.41,0.138694,0.066306,1.026937,84.33,1
13811,0,54364,59581,54701.34,60064.54,-337.34,-483.54,0.13882,0.066471,1.02398,84.4,1
13821,0,54368,59579,54694.67,60054.83,-326.68,-475.83,0.138942,0.066632,1.021036,84.47,1
13832,0,54362,59581,54688.02,60045.36,-326.02,-464.36,0.139063,0.06679,1.018417,84.54,1
13842,0,54362,59580,54681.5,60036.05,-319.5,-456.05,0.139183,0.066945,1.015902,84.6,1
13851,0,54357,59580,54675.01,60026.94,-318.02,-446.94,0.139301,0.067097,1.013611,84.66,1
13861,0,54356,59578,54668.64,60017.96,-312.64,-439.96,0.139418,0.067247,1.011402,84.71,1
13872,0,54354,59576,54662.34,60009.12,-308.34,-433.12,0.139533,0.067394,1.009291,84.77,1
13882,0,54357,59581,54656.24,60000.56,-299.24,-419.56,0.139645,0.067536,1.007335,84.82,1
13891,0,54362,59590,54650.35,59992.35,-288.35,-402.35,0.139753,0.067673,1.005573,84.86,1
13901,0,54362,59595,54644.58,59984.4,-282.58,-389.4,0.139858,0.067806,1.003997,84.9,1
13912,0,54366,59603,54639.01,59976.77,-273.01,-373.77,0.13996,0.067933,1.002582,84.94,1
13921,0,54366,59606,54633.55,59969.35,-267.55,-363.36,0.14006,0.068057,1.001288,84.97,1
13932,0,54372,59622,54628.32,59962.41,-256.32,-340.41,0.140156,0.068172,1.000251,84.99,1
13941,0,54377,59625,54623.3,59955.66,-246.3,-330.66,0.140248,0.068285,0.999227,85.02,1
13952,0,54388,59635,54618.59,59949.25,-230.59,-314.25,0.140334,0.068392,0.998247,85.04,1
13962,0,54384,59648,54613.9,59943.23,-229.9,-295.23,0.14042,0.068492,0.997585,85.06,1
13971,0,54386,59644,54609.34,59937.24,-223.34,-293.24,0.140503,0.068592,0.996853,85.08,1
13981,0,54387,59653,54604.89,59931.56,-217.89,-278.56,0.140585,0.068687,0.996276,85.09,1
13991,0,54384,59650,54600.48,59925.93,-216.48,-275.93,0.140666,0.068781,0.995719,85.11,1
14001,0,54381,59652,54596.09,59920.45,-215.09,-268.45,0.140746,0.068872,0.995257,85.12,1
14012,0,54385,59655,54591.87,59915.15,-206.87,-260.15,0.140823,0.068961,0.994799,85.13,1
14021,0,54384,59661,54587.71,59910.07,-203.71,-249.07,0.140899,0.069046,0.99446,85.14,1
14031,0,54389,59665,54583.74,59905.17,-194.74,-240.17,0.140972,0.069128,0.994119,85.15,1
14042,0,54388,59667,54579.83,59900.41,-191.83,-233.41,0.141044,0.069207,0.99383,85.15,1
14051,0,54388,59675,54576,59895.9,-188,-220.9,0.141114,0.069282,0.993658,85.16,1
14062,0,54389,59685,54572.26,59891.68,-183.26,-206.68,0.141183,0.069353,0.993605,85.16,1
14071,0,54398,59688,54568.77,59887.61,-170.77,-199.61,0.141246,0.069421,0.993474,85.16,1
14081,0,54399,59692,54565.38,59883.7,-166.38,-191.7,0.141309,0.069486,0.993382,85.17,1
14092,0,54399,59706,54562.05,59880.15,-163.05,-174.15,0.14137,0.069545,0.993448,85.16,1
14101,0,54409,59709,54559,59876.73,-150,-167.73,0.141426,0.069602,0.993426,85.16,1
14110,0,54410,59725,54556.01,59873.69,-146.02,-148.69,0.14148,0.069653,0.99355,85.16,1
14121,0,54417,59729,54553.23,59870.8,-136.23,-141.8,0.141531,0.069701,0.993631,85.16,1
14131,0,54422,59738,54550.61,59868.14,-128.61,-130.14,0.141579,0.069746,0.993737,85.16,1
14142,0,54428,59746,54548.16,59865.7,-120.16,-119.7,0.141624,0.069787,0.993844,85.15,1
14151,0,54433,59750,54545.86,59863.39,-112.86,-113.39,0.141666,0.069825,0.993933,85.15,1
14160,0,54432,59749,54543.58,59861.1,-111.58,-112.11,0.141708,0.069863,0.994021,85.15,1
14172,0,54431,59750,54541.33,59858.88,-110.33,-108.88,0.141749,0.0699,0.994122,85.15,1
14181,0,54427,59739,54539.05,59856.49,-112.05,-117.49,0.141791,0.069941,0.994173,85.15,1
14190,0,54427,59747,54536.8,59854.3,-109.8,-107.3,0.141832,0.069977,0.994283,85.14,1
14201,0,54431,59758,54534.69,59852.37,-103.69,-94.37,0.141871,0.070009,0.994429,85.14,1
14211,0,54437,59768,54532.74,59850.69,-95.74,-82.69,0.141907,0.070037,0.994583,85.14,1
14222,0,54449,59777,54531.07,59849.21,-82.07,-72.21,0.141938,0.070062,0.994691,85.13,1
14231,0,54455,59787,54529.55,59847.97,-74.55,-60.97,0.141966,0.070083,0.994803,85.13,1
14241,0,54459,59804,54528.14,59847.09,-69.14,-43.09,0.141991,0.070098,0.994951,85.13,1
14251,0,54472,59813,54527.01,59846.41,-55.02,-33.41,0.142012,0.070109,0.995051,85.12,1
14262,0,54476,59828,54526,59846.04,-50,-18.04,0.142031,0.070115,0.99516,85.12,1
14271,0,54483,59823,54525.14,59845.58,-42.14,-22.59,0.142046,0.070123,0.995227,85.12,1
14281,0,54480,59826,54524.24,59845.19,-44.24,-19.2,0.142063,0.070129,0.995309,85.12,1
14290,0,54480,59824,54523.35,59844.77,-43.36,-20.77,0.142079,0.070136,0.995386,85.12,1
14302,0,54482,59829,54522.53,59844.46,-40.53,-15.46,0.142094,0.070142,0.995461,85.11,1
14311,0,54473,59821,54521.54,59843.99,-48.54,-22.99,0.142112,0.070149,0.995559,85.11,1
14320,0,54468,59817,54520.47,59843.45,-52.47,-26.45,0.142132,0.070158,0.995669,85.11,1
14331,0,54470,59813,54519.46,59842.85,-49.46,-29.85,0.142151,0.070168,0.995757,85.11,1
14341,0,54469,59804,54518.45,59842.07,-49.45,-38.07,0.142169,0.070181,0.99582,85.1,1
14351,0,54465,59813,54517.39,59841.49,-52.39,-28.49,0.142189,0.070191,0.995928,85.1,1
14360,0,54464,59809,54516.32,59840.84,-52.32,-31.84,0.142208,0.070202,0.996028,85.1,1
14371,0,54475,59821,54515.5,59840.44,-40.5,-19.45,0.142223,0.070209,0.9961,85.1,1
14381,0,54481,59838,54514.81,59840.4,-33.81,-2.4,0.142236,0.070209,0.996167,85.1,1
14391,0,54494,59860,54514.39,59840.79,-20.39,19.21,0.142244,0.070203,0.996187,85.1,1
14401,0,54514,59882,54514.39,59841.61,-0.39,40.39,0.142244,0.070189,0.996134,85.1,1
14411,0,54532,59906,54514.74,59842.9,17.26,63.1,0.142237,0.070168,0.996,85.1,1
14420,0,54551,59924,54515.47,59844.53,35.53,79.47,0.142224,0.07014,0.995814,85.1,1
14432,0,54566,59947,54516.48,59846.58,49.52,100.42,0.142205,0.070106,0.995532,85.11,1
14441,0,54581,59959,54517.77,59848.83,63.23,110.17,0.142181,0.070069,0.995237,85.12,1
14451,0,54590,59979,54519.22,59851.43,70.78,127.57,0.142155,0.070025,0.994819,85.13,1
14460,0,54592,59977,54520.67,59853.94,71.32,123.06,0.142128,0.069983,0.994448,85.14,1
14471,0,54604,59984,54522.34,59856.54,81.66,127.46,0.142098,0.06994,0.994108,85.15,1
14481,0,54593,59970,54523.75,59858.81,69.25,111.19,0.142072,0.069902,0.993835,85.15,1
14490,0,54584,59954,54524.96,59860.71,59.04,93.29,0.14205,0.06987,0.993648,85.16,1
14501,0,54571,59934,54525.88,59862.18,45.12,71.82,0.142033,0.069845,0.993536,85.16,1
14511,0,54553,59899,54526.42,59862.92,26.57,36.08,0.142023,0.069833,0.993518,85.16,1
14521,0,54531,59887,54526.52,59863.4,4.48,23.6,0.142021,0.069825,0.9935,85.16,1
14530,0,54514,59847,54526.27,59863.07,-12.27,-16.07,0.142026,0.06983,0.993496,85.16,1
14541,0,54483,59826,54525.41,59862.33,-42.41,-36.33,0.142041,0.069843,0.99354,85.16,1
14551,0,54466,59786,54524.22,59860.8,-58.22,-74.8,0.142063,0.069868,0.993468,85.16,1
14561,0,54443,59754,54522.59,59858.67,-79.59,-104.67,0.142093,0.069904,0.99331,85.17,1
14571,0,54414,59713,54520.42,59855.76,-106.43,-142.76,0.142133,0.069953,0.992989,85.18,1
14581,0,54385,59692,54517.72,59852.48,-132.72,-160.48,0.142183,0.070007,0.992781,85.18,1
14590,0,54364,59671,54514.65,59848.86,-150.65,-177.86,0.142239,0.070068,0.992589,85.19,1
14601,0,54355,59656,54511.46,59845,-156.46,-189,0.142297,0.070132,0.992302,85.19,1
14611,0,54357,59659,54508.37,59841.28,-151.37,-182.29,0.142354,0.070195,0.992043,85.2,1
14620,0,54351,59665,54505.22,59837.76,-154.22,-172.76,0.142412,0.070253,0.992006,85.2,1
14631,0,54368,59684,54502.48,59834.69,-134.48,-150.69,0.142462,0.070305,0.991977,85.2,1
14641,0,54376,59689,54499.95,59831.78,-123.95,-142.78,0.142508,0.070353,0.991897,85.2,1
14650,0,54385,59696,54497.66,59829.06,-112.66,-133.06,0.142551,0.070399,0.991785,85.21,1
14661,0,54396,59713,54495.62,59826.74,-99.62,-113.74,0.142588,0.070438,0.991743,85.21,1
14670,0,54406,59726,54493.83,59824.73,-87.84,-98.73,0.142621,0.070471,0.991728,85.21,1
14682,0,54412,59734,54492.2,59822.91,-80.2,-88.91,0.142651,0.070502,0.991726,85.21,1
14691,0,54429,59739,54490.93,59821.24,-61.93,-82.24,0.142674,0.07053,0.991613,85.21,1
14700,0,54429,59741,54489.69,59819.64,-60.7,-78.64,0.142697,0.070556,0.991521,85.21,1
14710,0,54426,59735,54488.42,59817.94,-62.42,-82.95,0.14272,0.070585,0.991404,85.21,1
14721,0,54423,59723,54487.12,59816.05,-64.12,-93.05,0.142744,0.070616,0.991201,85.22,1
14731,0,54419,59713,54485.75,59813.99,-66.75,-100.99,0.142769,0.070651,0.990935,85.23,1
14740,0,54402,59699,54484.08,59811.69,-82.08,-112.69,0.1428,0.070689,0.990685,85.23,1
14751,0,54393,59688,54482.26,59809.22,-89.26,-121.22,0.142833,0.070731,0.990406,85.24,1
14760,0,54384,59675,54480.29,59806.53,-96.29,-131.54,0.142869,0.070775,0.990068,85.25,1
14771,0,54381,59668,54478.31,59803.76,-97.31,-135.77,0.142906,0.070822,0.989678,85.26,1
14781,0,54371,59658,54476.16,59800.85,-105.16,-142.85,0.142945,0.07087,0.989284,85.27,1
14790,0,54367,59661,54473.98,59798.05,-106.98,-137.05,0.142985,0.070917,0.989011,85.27,1
14800,0,54362,59661,54471.74,59795.31,-109.74,-134.31,0.143026,0.070963,0.988822,85.28,1
14811,0,54358,59657,54469.46,59792.55,-111.46,-135.55,0.143068,0.071009,0.988641,85.28,1
14821,0,54358,59658,54467.24,59789.85,-109.24,-131.86,0.143109,0.071054,0.988481,85.29,1
14830,0,54351,59661,54464.91,59787.28,-113.91,-126.28,0.143152,0.071097,0.988484,85.29,1
14840,0,54346,59654,54462.54,59784.61,-116.54,-130.61,0.143195,0.071142,0.988465,85.29,1
14851,0,54341,59652,54460.11,59781.96,-119.11,-129.96,0.14324,0.071186,0.988501,85.29,1
14861,0,54330,59646,54457.51,59779.24,-127.51,-133.24,0.143287,0.071232,0.988642,85.28,1
14870,0,54326,59647,54454.88,59776.6,-128.88,-129.6,0.143336,0.071276,0.988869,85.28,1
14880,0,54319,59641,54452.16,59773.89,-133.16,-132.89,0.143386,0.071321,0.98913,85.27,1
14891,0,54314,59629,54449.4,59770.99,-135.4,-141.99,0.143436,0.07137,0.989281,85.27,1
14901,0,54309,59631,54446.59,59768.19,-137.59,-137.2,0.143488,0.071417,0.989564,85.26,1
14910,0,54304,59625,54443.74,59765.33,-139.74,-140.33,0.14354,0.071465,0.98984,85.25,1
14920,0,54298,59609,54440.83,59762.21,-142.83,-153.21,0.143594,0.071517,0.989943,85.25,1
