t_ms,phase,red_raw,ir_raw,red_dc,ir_dc,red_ac,ir_ac,OD_red,OD_ir,R,spo2,spo2_valid
18887,0,53216,58771,53290.13,58901.25,-74.13,-130.25,0.018783,0.028204,0.500115,97.5,1
18897,0,53216,58758,53288.65,58898.39,-72.65,-140.39,0.01881,0.028253,0.500728,97.48,1
18908,0,53209,58744,53287.05,58895.3,-78.05,-151.3,0.01884,0.028305,0.501415,97.46,1
18917,0,53212,58730,53285.55,58892,-73.55,-162,0.018868,0.028361,0.501419,97.46,1
18927,0,53203,58719,53283.9,58888.53,-80.9,-169.54,0.018899,0.02842,0.501727,97.46,1
18937,0,53199,58705,53282.21,58884.87,-83.21,-179.87,0.018931,0.028482,0.50185,97.45,1
18948,0,53186,58694,53280.28,58881.05,-94.28,-187.05,0.018967,0.028547,0.502663,97.43,1
18957,0,53186,58662,53278.39,58876.67,-92.39,-214.67,0.019003,0.028621,0.502179,97.45,1
18967,0,53181,58644,53276.45,58872.01,-95.45,-228.02,0.019039,0.0287,0.501398,97.47,1
18977,0,53170,58635,53274.32,58867.28,-104.32,-232.28,0.019079,0.028781,0.501287,97.47,1
18988,0,53157,58617,53271.98,58862.27,-114.98,-245.27,0.019123,0.028866,0.501674,97.46,1
18997,0,53154,58618,53269.62,58857.39,-115.62,-239.39,0.019168,0.028949,0.502387,97.44,1
19008,0,53169,58630,53267.6,58852.84,-98.61,-222.84,0.019205,0.029026,0.502136,97.45,1
19017,0,53157,58630,53265.39,58848.39,-108.39,-218.39,0.019247,0.029102,0.502993,97.43,1
19026,0,53160,58618,53263.28,58843.78,-103.29,-225.78,0.019286,0.02918,0.503037,97.42,1
19038,0,53156,58618,53261.14,58839.26,-105.14,-221.27,0.019327,0.029257,0.503437,97.41,1
19047,0,53154,58601,53259,58834.5,-105,-233.5,0.019367,0.029338,0.503303,97.42,1
19056,0,53154,58597,53256.89,58829.75,-102.89,-232.75,0.019406,0.029419,0.503015,97.42,1
19067,0,53154,58618,53254.83,58825.52,-100.84,-207.52,0.019445,0.029491,0.50355,97.41,1
19077,0,53158,58634,53252.9,58821.69,-94.9,-187.69,0.019481,0.029556,0.504278,97.39,1
19087,0,53157,58641,53250.98,58818.08,-93.98,-177.08,0.019517,0.029617,0.505266,97.37,1
19097,0,53163,58644,53249.23,58814.6,-86.23,-170.6,0.01955,0.029676,0.505844,97.35,1
19106,0,53166,58643,53247.56,58811.17,-81.56,-168.17,0.019582,0.029735,0.506153,97.35,1
19118,0,53164,58646,53245.89,58807.87,-81.89,-161.87,0.019613,0.029791,0.50667,97.33,1
19127,0,53176,58647,53244.5,58804.65,-68.5,-157.65,0.019639,0.029845,0.506438,97.34,1
19136,0,53166,58653,53242.92,58801.62,-76.93,-148.62,0.019669,0.029897,0.506986,97.33,1
19147,0,53175,58665,53241.57,58798.89,-66.57,-133.89,0.019694,0.029943,0.507268,97.32,1
19156,0,53177,58662,53240.27,58796.15,-63.27,-134.15,0.019719,0.02999,0.507357,97.32,1
19167,0,53173,58670,53238.93,58793.62,-65.93,-123.62,0.019744,0.030033,0.507844,97.3,1
19177,0,53179,58670,53237.73,58791.15,-58.73,-121.15,0.019766,0.030075,0.507995,97.3,1
19186,0,53177,58668,53236.51,58788.69,-59.52,-120.69,0.019789,0.030117,0.508196,97.3,1
19197,0,53180,58680,53235.39,58786.52,-55.39,-106.52,0.01981,0.030154,0.508489,97.29,1
19207,0,53187,58695,53234.42,58784.69,-47.42,-89.69,0.019829,0.030185,0.508729,97.28,1
19216,0,53187,58709,53233.47,58783.17,-46.47,-74.18,0.019846,0.030211,0.509172,97.27,1
19227,0,53202,58723,53232.84,58781.97,-30.84,-58.97,0.019858,0.030231,0.509267,97.27,1
19236,0,53196,58710,53232.1,58780.53,-36.1,-70.54,0.019872,0.030256,0.509378,97.27,1
19248,0,53198,58713,53231.42,58779.19,-33.42,-66.19,0.019885,0.030279,0.509462,97.26,1
19257,0,53200,58699,53230.79,58777.58,-30.79,-78.59,0.019897,0.030306,0.509292,97.27,1
19266,0,53194,58711,53230.06,58776.25,-36.06,-65.25,0.01991,0.030328,0.509475,97.26,1
19277,0,53194,58712,53229.33,58774.97,-35.34,-62.97,0.019924,0.03035,0.509664,97.26,1
19287,0,53195,58724,53228.65,58773.95,-33.65,-49.95,0.019937,0.030368,0.509948,97.25,1
19297,0,53205,58729,53228.18,58773.05,-23.18,-44.05,0.019946,0.030383,0.510006,97.25,1
19306,0,53211,58735,53227.83,58772.29,-16.84,-37.29,0.019952,0.030396,0.509999,97.25,1
19317,0,53211,58749,53227.5,58771.82,-16.5,-22.82,0.019959,0.030404,0.510077,97.25,1
19326,0,53209,58742,53227.13,58771.23,-18.13,-29.23,0.019966,0.030414,0.510148,97.25,1
19336,0,53213,58753,53226.85,58770.87,-13.85,-17.87,0.019971,0.03042,0.510208,97.24,1
19347,0,53207,58743,53226.45,58770.31,-19.45,-27.31,0.019978,0.03043,0.510317,97.24,1
19356,0,53206,58741,53226.05,58769.72,-20.05,-28.72,0.019986,0.03044,0.510431,97.24,1
19367,0,53212,58752,53225.76,58769.37,-13.77,-17.37,0.019991,0.030446,0.510494,97.24,1
19377,0,53212,58749,53225.49,58768.96,-13.49,-19.96,0.019996,0.030453,0.510543,97.24,1
19387,0,53213,58765,53225.24,58768.88,-12.24,-3.88,0.020001,0.030454,0.510618,97.23,1
19396,0,53218,58771,53225.1,58768.93,-7.1,2.07,0.020004,0.030453,0.510644,97.23,1
19405,0,53219,58784,53224.98,58769.23,-5.98,14.77,0.020006,0.030448,0.510637,97.23,1
19417,0,53227,58800,53225.01,58769.85,1.98,30.15,0.020005,0.030437,0.510534,97.24,1
19426,0,53228,58819,53225.07,58770.83,2.93,48.17,0.020004,0.030421,0.51027,97.24,1
19437,0,53241,58840,53225.39,58772.22,15.61,67.78,0.019998,0.030397,0.509867,97.25,1
19446,0,53255,58857,53225.99,58773.92,29.01,83.08,0.019987,0.030368,0.50952,97.26,1
19457,0,53260,58870,53226.67,58775.84,33.33,94.16,0.019974,0.030335,0.50909,97.27,1
19466,0,53265,58874,53227.44,58777.8,37.56,96.2,0.01996,0.030302,0.50878,97.28,1
19477,0,53262,58890,53228.13,58780.05,33.87,109.95,0.019947,0.030264,0.507984,97.3,1
19486,0,53257,58884,53228.71,58782.13,28.29,101.87,0.019936,0.030228,0.507197,97.32,1
19497,0,53273,58881,53229.59,58784.11,43.41,96.89,0.019919,0.030195,0.507142,97.32,1
19507,0,53268,58876,53230.36,58785.95,37.64,90.05,0.019905,0.030163,0.506975,97.33,1
19516,0,53260,58861,53230.96,58787.45,29.04,73.55,0.019894,0.030138,0.506804,97.33,1
19527,0,53261,58869,53231.56,58789.08,29.44,79.92,0.019882,0.03011,0.506527,97.34,1
19536,0,53248,58865,53231.89,58790.6,16.11,74.4,0.019876,0.030084,0.505998,97.35,1
19547,0,53259,58869,53232.43,58792.17,26.57,76.83,0.019866,0.030058,0.505684,97.36,1
19556,0,53262,58877,53233.02,58793.86,28.98,83.14,0.019855,0.030029,0.505322,97.37,1
19567,0,53262,58891,53233.6,58795.81,28.4,95.19,0.019844,0.029996,0.50467,97.38,1
19576,0,53267,58885,53234.27,58797.59,32.73,87.41,0.019831,0.029965,0.504355,97.39,1
19586,0,53262,58890,53234.82,58799.44,27.18,90.55,0.019821,0.029934,0.503767,97.41,1
19597,0,53263,58892,53235.39,58801.3,27.61,90.7,0.01981,0.029902,0.503188,97.42,1
19606,0,53270,58906,53236.08,58803.39,33.92,102.61,0.019797,0.029867,0.502553,97.44,1
19616,0,53278,58918,53236.92,58805.69,41.08,112.31,0.019782,0.029828,0.501983,97.45,1
19627,0,53282,58925,53237.82,58808.07,44.18,116.93,0.019765,0.029787,0.501443,97.46,1
19637,0,53279,58950,53238.65,58810.91,40.35,139.09,0.019749,0.029739,0.499978,97.5,1
19647,0,53283,58956,53239.53,58813.82,43.46,142.18,0.019732,0.02969,0.498575,97.54,1
19656,0,53287,58954,53240.48,58816.62,46.52,137.38,0.019715,0.029642,0.497525,97.56,1
19666,0,53286,58969,53241.39,58819.67,44.61,149.33,0.019698,0.02959,0.49594,97.6,1
19677,0,53292,58956,53242.41,58822.4,49.59,133.6,0.019679,0.029544,0.495227,97.62,1
19686,0,53286,58947,53243.28,58824.89,42.72,122.11,0.019662,0.029501,0.49449,97.64,1
19696,0,53281,58926,53244.03,58826.92,36.96,99.08,0.019648,0.029467,0.494111,97.65,1
19706,0,53275,58897,53244.66,58828.32,30.34,68.68,0.019636,0.029443,0.494098,97.65,1
19717,0,53267,58881,53245.1,58829.37,21.89,51.63,0.019628,0.029425,0.494066,97.65,1
19726,0,53253,58849,53245.26,58829.77,7.74,19.23,0.019625,0.029418,0.494059,97.65,1
19736,0,53244,58817,53245.24,58829.51,-1.24,-12.52,0.019625,0.029423,0.494041,97.65,1
19746,0,53236,58796,53245.05,58828.84,-9.05,-32.84,0.019629,0.029434,0.493955,97.65,1
19756,0,53227,58767,53244.69,58827.61,-17.7,-60.61,0.019636,0.029455,0.493674,97.66,1
19767,0,53217,58750,53244.14,58826.06,-27.14,-76.06,0.019646,0.029481,0.493393,97.67,1
19776,0,53207,58740,53243.4,58824.34,-36.4,-84.34,0.01966,0.029511,0.493331,97.67,1
19786,0,53209,58738,53242.71,58822.62,-33.71,-84.62,0.019673,0.02954,0.493133,97.67,1
19796,0,53199,58727,53241.84,58820.7,-42.84,-93.7,0.019689,0.029572,0.493193,97.67,1
19806,0,53206,58716,53241.12,58818.61,-35.13,-102.61,0.019703,0.029608,0.492597,97.69,1
19816,0,53201,58707,53240.32,58816.38,-39.32,-109.38,0.019718,0.029646,0.492021,97.7,1
19826,0,53190,58701,53239.32,58814.07,-49.32,-113.07,0.019736,0.029685,0.491949,97.7,1
19836,0,53184,58701,53238.21,58811.81,-54.21,-110.81,0.019757,0.029724,0.492301,97.69,1
19847,0,53185,58699,53237.15,58809.55,-52.15,-110.55,0.019777,0.029762,0.492506,97.69,1
19856,0,53183,58692,53236.07,58807.2,-53.07,-115.2,0.019798,0.029802,0.492631,97.68,1
19866,0,53187,58686,53235.09,58804.78,-48.09,-118.78,0.019816,0.029843,0.492285,97.69,1
19876,0,53189,58683,53234.17,58802.34,-45.17,-119.34,0.019833,0.029885,0.491729,97.71,1
19887,0,53178,58669,53233.05,58799.67,-55.05,-130.68,0.019854,0.02993,0.49148,97.71,1
19896,0,53171,58657,53231.8,58796.82,-60.8,-139.82,0.019878,0.029979,0.491357,97.72,1
19906,0,53172,58649,53230.61,58793.87,-58.61,-144.87,0.0199,0.030029,0.490851,97.73,1
19916,0,53177,58665,53229.54,58791.3,-52.54,-126.3,0.01992,0.030072,0.490576,97.74,1
19927,0,53178,58662,53228.51,58788.71,-50.51,-126.71,0.01994,0.030117,0.490141,97.75,1
19936,0,53175,58660,53227.44,58786.14,-52.44,-126.14,0.01996,0.03016,0.489869,97.75,1
19946,0,53179,58657,53226.47,58783.55,-47.47,-126.55,0.019978,0.030204,0.489233,97.77,1
19956,0,53175,58654,53225.44,58780.96,-50.44,-126.96,0.019997,0.030248,0.488793,97.78,1
19966,0,53182,58666,53224.57,58778.66,-42.57,-112.66,0.020013,0.030287,0.488313,97.79,1
19976,0,53180,58675,53223.68,58776.59,-43.68,-101.59,0.02003,0.030323,0.488234,97.79,1
19986,0,53191,58675,53223.03,58774.56,-32.03,-99.56,0.020042,0.030357,0.487578,97.81,1
19996,0,53190,58682,53222.37,58772.71,-32.37,-90.71,0.020055,0.030389,0.487174,97.82,1
20005,0,53193,58691,53221.78,58771.08,-28.79,-80.08,0.020066,0.030416,0.486868,97.83,1
20017,0,53189,58684,53221.13,58769.34,-32.13,-85.34,0.020078,0.030446,0.486586,97.84,1
20026,0,53187,58683,53220.45,58767.61,-33.45,-84.61,0.020091,0.030475,0.486385,97.84,1
20035,0,53194,58697,53219.92,58766.2,-25.92,-69.2,0.020101,0.030499,0.486193,97.85,1
20046,0,53187,58687,53219.26,58764.62,-32.26,-77.62,0.020113,0.030526,0.486097,97.85,1
20056,0,53197,58693,53218.82,58763.18,-21.82,-70.18,0.020122,0.030551,0.485735,97.86,1
20066,0,53200,58698,53218.44,58761.88,-18.45,-63.88,0.020129,0.030573,0.485392,97.87,1
20076,0,53191,58700,53217.9,58760.64,-26.9,-60.64,0.020139,0.030594,0.485401,97.86,1
20086,0,53193,58711,53217.4,58759.65,-24.4,-48.65,0.020148,0.030611,0.485507,97.86,1
20096,0,53199,58717,53217.03,58758.8,-18.04,-41.8,0.020155,0.030625,0.485496,97.86,1
20106,0,53210,58734,53216.89,58758.3,-6.89,-24.3,0.020158,0.030634,0.485442,97.86,1
20116,0,53217,58743,53216.9,58758,0.1,-15,0.020158,0.030639,0.485406,97.86,1
20125,0,53217,58762,53216.9,58758.08,0.1,3.92,0.020158,0.030638,0.485402,97.86,1
20135,0,53221,58758,53216.98,58758.08,4.02,-0.08,0.020156,0.030638,0.485414,97.86,1
20146,0,53221,58762,53217.06,58758.16,3.94,3.84,0.020155,0.030636,0.485424,97.86,1
20156,0,53231,58770,53217.34,58758.39,13.66,11.61,0.020149,0.030632,0.485555,97.86,1
20165,0,53237,58792,53217.73,58759.07,19.27,32.93,0.020142,0.030621,0.485689,97.86,1
20176,0,53237,58784,53218.12,58759.57,18.88,24.43,0.020135,0.030612,0.485892,97.85,1
20186,0,53236,58788,53218.47,58760.14,17.53,27.86,0.020128,0.030603,0.486024,97.85,1
20196,0,53235,58804,53218.8,58761.01,16.2,42.99,0.020122,0.030588,0.485941,97.85,1
20206,0,53239,58801,53219.21,58761.81,19.79,39.19,0.020114,0.030574,0.486022,97.85,1
20215,0,53237,58819,53219.57,58762.96,17.43,56.04,0.020108,0.030555,0.485755,97.86,1
20226,0,53248,58824,53220.14,58764.18,27.86,59.82,0.020097,0.030534,0.485828,97.85,1
20235,0,53250,58831,53220.73,58765.52,29.27,65.48,0.020086,0.030511,0.485851,97.85,1
20246,0,53252,58838,53221.36,58766.97,30.64,71.03,0.020074,0.030486,0.485817,97.85,1
20255,0,53257,58840,53222.07,58768.43,34.93,71.57,0.02006,0.030462,0.486021,97.85,1
20267,0,53264,58867,53222.91,58770.41,41.09,96.59,0.020045,0.030428,0.485913,97.85,1
20276,0,53267,58881,53223.8,58772.62,43.2,108.38,0.020028,0.03039,0.485545,97.86,1
20286,0,53277,58908,53224.86,58775.33,52.14,132.67,0.020008,0.030344,0.484928,97.88,1
20295,0,53284,58914,53226.04,58778.1,57.96,135.89,0.019986,0.030297,0.484746,97.88,1
20305,0,53286,58919,53227.24,58780.92,58.76,138.08,0.019963,0.030249,0.484548,97.89,1
20316,0,53287,58917,53228.44,58783.64,58.56,133.36,0.019941,0.030203,0.484553,97.89,1
20326,0,53285,58921,53229.57,58786.39,55.43,134.61,0.01992,0.030156,0.484182,97.9,1
20336,0,53288,58940,53230.74,58789.46,57.26,150.54,0.019898,0.030104,0.483226,97.92,1
20345,0,53287,58943,53231.87,58792.53,55.13,150.46,0.019876,0.030051,0.48208,97.95,1
20356,0,53304,58959,53233.31,58795.87,70.69,163.13,0.019849,0.029995,0.482016,97.95,1
20366,0,53318,58989,53235,58799.73,83,189.27,0.019818,0.029929,0.482072,97.95,1
20375,0,53318,58995,53236.66,58803.64,81.34,191.36,0.019786,0.029863,0.481764,97.96,1
20385,0,53321,59003,53238.35,58807.62,82.65,195.38,0.019755,0.029795,0.481401,97.96,1
20396,0,53319,59017,53239.96,58811.81,79.04,205.19,0.019724,0.029724,0.479952,98,1
20406,0,53331,59025,53241.79,58816.08,89.21,208.92,0.01969,0.029651,0.479722,98.01,1
20416,0,53336,59045,53243.67,58820.66,92.33,224.34,0.019655,0.029573,0.478949,98.03,1
20425,0,53340,59064,53245.6,58825.53,94.4,238.47,0.019619,0.02949,0.477561,98.06,1
20435,0,53349,59086,53247.67,58830.74,101.33,255.26,0.01958,0.029402,0.47611,98.1,1
20446,0,53359,59102,53249.9,58836.16,109.1,265.84,0.019538,0.02931,0.475205,98.12,1
20456,0,53367,59113,53252.24,58841.7,114.76,271.3,0.019494,0.029216,0.474881,98.13,1
20465,0,53366,59122,53254.52,58847.31,111.48,274.69,0.019451,0.02912,0.473828,98.15,1
20475,0,53374,59139,53256.91,58853.15,117.09,285.85,0.019406,0.029021,0.472936,98.18,1
20486,0,53379,59163,53259.35,58859.35,119.65,303.65,0.01936,0.028916,0.471257,98.22,1
20495,0,53395,59189,53262.06,58865.94,132.94,323.06,0.019309,0.028804,0.47043,98.24,1
20506,0,53407,59223,53264.96,58873.08,142.04,349.91,0.019255,0.028682,0.469217,98.27,1
20515,0,53424,59259,53268.15,58880.8,155.85,378.2,0.019195,0.028551,0.468356,98.29,1
20525,0,53434,59289,53271.46,58888.97,162.54,400.03,0.019133,0.028413,0.467097,98.32,1
20536,0,53444,59294,53274.91,58897.07,169.09,396.93,0.019068,0.028275,0.46731,98.32,1
20545,0,53443,59301,53278.28,58905.15,164.72,395.85,0.019005,0.028138,0.466871,98.33,1
20556,0,53444,59297,53281.59,58912.99,162.41,384.01,0.018943,0.028005,0.466889,98.33,1
20566,0,53446,59296,53284.88,58920.66,161.12,375.34,0.018881,0.027875,0.467244,98.32,1
20575,0,53440,59263,53287.99,58927.51,152.01,335.49,0.018823,0.027758,0.468531,98.29,1
20586,0,53429,59256,53290.81,58934.08,138.19,321.92,0.01877,0.027647,0.468726,98.28,1
20595,0,53419,59245,53293.37,58940.3,125.63,304.7,0.018722,0.027541,0.468345,98.29,1
20605,0,53423,59223,53295.96,58945.95,127.04,277.05,0.018673,0.027445,0.469303,98.27,1
20616,0,53422,59227,53298.49,58951.57,123.51,275.43,0.018626,0.02735,0.469935,98.25,1
20625,0,53409,59213,53300.7,58956.8,108.3,256.2,0.018584,0.027261,0.469882,98.25,1
20635,0,53412,59195,53302.92,58961.57,109.07,233.43,0.018542,0.027181,0.470691,98.23,1
20645,0,53412,59192,53305.1,58966.17,106.89,225.82,0.018502,0.027102,0.471544,98.21,1
20656,0,53409,59191,53307.18,58970.67,101.82,220.33,0.018463,0.027026,0.472142,98.2,1
20665,0,53404,59187,53309.12,58975,94.88,212,0.018426,0.026953,0.472455,98.19,1
20675,0,53403,59191,53311,58979.32,92,211.68,0.018391,0.02688,0.472566,98.19,1
20685,0,53402,59183,53312.82,58983.39,89.18,199.61,0.018357,0.02681,0.472827,98.18,1
20696,0,53405,59182,53314.66,58987.36,90.34,194.64,0.018322,0.026743,0.473303,98.17,1
20705,0,53406,59186,53316.49,58991.33,89.51,194.66,0.018288,0.026676,0.473714,98.16,1
20715,0,53410,59202,53318.36,58995.55,91.64,206.45,0.018253,0.026604,0.473936,98.15,1
20725,0,53411,59209,53320.21,58999.82,90.79,209.18,0.018218,0.026532,0.474015,98.15,1
20734,0,53417,59204,53322.15,59003.9,94.85,200.1,0.018182,0.026463,0.474639,98.13,1
20746,0,53413,59222,53323.97,59008.26,89.03,213.73,0.018148,0.026389,0.474456,98.14,1
20755,0,53416,59212,53325.82,59012.34,90.18,199.66,0.018113,0.02632,0.474759,98.13,1
20765,0,53423,59210,53327.76,59016.29,95.24,193.71,0.018077,0.026253,0.475573,98.11,1
20775,0,53418,59215,53329.57,59020.27,88.43,194.73,0.018043,0.026185,0.475879,98.1,1
20785,0,53412,59221,53331.21,59024.29,80.79,196.71,0.018012,0.026117,0.475642,98.11,1
20795,0,53415,59217,53332.89,59028.14,82.11,188.86,0.017981,0.026052,0.4757,98.11,1
20805,0,53421,59216,53334.66,59031.9,86.34,184.1,0.017947,0.025988,0.476148,98.1,1
20814,0,53420,59216,53336.36,59035.58,83.64,180.41,0.017915,0.025926,0.476513,98.09,1
20826,0,53423,59222,53338.1,59039.32,84.9,182.68,0.017883,0.025863,0.476896,98.08,1
20835,0,53420,59230,53339.73,59043.13,80.27,186.87,0.017852,0.025798,0.476881,98.08,1
20845,0,53426,59239,53341.46,59047.05,84.54,191.95,0.01782,0.025732,0.476996,98.08,1
20855,0,53431,59232,53343.25,59050.75,87.75,181.25,0.017786,0.025669,0.477595,98.06,1
20865,0,53425,59244,53344.89,59054.61,80.11,189.39,0.017756,0.025604,0.477498,98.06,1
20876,0,53428,59247,53346.55,59058.46,81.45,188.54,0.017724,0.025538,0.477506,98.06,1
20885,0,53423,59240,53348.08,59062.1,74.92,177.9,0.017696,0.025477,0.477404,98.06,1
20894,0,53425,59231,53349.62,59065.48,75.38,165.52,0.017667,0.02542,0.477625,98.06,1
20905,0,53418,59240,53350.99,59068.97,67.01,171.03,0.017641,0.025361,0.477269,98.07,1
20915,0,53424,59243,53352.45,59072.45,71.55,170.55,0.017614,0.025302,0.477163,98.07,1
20925,0,53425,59249,53353.9,59075.98,71.1,173.02,0.017587,0.025242,0.476975,98.08,1
20935,0,53422,59251,53355.26,59079.48,66.73,171.52,0.017561,0.025183,0.476597,98.09,1
20944,0,53424,59245,53356.64,59082.79,67.36,162.21,0.017535,0.025127,0.476471,98.09,1
20956,0,53421,59241,53357.93,59085.95,63.07,155.05,0.017511,0.025073,0.476295,98.09,1
20965,0,53423,59243,53359.23,59089.09,63.77,153.91,0.017487,0.02502,0.476177,98.1,1
20974,0,53422,59244,53360.49,59092.19,61.51,151.81,0.017463,0.024968,0.475998,98.1,1
20985,0,53421,59252,53361.7,59095.39,59.3,156.61,0.01744,0.024913,0.475611,98.11,1
20995,0,53423,59248,53362.93,59098.44,60.07,149.56,0.017417,0.024862,0.475416,98.11,1
21005,0,53432,59248,53364.31,59101.43,67.69,146.57,0.017391,0.024811,0.47566,98.11,1
21015,0,53428,59257,53365.58,59104.55,62.41,152.45,0.017368,0.024759,0.475511,98.11,1
21024,0,53419,59241,53366.65,59107.28,52.35,133.72,0.017348,0.024712,0.475299,98.12,1
21036,0,53415,59242,53367.62,59109.97,47.38,132.03,0.017329,0.024667,0.474926,98.13,1
21045,0,53417,59226,53368.61,59112.29,48.39,113.71,0.017311,0.024627,0.474918,98.13,1
21054,0,53415,59219,53369.54,59114.42,45.46,104.57,0.017294,0.024591,0.474946,98.13,1
21065,0,53409,59214,53370.33,59116.42,38.67,97.58,0.017279,0.024558,0.474851,98.13,1
21074,0,53403,59211,53370.98,59118.31,32.02,92.69,0.017267,0.024526,0.474635,98.13,1
21086,0,53403,59216,53371.62,59120.26,31.38,95.73,0.017255,0.024493,0.474359,98.14,1
21095,0,53399,59211,53372.17,59122.08,26.83,88.92,0.017244,0.024462,0.474067,98.15,1
21104,0,53407,59209,53372.87,59123.82,34.13,85.18,0.017231,0.024432,0.474007,98.15,1
21115,0,53410,59212,53373.61,59125.58,36.39,86.42,0.017217,0.024403,0.473996,98.15,1
21125,0,53407,59198,53374.28,59127.03,32.72,70.97,0.017205,0.024378,0.474066,98.15,1
21135,0,53394,59201,53374.67,59128.51,19.32,72.49,0.017197,0.024353,0.473825,98.15,1
21145,0,53389,59186,53374.96,59129.66,14.04,56.34,0.017192,0.024334,0.47367,98.16,1
21155,0,53387,59181,53375.2,59130.69,11.8,50.31,0.017187,0.024316,0.473539,98.16,1
21165,0,53384,59174,53375.38,59131.55,8.62,42.45,0.017184,0.024302,0.473437,98.16,1
21174,0,53379,59176,53375.45,59132.44,3.55,43.55,0.017183,0.024287,0.473299,98.17,1
21185,0,53382,59172,53375.58,59133.24,6.42,38.76,0.01718,0.024273,0.473205,98.17,1
21194,0,53377,59162,53375.61,59133.81,1.39,28.19,0.01718,0.024263,0.47315,98.17,1
21206,0,53378,59170,53375.66,59134.53,2.34,35.46,0.017179,0.024251,0.473057,98.17,1
21215,0,53382,59167,53375.78,59135.18,6.21,31.82,0.017177,0.02424,0.472999,98.18,1
21225,0,53372,59168,53375.71,59135.84,-3.71,32.16,0.017178,0.024229,0.472927,98.18,1
21234,0,53367,59169,53375.54,59136.5,-8.54,32.5,0.017181,0.024218,0.47288,98.18,1
21244,0,53372,59169,53375.47,59137.15,-3.47,31.85,0.017182,0.024207,0.472808,98.18,1
21255,0,53367,59143,53375.3,59137.27,-8.3,5.73,0.017186,0.024205,0.472847,98.18,1
21264,0,53357,59138,53374.94,59137.28,-17.94,0.71,0.017192,0.024205,0.47301,98.17,1
21275,0,53347,59129,53374.39,59137.12,-27.39,-8.12,0.017203,0.024208,0.473377,98.17,1
21284,0,53343,59120,53373.76,59136.77,-30.76,-16.77,0.017215,0.024213,0.473823,98.15,1
21295,0,53348,59130,53373.25,59136.64,-25.25,-6.64,0.017224,0.024216,0.474143,98.15,1
21305,0,53347,59125,53372.72,59136.41,-25.72,-11.41,0.017234,0.02422,0.474469,98.14,1
21315,0,53344,59123,53372.15,59136.14,-28.15,-13.14,0.017245,0.024224,0.47486,98.13,1
21324,0,53336,59099,53371.42,59135.4,-35.43,-36.4,0.017258,0.024237,0.475382,98.12,1
21335,0,53321,59074,53370.42,59134.17,-49.42,-60.18,0.017277,0.024257,0.476296,98.09,1
21345,0,53316,59056,53369.33,59132.61,-53.34,-76.61,0.017297,0.024284,0.477208,98.07,1
21354,0,53317,59026,53368.29,59130.48,-51.29,-104.48,0.017317,0.02432,0.477525,98.06,1
21365,0,53298,59003,53366.89,59127.93,-68.89,-124.93,0.017343,0.024363,0.478483,98.04,1
21374,0,53277,58966,53365.09,59124.69,-88.09,-158.69,0.017377,0.024418,0.480063,98,1
21384,0,53265,58911,53363.09,59120.42,-98.09,-209.42,0.017414,0.02449,0.480766,97.98,1
21395,0,53234,58864,53360.51,59115.29,-126.51,-251.29,0.017463,0.024577,0.482818,97.93,1
21404,0,53214,58822,53357.58,59109.43,-143.58,-287.43,0.017518,0.024676,0.485206,97.87,1
21414,0,53202,58790,53354.46,59103.04,-152.46,-313.04,0.017576,0.024784,0.48729,97.82,1
21425,0,53195,58759,53351.27,59096.16,-156.27,-337.16,0.017636,0.0249,0.488374,97.79,1
21435,0,53186,58741,53347.97,59089.06,-161.97,-348.06,0.017698,0.025021,0.489535,97.76,1
21444,0,53181,58715,53344.63,59081.58,-163.63,-366.58,0.01776,0.025147,0.489735,97.76,1
21454,0,53171,58717,53341.16,59074.29,-170.16,-357.29,0.017825,0.025271,0.491353,97.72,1
21465,0,53158,58704,53337.5,59066.89,-179.5,-362.89,0.017894,0.025396,0.493823,97.65,1
21474,0,53155,58681,53333.85,59059.17,-178.86,-378.17,0.017962,0.025527,0.495153,97.62,1
21485,0,53138,58666,53329.94,59051.31,-191.94,-385.31,0.018036,0.02566,0.497751,97.56,1
21494,0,53136,58642,53326.06,59043.12,-190.06,-401.13,0.018109,0.025798,0.499001,97.52,1
21505,0,53132,58634,53322.18,59034.94,-190.18,-400.94,0.018181,0.025937,0.500174,97.5,1
21515,0,53129,58631,53318.32,59026.86,-189.32,-395.86,0.018254,0.026074,0.50142,97.46,1
21524,0,53119,58630,53314.33,59018.93,-195.33,-388.93,0.018329,0.026208,0.503656,97.41,1
21534,0,53124,58627,53310.53,59011.09,-186.53,-384.09,0.0184,0.026341,0.504947,97.38,1
21544,0,53121,58632,53306.73,59003.51,-185.73,-371.51,0.018471,0.026469,0.506658,97.33,1
21555,0,53133,58626,53303.26,58995.96,-170.26,-369.96,0.018536,0.026597,0.506742,97.33,1
21564,0,53117,58613,53299.54,58988.3,-182.54,-375.3,0.018606,0.026727,0.507811,97.3,1
21575,0,53111,58605,53295.77,58980.64,-184.77,-375.64,0.018677,0.026857,0.509029,97.27,1
21584,0,53119,58599,53292.23,58973.01,-173.23,-374.01,0.018743,0.026987,0.509138,97.27,1
21594,0,53109,58592,53288.57,58965.39,-179.57,-373.39,0.018812,0.027116,0.509856,97.25,1
21605,0,53114,58601,53285.08,58958.1,-171.08,-357.1,0.018877,0.027239,0.510422,97.24,1
21614,0,53105,58608,53281.48,58951.1,-176.48,-343.1,0.018945,0.027358,0.511971,97.2,1
21624,0,53113,58605,53278.12,58944.18,-165.12,-339.18,0.019008,0.027475,0.512628,97.18,1
21635,0,53106,58606,53274.67,58937.42,-168.68,-331.42,0.019073,0.02759,0.513828,97.15,1
21645,0,53106,58610,53271.3,58930.87,-165.3,-320.88,0.019136,0.027701,0.515072,97.12,1
21654,0,53117,58609,53268.22,58924.44,-151.22,-315.44,0.019194,0.02781,0.515384,97.12,1
21665,0,53113,58616,53265.12,58918.27,-152.12,-302.27,0.019252,0.027915,0.516172,97.1,1
21675,0,53109,58611,53262,58912.12,-153,-301.13,0.019311,0.028019,0.517035,97.07,1
21684,0,53107,58610,53258.9,58906.08,-151.9,-296.08,0.019369,0.028122,0.517951,97.05,1
21695,0,53108,58616,53255.88,58900.28,-147.88,-284.28,0.019425,0.02822,0.518913,97.03,1
21704,0,53107,58613,53252.91,58894.54,-145.91,-281.54,0.019481,0.028318,0.519797,97.01,1
21713,0,53113,58613,53250.11,58888.91,-137.11,-275.91,0.019534,0.028414,0.520251,96.99,1
21725,0,53114,58619,53247.39,58883.51,-133.39,-264.51,0.019585,0.028505,0.520778,96.98,1
21734,0,53108,58615,53244.6,58878.14,-136.61,-263.14,0.019637,0.028596,0.521527,96.96,1
21744,0,53116,58615,53242.03,58872.88,-126.04,-257.88,0.019685,0.028686,0.521774,96.96,1
21754,0,53116,58624,53239.51,58867.91,-123.52,-243.91,0.019733,0.02877,0.522227,96.94,1
21765,0,53115,58615,53237.03,58862.85,-122.03,-247.85,0.01978,0.028856,0.522494,96.94,1
21774,0,53107,58605,53234.43,58857.69,-127.43,-252.7,0.019828,0.028944,0.522938,96.93,1
21785,0,53106,58608,53231.86,58852.7,-125.86,-244.7,0.019877,0.029029,0.523485,96.91,1
21794,0,53103,58593,53229.28,58847.51,-126.29,-254.51,0.019925,0.029117,0.523803,96.9,1
21804,0,53098,58577,53226.66,58842.1,-128.66,-265.1,0.019974,0.029209,0.523977,96.9,1
21815,0,53099,58592,53224.11,58837.1,-125.11,-245.1,0.020022,0.029294,0.524455,96.89,1
21824,0,53101,58584,53221.65,58832.03,-120.65,-248.04,0.020068,0.02938,0.524612,96.88,1
21833,0,53089,58569,53219,58826.77,-130,-257.77,0.020118,0.029469,0.525039,96.87,1
21844,0,53087,58565,53216.35,58821.54,-129.36,-256.54,0.020168,0.029558,0.525453,96.86,1
21854,0,53085,58557,53213.73,58816.25,-128.73,-259.25,0.020217,0.029648,0.525756,96.86,1
21864,0,53078,58550,53211.01,58810.92,-133.02,-260.93,0.020268,0.029739,0.526257,96.84,1
21874,0,53077,58561,53208.33,58805.92,-131.34,-244.93,0.020319,0.029824,0.52705,96.82,1
21884,0,53084,58559,53205.85,58800.99,-121.85,-241.99,0.020365,0.029908,0.527383,96.82,1
21894,0,53081,58551,53203.35,58795.99,-122.36,-244.99,0.020412,0.029993,0.527666,96.81,1
21905,0,53078,58562,53200.85,58791.31,-122.85,-229.31,0.020459,0.030072,0.528337,96.79,1
21914,0,53078,58558,53198.39,58786.64,-120.39,-228.64,0.020506,0.030152,0.528887,96.78,1
21923,0,53076,58550,53195.94,58781.91,-119.94,-231.91,0.020552,0.030232,0.529334,96.77,1
21935,0,53074,58557,53193.5,58777.42,-119.5,-220.42,0.020597,0.030309,0.53001,96.75,1
21944,0,53075,58549,53191.14,58772.85,-116.14,-223.85,0.020642,0.030386,0.530432,96.74,1
21953,0,53078,58564,53188.87,58768.67,-110.87,-204.68,0.020684,0.030457,0.531002,96.72,1
21964,0,53078,58565,53186.66,58764.6,-108.66,-199.61,0.020726,0.030527,0.531564,96.71,1
21974,0,53082,58566,53184.57,58760.64,-102.57,-194.64,0.020766,0.030594,0.531942,96.7,1
21984,0,53076,58562,53182.39,58756.66,-106.39,-194.66,0.020806,0.030662,0.532491,96.69,1
21994,0,53080,58553,53180.35,58752.59,-100.35,-199.59,0.020845,0.030731,0.532667,96.68,1
22004,0,53074,58552,53178.22,58748.58,-104.22,-196.58,0.020885,0.030799,0.533076,96.67,1
22013,0,53073,58556,53176.12,58744.73,-103.12,-188.73,0.020924,0.030865,0.533586,96.66,1
22024,0,53063,58545,53173.86,58740.73,-110.86,-195.73,0.020967,0.030933,0.534318,96.64,1
22034,0,53054,58528,53171.46,58736.48,-117.46,-208.48,0.021012,0.031005,0.535112,96.62,1
22043,0,53062,58517,53169.27,58732.09,-107.27,-215.09,0.021053,0.03108,0.535254,96.62,1
22054,0,53051,58508,53166.91,58727.61,-115.91,-219.61,0.021098,0.031156,0.535716,96.61,1
22064,0,53043,58492,53164.43,58722.9,-121.43,-230.9,0.021144,0.031237,0.536199,96.6,1
22073,0,53041,58489,53161.96,58718.23,-120.96,-229.23,0.021191,0.031316,0.536691,96.58,1
22084,0,53030,58467,53159.33,58713.2,-129.33,-246.2,0.02124,0.031402,0.537219,96.57,1
22093,0,53026,58460,53156.66,58708.14,-130.66,-248.14,0.02129,0.031488,0.537765,96.56,1
22105,0,53024,58452,53154.01,58703.02,-130.01,-251.02,0.02134,0.031575,0.538192,96.55,1
22114,0,53018,58453,53151.29,58698.02,-133.29,-245.02,0.021391,0.03166,0.538952,96.53,1
22124,0,53018,58464,53148.62,58693.34,-130.63,-229.34,0.021441,0.03174,0.539931,96.5,1
22134,0,53025,58488,53146.15,58689.23,-121.15,-201.23,0.021488,0.03181,0.541009,96.47,1
22144,0,53042,58506,53144.07,58685.57,-102.07,-179.57,0.021527,0.031872,0.541586,96.46,1
22154,0,53051,58510,53142.21,58682.06,-91.21,-172.06,0.021562,0.031932,0.541843,96.45,1
22164,0,53039,58500,53140.15,58678.42,-101.15,-178.42,0.021601,0.031994,0.5424,96.44,1
22174,0,53032,58472,53137.99,58674.29,-105.99,-202.29,0.021642,0.032065,0.542695,96.43,1
22183,0,53027,58445,53135.77,58669.71,-108.77,-224.71,0.021683,0.032143,0.542614,96.43,1
22195,0,53017,58429,53133.39,58664.89,-116.39,-235.89,0.021728,0.032225,0.542639,96.43,1
22204,0,53017,58418,53131.07,58659.95,-114.07,-241.95,0.021772,0.032309,0.542394,96.44,1
22213,0,53012,58404,53128.68,58654.83,-116.68,-250.83,0.021817,0.032396,0.542054,96.45,1
22224,0,52997,58379,53126.05,58649.32,-129.05,-270.32,0.021866,0.03249,0.541849,96.45,1
22234,0,52991,58348,53123.35,58643.29,-132.35,-295.29,0.021917,0.032593,0.541102,96.47,1
22244,0,52979,58303,53120.46,58636.49,-141.46,-333.49,0.021971,0.032709,0.53968,96.51,1
22254,0,52958,58281,53117.21,58629.38,-159.21,-348.38,0.022033,0.03283,0.538917,96.53,1
22264,0,52954,58272,53113.95,58622.23,-159.95,-350.23,0.022094,0.032952,0.538165,96.55,1
22274,0,52950,58273,53110.67,58615.25,-160.67,-342.25,0.022156,0.033071,0.537755,96.56,1
22283,0,52955,58282,53107.56,58608.58,-152.56,-326.59,0.022214,0.033185,0.537344,96.57,1
22294,0,52955,58283,53104.51,58602.07,-149.52,-319.07,0.022272,0.033296,0.53699,96.58,1
22303,0,52959,58270,53101.6,58595.43,-142.61,-325.43,0.022327,0.03341,0.536042,96.6,1
22313,0,52957,58254,53098.71,58588.6,-141.71,-334.61,0.022381,0.033526,0.534783,96.63,1
22324,0,52944,58257,53095.62,58581.98,-151.62,-324.98,0.022439,0.033639,0.53443,96.64,1
22334,0,52945,58262,53092.61,58575.58,-147.61,-313.58,0.022496,0.033748,0.534184,96.65,1
22343,0,52960,58275,53089.96,58569.57,-129.96,-294.57,0.022546,0.033851,0.53351,96.66,1
22354,0,52967,58295,53087.5,58564.07,-120.5,-269.07,0.022592,0.033945,0.533039,96.67,1
22364,0,52971,58303,53085.17,58558.85,-114.17,-255.85,0.022636,0.034034,0.532599,96.69,1
22373,0,52965,58297,53082.77,58553.62,-117.77,-256.62,0.022681,0.034124,0.532309,96.69,1
22384,0,52963,58305,53080.37,58548.65,-117.37,-243.65,0.022726,0.034208,0.5323,96.69,1
22393,0,52964,58298,53078.05,58543.64,-114.05,-245.64,0.02277,0.034294,0.532095,96.7,1
22403,0,52965,58300,53075.79,58538.76,-110.79,-238.77,0.022813,0.034377,0.5319,96.7,1
22414,0,52961,58307,53073.5,58534.13,-112.5,-227.13,0.022856,0.034456,0.532028,96.7,1
22423,0,52975,58328,53071.53,58530.01,-96.53,-202.01,0.022893,0.034527,0.531989,96.7,1
22433,0,52977,58320,53069.64,58525.81,-92.64,-205.81,0.022929,0.034598,0.531734,96.71,1
22444,0,52979,58316,53067.82,58521.62,-88.82,-205.62,0.022963,0.03467,0.531346,96.72,1
22453,0,52984,58315,53066.15,58517.49,-82.15,-202.49,0.022994,0.034741,0.530791,96.73,1
22464,0,52984,58333,53064.51,58513.8,-80.51,-180.8,0.023025,0.034804,0.530567,96.74,1
22473,0,52983,58340,53062.88,58510.33,-79.88,-170.33,0.023056,0.034863,0.530493,96.74,1
22482,0,52984,58340,53061.3,58506.92,-77.3,-166.92,0.023086,0.034921,0.530391,96.74,1
22494,0,52992,58349,53059.91,58503.76,-67.91,-154.77,0.023112,0.034975,0.530195,96.75,1
22503,0,53006,58362,53058.83,58500.93,-52.84,-138.93,0.023132,0.035024,0.529845,96.75,1
22513,0,52997,58366,53057.6,58498.23,-60.6,-132.23,0.023156,0.03507,0.529761,96.76,1
22523,0,52994,58364,53056.33,58495.55,-62.33,-131.55,0.02318,0.035116,0.52973,96.76,1
22533,0,52997,58377,53055.14,58493.18,-58.14,-116.18,0.023202,0.035156,0.529776,96.76,1
22544,0,53000,58389,53054.04,58491.1,-54.04,-102.1,0.023223,0.035192,0.529875,96.75,1
22553,0,53007,58390,53053.1,58489.08,-46.11,-99.08,0.02324,0.035226,0.529835,96.75,1
22562,0,53012,58401,53052.28,58487.32,-40.28,-86.32,0.023256,0.035256,0.529804,96.75,1
22574,0,53008,58404,53051.4,58485.65,-43.4,-81.65,0.023272,0.035285,0.529868,96.75,1
22583,0,53018,58406,53050.73,58484.06,-32.73,-78.06,0.023285,0.035312,0.529784,96.76,1
22594,0,53024,58415,53050.2,58482.68,-26.2,-67.68,0.023295,0.035336,0.529691,96.76,1
22603,0,53017,58419,53049.53,58481.41,-32.54,-62.41,0.023308,0.035358,0.529716,96.76,1
22614,0,53025,58437,53049.05,58480.51,-24.05,-43.52,0.023317,0.035373,0.529736,96.76,1
22624,0,53024,58438,53048.55,58479.67,-24.55,-41.67,0.023326,0.035387,0.529771,96.76,1
22633,0,53023,58431,53048.04,58478.69,-25.04,-47.7,0.023336,0.035404,0.529783,96.76,1
22643,0,53021,58432,53047.5,58477.76,-26.5,-45.76,0.023346,0.03542,0.529823,96.75,1
22653,0,53024,58429,53047.03,58476.78,-23.03,-47.79,0.023355,0.035436,0.529813,96.75,1
22664,0,53024,58442,53046.57,58476.09,-22.57,-34.09,0.023364,0.035448,0.529859,96.75,1
22673,0,53019,58439,53046.02,58475.35,-27.02,-36.35,0.023374,0.035461,0.529949,96.75,1
22682,0,53025,58444,53045.6,58474.72,-20.6,-30.72,0.023382,0.035472,0.529988,96.75,1
22693,0,53030,58440,53045.29,58474.03,-15.29,-34.03,0.023388,0.035484,0.529969,96.75,1
22703,0,53021,58433,53044.8,58473.21,-23.8,-40.21,0.023397,0.035498,0.530005,96.75,1
22714,0,53023,58444,53044.37,58472.62,-21.37,-28.62,0.023405,0.035508,0.530061,96.75,1
22723,0,53014,58429,53043.76,58471.75,-29.77,-42.75,0.023416,0.035523,0.530166,96.75,1
22733,0,53012,58435,53043.13,58471.01,-31.13,-36.02,0.023428,0.035535,0.530325,96.74,1
22744,0,53022,58439,53042.71,58470.38,-20.71,-31.38,0.023436,0.035546,0.530366,96.74,1
22753,0,53025,58455,53042.35,58470.07,-17.36,-15.07,0.023443,0.035551,0.530419,96.74,1
22763,0,53024,58455,53041.99,58469.78,-17.99,-14.78,0.02345,0.035556,0.53048,96.74,1
22772,0,53018,58458,53041.51,58469.54,-23.51,-11.54,0.023459,0.03556,0.530606,96.73,1
22784,0,53023,58461,53041.14,58469.37,-18.14,-8.37,0.023466,0.035563,0.530679,96.73,1
22793,0,53029,58470,53040.9,58469.38,-11.9,0.62,0.02347,0.035563,0.530707,96.73,1
22804,0,53034,58481,53040.76,58469.62,-6.76,11.38,0.023473,0.035559,0.530702,96.73,1
22813,0,53039,58507,53040.73,58470.37,-1.73,36.63,0.023474,0.035546,0.530608,96.73,1
22822,0,53047,58527,53040.86,58471.5,6.14,55.5,0.023471,0.035527,0.530414,96.74,1
22833,0,53056,58529,53041.16,58472.65,14.84,56.35,0.023465,0.035507,0.530262,96.74,1
22843,0,53056,58532,53041.46,58473.83,14.54,58.16,0.02346,0.035487,0.530093,96.75,1
22853,0,53058,58531,53041.79,58474.98,16.21,56.02,0.023454,0.035467,0.529954,96.75,1
22862,0,53049,58532,53041.94,58476.12,7.06,55.88,0.023451,0.035448,0.529754,96.76,1
22874,0,53051,58532,53042.12,58477.24,8.88,54.76,0.023447,0.035429,0.529569,96.76,1
22883,0,53047,58532,53042.22,58478.34,4.78,53.66,0.023445,0.03541,0.529374,96.77,1
22893,0,53050,58538,53042.38,58479.53,7.62,58.46,0.023443,0.035389,0.529151,96.77,1
22903,0,53057,58533,53042.67,58480.6,14.33,52.39,0.023437,0.035371,0.529017,96.77,1
22913,0,53052,58541,53042.86,58481.82,9.14,59.18,0.023433,0.03535,0.528793,96.78,1
22923,0,53039,58533,53042.78,58482.84,-3.79,50.16,0.023435,0.035333,0.528615,96.78,1
22932,0,53045,58547,53042.83,58484.12,2.17,62.88,0.023434,0.035311,0.528331,96.79,1
22943,0,53051,58574,53042.99,58485.92,8.01,88.07,0.023431,0.03528,0.527796,96.81,1
22952,0,53063,58586,53043.39,58487.92,19.61,98.07,0.023423,0.035246,0.527224,96.82,1
22964,0,53068,58598,53043.89,58490.13,24.11,107.87,0.023414,0.035208,0.526568,96.84,1
22973,0,53078,58598,53044.57,58492.29,33.43,105.71,0.023401,0.035171,0.526111,96.85,1
22982,0,53073,58597,53045.14,58494.39,27.86,102.61,0.02339,0.035136,0.525589,96.86,1
22993,0,53068,58589,53045.6,58496.28,22.4,92.72,0.023382,0.035103,0.525118,96.87,1
23003,0,53069,58577,53046.07,58497.89,22.93,79.11,0.023373,0.035076,0.524823,96.88,1
23013,0,53065,58561,53046.44,58499.16,18.55,61.84,0.023366,0.035054,0.524647,96.88,1
23023,0,53049,58528,53046.5,58499.73,2.5,28.27,0.023365,0.035044,0.524584,96.89,1
23032,0,53046,58508,53046.48,58499.9,-0.48,8.1,0.023365,0.035041,0.524573,96.89,1
23043,0,53029,58467,53046.13,58499.25,-17.13,-32.25,0.023372,0.035053,0.524587,96.89,1
23052,0,53018,58463,53045.57,58498.52,-27.57,-35.52,0.023382,0.035065,0.524743,96.88,1
23063,0,53014,58453,53044.94,58497.61,-30.94,-44.61,0.023394,0.03508,0.524912,96.88,1
23072,0,53007,58434,53044.18,58496.34,-37.18,-62.34,0.023409,0.035102,0.525081,96.87,1
23084,0,53009,58434,53043.48,58495.1,-34.48,-61.1,0.023422,0.035123,0.525196,96.87,1
23093,0,53003,58422,53042.67,58493.64,-39.67,-71.64,0.023437,0.035148,0.525336,96.87,1
23103,0,53007,58435,53041.96,58492.46,-34.96,-57.46,0.02345,0.035168,0.525499,96.86,1
23112,0,53006,58438,53041.24,58491.38,-35.24,-53.38,0.023464,0.035187,0.525708,96.86,1
23122,0,53004,58439,53040.5,58490.33,-36.5,-51.33,0.023478,0.035205,0.525968,96.85,1
23133,0,53008,58430,53039.85,58489.13,-31.85,-59.13,0.02349,0.035225,0.526043,96.85,1
23142,0,53012,58422,53039.29,58487.79,-27.29,-65.79,0.023501,0.035248,0.52595,96.85,1
23153,0,53009,58418,53038.68,58486.39,-29.68,-68.39,0.023512,0.035272,0.525877,96.85,1
23162,0,53002,58410,53037.95,58484.87,-35.95,-74.87,0.023526,0.035298,0.525879,96.85,1
23174,0,52994,58412,53037.07,58483.41,-43.07,-71.41,0.023543,0.035323,0.526137,96.85,1
23183,0,52989,58394,53036.11,58481.62,-47.11,-87.62,0.023561,0.035354,0.526312,96.84,1
23192,0,52990,58397,53035.19,58479.93,-45.19,-82.93,0.023578,0.035383,0.52649,96.84,1
23202,0,52989,58384,53034.26,58478.01,-45.27,-94.01,0.023595,0.035416,0.526499,96.84,1
23213,0,52989,58373,53033.36,58475.91,-44.36,-102.91,0.023613,0.035451,0.526322,96.84,1
23223,0,52982,58372,53032.33,58473.84,-50.34,-101.84,0.023632,0.035487,0.526385,96.84,1
23232,0,52977,58368,53031.23,58471.72,-54.23,-103.72,0.023653,0.035523,0.526574,96.84,1
23242,0,52978,58367,53030.16,58469.63,-52.16,-102.63,0.023673,0.035559,0.526696,96.83,1
23252,0,52981,58382,53029.18,58467.88,-48.18,-85.88,0.023691,0.035589,0.526947,96.83,1
23262,0,52987,58373,53028.34,58465.98,-41.34,-92.98,0.023707,0.035621,0.526836,96.83,1
23273,0,52983,58386,53027.43,58464.38,-44.43,-78.38,0.023724,0.035649,0.527063,96.82,1
23282,0,52974,58377,53026.37,58462.64,-52.37,-85.64,0.023744,0.035678,0.527493,96.81,1
23291,0,52980,58381,53025.44,58461.01,-45.44,-80.01,0.023762,0.035706,0.527734,96.81,1
23303,0,52984,58375,53024.61,58459.29,-40.61,-84.29,0.023777,0.035736,0.527739,96.81,1
23312,0,52980,58375,53023.72,58457.6,-43.72,-82.61,0.023794,0.035765,0.52788,96.8,1
23323,0,52979,58389,53022.83,58456.23,-43.83,-67.23,0.023811,0.035788,0.528246,96.79,1
23332,0,52983,58371,53022.03,58454.53,-39.03,-83.53,0.023826,0.035817,0.528208,96.79,1
23343,0,52984,58383,53021.27,58453.1,-37.27,-70.1,0.023841,0.035842,0.528315,96.79,1
23353,0,52982,58371,53020.48,58451.46,-38.48,-80.46,0.023855,0.03587,0.528308,96.79,1
23362,0,52972,58366,53019.51,58449.75,-47.52,-83.75,0.023874,0.035899,0.528584,96.79,1
23372,0,52972,58358,53018.57,58447.92,-46.57,-89.92,0.023892,0.03593,0.528714,96.78,1
23383,0,52975,58355,53017.69,58446.07,-42.7,-91.07,0.023908,0.035962,0.528673,96.78,1
23393,0,52974,58364,53016.82,58444.42,-42.82,-80.43,0.023924,0.03599,0.528822,96.78,1
23402,0,52979,58363,53016.07,58442.8,-37.07,-79.8,0.023939,0.036018,0.528776,96.78,1
23413,0,52976,58368,53015.26,58441.3,-39.27,-73.3,0.023954,0.036043,0.528909,96.78,1
23422,0,52957,58345,53014.1,58439.38,-57.1,-94.38,0.023976,0.036076,0.52945,96.76,1
23432,0,52965,58339,53013.12,58437.37,-48.12,-98.37,0.023994,0.036111,0.529485,96.76,1
23443,0,52957,58325,53012,58435.13,-55,-110.13,0.024015,0.036149,0.529585,96.76,1
23452,0,52956,58321,53010.88,58432.84,-54.88,-111.84,0.024037,0.036188,0.529639,96.76,1
23462,0,52954,58339,53009.75,58430.97,-55.75,-91.97,0.024058,0.03622,0.530167,96.75,1
23473,0,52959,58346,53008.73,58429.27,-49.73,-83.27,0.024077,0.036249,0.530566,96.74,1
23482,0,52964,58356,53007.84,58427.81,-43.84,-71.81,0.024094,0.036274,0.530901,96.73,1
23492,0,52959,58366,53006.86,58426.57,-47.86,-60.57,0.024112,0.036296,0.531573,96.71,1
23502,0,52980,58378,53006.33,58425.6,-26.33,-47.6,0.024122,0.036312,0.531647,96.71,1
23513,0,52983,58403,53005.86,58425.15,-22.86,-22.15,0.024131,0.03632,0.531837,96.7,1
23522,0,52984,58412,53005.42,58424.89,-21.43,-12.89,0.024139,0.036324,0.532035,96.7,1
23532,0,52991,58428,53005.14,58424.95,-14.14,3.05,0.024145,0.036323,0.532126,96.7,1
23542,0,52992,58437,53004.87,58425.19,-12.88,11.81,0.02415,0.036319,0.532186,96.7,1
23552,0,53001,58450,53004.8,58425.69,-3.8,24.31,0.024151,0.036311,0.532119,96.7,1
23563,0,53006,58459,53004.82,58426.35,1.18,32.64,0.024151,0.036299,0.53199,96.7,1
23572,0,53005,58451,53004.83,58426.85,0.17,24.15,0.024151,0.036291,0.531916,96.7,1
23582,0,53006,58460,53004.86,58427.51,1.14,32.49,0.02415,0.036279,0.531786,96.71,1
23592,0,53007,58461,53004.9,58428.18,2.1,32.82,0.024149,0.036268,0.531653,96.71,1
23603,0,53013,58473,53005.07,58429.08,7.93,43.92,0.024146,0.036253,0.531447,96.71,1
23612,0,53010,58484,53005.16,58430.17,4.84,53.82,0.024144,0.036234,0.5311,96.72,1
23621,0,53013,58497,53005.32,58431.51,7.68,65.48,0.024141,0.036211,0.530597,96.74,1
23632,0,53018,58495,53005.58,58432.78,12.42,62.21,0.024137,0.036189,0.530195,96.75,1
23642,0,53025,58491,53005.97,58433.95,19.03,57.05,0.024129,0.036169,0.529979,96.75,1
23653,0,53024,58499,53006.33,58435.25,17.67,63.75,0.024122,0.036147,0.529633,96.76,1
23662,0,53026,58507,53006.73,58436.69,19.27,70.31,0.024115,0.036122,0.529205,96.77,1
23672,0,53031,58527,53007.21,58438.49,23.79,88.51,0.024106,0.036092,0.528514,96.79,1
23682,0,53027,58532,53007.61,58440.36,19.39,91.64,0.024098,0.03606,0.527642,96.81,1
23692,0,53030,58545,53008.06,58442.46,21.94,102.54,0.02409,0.036024,0.526554,96.84,1
23702,0,53038,58548,53008.66,58444.57,29.34,103.43,0.024078,0.035988,0.525656,96.86,1
23711,0,53042,58555,53009.33,58446.78,32.67,108.22,0.024066,0.03595,0.524745,96.88,1
23723,0,53043,58571,53010,58449.26,33,121.73,0.024053,0.035907,0.523444,96.91,1
23732,0,53046,58587,53010.72,58452.02,35.28,134.98,0.02404,0.03586,0.521796,96.96,1
23741,0,53063,58615,53011.76,58455.28,51.23,159.72,0.02402,0.035804,0.520018,97,1
23752,0,53077,58630,53013.07,58458.78,63.93,171.22,0.023995,0.035745,0.51862,97.03,1
23761,0,53081,58632,53014.43,58462.24,66.57,169.76,0.02397,0.035685,0.517505,97.06,1
23773,0,53075,58640,53015.64,58465.8,59.36,174.2,0.023947,0.035624,0.515695,97.11,1
23782,0,53073,58629,53016.79,58469.06,56.21,159.94,0.023925,0.035569,0.5143,97.14,1
23791,0,53074,58622,53017.93,58472.12,56.07,149.88,0.023903,0.035516,0.5133,97.17,1
23802,0,53067,58607,53018.91,58474.82,48.09,132.18,0.023885,0.03547,0.512452,97.19,1
23812,0,53069,58599,53019.91,58477.31,49.09,121.69,0.023866,0.035428,0.511996,97.2,1
23823,0,53051,58592,53020.53,58479.6,30.46,112.4,0.023854,0.035388,0.510951,97.23,1
23832,0,53047,58565,53021.07,58481.31,25.93,83.69,0.023844,0.035359,0.510464,97.24,1
23841,0,53035,58531,53021.34,58482.31,13.66,48.69,0.023839,0.035342,0.510273,97.24,1
23853,0,53034,58510,53021.6,58482.86,12.4,27.14,0.023834,0.035333,0.51027,97.24,1
23862,0,53027,58494,53021.71,58483.08,5.29,10.91,0.023832,0.035329,0.51027,97.24,1
23872,0,53013,58480,53021.53,58483.03,-8.54,-3.03,0.023836,0.03533,0.510313,97.24,1
23881,0,53006,58464,53021.23,58482.65,-15.23,-18.65,0.023841,0.035336,0.510409,97.24,1
23891,0,53011,58469,53021.02,58482.37,-10.02,-13.38,0.023845,0.035341,0.510447,97.24,1
23902,0,53014,58472,53020.89,58482.17,-6.89,-10.17,0.023848,0.035344,0.510462,97.24,1
23911,0,53010,58462,53020.67,58481.77,-10.67,-19.77,0.023852,0.035351,0.51048,97.24,1
23922,0,53001,58470,53020.27,58481.53,-19.27,-11.54,0.023859,0.035355,0.510699,97.23,1
23931,0,53010,58474,53020.07,58481.39,-10.07,-7.39,0.023863,0.035358,0.510756,97.23,1
23943,0,53005,58468,53019.77,58481.12,-14.77,-13.12,0.023869,0.035362,0.510874,97.23,1
23952,0,53013,58458,53019.64,58480.66,-6.64,-22.66,0.023871,0.03537,0.510829,97.23,1
23961,0,53002,58470,53019.28,58480.44,-17.29,-10.45,0.023878,0.035374,0.511012,97.22,1
23971,0,52993,58459,53018.76,58480.01,-25.76,-21.02,0.023888,0.035381,0.511394,97.22,1
23982,0,52999,58450,53018.37,58479.42,-19.37,-29.42,0.023895,0.035391,0.511521,97.21,1
23992,0,52999,58451,53017.98,58478.85,-18.98,-27.85,0.023903,0.035401,0.511653,97.21,1
24001,0,52999,58453,53017.6,58478.33,-18.6,-25.34,0.02391,0.03541,0.511796,97.21,1
24012,0,52994,58454,53017.13,58477.85,-23.13,-23.85,0.023919,0.035418,0.512083,97.2,1
24022,0,52986,58448,53016.51,58477.25,-30.51,-29.25,0.02393,0.035429,0.512608,97.18,1
24031,0,52986,58443,53015.9,58476.57,-29.9,-33.57,0.023942,0.03544,0.513069,97.17,1
24042,0,52990,58425,53015.38,58475.54,-25.38,-50.54,0.023952,0.035458,0.513134,97.17,1
24051,0,52984,58423,53014.75,58474.49,-30.75,-51.49,0.023963,0.035476,0.513402,97.16,1
24062,0,52981,58434,53014.08,58473.68,-33.08,-39.68,0.023976,0.03549,0.513949,97.15,1
24072,0,52980,58421,53013.4,58472.63,-33.4,-51.63,0.023989,0.035508,0.514342,97.14,1
24082,0,52981,58423,53012.76,58471.64,-31.76,-48.64,0.024001,0.035524,0.514706,97.13,1
24092,0,52977,58420,53012.04,58470.6,-35.04,-50.61,0.024015,0.035542,0.515204,97.12,1
24101,0,52977,58411,53011.34,58469.41,-34.34,-58.41,0.024028,0.035563,0.515529,97.11,1
24112,0,52968,58414,53010.48,58468.31,-42.48,-54.31,0.024044,0.035581,0.516404,97.09,1
24121,0,52971,58412,53009.69,58467.18,-38.69,-55.18,0.024059,0.035601,0.517033,97.07,1
24132,0,52967,58412,53008.83,58466.08,-41.84,-54.08,0.024075,0.03562,0.51788,97.05,1
24141,0,52970,58414,53008.06,58465.04,-38.06,-51.04,0.02409,0.035637,0.518552,97.04,1
24153,0,52975,58425,53007.4,58464.24,-32.4,-39.24,0.024102,0.035651,0.519102,97.02,1
24162,0,52976,58436,53006.77,58463.67,-30.77,-27.67,0.024114,0.035661,0.51971,97.01,1
24171,0,52977,58449,53006.17,58463.38,-29.18,-14.38,0.024125,0.035666,0.520345,96.99,1
24181,0,52982,58458,53005.69,58463.27,-23.7,-5.27,0.024134,0.035668,0.520787,96.98,1
24192,0,52989,58452,53005.36,58463.05,-16.36,-11.05,0.024141,0.035671,0.520979,96.98,1
24202,0,52988,58467,53005.02,58463.12,-17.02,3.88,0.024147,0.03567,0.521211,96.97,1
24211,0,52990,58468,53004.72,58463.22,-14.72,4.78,0.024153,0.035668,0.521384,96.97,1
24222,0,52994,58483,53004.51,58463.62,-10.51,19.38,0.024157,0.035662,0.521405,96.96,1
24231,0,52999,58491,53004.4,58464.17,-5.4,26.83,0.024159,0.035652,0.521295,96.97,1
24241,0,53005,58514,53004.41,58465.17,0.59,48.83,0.024159,0.035635,0.520845,96.98,1
24252,0,53006,58513,53004.45,58466.13,1.55,46.87,0.024158,0.035619,0.52043,96.99,1
24261,0,53009,58497,53004.54,58466.75,4.46,30.25,0.024156,0.035608,0.520272,96.99,1
24271,0,52999,58498,53004.43,58467.38,-5.43,30.62,0.024158,0.035597,0.520116,97,1
24282,0,52997,58485,53004.28,58467.73,-7.29,17.27,0.024161,0.035591,0.520105,97,1
24292,0,52990,58480,53004,58467.98,-14,12.02,0.024166,0.035587,0.52025,96.99,1
24301,0,52991,58475,53003.74,58468.12,-12.74,6.88,0.024171,0.035585,0.520385,96.99,1
24312,0,52990,58477,53003.47,58468.3,-13.47,8.7,0.024176,0.035582,0.520534,96.99,1
24322,0,52985,58477,53003.1,58468.48,-18.1,8.52,0.024183,0.035579,0.520817,96.98,1
24331,0,52990,58477,53002.83,58468.65,-12.84,8.35,0.024188,0.035576,0.520955,96.98,1
24342,0,52986,58477,53002.5,58468.82,-16.5,8.18,0.024195,0.035573,0.521194,96.97,1
24351,0,52985,58477,53002.15,58468.98,-17.15,8.02,0.024201,0.03557,0.521456,96.96,1
24361,0,52989,58496,53001.89,58469.52,-12.89,26.48,0.024206,0.035561,0.521465,96.96,1
24371,0,52985,58489,53001.55,58469.91,-16.55,19.09,0.024213,0.035554,0.52165,96.96,1
24382,0,52992,58497,53001.36,58470.46,-9.36,26.54,0.024216,0.035545,0.521583,96.96,1
24391,0,52990,58481,53001.13,58470.67,-11.13,10.33,0.02422,0.035541,0.52168,96.96,1
24400,0,52994,58488,53000.99,58471.02,-6.99,16.98,0.024223,0.035535,0.521665,96.96,1
24412,0,52990,58490,53000.77,58471.4,-10.77,18.6,0.024227,0.035529,0.521704,96.96,1
24421,0,52979,58479,53000.33,58471.55,-21.33,7.45,0.024236,0.035526,0.522149,96.95,1
24431,0,52980,58473,52999.93,58471.58,-19.93,1.41,0.024243,0.035525,0.522551,96.94,1
24441,0,52977,58474,52999.47,58471.64,-22.47,2.36,0.024252,0.035525,0.523066,96.92,1
24452,0,52976,58471,52999,58471.62,-23,-0.63,0.024261,0.035525,0.523612,96.91,1
24461,0,52973,58462,52998.48,58471.43,-25.48,-9.43,0.02427,0.035528,0.524268,96.89,1
24470,0,52972,58458,52997.96,58471.17,-25.96,-13.17,0.02428,0.035533,0.524934,96.88,1
24481,0,52961,58446,52997.22,58470.66,-36.22,-24.66,0.024294,0.035541,0.526176,96.85,1
24491,0,52958,58438,52996.43,58470.01,-38.43,-32.01,0.024309,0.035552,0.527501,96.81,1
24502,0,52965,58451,52995.81,58469.63,-30.81,-18.63,0.024321,0.035559,0.528435,96.79,1
24511,0,52968,58465,52995.25,58469.54,-27.25,-4.54,0.024331,0.03556,0.529234,96.77,1
24521,0,52967,58482,52994.69,58469.79,-27.69,12.21,0.024342,0.035556,0.530034,96.75,1
24531,0,52972,58469,52994.24,58469.78,-22.24,-0.78,0.024351,0.035556,0.530578,96.74,1
24541,0,52973,58461,52993.82,58469.6,-20.82,-8.6,0.024359,0.035559,0.531041,96.72,1
24551,0,52961,58444,52993.16,58469.09,-32.16,-25.09,0.024371,0.035568,0.532037,96.7,1
24561,0,52953,58430,52992.35,58468.31,-39.36,-38.31,0.024386,0.035581,0.533398,96.67,1
24571,0,52953,58415,52991.57,58467.25,-38.57,-52.25,0.024401,0.0356,0.53436,96.64,1
24581,0,52946,58397,52990.66,58465.85,-44.66,-68.85,0.024418,0.035624,0.535363,96.62,1
24592,0,52934,58378,52989.52,58464.09,-55.52,-86.09,0.02444,0.035654,0.536884,96.58,1
24601,0,52932,58349,52988.37,58461.79,-56.38,-112.79,0.024461,0.035693,0.537071,96.57,1
24610,0,52916,58323,52986.93,58459.01,-70.93,-136.02,0.024488,0.03574,0.537796,96.56,1
24622,0,52913,58305,52985.45,58455.94,-72.45,-150.94,0.024516,0.035793,0.537614,96.56,1
24631,0,52897,58284,52983.69,58452.5,-86.69,-168.5,0.02455,0.035852,0.538452,96.54,1
24640,0,52892,58269,52981.85,58448.83,-89.86,-179.83,0.024584,0.035915,0.538845,96.53,1
24651,0,52892,58261,52980.06,58445.07,-88.06,-184.07,0.024618,0.035979,0.538502,96.54,1
24660,0,52879,58232,52978.03,58440.81,-99.04,-208.81,0.024656,0.036052,0.537914,96.55,1
24672,0,52880,58231,52976.08,58436.62,-96.08,-205.62,0.024693,0.036124,0.537105,96.57,1
24681,0,52871,58227,52973.98,58432.42,-102.98,-205.43,0.024733,0.036195,0.537681,96.56,1
24690,0,52878,58225,52972.05,58428.28,-94.05,-203.28,0.024769,0.036266,0.536772,96.58,1
24701,0,52881,58247,52970.23,58424.66,-89.23,-177.66,0.024804,0.036328,0.537223,96.57,1
24711,0,52877,58246,52968.37,58421.08,-91.37,-175.09,0.024839,0.036389,0.5382,96.55,1
24720,0,52881,58255,52966.62,58417.76,-85.62,-162.77,0.024872,0.036446,0.539117,96.52,1
24731,0,52879,58249,52964.87,58414.39,-85.87,-165.39,0.024905,0.036504,0.539858,96.5,1
24740,0,52892,58246,52963.41,58411.02,-71.41,-165.02,0.024932,0.036562,0.538614,96.53,1
24752,0,52890,58251,52961.95,58407.82,-71.95,-156.82,0.02496,0.036617,0.538017,96.55,1
24761,0,52891,58248,52960.53,58404.63,-69.53,-156.63,0.024987,0.036671,0.537153,96.57,1
24770,0,52883,58251,52958.98,58401.56,-75.98,-150.56,0.025016,0.036724,0.537492,96.56,1
24781,0,52887,58242,52957.54,58398.37,-70.54,-156.37,0.025043,0.036778,0.536787,96.58,1
24791,0,52889,58243,52956.17,58395.26,-67.17,-152.26,0.025069,0.036832,0.535961,96.6,1
24800,0,52891,58247,52954.87,58392.3,-63.87,-145.3,0.025094,0.036882,0.535199,96.62,1
24811,0,52894,58244,52953.65,58389.33,-59.65,-145.34,0.025117,0.036933,0.534014,96.65,1
24820,0,52878,58237,52952.14,58386.29,-74.14,-149.29,0.025145,0.036985,0.534239,96.64,1
24832,0,52887,58255,52950.83,58383.66,-63.84,-128.66,0.02517,0.03703,0.534396,96.64,1
24841,0,52894,58264,52949.7,58381.27,-55.7,-117.27,0.025191,0.037071,0.53429,96.64,1
24850,0,52896,58265,52948.62,58378.95,-52.63,-113.95,0.025212,0.037111,0.534057,96.65,1
24861,0,52900,58269,52947.65,58376.75,-47.65,-107.75,0.02523,0.037149,0.533679,96.66,1
24870,0,52893,58258,52946.56,58374.37,-53.56,-116.37,0.025251,0.037189,0.533426,96.66,1
24882,0,52898,58262,52945.59,58372.12,-47.59,-110.12,0.025269,0.037228,0.532946,96.68,1
24891,0,52895,58249,52944.58,58369.66,-49.58,-120.66,0.025288,0.03727,0.532157,96.7,1
24900,0,52894,58253,52943.57,58367.33,-49.57,-114.33,0.025307,0.03731,0.531665,96.71,1
24911,0,52896,58268,52942.62,58365.35,-46.62,-97.35,0.025325,0.037344,0.531638,96.71,1
24921,0,52895,58284,52941.66,58363.72,-46.66,-79.72,0.025343,0.037372,0.532226,96.69,1
24930,0,52902,58283,52940.87,58362.11,-38.87,-79.11,0.025358,0.037399,0.532269,96.69,1
24941,0,52913,58283,52940.32,58360.53,-27.32,-77.53,0.025369,0.037427,0.531708,96.71,1
24950,0,52905,58284,52939.61,58359,-34.61,-75,0.025382,0.037453,0.531612,96.71,1
24962,0,52908,58296,52938.98,58357.73,-30.98,-61.73,0.025394,0.037474,0.531673,96.71,1
24971,0,52906,58304,52938.32,58356.66,-32.32,-52.66,0.025406,0.037493,0.532019,96.7,1
24980,0,52915,58321,52937.86,58355.94,-22.86,-34.95,0.025415,0.037505,0.532225,96.69,1
24991,0,52925,58322,52937.6,58355.27,-12.6,-33.27,0.02542,0.037517,0.532134,96.7,1
25000,0,52924,58313,52937.33,58354.42,-13.33,-41.43,0.025425,0.037531,0.531932,96.7,1
25011,0,52923,58316,52937.05,58353.66,-14.05,-37.66,0.02543,0.037544,0.531809,96.7,1
25020,0,52920,58309,52936.71,58352.77,-16.71,-43.77,0.025437,0.03756,0.531655,96.71,1
25031,0,52920,58324,52936.37,58352.19,-16.37,-28.2,0.025443,0.037569,0.531728,96.71,1
25040,0,52923,58317,52936.1,58351.49,-13.11,-34.49,0.025448,0.037581,0.531628,96.71,1
25050,0,52918,58324,52935.74,58350.94,-17.74,-26.95,0.025455,0.037591,0.531761,96.71,1
25061,0,52921,58315,52935.44,58350.23,-14.45,-35.23,0.025461,0.037603,0.531683,96.71,1
25070,0,52912,58301,52934.98,58349.24,-22.98,-48.24,0.025469,0.03762,0.531667,96.71,1
25081,0,52911,58304,52934.5,58348.33,-23.5,-44.34,0.025479,0.037636,0.531755,96.71,1
25091,0,52918,58308,52934.17,58347.53,-16.17,-39.53,0.025485,0.037649,0.531653,96.71,1
25100,0,52924,58340,52933.96,58347.38,-9.96,-7.38,0.025489,0.037652,0.531735,96.71,1
25111,0,52937,58345,52934.02,58347.33,2.98,-2.34,0.025487,0.037653,0.531739,96.71,1
25120,0,52935,58351,52934.04,58347.41,0.96,3.59,0.025487,0.037651,0.531734,96.71,1
25131,0,52931,58343,52933.98,58347.32,-2.98,-4.32,0.025488,0.037653,0.531736,96.71,1
25140,0,52932,58350,52933.94,58347.38,-1.95,2.62,0.025489,0.037652,0.531735,96.71,1
25151,0,52942,58357,52934.1,58347.57,7.89,9.43,0.025486,0.037649,0.531775,96.71,1
25160,0,52939,58362,52934.21,58347.86,4.79,14.14,0.025484,0.037644,0.531747,96.71,1
25170,0,52932,58370,52934.16,58348.3,-2.16,21.7,0.025485,0.037636,0.531634,96.71,1
25180,0,52941,58378,52934.3,58348.9,6.7,29.1,0.025482,0.037626,0.531471,96.71,1
25191,0,52952,58382,52934.66,58349.56,17.34,32.44,0.025475,0.037614,0.531528,96.71,1
25200,0,52955,58380,52935.07,58350.17,19.93,29.82,0.025468,0.037604,0.531731,96.71,1
25211,0,52945,58390,52935.26,58350.97,9.73,39.03,0.025464,0.03759,0.531446,96.71,1
25221,0,52951,58406,52935.58,58352.07,15.42,53.93,0.025458,0.037571,0.530964,96.73,1
25230,0,52952,58404,52935.91,58353.11,16.09,50.89,0.025452,0.037554,0.530584,96.74,1
25240,0,52960,58417,52936.39,58354.39,23.61,62.61,0.025443,0.037532,0.530191,96.75,1
25250,0,52966,58419,52936.98,58355.68,29.02,63.32,0.025431,0.03751,0.530094,96.75,1
25261,0,52961,58421,52937.46,58356.99,23.54,64.01,0.025422,0.037487,0.529649,96.76,1
25270,0,52957,58411,52937.85,58358.07,19.14,52.93,0.025415,0.037469,0.529329,96.77,1
25281,0,52967,58431,52938.44,58359.53,28.56,71.47,0.025404,0.037444,0.528914,96.78,1
25290,0,52973,58447,52939.13,58361.28,33.87,85.72,0.025391,0.037414,0.528289,96.79,1
25299,0,52977,58469,52939.89,58363.44,37.11,105.56,0.025377,0.037377,0.526932,96.83,1
25311,0,52985,58484,52940.79,58365.85,44.21,118.15,0.02536,0.037335,0.525516,96.86,1
25320,0,52998,58490,52941.93,58368.33,56.07,121.67,0.025338,0.037293,0.525265,96.87,1
25331,0,52994,58502,52942.98,58371,51.02,131,0.025318,0.037247,0.523796,96.91,1
25340,0,53006,58496,52944.24,58373.51,61.76,122.49,0.025294,0.037204,0.524282,96.89,1
25350,0,52990,58486,52945.16,58375.76,44.84,110.24,0.025277,0.037166,0.523448,96.91,1
25361,0,52991,58473,52946.07,58377.7,44.93,95.3,0.02526,0.037132,0.523416,96.91,1
25370,0,52984,58449,52946.83,58379.13,37.17,69.87,0.025245,0.037108,0.523736,96.91,1
25380,0,52982,58431,52947.53,58380.17,34.46,50.83,0.025232,0.03709,0.524429,96.89,1
25391,0,52967,58407,52947.92,58380.71,19.07,26.29,0.025225,0.037081,0.524668,96.88,1
25400,0,52962,58396,52948.21,58381.01,13.79,14.98,0.025219,0.037076,0.52483,96.88,1
25410,0,52959,58362,52948.42,58380.63,10.58,-18.63,0.025215,0.037082,0.524868,96.88,1
25419,0,52942,58341,52948.29,58379.84,-6.29,-38.84,0.025218,0.037096,0.524508,96.89,1
25431,0,52939,58322,52948.11,58378.69,-9.11,-56.69,0.025221,0.037115,0.523735,96.91,1
25440,0,52939,58300,52947.93,58377.11,-8.93,-77.11,0.025225,0.037142,0.522212,96.94,1
25451,0,52932,58311,52947.61,58375.79,-15.61,-64.79,0.025231,0.037165,0.521363,96.97,1
25460,0,52922,58302,52947.1,58374.31,-25.1,-72.31,0.02524,0.03719,0.520703,96.98,1
25469,0,52926,58302,52946.68,58372.87,-20.68,-70.87,0.025248,0.037215,0.51985,97,1
25481,0,52916,58291,52946.07,58371.23,-30.07,-80.23,0.02526,0.037243,0.519198,97.02,1
25490,0,52923,58279,52945.6,58369.39,-22.61,-90.39,0.025269,0.037275,0.517583,97.06,1
25500,0,52921,58284,52945.12,58367.68,-24.12,-83.68,0.025278,0.037304,0.516383,97.09,1
25509,0,52918,58270,52944.57,58365.73,-26.57,-95.73,0.025288,0.037337,0.514751,97.13,1
25521,0,52910,58281,52943.88,58364.03,-33.88,-83.04,0.025301,0.037367,0.514304,97.14,1
25530,0,52919,58272,52943.39,58362.19,-24.39,-90.2,0.025311,0.037398,0.512821,97.18,1
25539,0,52919,58277,52942.9,58360.49,-23.9,-83.49,0.02532,0.037427,0.511632,97.21,1
25550,0,52920,58254,52942.44,58358.36,-22.44,-104.36,0.025328,0.037464,0.509292,97.27,1
25560,0,52903,58238,52941.65,58355.96,-38.65,-117.96,0.025343,0.037505,0.50742,97.31,1
25571,0,52902,58229,52940.86,58353.42,-38.86,-124.42,0.025358,0.037548,0.50518,97.37,1
25580,0,52898,58225,52940,58350.85,-42,-125.85,0.025374,0.037592,0.503208,97.42,1
25589,0,52902,58233,52939.24,58348.5,-37.24,-115.5,0.025389,0.037633,0.501449,97.46,1
25601,0,52909,58250,52938.64,58346.53,-29.64,-96.53,0.0254,0.037667,0.500119,97.5,1
25610,0,52906,58245,52937.98,58344.5,-31.98,-99.5,0.025413,0.037701,0.49883,97.53,1
25621,0,52911,58246,52937.44,58342.52,-26.45,-96.52,0.025423,0.037735,0.497289,97.57,1
25630,0,52908,58240,52936.86,58340.48,-28.86,-100.48,0.025434,0.03777,0.495728,97.61,1
25639,0,52913,58251,52936.39,58338.69,-23.39,-87.69,0.025443,0.037801,0.494433,97.64,1
25651,0,52917,58256,52936,58337.03,-19,-81.04,0.02545,0.037829,0.493193,97.67,1
25660,0,52915,58259,52935.58,58335.48,-20.58,-76.48,0.025458,0.037856,0.492221,97.69,1
25670,0,52921,58269,52935.29,58334.15,-14.29,-65.15,0.025464,0.037879,0.491378,97.72,1
25679,0,52924,58270,52935.07,58332.86,-11.07,-62.86,0.025468,0.037901,0.490503,97.74,1
25691,0,52932,58268,52935.01,58331.57,-3.01,-63.57,0.025469,0.037923,0.489449,97.76,1
25700,0,52928,58264,52934.87,58330.22,-6.87,-66.22,0.025471,0.037946,0.488353,97.79,1
25709,0,52919,58256,52934.55,58328.74,-15.55,-72.74,0.025477,0.037971,0.487278,97.82,1
25720,0,52919,58263,52934.24,58327.42,-15.24,-64.43,0.025483,0.037994,0.48649,97.84,1
25730,0,52920,58256,52933.95,58326,-13.95,-70,0.025489,0.038018,0.48545,97.86,1
25740,0,52930,58270,52933.87,58324.88,-3.88,-54.88,0.02549,0.038038,0.484663,97.88,1
25750,0,52931,58274,52933.82,58323.86,-2.82,-49.86,0.025491,0.038055,0.484003,97.9,1
25760,0,52931,58290,52933.76,58323.19,-2.77,-33.19,0.025492,0.038067,0.483712,97.91,1
25769,0,52931,58297,52933.71,58322.67,-2.71,-25.67,0.025493,0.038076,0.48354,97.91,1
25779,0,52937,58304,52933.78,58322.29,3.22,-18.29,0.025492,0.038082,0.483459,97.91,1
25790,0,52951,58312,52934.12,58322.08,16.88,-10.09,0.025486,0.038085,0.483839,97.9,1
25799,0,52947,58312,52934.38,58321.88,12.62,-9.88,0.025481,0.038089,0.48404,97.9,1
25810,0,52939,58309,52934.48,58321.62,4.52,-12.63,0.025479,0.038093,0.484021,97.9,1
25820,0,52946,58316,52934.71,58321.51,11.29,-5.52,0.025474,0.038095,0.484199,97.9,1
25830,0,52948,58326,52934.98,58321.6,13.02,4.39,0.025469,0.038094,0.484444,97.89,1
25839,0,52959,58330,52935.46,58321.78,23.54,8.22,0.02546,0.038091,0.48526,97.87,1
25850,0,52967,58353,52936.09,58322.4,30.91,30.6,0.025448,0.03808,0.486437,97.84,1
25860,0,52966,58350,52936.69,58322.96,29.31,27.04,0.025437,0.038071,0.487534,97.81,1
25870,0,52963,58362,52937.22,58323.74,25.78,38.26,0.025427,0.038057,0.488116,97.8,1
25880,0,52965,58358,52937.78,58324.42,27.22,33.57,0.025417,0.038045,0.488922,97.78,1
25889,0,52970,58378,52938.42,58325.5,31.58,52.5,0.025404,0.038027,0.489631,97.76,1
25900,0,52972,58382,52939.1,58326.63,32.9,55.37,0.025392,0.038008,0.490379,97.74,1
25909,0,52981,58384,52939.94,58327.78,41.06,56.22,0.025376,0.037988,0.492049,97.7,1
25920,0,52977,58400,52940.68,58329.22,36.32,70.78,0.025362,0.037963,0.492554,97.69,1
25929,0,52986,58400,52941.58,58330.64,44.41,69.36,0.025345,0.037939,0.494153,97.65,1
25940,0,52989,58410,52942.53,58332.23,46.46,77.77,0.025327,0.037912,0.495642,97.61,1
25950,0,52991,58411,52943.5,58333.8,47.5,77.2,0.025308,0.037885,0.4973,97.57,1
25959,0,52991,58419,52944.46,58335.5,46.54,83.5,0.02529,0.037855,0.498476,97.54,1
25969,0,52991,58423,52945.39,58337.26,45.61,85.74,0.025273,0.037825,0.499382,97.52,1
25979,0,52987,58415,52946.22,58338.82,40.78,76.18,0.025257,0.037799,0.500123,97.5,1
25990,0,52999,58427,52947.28,58340.58,51.72,86.42,0.025237,0.037768,0.501909,97.45,1
25999,0,52995,58423,52948.23,58342.23,46.77,80.77,0.025219,0.03774,0.503217,97.42,1
26010,0,53000,58430,52949.27,58343.99,50.73,86.01,0.025199,0.03771,0.504831,97.38,1
26019,0,53004,58443,52950.36,58345.97,53.64,97.03,0.025179,0.037676,0.506235,97.34,1
26031,0,53002,58446,52951.39,58347.98,50.61,98.02,0.025159,0.037642,0.507061,97.32,1
26040,0,53004,58445,52952.44,58349.92,51.55,95.08,0.025139,0.037608,0.50821,97.29,1
26049,0,52998,58444,52953.36,58351.8,44.64,92.2,0.025122,0.037576,0.508495,97.29,1
26059,0,53008,58446,52954.45,58353.69,53.55,92.31,0.025102,0.037544,0.510113,97.25,1
26070,0,53000,58456,52955.36,58355.73,44.64,100.27,0.025084,0.037509,0.509866,97.25,1
26080,0,53007,58467,52956.4,58357.96,50.6,109.04,0.025065,0.037471,0.50989,97.25,1
26089,0,53005,58468,52957.37,58360.16,47.63,107.84,0.025046,0.037433,0.509556,97.26,1
26100,0,53015,58485,52958.53,58362.66,56.47,122.34,0.025025,0.03739,0.509542,97.26,1
26109,0,53022,58481,52959.8,58365.03,62.2,115.97,0.025001,0.037349,0.511023,97.22,1
26119,0,53018,58489,52960.96,58367.51,57.04,121.49,0.024979,0.037307,0.511142,97.22,1
26130,0,53020,58498,52962.14,58370.12,57.86,127.88,0.024956,0.037262,0.510894,97.23,1
26139,0,53026,58504,52963.42,58372.8,62.58,131.2,0.024932,0.037216,0.511209,97.22,1
26148,0,53027,58512,52964.69,58375.58,62.3,136.42,0.024908,0.037169,0.511036,97.22,1
26160,0,53034,58510,52966.08,58378.27,67.92,131.73,0.024882,0.037123,0.512281,97.19,1
26169,0,53029,58501,52967.34,58380.73,61.66,120.27,0.024858,0.037081,0.513227,97.17,1
26180,0,53025,58495,52968.49,58383.01,56.51,111.99,0.024836,0.037041,0.513885,97.15,1
26189,0,53020,58463,52969.52,58384.61,50.48,78.39,0.024817,0.037014,0.515567,97.11,1
26199,0,53009,58453,52970.31,58385.98,38.69,67.02,0.024802,0.036991,0.516282,97.09,1
26210,0,52996,58427,52970.83,58386.8,25.17,40.2,0.024792,0.036976,0.516672,97.08,1
26219,0,52991,58398,52971.23,58387.03,19.77,10.97,0.024785,0.036973,0.517187,97.07,1
26230,0,52989,58382,52971.59,58386.93,17.41,-4.93,0.024778,0.036974,0.517611,97.06,1
26240,0,52982,58350,52971.8,58386.19,10.2,-36.19,0.024774,0.036987,0.517344,97.07,1
26249,0,52971,58340,52971.79,58385.27,-0.79,-45.27,0.024774,0.037003,0.51669,97.08,1
26259,0,52964,58319,52971.64,58383.94,-7.64,-64.95,0.024777,0.037025,0.515421,97.11,1
26269,0,52953,58305,52971.26,58382.37,-18.26,-77.37,0.024784,0.037052,0.513988,97.15,1
26279,0,52949,58293,52970.82,58380.58,-21.82,-87.58,0.024793,0.037083,0.512231,97.19,1
26289,0,52954,58297,52970.48,58378.91,-16.48,-81.91,0.024799,0.037112,0.510487,97.24,1
26300,0,52954,58313,52970.15,58377.6,-16.15,-64.6,0.024805,0.037134,0.50954,97.26,1
26309,0,52953,58303,52969.8,58376.1,-16.8,-73.11,0.024812,0.03716,0.508249,97.29,1
26319,0,52954,58305,52969.49,58374.69,-15.49,-69.69,0.024818,0.037184,0.507051,97.32,1
26330,0,52954,58292,52969.17,58373.03,-15.18,-81.04,0.024824,0.037212,0.505292,97.37,1
26339,0,52962,58300,52969.03,58371.57,-7.03,-71.57,0.024826,0.037237,0.503722,97.41,1
26349,0,52953,58299,52968.71,58370.12,-15.71,-71.12,0.024832,0.037262,0.502476,97.44,1
26359,0,52952,58292,52968.37,58368.56,-16.37,-76.56,0.024839,0.037289,0.501007,97.47,1
26370,0,52956,58289,52968.13,58366.97,-12.13,-77.97,0.024843,0.037316,0.499283,97.52,1
26379,0,52955,58277,52967.87,58365.17,-12.87,-88.17,0.024848,0.037347,0.497052,97.57,1
26390,0,52948,58275,52967.47,58363.37,-19.47,-88.37,0.024856,0.037378,0.495157,97.62,1
26399,0,52944,58269,52967,58361.48,-23,-92.48,0.024865,0.03741,0.493275,97.67,1
26408,0,52949,58268,52966.64,58359.61,-17.64,-91.61,0.024871,0.037442,0.491115,97.72,1
26420,0,52943,58262,52966.17,58357.66,-23.17,-95.66,0.02488,0.037476,0.489091,97.77,1
26429,0,52941,58261,52965.67,58355.73,-24.67,-94.73,0.02489,0.037509,0.487255,97.82,1
26439,0,52944,58259,52965.23,58353.79,-21.23,-94.79,0.024898,0.037542,0.48518,97.87,1
26449,0,52948,58255,52964.89,58351.82,-16.89,-96.82,0.024904,0.037576,0.48274,97.93,1
26460,0,52945,58259,52964.49,58349.96,-19.49,-90.96,0.024912,0.037608,0.480807,97.98,1
26469,0,52952,58249,52964.24,58347.94,-12.24,-98.95,0.024917,0.037642,0.47806,98.05,1
26478,0,52939,58251,52963.74,58346.01,-24.74,-95.01,0.024926,0.037675,0.476311,98.09,1
26489,0,52943,58251,52963.32,58344.11,-20.32,-93.11,0.024934,0.037708,0.474364,98.14,1
26499,0,52951,58243,52963.08,58342.08,-12.08,-99.09,0.024939,0.037743,0.471657,98.21,1
26510,0,52946,58248,52962.73,58340.21,-16.73,-92.21,0.024945,0.037775,0.469581,98.26,1
26519,0,52944,58228,52962.36,58337.96,-18.36,-109.96,0.024952,0.037813,0.466561,98.34,1
26529,0,52936,58224,52961.83,58335.68,-25.83,-111.68,0.024962,0.037852,0.464011,98.4,1
26540,0,52933,58223,52961.26,58333.43,-28.26,-110.43,0.024973,0.037891,0.461794,98.46,1
26549,0,52938,58234,52960.8,58331.44,-22.8,-97.45,0.024982,0.037925,0.459922,98.5,1
26559,0,52938,58249,52960.34,58329.8,-22.34,-80.8,0.02499,0.037953,0.458875,98.53,1
26569,0,52947,58255,52960.08,58328.3,-13.08,-73.3,0.024995,0.037979,0.457619,98.56,1
26579,0,52947,58253,52959.82,58326.8,-12.82,-73.8,0.025,0.038005,0.456332,98.59,1
26589,0,52949,58243,52959.6,58325.12,-10.61,-82.12,0.025004,0.038033,0.454591,98.64,1
26598,0,52955,58246,52959.51,58323.54,-4.52,-77.54,0.025006,0.038061,0.452908,98.68,1
26609,0,52953,58269,52959.39,58322.45,-6.39,-53.45,0.025008,0.038079,0.452158,98.7,1
26618,0,52956,58273,52959.32,58321.46,-3.32,-48.46,0.02501,0.038096,0.451499,98.71,1
26630,0,52970,58285,52959.53,58320.73,10.46,-35.73,0.025006,0.038109,0.451315,98.72,1
26639,0,52971,58285,52959.76,58320.01,11.23,-35.02,0.025001,0.038121,0.451174,98.72,1
26649,0,52969,58285,52959.95,58319.32,9.05,-34.32,0.024998,0.038133,0.450967,98.73,1
26658,0,52963,58287,52960.01,58318.67,2.99,-31.67,0.024997,0.038144,0.450683,98.73,1
26669,0,52966,58286,52960.13,58318.01,5.87,-32.02,0.024994,0.038155,0.450434,98.74,1
26679,0,52967,58280,52960.27,58317.26,6.73,-37.26,0.024992,0.038168,0.450094,98.75,1
26688,0,52975,58286,52960.57,58316.63,14.43,-30.63,0.024986,0.038179,0.450185,98.75,1
26699,0,52973,58301,52960.82,58316.32,12.18,-15.32,0.024981,0.038184,0.450381,98.74,1
26708,0,52978,58311,52961.16,58316.21,16.84,-5.21,0.024975,0.038186,0.450894,98.73,1
26719,0,52985,58326,52961.64,58316.41,23.36,9.59,0.024966,0.038183,0.45188,98.7,1
26729,0,52994,58324,52962.28,58316.56,31.71,7.44,0.024954,0.03818,0.453748,98.66,1
26739,0,52988,58332,52962.8,58316.87,25.2,15.13,0.024944,0.038175,0.454872,98.63,1
26748,0,52992,58344,52963.39,58317.41,28.61,26.59,0.024933,0.038166,0.456197,98.6,1
26758,0,52994,58343,52964,58317.92,30,25.07,0.024921,0.038157,0.45771,98.56,1
26769,0,52996,58339,52964.64,58318.35,31.36,20.65,0.024909,0.03815,0.459459,98.51,1
26778,0,52999,58331,52965.33,58318.6,33.67,12.39,0.024896,0.038145,0.461599,98.46,1
26789,0,52993,58331,52965.88,58318.85,27.12,12.14,0.024886,0.038141,0.462977,98.43,1
26799,0,52997,58322,52966.51,58318.92,30.49,3.08,0.024874,0.03814,0.464793,98.38,1
26809,0,52992,58322,52967.02,58318.98,24.98,3.02,0.024864,0.038139,0.466018,98.35,1
26818,0,52982,58308,52967.32,58318.76,14.68,-10.77,0.024859,0.038142,0.466402,98.34,1
26829,0,52987,58315,52967.71,58318.69,19.29,-3.69,0.024851,0.038144,0.46714,98.32,1
26839,0,52991,58313,52968.18,58318.58,22.82,-5.58,0.024842,0.038146,0.468179,98.3,1
26848,0,52979,58325,52968.4,58318.71,10.6,6.29,0.024838,0.038143,0.46839,98.29,1
26859,0,52991,58321,52968.85,58318.76,22.15,2.24,0.02483,0.038143,0.469394,98.27,1
26868,0,52984,58320,52969.16,58318.78,14.84,1.22,0.024824,0.038142,0.469847,98.25,1
26878,0,52990,58330,52969.57,58319.01,20.43,10.99,0.024816,0.038138,0.470672,98.23,1
26889,0,52990,58329,52969.98,58319.21,20.02,9.79,0.024808,0.038135,0.471477,98.21,1
26899,0,52998,58354,52970.55,58319.9,27.45,34.1,0.024798,0.038123,0.472622,98.18,1
26908,0,53002,58359,52971.17,58320.68,30.82,38.32,0.024786,0.03811,0.474071,98.15,1
26919,0,53001,58361,52971.77,58321.49,29.23,39.51,0.024775,0.038096,0.475279,98.12,1
26929,0,53004,58353,52972.42,58322.12,31.58,30.88,0.024762,0.038085,0.477044,98.07,1
26938,0,53006,58353,52973.09,58322.73,32.91,30.27,0.02475,0.038074,0.479015,98.02,1
26949,0,52990,58361,52973.43,58323.5,16.57,37.5,0.024743,0.038061,0.47903,98.02,1
26958,0,52996,58355,52973.88,58324.13,22.12,30.87,0.024735,0.03805,0.479705,98.01,1
26969,0,52991,58366,52974.23,58324.97,16.77,41.03,0.024728,0.038036,0.479618,98.01,1
26978,0,53003,58377,52974.8,58326.01,28.2,50.99,0.024717,0.038018,0.480286,97.99,1
26989,0,53012,58398,52975.54,58327.45,36.46,70.55,0.024703,0.037993,0.481134,97.97,1
26998,0,53014,58409,52976.31,58329.08,37.69,79.91,0.024689,0.037966,0.481579,97.96,1
27008,0,53020,58419,52977.19,58330.88,42.81,88.12,0.024672,0.037935,0.482346,97.94,1
27019,0,53021,58407,52978.06,58332.41,42.94,74.59,0.024656,0.037909,0.484051,97.9,1
27028,0,53018,58392,52978.86,58333.6,39.14,58.4,0.024641,0.037888,0.485968,97.85,1
27039,0,53019,58369,52979.66,58334.3,39.34,34.7,0.024626,0.037876,0.488861,97.78,1
27048,0,53007,58346,52980.21,58334.54,26.79,11.46,0.024615,0.037872,0.490391,97.74,1
27059,0,52988,58336,52980.37,58334.57,7.63,1.43,0.024612,0.037872,0.490517,97.74,1
27068,0,52984,58304,52980.44,58333.95,3.55,-29.95,0.024611,0.037882,0.490141,97.75,1
27079,0,52980,58288,52980.44,58333.03,-0.44,-45.04,0.024611,0.037898,0.489227,97.77,1
27088,0,52970,58281,52980.23,58332,-10.23,-51,0.024615,0.037916,0.488289,97.79,1
27098,0,52973,58280,52980.08,58330.96,-7.08,-50.96,0.024618,0.037933,0.487226,97.82,1
27109,0,52975,58282,52979.98,58329.98,-4.98,-47.98,0.02462,0.03795,0.486234,97.84,1
27118,0,52974,58285,52979.86,58329.08,-5.86,-44.08,0.024622,0.037966,0.485425,97.86,1
27128,0,52976,58290,52979.78,58328.3,-3.79,-38.3,0.024623,0.037979,0.484782,97.88,1
27138,0,52977,58284,52979.73,58327.41,-2.73,-43.41,0.024624,0.037994,0.483928,97.9,1
27149,0,52978,58285,52979.69,58326.57,-1.7,-41.57,0.024625,0.038009,0.48313,97.92,1
27158,0,52972,58278,52979.54,58325.59,-7.54,-47.59,0.024628,0.038025,0.48221,97.94,1
27169,0,52971,58273,52979.37,58324.54,-8.38,-51.54,0.024631,0.038043,0.481137,97.97,1
27179,0,52971,58265,52979.21,58323.35,-8.21,-58.36,0.024634,0.038064,0.479707,98.01,1
27188,0,52974,58284,52979.11,58322.57,-5.11,-38.57,0.024636,0.038077,0.47907,98.02,1
27198,0,52980,58285,52979.13,58321.82,0.87,-36.82,0.024636,0.03809,0.478428,98.04,1
27208,0,52979,58301,52979.12,58321.41,-0.12,-20.41,0.024636,0.038097,0.478227,98.04,1
27218,0,52992,58296,52979.38,58320.9,12.62,-24.9,0.024631,0.038106,0.478331,98.04,1
27228,0,52990,58291,52979.6,58320.3,10.4,-29.3,0.024627,0.038116,0.47819,98.05,1
27239,0,52989,58295,52979.79,58319.79,9.21,-24.79,0.024623,0.038125,0.478106,98.05,1
27248,0,52983,58285,52979.85,58319.1,3.14,-34.1,0.024622,0.038137,0.477556,98.06,1
27258,0,52981,58285,52979.88,58318.42,1.12,-33.42,0.024622,0.038148,0.477004,98.07,1
27269,0,52976,58284,52979.8,58317.73,-3.8,-33.73,0.024623,0.03816,0.476472,98.09,1
27278,0,52982,58293,52979.85,58317.24,2.15,-24.24,0.024622,0.038169,0.476185,98.1,1
27288,0,52984,58295,52979.93,58316.79,4.07,-21.79,0.024621,0.038176,0.475986,98.1,1
27297,0,52990,58306,52980.13,58316.58,9.87,-10.58,0.024617,0.03818,0.476192,98.1,1
27309,0,52986,58314,52980.25,58316.53,5.75,-2.53,0.024615,0.038181,0.476276,98.09,1
27318,0,53004,58334,52980.72,58316.88,23.28,17.12,0.024606,0.038175,0.477628,98.06,1
27328,0,53006,58348,52981.23,58317.5,24.77,30.5,0.024596,0.038164,0.478852,98.03,1
27338,0,53021,58356,52982.02,58318.28,38.98,37.72,0.024581,0.038151,0.482353,97.94,1
27348,0,53020,58375,52982.78,58319.41,37.22,55.59,0.024567,0.038131,0.484566,97.89,1
27358,0,53025,58379,52983.62,58320.6,41.38,58.39,0.024551,0.038111,0.487495,97.81,1
27368,0,53024,58382,52984.43,58321.83,39.57,60.16,0.024536,0.03809,0.48987,97.75,1
27378,0,53019,58374,52985.12,58322.88,33.88,51.12,0.024523,0.038072,0.491619,97.71,1
27387,0,53024,58374,52985.9,58323.9,38.1,50.1,0.024508,0.038054,0.494258,97.64,1
27399,0,53022,58373,52986.62,58324.89,35.38,48.11,0.024494,0.038037,0.496435,97.59,1
27408,0,53027,58378,52987.43,58325.95,39.57,52.05,0.024479,0.038019,0.499247,97.52,1
27418,0,53026,58399,52988.21,58327.41,37.79,71.59,0.024464,0.037994,0.50028,97.49,1
27428,0,53034,58407,52989.12,58329,44.88,78,0.024447,0.037967,0.502355,97.44,1
27438,0,53042,58425,52990.18,58330.92,51.82,94.07,0.024427,0.037934,0.504631,97.38,1
27448,0,53046,58434,52991.3,58332.99,54.7,101.01,0.024406,0.037899,0.506884,97.33,1
27457,0,53044,58437,52992.36,58335.07,51.64,101.93,0.024386,0.037863,0.508098,97.3,1
27468,0,53049,58448,52993.49,58337.33,55.51,110.67,0.024365,0.037824,0.509312,97.27,1
27478,0,53060,58460,52994.82,58339.78,65.18,120.22,0.024339,0.037782,0.512202,97.19,1
27489,0,53064,58482,52996.21,58342.63,67.79,139.37,0.024313,0.037733,0.513153,97.17,1
27498,0,53073,58496,52997.75,58345.69,75.25,150.3,0.024284,0.037681,0.514914,97.13,1
27507,0,53073,58505,52999.26,58348.88,73.74,156.12,0.024256,0.037626,0.51516,97.12,1
27518,0,53082,58510,53000.91,58352.1,81.09,157.89,0.024225,0.037571,0.517568,97.06,1
27528,0,53085,58514,53002.6,58355.35,82.4,158.65,0.024193,0.037515,0.520109,97,1
27537,0,53084,58516,53004.23,58358.56,79.77,157.44,0.024162,0.03746,0.521771,96.96,1
27548,0,53089,58518,53005.92,58361.75,83.07,156.25,0.02413,0.037406,0.5245,96.89,1
27557,0,53081,58528,53007.43,58365.07,73.57,162.93,0.024102,0.037349,0.523373,96.92,1
27569,0,53084,58547,53008.96,58368.71,75.04,178.29,0.024073,0.037286,0.520607,96.98,1
27578,0,53097,58559,53010.72,58372.52,86.28,186.48,0.02404,0.037221,0.520046,97,1
27587,0,53109,58581,53012.69,58376.69,96.31,204.31,0.024002,0.03715,0.519996,97,1
27598,0,53114,58610,53014.71,58381.36,99.29,228.64,0.023964,0.03707,0.517227,97.07,1
27608,0,53123,58622,53016.88,58386.17,106.12,235.82,0.023923,0.036987,0.515764,97.11,1
27617,0,53125,58623,53019.05,58390.91,105.95,232.09,0.023882,0.036906,0.514955,97.13,1
27628,0,53129,58628,53021.25,58395.66,107.75,232.34,0.023841,0.036825,0.514705,97.13,1
27637,0,53129,58639,53023.4,58400.53,105.6,238.47,0.0238,0.036741,0.513123,97.17,1
27649,0,53132,58655,53025.57,58405.62,106.43,249.38,0.023759,0.036654,0.510546,97.24,1
27658,0,53136,58657,53027.78,58410.65,108.22,246.35,0.023718,0.036568,0.50904,97.27,1
27668,0,53138,58670,53029.98,58415.84,108.02,254.16,0.023676,0.036479,0.506734,97.33,1
27678,0,53147,58687,53032.33,58421.26,114.67,265.74,0.023632,0.036386,0.50488,97.38,1
27687,0,53161,58702,53034.9,58426.87,126.1,275.13,0.023583,0.03629,0.504877,97.38,1
27698,0,53162,58721,53037.44,58432.76,124.55,288.24,0.023536,0.03619,0.503075,97.42,1
27708,0,53165,58747,53040,58439.05,125,307.95,0.023487,0.036082,0.499427,97.51,1
27718,0,53170,58765,53042.6,58445.57,127.4,319.43,0.023438,0.03597,0.495484,97.61,1
27727,0,53182,58776,53045.39,58452.17,136.61,323.82,0.023386,0.035857,0.493472,97.66,1
27738,0,53194,58798,53048.36,58459.09,145.64,338.91,0.02333,0.035739,0.492104,97.7,1
27748,0,53199,58810,53051.37,58466.11,147.63,343.89,0.023273,0.035619,0.490834,97.73,1
27758,0,53203,58820,53054.41,58473.19,148.59,346.81,0.023216,0.035498,0.489637,97.76,1
27768,0,53205,58830,53057.42,58480.33,147.58,349.67,0.023159,0.035376,0.488136,97.8,1
27778,0,53209,58832,53060.45,58487.37,148.55,344.63,0.023102,0.035256,0.48738,97.82,1
27789,0,53211,58858,53063.46,58494.78,147.54,363.22,0.023045,0.035129,0.485053,97.87,1
27798,0,53219,58866,53066.57,58502.21,152.43,363.79,0.022987,0.035002,0.483725,97.91,1
27807,0,53220,58879,53069.64,58509.74,150.36,369.26,0.022929,0.034873,0.481798,97.96,1
27819,0,53225,58901,53072.75,58517.57,152.25,383.43,0.02287,0.034739,0.479326,98.02,1
27828,0,53239,58922,53076.08,58525.66,162.92,396.34,0.022807,0.034601,0.477802,98.05,1
27837,0,53254,58953,53079.64,58534.2,174.36,418.8,0.02274,0.034455,0.476629,98.08,1
27848,0,53268,58987,53083.41,58543.26,184.59,443.74,0.022669,0.0343,0.475437,98.11,1
27857,0,53275,59004,53087.24,58552.47,187.76,451.53,0.022597,0.034143,0.474336,98.14,1
27867,0,53270,58999,53090.89,58561.41,179.11,437.59,0.022528,0.03399,0.473015,98.17,1
27878,0,53276,59007,53094.6,58570.32,181.4,436.68,0.022459,0.033838,0.472186,98.2,1
27887,0,53274,58987,53098.19,58578.65,175.81,408.35,0.022391,0.033696,0.472291,98.19,1
27897,0,53270,58974,53101.62,58586.56,168.38,387.44,0.022326,0.033561,0.47256,98.19,1
27908,0,53263,58981,53104.85,58594.45,158.14,386.55,0.022265,0.033426,0.471732,98.21,1
27918,0,53256,58962,53107.88,58601.8,148.12,360.2,0.022208,0.033301,0.471132,98.22,1
27927,0,53255,58943,53110.82,58608.63,144.18,334.37,0.022153,0.033184,0.471249,98.22,1
27938,0,53254,58936,53113.69,58615.17,140.31,320.82,0.022099,0.033073,0.471528,98.21,1
27948,0,53247,58922,53116.35,58621.32,130.64,300.68,0.022049,0.032968,0.471696,98.21,1
27957,0,53240,58920,53118.83,58627.29,121.17,292.71,0.022002,0.032866,0.471386,98.22,1
27968,0,53241,58909,53121.28,58632.92,119.72,276.07,0.021956,0.03277,0.471512,98.21,1
27977,0,53245,58914,53123.75,58638.55,121.25,275.45,0.02191,0.032674,0.471767,98.21,1
27986,0,53250,58924,53126.28,58644.26,123.72,279.74,0.021862,0.032577,0.472066,98.2,1
27998,0,53247,58928,53128.69,58649.94,118.3,278.06,0.021817,0.03248,0.472016,98.2,1
28007,0,53241,58926,53130.94,58655.46,110.06,270.54,0.021774,0.032386,0.471632,98.21,1
28018,0,53239,58934,53133.1,58661.03,105.89,272.97,0.021734,0.032291,0.470919,98.23,1
28027,0,53255,58934,53135.55,58666.49,119.45,267.51,0.021688,0.032198,0.471281,98.22,1
28037,0,53253,58950,53137.89,58672.16,115.11,277.84,0.021643,0.032101,0.471036,98.22,1
28048,0,53258,58979,53140.3,58678.3,117.7,300.7,0.021598,0.031996,0.470273,98.24,1
28057,0,53268,58991,53142.85,58684.55,125.15,306.45,0.02155,0.03189,0.469869,98.25,1
28067,0,53275,58992,53145.5,58690.7,129.5,301.3,0.0215,0.031785,0.469955,98.25,1
28078,0,53279,58996,53148.16,58696.81,130.84,299.19,0.02145,0.031681,0.470201,98.24,1
28088,0,53281,58999,53150.82,58702.86,130.18,296.14,0.0214,0.031578,0.470484,98.24,1
28097,0,53286,59004,53153.53,58708.88,132.47,295.12,0.021349,0.031475,0.470957,98.23,1
28107,0,53285,59022,53156.16,58715.15,128.84,306.85,0.0213,0.031369,0.470805,98.23,1
28118,0,53289,59024,53158.82,58721.33,130.18,302.67,0.02125,0.031263,0.470878,98.23,1
28127,0,53298,59033,53161.6,58727.56,136.4,305.44,0.021197,0.031157,0.471311,98.22,1
28138,0,53301,59035,53164.39,58733.71,136.61,301.29,0.021145,0.031053,0.471869,98.2,1
28147,0,53303,59039,53167.16,58739.82,135.84,299.18,0.021093,0.030948,0.472418,98.19,1
28156,0,53296,59048,53169.74,58745.98,126.26,302.02,0.021044,0.030844,0.472217,98.19,1
28168,0,53298,59055,53172.31,58752.17,125.69,302.83,0.020996,0.030738,0.471961,98.2,1
28177,0,53314,59069,53175.14,58758.5,138.86,310.5,0.020943,0.03063,0.472384,98.19,1
28188,0,53312,59094,53177.88,58765.21,134.12,328.79,0.020891,0.030516,0.471923,98.2,1
28197,0,53324,59111,53180.8,58772.13,143.2,338.87,0.020836,0.030399,0.4718,98.21,1
28207,0,53327,59103,53183.73,58778.75,143.27,324.25,0.020781,0.030286,0.472125,98.2,1
28218,0,53330,59101,53186.66,58785.19,143.34,315.81,0.020726,0.030176,0.472689,98.18,1
28227,0,53332,59110,53189.57,58791.69,142.43,318.31,0.020671,0.030066,0.473103,98.17,1
28236,0,53330,59105,53192.38,58797.96,137.62,307.04,0.020619,0.029959,0.473495,98.16,1
28248,0,53333,59113,53195.19,58804.26,137.8,308.74,0.020566,0.029852,0.473843,98.15,1
28257,0,53332,59112,53197.93,58810.41,134.07,301.59,0.020514,0.029747,0.474133,98.15,1
28267,0,53331,59124,53200.6,58816.69,130.4,307.31,0.020464,0.029641,0.474038,98.15,1
28277,0,53339,59129,53203.37,58822.93,135.63,306.07,0.020412,0.029535,0.474303,98.14,1
28286,0,53339,59125,53206.08,58828.98,132.92,296.02,0.020361,0.029432,0.474652,98.13,1
28298,0,53330,59135,53208.56,58835.1,121.44,299.9,0.020314,0.029328,0.474224,98.14,1
28307,0,53329,59120,53210.97,58840.8,118.03,279.2,0.020269,0.029231,0.474126,98.15,1
28317,0,53333,59122,53213.41,58846.42,119.59,275.58,0.020223,0.029135,0.474199,98.15,1
28327,0,53335,59140,53215.84,58852.3,119.16,287.7,0.020178,0.029036,0.47396,98.15,1
28338,0,53346,59133,53218.44,58857.91,127.55,275.09,0.020129,0.02894,0.474494,98.14,1
28347,0,53335,59120,53220.78,58863.16,114.22,256.84,0.020085,0.028851,0.474696,98.13,1
28357,0,53329,59135,53222.94,58868.59,106.06,266.41,0.020044,0.028759,0.474281,98.14,1
28367,0,53334,59131,53225.16,58873.84,108.84,257.16,0.020002,0.028669,0.474209,98.14,1
28377,0,53335,59123,53227.36,58878.83,107.64,244.17,0.019961,0.028585,0.47435,98.14,1
28388,0,53342,59136,53229.65,58883.97,112.35,252.03,0.019918,0.028497,0.474561,98.14,1
28397,0,53334,59128,53231.74,58888.85,102.26,239.15,0.019879,0.028415,0.474546,98.14,1
28406,0,53328,59127,53233.66,58893.61,94.34,233.39,0.019843,0.028334,0.474294,98.14,1
28418,0,53325,59123,53235.49,58898.2,89.51,224.8,0.019808,0.028256,0.474008,98.15,1
28427,0,53327,59127,53237.32,58902.78,89.68,224.22,0.019774,0.028178,0.473742,98.16,1
28438,0,53327,59124,53239.12,58907.2,87.88,216.8,0.01974,0.028103,0.473542,98.16,1
28447,0,53332,59128,53240.98,58911.62,91.02,216.38,0.019705,0.028028,0.473479,98.16,1
28456,0,53326,59118,53242.67,58915.75,83.32,202.25,0.019673,0.027958,0.473359,98.17,1
28468,0,53324,59126,53244.3,58919.95,79.7,206.05,0.019643,0.027887,0.473039,98.17,1
28477,0,53329,59118,53246,58923.91,83,194.09,0.019611,0.027819,0.473045,98.17,1
28486,0,53330,59128,53247.68,58928,82.32,200,0.019579,0.02775,0.472927,98.18,1
28497,0,53324,59130,53249.21,58932.04,74.79,197.96,0.019551,0.027681,0.472572,98.19,1
28507,0,53328,59130,53250.78,58936,77.22,194,0.019521,0.027614,0.472368,98.19,1
28517,0,53332,59134,53252.41,58939.96,79.59,194.04,0.019491,0.027547,0.472252,98.19,1
28527,0,53324,59142,53253.84,58944,70.16,198,0.019464,0.027478,0.47174,98.21,1
28536,0,53335,59139,53255.46,58947.91,79.54,191.09,0.019433,0.027412,0.471673,98.21,1
28548,0,53332,59140,53257,58951.75,75,188.25,0.019405,0.027347,0.471488,98.21,1
28557,0,53333,59135,53258.51,58955.41,74.48,179.59,0.019376,0.027285,0.471423,98.21,1
28567,0,53328,59142,53259.91,58959.15,68.09,182.85,0.01935,0.027222,0.47109,98.22,1
28577,0,53331,59147,53261.33,58962.91,69.67,184.09,0.019323,0.027158,0.47079,98.23,1
28587,0,53332,59142,53262.75,58966.49,69.25,175.51,0.019297,0.027097,0.470611,98.23,1
28597,0,53323,59146,53263.95,58970.08,59.05,175.92,0.019274,0.027036,0.470111,98.25,1
28607,0,53330,59158,53265.28,58973.83,64.72,184.16,0.019249,0.026972,0.469651,98.26,1
28617,0,53333,59169,53266.63,58977.74,66.37,191.26,0.019224,0.026906,0.469127,98.27,1
28626,0,53335,59162,53268,58981.42,67,180.58,0.019198,0.026844,0.4688,98.28,1
28637,0,53333,59167,53269.3,58985.13,63.7,181.87,0.019174,0.026781,0.468347,98.29,1
28647,0,53329,59178,53270.49,58988.99,58.51,189.01,0.019151,0.026716,0.467621,98.31,1
28657,0,53332,59164,53271.72,58992.49,60.28,171.51,0.019128,0.026656,0.467228,98.32,1
28666,0,53335,59162,53272.99,58995.88,62.01,166.12,0.019104,0.026599,0.46697,98.33,1
28677,0,53339,59159,53274.31,58999.14,64.69,159.86,0.019079,0.026543,0.466887,98.33,1
28687,0,53336,59137,53275.55,59001.9,60.45,135.1,0.019056,0.026497,0.467001,98.32,1
28697,0,53324,59136,53276.51,59004.58,47.48,131.41,0.019038,0.026451,0.466804,98.33,1
28706,0,53314,59101,53277.27,59006.51,36.73,94.48,0.019024,0.026418,0.466756,98.33,1
28717,0,53302,59074,53277.76,59007.87,24.23,66.13,0.019015,0.026396,0.46672,98.33,1
28727,0,53294,59046,53278.09,59008.63,15.91,37.37,0.019009,0.026383,0.466736,98.33,1
28736,0,53288,59029,53278.29,59009.04,9.71,19.96,0.019005,0.026376,0.466757,98.33,1
28747,0,53275,59024,53278.22,59009.34,-3.22,14.66,0.019006,0.026371,0.466764,98.33,1
28756,0,53270,58993,53278.06,59009.01,-8.06,-16.01,0.019009,0.026376,0.466783,98.33,1
28766,0,53260,58974,53277.7,59008.31,-17.7,-34.31,0.019016,0.026388,0.466826,98.33,1
28777,0,53257,58961,53277.28,59007.37,-20.29,-46.37,0.019024,0.026404,0.466847,98.33,1
28786,0,53250,58949,53276.74,59006.2,-26.74,-57.2,0.019034,0.026424,0.466897,98.33,1
28796,0,53240,58950,53276.01,59005.08,-36.01,-55.08,0.019048,0.026443,0.467121,98.32,1
28807,0,53244,58946,53275.37,59003.9,-31.37,-57.9,0.01906,0.026463,0.467243,98.32,1
28817,0,53249,58967,53274.84,59003.16,-25.84,-36.16,0.01907,0.026475,0.46738,98.32,1
28826,0,53257,58967,53274.48,59002.44,-17.48,-35.44,0.019076,0.026488,0.467417,98.31,1
28837,0,53258,58971,53274.16,59001.81,-16.16,-30.81,0.019082,0.026498,0.467456,98.31,1
28847,0,53260,58963,53273.87,59001.04,-13.88,-38.04,0.019088,0.026511,0.467449,98.31,1
28856,0,53252,58943,53273.44,58999.88,-21.44,-56.88,0.019096,0.026531,0.467427,98.31,1
28867,0,53240,58940,53272.77,58998.68,-32.77,-58.68,0.019108,0.026551,0.467576,98.31,1
28876,0,53244,58935,53272.19,58997.41,-28.2,-62.41,0.019119,0.026573,0.467617,98.31,1
28887,0,53250,58957,53271.75,58996.6,-21.75,-39.61,0.019127,0.026586,0.467688,98.31,1
28897,0,53255,58965,53271.42,58995.98,-16.42,-30.98,0.019134,0.026597,0.46773,98.31,1
28906,0,53252,58961,53271.03,58995.28,-19.04,-34.28,0.019141,0.026609,0.467789,98.31,1
28916,0,53253,58957,53270.67,58994.51,-17.68,-37.51,0.019148,0.026622,0.46782,98.3,1
28926,0,53254,58949,53270.34,58993.6,-16.34,-44.6,0.019154,0.026637,0.467803,98.3,1
28937,0,53249,58949,53269.91,58992.71,-20.91,-43.71,0.019162,0.026652,0.467845,98.3,1
28946,0,53247,58942,53269.46,58991.7,-22.46,-49.7,0.019171,0.02667,0.467876,98.3,1
28957,0,53246,58950,53268.99,58990.87,-22.99,-40.87,0.019179,0.026684,0.467962,98.3,1
28966,0,53241,58950,53268.43,58990.05,-27.43,-40.05,0.01919,0.026698,0.468125,98.3,1
28976,0,53248,58953,53268.03,58989.31,-20.03,-36.31,0.019197,0.02671,0.468191,98.3,1
28987,0,53251,58944,53267.69,58988.4,-16.69,-44.4,0.019204,0.026726,0.468176,98.3,1
28996,0,53248,58942,53267.3,58987.48,-19.3,-45.48,0.019211,0.026741,0.468187,98.3,1
29006,0,53241,58938,53266.77,58986.49,-25.77,-48.49,0.019221,0.026758,0.46828,98.29,1
29017,0,53242,58942,53266.28,58985.6,-24.28,-43.6,0.01923,0.026773,0.468376,98.29,1
29027,0,53244,58941,53265.83,58984.71,-21.83,-43.71,0.019239,0.026788,0.468433,98.29,1
29036,0,53248,58937,53265.48,58983.75,-17.48,-46.75,0.019245,0.026804,0.468412,98.29,1
29046,0,53241,58932,53264.99,58982.72,-23.99,-50.72,0.019255,0.026822,0.468462,98.29,1
29057,0,53243,58944,53264.55,58981.94,-21.55,-37.95,0.019263,0.026835,0.468546,98.29,1
29066,0,53249,58944,53264.24,58981.19,-15.24,-37.19,0.019268,0.026848,0.468549,98.29,1
29077,0,53248,58944,53263.92,58980.44,-15.92,-36.45,0.019275,0.02686,0.468564,98.29,1
29086,0,53238,58948,53263.4,58979.8,-25.4,-31.8,0.019284,0.026871,0.468744,98.28,1
29095,0,53243,58947,53263,58979.14,-20,-32.14,0.019292,0.026882,0.468833,98.28,1
29107,0,53244,58941,53262.62,58978.38,-18.62,-37.38,0.019299,0.026895,0.468878,98.28,1
29116,0,53243,58934,53262.23,58977.5,-19.23,-43.5,0.019306,0.02691,0.468898,98.28,1
29126,0,53255,58946,53262.08,58976.87,-7.09,-30.87,0.019309,0.026921,0.468861,98.28,1
29136,0,53252,58946,53261.88,58976.25,-9.88,-30.25,0.019313,0.026932,0.468844,98.28,1
29147,0,53248,58950,53261.6,58975.73,-13.61,-25.73,0.019318,0.02694,0.468878,98.28,1
29156,0,53251,58953,53261.39,58975.27,-10.39,-22.27,0.019322,0.026948,0.468895,98.28,1
29165,0,53246,58957,53261.08,58974.91,-15.09,-17.91,0.019328,0.026954,0.468971,98.28,1
29176,0,53252,58946,53260.91,58974.33,-8.91,-28.34,0.019331,0.026964,0.468953,98.28,1
29186,0,53245,58940,53260.58,58973.65,-15.59,-33.65,0.019337,0.026976,0.468977,98.28,1
29197,0,53241,58947,53260.19,58973.12,-19.2,-26.12,0.019344,0.026985,0.469086,98.27,1
29206,0,53233,58938,53259.65,58972.42,-26.65,-34.42,0.019355,0.026996,0.4693,98.27,1
29216,0,53238,58943,53259.22,58971.83,-21.22,-28.83,0.019363,0.027006,0.469433,98.26,1
29227,0,53237,58934,53258.78,58971.08,-21.78,-37.08,0.019371,0.027019,0.469537,98.26,1
29236,0,53235,58941,53258.3,58970.48,-23.3,-29.48,0.01938,0.027029,0.469709,98.26,1
29246,0,53237,58946,53257.87,58969.98,-20.87,-23.98,0.019388,0.027038,0.469859,98.25,1
29255,0,53233,58935,53257.38,58969.28,-24.38,-34.29,0.019397,0.02705,0.470033,98.25,1
29266,0,53229,58934,53256.81,58968.58,-27.81,-34.58,0.019408,0.027062,0.470284,98.24,1
29276,0,53243,58937,53256.53,58967.95,-13.53,-30.95,0.019413,0.027072,0.470296,98.24,1
29287,0,53238,58952,53256.16,58967.63,-18.16,-15.63,0.01942,0.027078,0.470431,98.24,1
29296,0,53239,58947,53255.82,58967.22,-16.82,-20.22,0.019427,0.027085,0.470532,98.24,1
29305,0,53231,58940,53255.33,58966.67,-24.33,-26.68,0.019436,0.027094,0.47075,98.23,1
29317,0,53230,58934,53254.82,58966.02,-24.82,-32.02,0.019445,0.027105,0.470955,98.23,1
29326,0,53236,58933,53254.45,58965.36,-18.45,-32.36,0.019452,0.027116,0.471032,98.22,1
29336,0,53233,58939,53254.02,58964.84,-21.02,-25.84,0.01946,0.027125,0.471189,98.22,1
29346,0,53225,58928,53253.44,58964.1,-28.44,-36.1,0.019471,0.027138,0.471466,98.21,1
29356,0,53232,58938,53253.01,58963.58,-21.02,-25.58,0.019479,0.027146,0.471627,98.21,1
29366,0,53226,58933,53252.48,58962.97,-26.48,-29.97,0.019489,0.027157,0.471892,98.2,1
29375,0,53230,58928,53252.03,58962.27,-22.03,-34.27,0.019498,0.027169,0.472031,98.2,1
29386,0,53225,58933,53251.49,58961.69,-26.49,-28.69,0.019508,0.027179,0.472308,98.19,1
29395,0,53222,58920,53250.91,58960.85,-28.91,-40.85,0.019519,0.027193,0.472577,98.19,1
29407,0,53215,58933,53250.19,58960.3,-35.19,-27.3,0.019532,0.027202,0.473134,98.17,1
29416,0,53209,58917,53249.37,58959.43,-40.37,-42.43,0.019548,0.027217,0.473794,98.16,1
29425,0,53218,58938,53248.74,58959.01,-30.74,-21.01,0.01956,0.027224,0.474239,98.14,1
29436,0,53225,58954,53248.27,58958.91,-23.27,-4.91,0.019568,0.027226,0.47452,98.14,1
29446,0,53233,58971,53247.96,58959.15,-14.96,11.85,0.019574,0.027222,0.474629,98.13,1
29456,0,53235,58978,53247.71,58959.52,-12.71,18.48,0.019579,0.027215,0.474687,98.13,1
29466,0,53238,58969,53247.51,58959.71,-9.52,9.29,0.019583,0.027212,0.474733,98.13,1
29476,0,53234,58949,53247.25,58959.5,-13.25,-10.5,0.019588,0.027215,0.474822,98.13,1
29486,0,53225,58923,53246.8,58958.78,-21.8,-35.78,0.019596,0.027228,0.474957,98.13,1
29495,0,53218,58900,53246.23,58957.6,-28.23,-57.6,0.019607,0.027248,0.475063,98.12,1
29506,0,53201,58873,53245.32,58955.91,-44.32,-82.91,0.019624,0.027277,0.475449,98.11,1
29515,0,53192,58842,53244.26,58953.63,-52.26,-111.63,0.019644,0.027315,0.475689,98.11,1
29527,0,53187,58836,53243.11,58951.28,-56.11,-115.28,0.019665,0.027355,0.476074,98.1,1
29536,0,53184,58815,53241.93,58948.56,-57.93,-133.56,0.019687,0.027401,0.476107,98.1,1
29545,0,53175,58807,53240.6,58945.73,-65.6,-138.73,0.019713,0.027449,0.476519,98.09,1
29556,0,53167,58794,53239.12,58942.69,-72.12,-148.7,0.01974,0.027501,0.477129,98.07,1
29565,0,53168,58782,53237.7,58939.48,-69.7,-157.48,0.019767,0.027555,0.477268,98.07,1
29577,0,53166,58769,53236.27,58936.07,-70.27,-167.07,0.019794,0.027613,0.477129,98.07,1
29586,0,53158,58770,53234.71,58932.75,-76.71,-162.75,0.019823,0.027669,0.477657,98.06,1
29595,0,53151,58759,53233.03,58929.28,-82.04,-170.28,0.019855,0.027728,0.478384,98.04,1
29606,0,53151,58753,53231.39,58925.75,-80.39,-172.75,0.019885,0.027788,0.478867,98.03,1
29616,0,53145,58742,53229.67,58922.08,-84.67,-180.08,0.019918,0.02785,0.479461,98.01,1
29625,0,53151,58734,53228.09,58918.32,-77.09,-184.32,0.019947,0.027914,0.479227,98.02,1
29636,0,53148,58738,53226.49,58914.71,-78.49,-176.71,0.019977,0.027975,0.479391,98.02,1
29645,0,53146,58750,53224.88,58911.42,-78.88,-161.42,0.020008,0.028031,0.480107,98,1
29657,0,53151,58773,53223.41,58908.66,-72.41,-135.66,0.020035,0.028078,0.481063,97.97,1
29666,0,53165,58783,53222.24,58906.14,-57.24,-123.14,0.020057,0.028121,0.481286,97.97,1
29675,0,53173,58785,53221.25,58903.72,-48.25,-118.72,0.020076,0.028162,0.481105,97.97,1
29686,0,53169,58797,53220.21,58901.59,-51.21,-104.59,0.020096,0.028198,0.481408,97.96,1
29696,0,53169,58790,53219.18,58899.36,-50.18,-109.36,0.020115,0.028236,0.481549,97.96,1
29705,0,53165,58798,53218.1,58897.33,-53.1,-99.34,0.020135,0.028271,0.482072,97.95,1
29716,0,53180,58813,53217.34,58895.65,-37.34,-82.65,0.020149,0.028299,0.482129,97.95,1
29725,0,53183,58803,53216.66,58893.8,-33.66,-90.8,0.020162,0.028331,0.48189,97.95,1
29735,0,53178,58814,53215.88,58892.21,-37.88,-78.21,0.020177,0.028358,0.482046,97.95,1
29746,0,53182,58809,53215.21,58890.54,-33.21,-81.54,0.02019,0.028386,0.481959,97.95,1
29756,0,53170,58804,53214.3,58888.81,-44.3,-84.81,0.020207,0.028415,0.4823,97.94,1
29765,0,53170,58804,53213.41,58887.12,-43.41,-83.12,0.020223,0.028444,0.482628,97.93,1
29775,0,53179,58800,53212.73,58885.37,-33.73,-85.37,0.020236,0.028474,0.482487,97.94,1
29786,0,53180,58790,53212.07,58883.47,-32.07,-93.47,0.020248,0.028506,0.482122,97.95,1
29795,0,53180,58783,53211.43,58881.46,-31.43,-98.46,0.02026,0.02854,0.481627,97.96,1
29806,0,53170,58790,53210.6,58879.63,-40.61,-89.63,0.020276,0.028571,0.481703,97.96,1
29815,0,53169,58777,53209.77,58877.58,-40.77,-100.58,0.020292,0.028606,0.481553,97.96,1
29825,0,53168,58780,53208.94,58875.63,-40.94,-95.63,0.020307,0.028639,0.481521,97.96,1
29836,0,53165,58783,53208.06,58873.78,-43.06,-90.78,0.020324,0.02867,0.481697,97.96,1
29845,0,53169,58783,53207.28,58871.97,-38.28,-88.97,0.020339,0.028701,0.481677,97.96,1
29856,0,53163,58785,53206.39,58870.23,-43.39,-85.23,0.020355,0.028731,0.481984,97.95,1
29865,0,53171,58781,53205.69,58868.45,-34.69,-87.45,0.020368,0.028761,0.481834,97.95,1
29876,0,53168,58782,53204.93,58866.72,-36.93,-84.72,0.020383,0.02879,0.481836,97.95,1
29885,0,53169,58782,53204.21,58865.03,-35.21,-83.03,0.020396,0.028819,0.481795,97.96,1
29895,0,53165,58785,53203.43,58863.43,-38.43,-78.43,0.020411,0.028846,0.481989,97.95,1
29905,0,53167,58791,53202.71,58861.98,-35.71,-70.98,0.020424,0.028871,0.482189,97.95,1
29915,0,53162,58797,53201.89,58860.69,-39.89,-63.69,0.02044,0.028893,0.482706,97.93,1
29926,0,53169,58811,53201.23,58859.69,-32.23,-48.7,0.020452,0.02891,0.48308,97.92,1
29935,0,53185,58827,53200.91,58859.04,-15.91,-32.04,0.020458,0.028921,0.483117,97.92,1
29946,0,53185,58842,53200.59,58858.7,-15.59,-16.7,0.020464,0.028927,0.483241,97.92,1
29956,0,53188,58842,53200.34,58858.37,-12.34,-16.37,0.020469,0.028932,0.483308,97.92,1
29965,0,53179,58826,53199.91,58857.72,-20.91,-31.72,0.020477,0.028943,0.48347,97.91,1
29975,0,53183,58810,53199.58,58856.77,-16.58,-46.77,0.020483,0.028959,0.483376,97.92,1
29985,0,53173,58802,53199.05,58855.67,-26.05,-53.68,0.020493,0.028978,0.483463,97.91,1
29996,0,53172,58811,53198.51,58854.78,-26.51,-43.78,0.020503,0.028993,0.483691,97.91,1
30005,0,53166,58802,53197.86,58853.73,-31.86,-51.73,0.020516,0.029011,0.484035,97.9,1
30015,0,53171,58799,53197.32,58852.63,-26.32,-53.63,0.020526,0.02903,0.484133,97.9,1
30025,0,53177,58795,53196.91,58851.48,-19.91,-56.48,0.020533,0.029049,0.483985,97.9,1
30034,0,53165,58794,53196.28,58850.33,-31.28,-56.33,0.020545,0.029069,0.484245,97.89,1
30046,0,53174,58805,53195.83,58849.43,-21.83,-44.43,0.020554,0.029084,0.484314,97.89,1
30055,0,53167,58802,53195.26,58848.48,-28.26,-46.48,0.020564,0.0291,0.484588,97.89,1
30065,0,53175,58817,53194.85,58847.85,-19.86,-30.85,0.020572,0.029111,0.48474,97.88,1
30075,0,53167,58811,53194.3,58847.11,-27.3,-36.11,0.020582,0.029124,0.485099,97.87,1
30085,0,53163,58823,53193.67,58846.63,-30.68,-23.63,0.020594,0.029132,0.485707,97.86,1
30095,0,53170,58822,53193.2,58846.14,-23.2,-24.14,0.020603,0.02914,0.486021,97.85,1
30105,0,53172,58818,53192.78,58845.58,-20.78,-27.58,0.020611,0.02915,0.486234,97.84,1
30115,0,53182,58827,53192.57,58845.21,-10.57,-18.21,0.020615,0.029156,0.48627,97.84,1
30125,0,53178,58841,53192.27,58845.13,-14.27,-4.13,0.020621,0.029157,0.486422,97.84,1
30136,0,53185,58852,53192.13,58845.26,-7.13,6.73,0.020623,0.029155,0.486455,97.84,1
30145,0,53186,58833,53192.01,58845.02,-6.01,-12.02,0.020626,0.029159,0.486461,97.84,1
30155,0,53173,58838,53191.63,58844.89,-18.63,-6.89,0.020633,0.029161,0.486725,97.83,1
30166,0,53182,58833,53191.44,58844.65,-9.44,-11.65,0.020636,0.029165,0.486775,97.83,1
30175,0,53176,58839,53191.13,58844.54,-15.13,-5.54,0.020642,0.029167,0.486953,97.83,1
30185,0,53183,58852,53190.97,58844.69,-7.97,7.31,0.020645,0.029165,0.486996,97.83,1
30194,0,53177,58858,53190.69,58844.95,-13.69,13.05,0.02065,0.02916,0.487122,97.82,1
30205,0,53181,58847,53190.5,58845,-9.5,2,0.020654,0.02916,0.487196,97.82,1
30215,0,53180,58832,53190.29,58844.74,-10.29,-12.74,0.020658,0.029164,0.487258,97.82,1
30225,0,53182,58841,53190.12,58844.66,-8.13,-3.66,0.020661,0.029165,0.487311,97.82,1
30235,0,53184,58844,53190,58844.65,-6,-0.65,0.020663,0.029165,0.487342,97.82,1
30245,0,53176,58861,53189.72,58844.98,-13.72,16.02,0.020669,0.02916,0.487461,97.81,1
30255,0,53185,58876,53189.63,58845.6,-4.63,30.4,0.02067,0.029149,0.487326,97.82,1
30266,0,53192,58902,53189.67,58846.73,2.32,55.27,0.020669,0.02913,0.486817,97.83,1
30275,0,53197,58896,53189.82,58847.72,7.18,48.28,0.020667,0.029113,0.486467,97.84,1
30284,0,53203,58909,53190.08,58848.94,12.91,60.05,0.020662,0.029092,0.485999,97.85,1
30295,0,53203,58896,53190.34,58849.89,12.66,46.11,0.020657,0.029076,0.485777,97.86,1
30305,0,53196,58883,53190.46,58850.55,5.54,32.45,0.020655,0.029065,0.485623,97.86,1
30315,0,53197,58862,53190.59,58850.78,6.41,11.22,0.020652,0.029061,0.485639,97.86,1
30324,0,53191,58847,53190.6,58850.71,0.4,-3.71,0.020652,0.029063,0.485638,97.86,1
30336,0,53181,58828,53190.41,58850.25,-9.41,-22.25,0.020656,0.02907,0.485632,97.86,1
30345,0,53166,58808,53189.92,58849.41,-23.92,-41.41,0.020665,0.029085,0.485859,97.85,1
30355,0,53152,58789,53189.16,58848.2,-37.16,-59.2,0.020679,0.029105,0.486524,97.84,1
30365,0,53145,58757,53188.28,58846.38,-43.28,-89.38,0.020696,0.029136,0.486834,97.83,1
30374,0,53142,58740,53187.35,58844.25,-45.36,-104.25,0.020713,0.029172,0.48679,97.83,1
30385,0,53141,58729,53186.43,58841.95,-45.43,-112.95,0.02073,0.029211,0.486405,97.84,1
30395,0,53132,58725,53185.34,58839.61,-53.34,-114.61,0.020751,0.029251,0.486695,97.83,1
30405,0,53133,58719,53184.3,58837.2,-51.3,-118.2,0.020771,0.029292,0.486627,97.83,1
30414,0,53134,58709,53183.29,58834.64,-49.29,-125.64,0.020789,0.029336,0.486036,97.85,1
30425,0,53127,58709,53182.17,58832.12,-55.17,-123.12,0.020811,0.029378,0.486147,97.85,1
30435,0,53118,58698,53180.89,58829.44,-62.89,-131.45,0.020835,0.029424,0.486728,97.83,1
30445,0,53118,58687,53179.63,58826.6,-61.63,-139.6,0.020858,0.029472,0.486752,97.83,1
30455,0,53109,58691,53178.22,58823.89,-69.22,-132.89,0.020885,0.029518,0.48803,97.8,1
30465,0,53114,58680,53176.94,58821.01,-62.94,-141.01,0.020909,0.029567,0.488114,97.8,1
30475,0,53114,58676,53175.68,58818.11,-61.68,-142.11,0.020933,0.029617,0.487996,97.8,1
30485,0,53113,58684,53174.43,58815.43,-61.43,-131.43,0.020956,0.029662,0.488373,97.79,1
30494,0,53111,58687,53173.16,58812.86,-62.16,-125.86,0.02098,0.029706,0.489084,97.77,1
30504,0,53112,58681,53171.94,58810.23,-59.94,-129.23,0.021003,0.029751,0.489383,97.77,1
30515,0,53117,58674,53170.84,58807.5,-53.84,-133.5,0.021024,0.029797,0.488845,97.78,1
30525,0,53107,58660,53169.57,58804.55,-62.57,-144.55,0.021048,0.029847,0.488693,97.78,1
30535,0,53118,58665,53168.53,58801.76,-50.54,-136.77,0.021067,0.029894,0.4877,97.81,1
30544,0,53104,58668,53167.24,58799.09,-63.24,-131.09,0.021091,0.02994,0.488294,97.79,1
30555,0,53108,58652,53166.06,58796.15,-58.06,-144.15,0.021114,0.02999,0.487684,97.81,1
30565,0,53109,58654,53164.92,58793.3,-55.92,-139.3,0.021135,0.030038,0.487105,97.82,1
30574,0,53108,58652,53163.78,58790.48,-55.78,-138.48,0.021156,0.030086,0.486561,97.84,1
30584,0,53106,58664,53162.63,58787.95,-56.63,-123.95,0.021178,0.030129,0.486769,97.83,1
30595,0,53110,58665,53161.58,58785.5,-51.58,-120.5,0.021198,0.030171,0.486632,97.83,1
30605,0,53108,58671,53160.51,58783.21,-52.51,-112.21,0.021218,0.03021,0.486916,97.83,1
30615,0,53114,58674,53159.58,58781.03,-45.58,-107.03,0.021235,0.030247,0.486787,97.83,1
30624,0,53117,58676,53158.73,58778.92,-41.73,-102.93,0.021251,0.030283,0.486507,97.84,1
30635,0,53112,58673,53157.79,58776.81,-45.79,-103.81,0.021269,0.030319,0.486516,97.84,1
30645,0,53109,58672,53156.82,58774.71,-47.82,-102.71,0.021287,0.030355,0.486735,97.83,1
30654,0,53112,58658,53155.92,58772.38,-43.92,-114.38,0.021304,0.030394,0.486188,97.85,1
30664,0,53101,58660,53154.82,58770.14,-53.82,-110.14,0.021325,0.030433,0.486685,97.83,1
30674,0,53107,58655,53153.87,58767.83,-46.87,-112.84,0.021343,0.030472,0.486441,97.84,1
30685,0,53102,58653,53152.83,58765.54,-50.83,-112.54,0.021362,0.030511,0.48656,97.84,1
30695,0,53097,58666,53151.71,58763.55,-54.71,-97.55,0.021383,0.030545,0.487603,97.81,1
30704,0,53095,58653,53150.58,58761.34,-55.58,-108.34,0.021405,0.030582,0.488333,97.79,1
30714,0,53104,58660,53149.64,58759.31,-45.64,-99.31,0.021422,0.030617,0.488477,97.79,1
30725,0,53100,58670,53148.65,58757.53,-48.65,-87.53,0.021441,0.030647,0.48927,97.77,1
30734,0,53105,58669,53147.78,58755.76,-42.78,-86.76,0.021457,0.030677,0.489594,97.76,1
30745,0,53110,58702,53147.03,58754.68,-37.03,-52.68,0.021472,0.030695,0.490354,97.74,1
30754,0,53114,58696,53146.37,58753.51,-32.37,-57.51,0.021484,0.030716,0.49072,97.73,1
30764,0,53120,58714,53145.84,58752.72,-25.84,-38.72,0.021494,0.030729,0.491065,97.72,1
30775,0,53122,58723,53145.37,58752.12,-23.37,-29.12,0.021503,0.030739,0.49142,97.71,1
30784,0,53125,58723,53144.96,58751.54,-19.96,-28.54,0.02151,0.030749,0.491643,97.71,1
30794,0,53124,58720,53144.54,58750.91,-20.54,-30.91,0.021518,0.03076,0.491865,97.7,1
30804,0,53123,58725,53144.11,58750.39,-21.11,-25.39,0.021526,0.030768,0.49217,97.7,1
30815,0,53124,58735,53143.71,58750.08,-19.71,-15.09,0.021534,0.030774,0.492503,97.69,1
30824,0,53125,58736,53143.33,58749.8,-18.34,-13.8,0.021541,0.030779,0.492795,97.68,1
30834,0,53131,58745,53143.09,58749.71,-12.09,-4.71,0.021546,0.03078,0.492934,97.68,1
30844,0,53135,58751,53142.93,58749.73,-7.93,1.27,0.021549,0.03078,0.492994,97.68,1
30854,0,53133,58754,53142.73,58749.82,-9.73,4.18,0.021552,0.030778,0.493085,97.67,1
30865,0,53138,58762,53142.64,58750.06,-4.64,11.94,0.021554,0.030774,0.493075,97.67,1
30874,0,53142,58754,53142.62,58750.14,-0.63,3.86,0.021554,0.030773,0.49307,97.67,1
30884,0,53138,58761,53142.53,58750.36,-4.54,10.64,0.021556,0.030769,0.493066,97.67,1
30894,0,53140,58767,53142.48,58750.69,-2.48,16.31,0.021557,0.030763,0.493015,97.67,1
30905,0,53141,58775,53142.46,58751.18,-1.46,23.82,0.021558,0.030755,0.492894,97.68,1
30914,0,53145,58767,53142.51,58751.5,2.49,15.5,0.021557,0.03075,0.492848,97.68,1
30924,0,53146,58779,53142.58,58752.05,3.42,26.95,0.021555,0.03074,0.492701,97.68,1
30935,0,53144,58778,53142.6,58752.57,1.39,25.43,0.021555,0.030731,0.49256,97.69,1
30945,0,53143,58782,53142.61,58753.16,0.39,28.84,0.021555,0.030721,0.492375,97.69,1
30954,0,53145,58775,53142.66,58753.59,2.34,21.41,0.021554,0.030714,0.492278,97.69,1
30963,0,53148,58781,53142.77,58754.14,5.23,26.86,0.021552,0.030705,0.492146,97.7,1
30974,0,53144,58796,53142.79,58754.98,1.21,41.02,0.021551,0.03069,0.491765,97.71,1
30984,0,53153,58802,53143,58755.92,10,46.07,0.021547,0.030674,0.491395,97.72,1
30995,0,53154,58816,53143.21,58757.13,10.79,58.87,0.021543,0.030654,0.490735,97.73,1
31004,0,53161,58808,53143.57,58758.15,17.43,49.85,0.021537,0.030637,0.490516,97.74,1
31014,0,53162,58808,53143.94,58759.15,18.06,48.85,0.02153,0.03062,0.490346,97.74,1
31024,0,53159,58813,53144.24,58760.23,14.76,52.77,0.021524,0.030601,0.489952,97.75,1
31034,0,53155,58820,53144.46,58761.42,10.54,58.58,0.02152,0.030581,0.489276,97.77,1
31044,0,53152,58821,53144.61,58762.62,7.39,58.38,0.021517,0.03056,0.488535,97.79,1
31053,0,53156,58835,53144.84,58764.07,11.16,70.93,0.021513,0.030536,0.48749,97.81,1
31065,0,53171,58834,53145.37,58765.46,25.63,68.54,0.021503,0.030512,0.487175,97.82,1
31074,0,53161,58830,53145.68,58766.76,15.32,63.24,0.021497,0.03049,0.486506,97.84,1
31084,0,53155,58819,53145.87,58767.8,9.13,51.2,0.021493,0.030472,0.485977,97.85,1
31094,0,53148,58815,53145.91,58768.75,2.09,46.25,0.021493,0.030456,0.485463,97.86,1
31105,0,53149,58824,53145.97,58769.85,3.03,54.15,0.021491,0.030437,0.484758,97.88,1
31114,0,53159,58829,53146.23,58771.03,12.77,57.96,0.021486,0.030417,0.484141,97.9,1
31124,0,53163,58853,53146.57,58772.67,16.43,80.32,0.02148,0.030389,0.482899,97.93,1
31134,0,53175,58866,53147.14,58774.54,27.86,91.46,0.021469,0.030358,0.481843,97.95,1
31143,0,53166,58858,53147.52,58776.21,18.48,81.79,0.021462,0.030329,0.480639,97.98,1
31155,0,53163,58851,53147.83,58777.71,15.16,73.29,0.021456,0.030304,0.479615,98.01,1
31164,0,53160,58842,53148.08,58779,11.92,63,0.021452,0.030282,0.478819,98.03,1
31174,0,53162,58820,53148.35,58779.82,13.64,40.18,0.021447,0.030268,0.478664,98.03,1
31184,0,53145,58799,53148.29,58780.2,-3.29,18.8,0.021448,0.030261,0.47859,98.04,1
31194,0,53136,58781,53148.04,58780.22,-12.04,0.78,0.021452,0.030261,0.478787,98.03,1
31204,0,53130,58754,53147.68,58779.7,-17.68,-25.7,0.021459,0.03027,0.479045,98.02,1
31213,0,53117,58726,53147.07,58778.62,-30.07,-52.63,0.021471,0.030288,0.479574,98.01,1
31224,0,53115,58703,53146.43,58777.11,-31.43,-74.11,0.021483,0.030314,0.479512,98.01,1
31234,0,53097,58674,53145.44,58775.05,-48.45,-101.05,0.021501,0.030349,0.480101,98,1
31245,0,53088,58669,53144.3,58772.93,-56.3,-103.93,0.021523,0.030385,0.481658,97.96,1
31254,0,53081,58654,53143.03,58770.55,-62.04,-116.55,0.021547,0.030425,0.48339,97.92,1
31263,0,53079,58634,53141.75,58767.82,-62.75,-133.82,0.021571,0.030472,0.484085,97.9,1
31275,0,53076,58627,53140.44,58765,-64.44,-138,0.021596,0.03052,0.484754,97.88,1
31284,0,53068,58632,53138.99,58762.34,-70.99,-130.34,0.021623,0.030565,0.48709,97.82,1
31293,0,53069,58629,53137.59,58759.67,-68.59,-130.68,0.021649,0.030611,0.488899,97.78,1
31304,0,53068,58627,53136.2,58757.02,-68.2,-130.02,0.021675,0.030656,0.490631,97.73,1
31313,0,53079,58626,53135.05,58754.4,-56.05,-128.4,0.021697,0.0307,0.490499,97.74,1
31325,0,53069,58633,53133.73,58751.98,-64.73,-118.98,0.021722,0.030742,0.492279,97.69,1
31334,0,53076,58634,53132.58,58749.62,-56.58,-115.62,0.021743,0.030782,0.492975,97.68,1
31343,0,53074,58626,53131.41,58747.14,-57.41,-121.14,0.021765,0.030824,0.493449,97.66,1
31354,0,53076,58629,53130.3,58744.78,-54.3,-115.78,0.021786,0.030864,0.493797,97.66,1
31364,0,53071,58636,53129.12,58742.6,-58.12,-106.61,0.021809,0.030901,0.495177,97.62,1
31375,0,53083,58649,53128.19,58740.73,-45.2,-91.73,0.021826,0.030933,0.495617,97.61,1
31384,0,53085,58654,53127.33,58739,-42.33,-85,0.021842,0.030962,0.49604,97.6,1
31393,0,53087,58657,53126.52,58737.36,-39.52,-80.36,0.021857,0.03099,0.496366,97.59,1
31404,0,53085,58660,53125.69,58735.82,-40.69,-75.82,0.021873,0.031017,0.496988,97.58,1
31414,0,53098,58665,53125.14,58734.4,-27.14,-69.4,0.021883,0.031041,0.496689,97.58,1
31424,0,53100,58688,53124.64,58733.48,-24.64,-45.48,0.021893,0.031057,0.496929,97.58,1
31433,0,53105,58691,53124.25,58732.63,-19.25,-41.63,0.0219,0.031071,0.496954,97.58,1
31443,0,53104,58703,53123.84,58732.03,-19.84,-29.04,0.021908,0.031081,0.49724,97.57,1
31454,0,53106,58700,53123.49,58731.39,-17.49,-31.39,0.021915,0.031092,0.497377,97.57,1
31463,0,53112,58694,53123.26,58730.65,-11.26,-36.65,0.021919,0.031105,0.497186,97.57,1
31474,0,53111,58698,53123.01,58730,-12.01,-32,0.021924,0.031116,0.497101,97.57,1
31483,0,53109,58714,53122.73,58729.68,-13.73,-15.68,0.021929,0.031121,0.497285,97.57,1
31495,0,53118,58727,53122.64,58729.62,-4.64,-2.63,0.021931,0.031122,0.497311,97.57,1
31504,0,53123,58732,53122.64,58729.67,0.36,2.32,0.02193,0.031121,0.497308,97.57,1
31513,0,53129,58722,53122.77,58729.52,6.23,-7.52,0.021928,0.031124,0.497344,97.57,1
31523,0,53124,58716,53122.8,58729.25,1.2,-13.25,0.021928,0.031128,0.497295,97.57,1
31533,0,53115,58718,53122.64,58729.03,-7.64,-11.03,0.02193,0.031132,0.497341,97.57,1
31544,0,53118,58714,53122.55,58728.73,-4.55,-14.73,0.021932,0.031137,0.497307,97.57,1
31553,0,53108,58718,53122.26,58728.52,-14.26,-10.52,0.021938,0.031141,0.497564,97.56,1
31564,0,53115,58718,53122.12,58728.31,-7.12,-10.31,0.02194,0.031144,0.497605,97.56,1
31574,0,53115,58725,53121.98,58728.24,-6.98,-3.24,0.021943,0.031146,0.497672,97.56,1
31584,0,53123,58737,53122,58728.42,1,8.58,0.021943,0.031143,0.49765,97.56,1
31593,0,53122,58727,53122,58728.39,0,-1.39,0.021942,0.031143,0.497648,97.56,1
31604,0,53119,58732,53121.94,58728.46,-2.95,3.54,0.021944,0.031142,0.497655,97.56,1
31613,0,53124,58729,53121.99,58728.48,2.01,0.52,0.021943,0.031142,0.49766,97.56,1
31624,0,53129,58751,53122.13,58728.92,6.87,22.07,0.02194,0.031134,0.49758,97.56,1
31633,0,53126,58760,53122.21,58729.55,3.79,30.45,0.021939,0.031123,0.49731,97.57,1
31643,0,53137,58764,53122.5,58730.24,14.5,33.76,0.021933,0.031112,0.497277,97.57,1
31653,0,53133,58765,53122.71,58730.93,10.29,34.07,0.021929,0.0311,0.497072,97.57,1
31663,0,53134,58763,53122.94,58731.58,11.06,31.42,0.021925,0.031089,0.496949,97.58,1
31674,0,53138,58759,53123.25,58732.13,14.75,26.87,0.021919,0.031079,0.497063,97.57,1
31683,0,53134,58763,53123.46,58732.75,10.54,30.25,0.021915,0.031069,0.496942,97.58,1
31694,0,53128,58771,53123.55,58733.51,4.45,37.48,0.021913,0.031056,0.49651,97.59,1
31704,0,53132,58774,53123.72,58734.33,8.28,39.67,0.02191,0.031042,0.496099,97.6,1
31714,0,53137,58782,53123.99,58735.28,13.01,46.71,0.021905,0.031026,0.49565,97.61,1
31723,0,53149,58797,53124.49,58736.52,24.51,60.48,0.021896,0.031005,0.495425,97.61,1
31733,0,53140,58810,53124.8,58737.99,15.2,72.01,0.02189,0.03098,0.494065,97.65,1
31744,0,53147,58815,53125.25,58739.53,21.75,75.46,0.021881,0.030953,0.492945,97.68,1
31753,0,53154,58806,53125.82,58740.87,28.18,65.13,0.021871,0.030931,0.492862,97.68,1
31764,0,53148,58792,53126.26,58741.89,21.73,50.11,0.021862,0.030913,0.492816,97.68,1
31773,0,53131,58772,53126.36,58742.5,4.64,29.5,0.02186,0.030903,0.492555,97.69,1
31783,0,53128,58767,53126.39,58742.99,1.61,24.01,0.02186,0.030895,0.49236,97.69,1
31793,0,53118,58763,53126.23,58743.39,-8.23,19.61,0.021863,0.030888,0.492344,97.69,1
31804,0,53119,58769,53126.08,58743.9,-7.08,25.1,0.021866,0.030879,0.492212,97.69,1
31813,0,53124,58771,53126.04,58744.44,-2.04,26.55,0.021866,0.03087,0.491969,97.7,1
31822,0,53126,58797,53126.04,58745.5,-0.04,51.5,0.021866,0.030852,0.491022,97.72,1
31834,0,53130,58795,53126.12,58746.49,3.88,48.51,0.021865,0.030835,0.490205,97.74,1
31843,0,53121,58782,53126.02,58747.2,-5.02,34.8,0.021867,0.030823,0.489815,97.75,1
31853,0,53120,58770,53125.9,58747.66,-5.9,22.34,0.021869,0.030815,0.489698,97.76,1
31862,0,53125,58762,53125.89,58747.94,-0.89,14.06,0.021869,0.03081,0.489627,97.76,1
31874,0,53119,58758,53125.75,58748.14,-6.75,9.86,0.021872,0.030807,0.489677,97.76,1
31883,0,53111,58755,53125.45,58748.28,-14.45,6.71,0.021878,0.030804,0.490059,97.75,1
31893,0,53112,58760,53125.18,58748.52,-13.18,11.48,0.021883,0.0308,0.490344,97.74,1
31903,0,53117,58759,53125.02,58748.73,-8.02,10.27,0.021886,0.030797,0.490429,97.74,1
31913,0,53121,58771,53124.94,58749.18,-3.94,21.82,0.021887,0.030789,0.490276,97.74,1
31923,0,53116,58771,53124.76,58749.62,-8.76,21.38,0.021891,0.030782,0.49025,97.74,1
31934,0,53117,58774,53124.6,58750.1,-7.61,23.89,0.021894,0.030773,0.490142,97.75,1
31943,0,53114,58760,53124.39,58750.3,-10.39,9.7,0.021898,0.03077,0.490323,97.74,1
31952,0,53107,58754,53124.05,58750.38,-17.05,3.62,0.021904,0.030769,0.490911,97.73,1
31964,0,53103,58749,53123.62,58750.35,-20.62,-1.35,0.021912,0.030769,0.491786,97.71,1
31973,0,53109,58764,53123.33,58750.62,-14.33,13.38,0.021917,0.030765,0.492139,97.7,1
31983,0,53110,58781,53123.07,58751.23,-13.07,29.77,0.021922,0.030754,0.49213,97.7,1
31992,0,53114,58790,53122.89,58752.01,-8.89,37.99,0.021926,0.030741,0.491694,97.71,1
32004,0,53126,58806,53122.95,58753.09,3.05,52.91,0.021925,0.030723,0.49054,97.74,1
32013,0,53125,58795,53122.99,58753.93,2.01,41.07,0.021924,0.030708,0.489838,97.75,1
32024,0,53128,58802,53123.09,58754.89,4.91,47.11,0.021922,0.030692,0.488951,97.78,1
32033,0,53119,58772,53123.01,58755.23,-4.01,16.77,0.021924,0.030686,0.488867,97.78,1
32043,0,53104,58744,53122.63,58755.01,-18.63,-11.01,0.021931,0.03069,0.48958,97.76,1
32053,0,53088,58701,53121.94,58753.93,-33.94,-52.93,0.021944,0.030708,0.490912,97.73,1
32063,0,53068,58644,53120.86,58751.73,-52.86,-107.73,0.021964,0.030746,0.492018,97.7,1
32073,0,53047,58602,53119.38,58748.73,-72.38,-146.73,0.021992,0.030797,0.494084,97.65,1
32082,0,53025,58554,53117.5,58744.84,-92.5,-190.84,0.022027,0.030863,0.496656,97.58,1
32094,0,53007,58519,53115.29,58740.32,-108.29,-221.32,0.022069,0.03094,0.500089,97.5,1
32103,0,52995,58483,53112.88,58735.18,-117.88,-252.18,0.022114,0.031027,0.501606,97.46,1
32113,0,52985,58441,53110.32,58729.3,-125.32,-288.3,0.022162,0.031128,0.499456,97.51,1
32123,0,52964,58416,53107.4,58723.03,-143.4,-307.03,0.022217,0.031234,0.501309,97.47,1
32133,0,52941,58367,53104.07,58715.91,-163.07,-348.91,0.02228,0.031356,0.503239,97.42,1
32143,0,52926,58330,53100.51,58708.19,-174.51,-378.2,0.022347,0.031487,0.504136,97.4,1
32153,0,52917,58321,53096.84,58700.45,-179.84,-379.45,0.022416,0.031619,0.50646,97.34,1
32163,0,52911,58311,53093.12,58692.66,-182.12,-381.66,0.022486,0.031752,0.508722,97.28,1
32173,0,52911,58308,53089.48,58684.97,-178.48,-376.97,0.022555,0.031883,0.510125,97.25,1
32184,0,52903,58305,53085.75,58677.37,-182.75,-372.38,0.022625,0.032012,0.512952,97.18,1
32193,0,52900,58287,53082.03,58669.57,-182.03,-382.57,0.022695,0.032145,0.514053,97.15,1
32202,0,52891,58263,53078.21,58661.44,-187.21,-398.44,0.022767,0.032284,0.514511,97.14,1
32214,0,52885,58266,53074.35,58653.53,-189.35,-387.53,0.02284,0.032419,0.516445,97.09,1
32223,0,52885,58260,53070.56,58645.66,-185.56,-385.66,0.022911,0.032553,0.517526,97.06,1
32233,0,52882,58264,53066.79,58638.03,-184.79,-374.03,0.022982,0.032683,0.519326,97.02,1
32243,0,52889,58273,53063.24,58630.73,-174.24,-357.73,0.023049,0.032807,0.520369,96.99,1
32252,0,52888,58270,53059.73,58623.52,-171.73,-353.52,0.023115,0.03293,0.521218,96.97,1
32263,0,52886,58264,53056.26,58616.33,-170.26,-352.33,0.023181,0.033053,0.521848,96.95,1
32273,0,52887,58279,53052.87,58609.58,-165.87,-330.59,0.023245,0.033168,0.523228,96.92,1
32283,0,52897,58277,53049.76,58602.93,-152.76,-325.93,0.023303,0.033282,0.523032,96.92,1
32292,0,52891,58269,53046.58,58596.25,-155.58,-327.25,0.023363,0.033396,0.523127,96.92,1
32304,0,52887,58278,53043.39,58589.89,-156.39,-311.89,0.023423,0.033504,0.5242,96.9,1
32313,0,52886,58280,53040.24,58583.69,-154.24,-303.69,0.023483,0.03361,0.525395,96.87,1
32322,0,52889,58274,53037.22,58577.5,-148.22,-303.5,0.02354,0.033716,0.525838,96.85,1
32333,0,52891,58286,53034.3,58571.67,-143.3,-285.67,0.023595,0.033815,0.526614,96.83,1
32343,0,52884,58286,53031.29,58565.95,-147.29,-279.95,0.023652,0.033913,0.528057,96.8,1
32353,0,52890,58287,53028.47,58560.37,-138.47,-273.38,0.023705,0.034008,0.528826,96.78,1
32363,0,52893,58307,53025.76,58555.31,-132.76,-248.31,0.023756,0.034095,0.530087,96.75,1
32373,0,52903,58307,53023.3,58550.34,-120.3,-243.34,0.023802,0.034179,0.530387,96.74,1
32382,0,52902,58314,53020.87,58545.62,-118.87,-231.62,0.023848,0.03426,0.531012,96.72,1
32394,0,52907,58329,53018.6,58541.29,-111.6,-212.29,0.023891,0.034334,0.53173,96.71,1
32403,0,52908,58325,53016.39,58536.96,-108.39,-211.96,0.023933,0.034408,0.532198,96.7,1
32412,0,52910,58314,53014.26,58532.51,-104.26,-218.51,0.023973,0.034484,0.532123,96.7,1
32423,0,52905,58324,53012.07,58528.34,-107.07,-204.34,0.024014,0.034555,0.532739,96.68,1
32433,0,52908,58334,53009.99,58524.45,-101.99,-190.45,0.024053,0.034622,0.533418,96.66,1
32442,0,52912,58336,53008.03,58520.68,-96.03,-184.68,0.02409,0.034686,0.533855,96.65,1
32453,0,52917,58347,53006.21,58517.21,-89.21,-170.21,0.024125,0.034745,0.534264,96.64,1
32462,0,52916,58339,53004.41,58513.65,-88.41,-174.65,0.024159,0.034806,0.534496,96.64,1
32473,0,52919,58349,53002.7,58510.35,-83.7,-161.36,0.024191,0.034863,0.534807,96.63,1
32483,0,52911,58350,53000.86,58507.15,-89.86,-157.15,0.024226,0.034917,0.535598,96.61,1
32492,0,52914,58341,52999.13,58503.83,-85.13,-162.83,0.024258,0.034974,0.535946,96.6,1
32503,0,52917,58364,52997.49,58501.03,-80.49,-137.04,0.024289,0.035022,0.536658,96.58,1
32513,0,52919,58366,52995.92,58498.33,-76.92,-132.34,0.024319,0.035068,0.537277,96.57,1
32522,0,52937,58378,52994.74,58495.93,-57.74,-117.93,0.024341,0.035109,0.537286,96.57,1
32533,0,52935,58390,52993.54,58493.81,-58.54,-103.81,0.024364,0.035145,0.537591,96.56,1
32542,0,52935,58392,52992.37,58491.78,-57.37,-99.78,0.024386,0.03518,0.537917,96.55,1
32551,0,52937,58392,52991.26,58489.78,-54.26,-97.78,0.024407,0.035214,0.538153,96.55,1
32563,0,52937,58378,52990.17,58487.55,-53.18,-109.55,0.024427,0.035252,0.538139,96.55,1
32572,0,52939,58385,52989.16,58485.5,-50.16,-100.5,0.024446,0.035288,0.538176,96.55,1
32583,0,52926,58376,52987.89,58483.31,-61.89,-107.31,0.02447,0.035325,0.53857,96.54,1
32592,0,52929,58378,52986.71,58481.2,-57.71,-103.2,0.024493,0.035361,0.538858,96.53,1
32602,0,52922,58362,52985.42,58478.82,-63.42,-116.82,0.024517,0.035402,0.539138,96.52,1
32613,0,52923,58358,52984.17,58476.41,-61.18,-118.41,0.02454,0.035443,0.539281,96.52,1
32622,0,52920,58354,52982.89,58473.96,-62.89,-119.96,0.024565,0.035485,0.539471,96.51,1
32633,0,52919,58377,52981.61,58472.02,-62.61,-95.02,0.024589,0.035518,0.540127,96.5,1
32643,0,52923,58376,52980.44,58470.1,-57.44,-94.1,0.024611,0.035551,0.540567,96.49,1
32652,0,52926,58373,52979.35,58468.16,-53.35,-95.16,0.024631,0.035584,0.540818,96.48,1
32663,0,52918,58367,52978.12,58466.14,-60.13,-99.14,0.024655,0.035619,0.541293,96.47,1
32672,0,52921,58354,52976.98,58463.89,-55.98,-109.89,0.024676,0.035657,0.541376,96.47,1
32683,0,52916,58354,52975.76,58461.69,-59.77,-107.7,0.024699,0.035695,0.541674,96.46,1
32693,0,52912,58354,52974.49,58459.54,-62.49,-105.54,0.024723,0.035731,0.542144,96.45,1
32702,0,52913,58358,52973.26,58457.51,-60.26,-99.51,0.024746,0.035766,0.542624,96.43,1
32712,0,52921,58376,52972.22,58455.88,-51.22,-79.88,0.024766,0.035794,0.543044,96.42,1
32722,0,52928,58386,52971.33,58454.48,-43.33,-68.48,0.024783,0.035818,0.543332,96.42,1
32733,0,52925,58392,52970.41,58453.23,-45.41,-61.23,0.0248,0.035839,0.543787,96.41,1
32742,0,52921,58387,52969.42,58451.91,-48.42,-64.91,0.024819,0.035862,0.544313,96.39,1
32752,0,52926,58387,52968.55,58450.61,-42.55,-63.61,0.024835,0.035884,0.544642,96.38,1
32762,0,52932,58392,52967.82,58449.44,-35.82,-57.44,0.024849,0.035904,0.544832,96.38,1
32772,0,52927,58401,52967.01,58448.47,-40.01,-47.47,0.024865,0.035921,0.54526,96.37,1
32783,0,52936,58409,52966.39,58447.68,-30.39,-38.68,0.024876,0.035934,0.545486,96.36,1
32792,0,52934,58397,52965.74,58446.67,-31.74,-49.67,0.024888,0.035952,0.545649,96.36,1
32802,0,52932,58391,52965.07,58445.55,-33.07,-54.55,0.024901,0.035971,0.545798,96.36,1
32813,0,52923,58375,52964.23,58444.14,-41.23,-69.14,0.024917,0.035995,0.546018,96.35,1
32822,0,52926,58379,52963.46,58442.84,-37.46,-63.84,0.024931,0.036017,0.546187,96.35,1
32832,0,52923,58384,52962.65,58441.66,-39.65,-57.66,0.024947,0.036037,0.54651,96.34,1
32842,0,52922,58407,52961.84,58440.97,-39.84,-33.97,0.024962,0.036049,0.547075,96.32,1
32852,0,52936,58425,52961.32,58440.66,-25.32,-15.66,0.024972,0.036055,0.547325,96.32,1
32862,0,52948,58443,52961.06,58440.7,-13.06,2.3,0.024977,0.036054,0.547394,96.32,1
