timestamp,sensor1_smoothed,sensor1_bpm,sensor2_smoothed,sensor2_bpm,delta,median_delta,iqr_delta,valid_ratio,status
21:53.7,702.4,34.74,304.03,35.83,-70,-10,nan,1,OK
21:53.7,739.84,34.74,370.38,35.83,-70,-10,nan,1,OK
21:53.8,756.59,34.74,429.65,35.83,-70,-10,nan,1,OK
21:53.8,754.41,34.74,479.51,35.83,-70,-10,nan,1,OK
21:53.8,732.24,34.74,514.34,35.83,-70,-10,nan,1,OK
21:53.8,695.11,34.74,535.67,35.83,-70,-10,nan,1,OK
21:53.8,644.61,34.74,543.46,35.83,-70,-10,nan,1,OK
21:53.8,583.5,34.74,542.07,35.83,-70,-10,nan,1,OK
21:53.8,513.91,34.74,525.78,35.83,-70,-10,nan,1,OK
21:53.8,440.37,34.74,499.45,35.83,-70,-10,nan,1,OK
21:53.8,364.95,34.74,465.06,35.83,-70,-10,nan,1,OK
21:53.8,290.43,34.74,425.08,35.83,-70,-10,nan,1,OK
21:53.9,218.6,34.74,375.41,35.83,-70,-10,nan,1,OK
21:53.9,148.37,34.74,326.43,35.83,-70,-10,nan,1,OK
21:53.9,82.99,34.74,277.88,35.83,-70,-10,nan,1,OK
21:53.9,21.95,34.74,226.86,35.83,-70,-10,nan,1,OK
21:53.9,-34.36,34.74,180.71,35.83,-70,-10,nan,1,OK
21:53.9,-82.96,34.74,136.67,35.83,-70,-10,nan,1,OK
21:53.9,-125.65,34.74,96.89,35.83,-70,-10,nan,1,OK
21:53.9,-161.54,34.74,61.62,35.83,-70,-10,nan,1,OK
21:53.9,-189.59,34.74,33.92,35.83,-70,-10,nan,1,OK
21:53.9,-209.86,34.74,8.4,35.83,-70,-10,nan,1,OK
21:53.9,-225.56,34.74,-12.67,35.83,-70,-10,nan,1,OK
21:54.0,-233.27,34.74,-29.36,35.83,-70,-10,nan,1,OK
21:54.0,-235.4,34.74,-42.06,35.83,-70,-10,nan,1,OK
21:54.0,-235.59,34.74,-50.93,35.83,-70,-10,nan,1,OK
21:54.0,-233.68,34.74,-57.51,35.83,-70,-10,nan,1,OK
21:54.0,-227.35,34.74,-61.38,35.83,-70,-10,nan,1,OK
21:54.0,-219.11,34.74,-61.91,35.83,-70,-10,nan,1,OK
21:54.0,-213.08,34.74,-60.22,35.83,-70,-10,nan,1,OK
21:54.0,-204.19,34.74,-61.12,35.83,-70,-10,nan,1,OK
21:54.0,-196.1,34.74,-59.58,35.83,-70,-10,nan,1,OK
21:54.1,-191.11,34.74,-60.19,35.83,-70,-10,nan,1,OK
21:54.1,-187.9,34.74,-62.82,35.83,-70,-10,nan,1,OK
21:54.1,-186.82,34.74,-69.07,35.83,-70,-10,nan,1,OK
21:54.1,-189.6,34.74,-72.28,35.83,-70,-10,nan,1,OK
21:54.1,-192.95,34.74,-78.54,35.83,-70,-10,nan,1,OK
21:54.1,-198.36,34.74,-81.45,35.83,-70,-10,nan,1,OK
21:54.1,-205.05,34.74,-87.42,35.83,-70,-10,nan,1,OK
21:54.1,-210.32,34.74,-91.92,35.83,-70,-10,nan,1,OK
21:54.1,-215.7,34.74,-100,35.83,-70,-10,nan,1,OK
21:54.1,-222.98,34.74,-109.3,35.83,-70,-10,nan,1,OK
21:54.2,-227.32,34.74,-116.13,35.83,-70,-10,nan,1,OK
21:54.2,-231.51,34.74,-126.1,35.83,-70,-10,nan,1,OK
21:54.2,-233.32,34.74,-138.82,35.83,-70,-10,nan,1,OK
21:54.2,-233.25,34.74,-150.09,35.83,-70,-10,nan,1,OK
21:54.2,-231.36,34.74,-159.2,35.83,-70,-10,nan,1,OK
21:54.2,-229.65,34.74,-171.9,35.83,-70,-10,nan,1,OK
21:54.2,-226.69,34.74,-180.46,35.83,-70,-10,nan,1,OK
21:54.2,-223.22,34.74,-186.12,35.83,-70,-10,nan,1,OK
21:54.2,-219.49,34.74,-188.96,35.83,-70,-10,nan,1,OK
21:54.2,-212.49,34.74,-189.56,35.83,-70,-10,nan,1,OK
21:54.2,-204.24,34.74,-188.3,35.83,-70,-10,nan,1,OK
21:54.3,-195.65,34.74,-182.13,35.83,-70,-10,nan,1,OK
21:54.3,-188.37,34.74,-173.58,35.83,-70,-10,nan,1,OK
21:54.3,-179.12,34.74,-163.01,35.83,-70,-10,nan,1,OK
21:54.3,-172.04,34.74,-151.27,35.83,-70,-10,nan,1,OK
21:54.3,-165.44,34.74,-139.04,35.83,-70,-10,nan,1,OK
21:54.3,-156.16,34.74,-132.61,35.83,-70,-10,nan,1,OK
21:54.3,-147.34,34.74,-123.47,35.83,-70,-10,nan,1,OK
21:54.3,-138.62,34.74,-116.92,35.83,-70,-10,nan,1,OK
21:54.3,-130.14,34.74,-113.7,35.83,-70,-10,nan,1,OK
21:54.4,-121.22,34.74,-105.96,35.83,-70,-10,nan,1,OK
21:54.4,-117.06,34.74,-96.42,35.83,-70,-10,nan,1,OK
21:54.4,-112.6,34.74,-90.71,35.83,-70,-10,nan,1,OK
21:54.4,-107.99,34.74,-84.66,35.83,-70,-10,nan,1,OK
21:54.4,-100.33,34.74,-77.31,35.83,-70,-10,nan,1,OK
21:54.4,-86.79,34.74,-73.18,35.83,-70,-10,nan,1,OK
21:54.4,-68.05,34.74,-69.53,35.83,-70,-10,nan,1,OK
21:54.4,-41.19,34.74,-65.33,35.83,-70,-10,nan,1,OK
21:54.4,-3.29,34.74,-58.83,35.83,-70,-10,nan,1,OK
21:54.4,48.36,34.74,-48.78,35.83,-70,-10,nan,1,OK
21:54.5,108.23,34.74,-31.92,35.83,-70,-10,nan,1,OK
21:54.5,185.44,49.37,-4.24,35.83,-70,-10,nan,1,OK
21:54.5,272.56,49.37,35.28,35.83,-70,-10,nan,1,OK
21:54.5,363.43,49.37,86.04,35.83,-70,-10,nan,1,OK
21:54.5,453.87,49.37,148.93,35.83,-70,-10,nan,1,OK
21:54.5,540.74,49.37,217.88,35.83,-70,-10,nan,1,OK
21:54.5,616.66,49.37,289.63,48.59,50,10,60,1,OK
21:54.5,681.51,49.37,360.53,48.59,50,10,60,1,OK
21:54.5,731.6,49.37,427.23,48.59,50,10,60,1,OK
21:54.5,762.88,49.37,485.36,48.59,50,10,60,1,OK
21:54.5,775.94,49.37,539.34,48.59,50,10,60,1,OK
21:54.6,771.49,49.37,578.63,48.59,50,10,60,1,OK
21:54.6,747.63,49.37,606.27,48.59,50,10,60,1,OK
21:54.6,710,49.37,620.81,48.59,50,10,60,1,OK
21:54.6,659.77,49.37,623.23,48.59,50,10,60,1,OK
21:54.6,601.1,49.37,609.52,48.59,50,10,60,1,OK
21:54.6,535.3,49.37,590.09,48.59,50,10,60,1,OK
21:54.6,465.72,49.37,562.35,48.59,50,10,60,1,OK
21:54.6,394.81,49.37,528.32,48.59,50,10,60,1,OK
21:54.6,325.11,49.37,489.44,48.59,50,10,60,1,OK
21:54.6,254.65,49.37,446.71,48.59,50,10,60,1,OK
21:54.7,189.71,49.37,405.13,48.59,50,10,60,1,OK
21:54.7,127.81,49.37,363.67,48.59,50,10,60,1,OK
21:54.7,69.58,49.37,321.96,48.59,50,10,60,1,OK
21:54.7,17.93,49.37,281.48,48.59,50,10,60,1,OK
21:54.7,-23.94,49.37,244.35,48.59,50,10,60,1,OK
21:54.7,-61.36,49.37,207.16,48.59,50,10,60,1,OK
21:54.7,-89.92,49.37,171.65,48.59,50,10,60,1,OK
21:54.7,-110.98,49.37,140.09,48.59,50,10,60,1,OK
21:54.7,-126.86,49.37,113.28,48.59,50,10,60,1,OK
21:54.8,-136.01,49.37,93.13,48.59,50,10,60,1,OK
21:54.8,-140.79,49.37,77.66,48.59,50,10,60,1,OK
21:54.8,-143.24,49.37,66.81,48.59,50,10,60,1,OK
21:54.8,-142.24,49.37,57.74,48.59,50,10,60,1,OK
21:54.8,-138.83,49.37,50.79,48.59,50,10,60,1,OK
21:54.8,-136.14,49.37,43.56,48.59,50,10,60,1,OK
21:54.8,-134.66,49.37,33.87,48.59,50,10,60,1,OK
21:54.8,-129.99,49.37,25.58,48.59,50,10,60,1,OK
21:54.8,-129.1,49.37,20.52,48.59,50,10,60,1,OK
21:54.9,-129.41,49.37,13.43,48.59,50,10,60,1,OK
21:54.9,-132.41,49.37,6.17,48.59,50,10,60,1,OK
21:54.9,-133.75,49.37,0.34,48.59,50,10,60,1,OK
21:54.9,-138.4,49.37,-7.19,48.59,50,10,60,1,OK
21:54.9,-145.19,49.37,-17.36,48.59,50,10,60,1,OK
21:54.9,-154.59,49.37,-25.9,48.59,50,10,60,1,OK
21:54.9,-164.22,49.37,-35.52,48.59,50,10,60,1,OK
21:54.9,-179.86,49.37,-48.61,48.59,50,10,60,1,OK
21:54.9,-193.64,49.37,-62.81,48.59,50,10,60,1,OK
21:55.0,-203.44,49.37,-76.72,48.59,50,10,60,1,OK
21:55.0,-211.7,49.37,-92.38,48.59,50,10,60,1,OK
21:55.0,-217.39,49.37,-107.82,48.59,50,10,60,1,OK
21:55.0,-217.71,49.37,-120.85,48.59,50,10,60,1,OK
21:55.0,-218.81,49.37,-133.55,48.59,50,10,60,1,OK
21:55.0,-219.6,49.37,-142.88,48.59,50,10,60,1,OK
21:55.0,-216.02,49.37,-150.67,48.59,50,10,60,1,OK
21:55.0,-213.48,49.37,-155.71,48.59,50,10,60,1,OK
21:55.0,-208.2,49.37,-158.87,48.59,50,10,60,1,OK
21:55.1,-201.11,49.37,-161.35,48.59,50,10,60,1,OK
21:55.1,-190.4,49.37,-161.71,48.59,50,10,60,1,OK
21:55.1,-182.03,49.37,-160.93,48.59,50,10,60,1,OK
21:55.1,-169.95,49.37,-158.52,48.59,50,10,60,1,OK
21:55.1,-161.7,49.37,-154.51,48.59,50,10,60,1,OK
21:55.1,-151.19,49.37,-145.67,48.59,50,10,60,1,OK
21:55.1,-142.28,49.37,-138.5,48.59,50,10,60,1,OK
21:55.1,-132.59,49.37,-129.46,48.59,50,10,60,1,OK
21:55.1,-124.7,49.37,-122.93,48.59,50,10,60,1,OK
21:55.2,-113.38,49.37,-115.78,48.59,50,10,60,1,OK
21:55.2,-105.08,49.37,-110.44,48.59,50,10,60,1,OK
21:55.2,-97.07,49.37,-104.78,48.59,50,10,60,1,OK
21:55.2,-89.34,49.37,-102.02,48.59,50,10,60,1,OK
21:55.2,-83.92,49.37,-100.38,48.59,50,10,60,1,OK
21:55.2,-78.97,49.37,-103,48.59,50,10,60,1,OK
21:55.2,-72.66,49.37,-104.03,48.59,50,10,60,1,OK
21:55.2,-64.54,49.37,-107.83,48.59,50,10,60,1,OK
21:55.2,-51.13,49.37,-110.64,48.59,50,10,60,1,OK
21:55.3,-29.02,49.37,-109.96,48.59,50,10,60,1,OK
21:55.3,2.35,49.37,-104.4,48.59,50,10,60,1,OK
21:55.3,48.76,49.37,-95.94,48.59,50,10,60,1,OK
21:55.3,109.12,49.37,-79.37,48.59,50,10,60,1,OK
21:55.3,183.77,63.76,-50.56,48.59,50,10,60,1,OK
21:55.3,269.5,63.76,-12.05,48.59,50,10,60,1,OK
21:55.3,364.93,63.76,34.48,48.59,50,10,60,1,OK
21:55.3,457.43,63.76,89.11,48.59,50,10,60,1,OK
21:55.3,543.17,63.76,148.73,63.12,42,30,52,1,OK
21:55.3,615.98,63.76,207.12,63.12,42,30,52,1,OK
21:55.4,674.07,63.76,263.47,63.12,42,30,52,1,OK
21:55.4,713.01,63.76,318.31,63.12,42,30,52,1,OK
21:55.4,736.29,63.76,367.65,63.12,42,30,52,1,OK
21:55.4,744.34,63.76,409.52,63.12,42,30,52,1,OK
21:55.4,734.37,63.76,442.85,63.12,42,30,52,1,OK
21:55.4,710.69,63.76,465.58,63.12,42,30,52,1,OK
21:55.4,672.56,63.76,478.26,63.12,42,30,52,1,OK
21:55.4,624.16,63.76,477.92,63.12,42,30,52,1,OK
21:55.4,566.1,63.76,468.95,63.12,42,30,52,1,OK
21:55.4,502.78,63.76,449.07,63.12,42,30,52,1,OK
21:55.5,435.76,63.76,423.11,63.12,42,30,52,1,OK
21:55.5,367.94,63.76,391.01,63.12,42,30,52,1,OK
21:55.5,299.02,63.76,356.64,63.12,42,30,52,1,OK
21:55.5,231.98,63.76,318.46,63.12,42,30,52,1,OK
21:55.5,169.58,63.76,280.6,63.12,42,30,52,1,OK
21:55.5,111.13,63.76,245.4,63.12,42,30,52,1,OK
21:55.5,58.47,63.76,213.34,63.12,42,30,52,1,OK
21:55.5,13.52,63.76,181.5,63.12,42,30,52,1,OK
21:55.5,-24.36,63.76,154.8,63.12,42,30,52,1,OK
21:55.5,-54.97,63.76,131.54,63.12,42,30,52,1,OK
21:55.6,-78.44,63.76,109.7,63.12,42,30,52,1,OK
21:55.6,-94.81,63.76,91.58,63.12,42,30,52,1,OK
21:55.6,-105.91,63.76,78.22,63.12,42,30,52,1,OK
21:55.6,-111.05,63.76,65.74,63.12,42,30,52,1,OK
21:55.6,-111.12,63.76,59.89,63.12,42,30,52,1,OK
21:55.6,-107.58,63.76,54.78,63.12,42,30,52,1,OK
21:55.6,-102.49,63.76,49.57,63.12,42,30,52,1,OK
21:55.6,-95.76,63.76,46.12,63.12,42,30,52,1,OK
21:55.6,-89.61,63.76,42.58,63.12,42,30,52,1,OK
21:55.7,-86.17,63.76,34.57,63.12,42,30,52,1,OK
21:55.7,-85.34,63.76,25.17,63.12,42,30,52,1,OK
21:55.7,-85.78,63.76,12.14,63.12,42,30,52,1,OK
21:55.7,-88.57,63.76,-5.71,63.12,42,30,52,1,OK
21:55.7,-96.54,63.76,-25.81,63.12,42,30,52,1,OK
21:55.7,-103.73,63.76,-47.45,63.12,42,30,52,1,OK
21:55.7,-111.59,63.76,-68.72,63.12,42,30,52,1,OK
21:55.7,-122.02,63.76,-90.84,63.12,42,30,52,1,OK
21:55.7,-132.93,63.76,-110.96,63.12,42,30,52,1,OK
21:55.8,-141.98,63.76,-129.95,63.12,42,30,52,1,OK
21:55.8,-151.67,63.76,-150.05,63.12,42,30,52,1,OK
21:55.8,-161.12,63.76,-169.31,63.12,42,30,52,1,OK
21:55.8,-170.02,63.76,-188.81,63.12,42,30,52,1,OK
21:55.8,-179.27,63.76,-204.57,63.12,42,30,52,1,OK
21:55.8,-185.66,63.76,-218.13,63.12,42,30,52,1,OK
21:55.8,-191.65,63.76,-226.85,63.12,42,30,52,1,OK
21:55.8,-197.71,63.76,-230.59,63.12,42,30,52,1,OK
21:55.8,-200.74,63.76,-227.93,63.12,42,30,52,1,OK
21:55.9,-199.86,63.76,-225.02,63.12,42,30,52,1,OK
21:55.9,-199.08,63.76,-216.95,63.12,42,30,52,1,OK
21:55.9,-195.66,63.76,-208.02,63.12,42,30,52,1,OK
21:55.9,-190.04,63.76,-198.56,63.12,42,30,52,1,OK
21:55.9,-183.34,63.76,-188.43,63.12,42,30,52,1,OK
21:55.9,-177.44,63.76,-174.35,63.12,42,30,52,1,OK
21:55.9,-169.91,63.76,-160.32,63.12,42,30,52,1,OK
21:55.9,-162.91,63.76,-144.23,63.12,42,30,52,1,OK
21:55.9,-154,63.76,-126.28,63.12,42,30,52,1,OK
21:56.0,-146.1,63.76,-109.21,63.12,42,30,52,1,OK
21:56.0,-138.47,63.76,-93.58,63.12,42,30,52,1,OK
21:56.0,-129.72,63.76,-79.21,81.87,42,30,52,1,OK
21:56.0,-117.71,63.76,-68.14,81.87,42,30,52,1,OK
21:56.0,-103.42,63.76,-58.41,81.87,42,30,52,1,OK
21:56.0,-80.75,63.76,-48.03,81.87,42,30,52,1,OK
21:56.0,-47.21,63.76,-37.2,81.87,42,30,52,1,OK
21:56.0,-2.4,63.76,-24.85,81.87,42,30,52,1,OK
21:56.0,55.99,63.76,-3.57,81.87,42,30,52,1,OK
21:56.1,128.56,79.57,22.28,81.87,-77,10,112,1,OK
21:56.1,210.48,79.57,59.66,81.87,-77,10,112,1,OK
21:56.1,297.56,79.57,103.83,81.87,-77,10,112,1,OK
21:56.1,384.84,79.57,155.65,81.87,-77,10,112,1,OK
21:56.1,463.94,79.57,210.97,81.87,-77,10,112,1,OK
21:56.1,531.08,79.57,266.39,81.87,-77,10,112,1,OK
21:56.1,584.92,79.57,316.98,81.87,-77,10,112,1,OK
21:56.1,621.08,79.57,362.24,81.87,-77,10,112,1,OK
21:56.1,639.56,79.57,398.86,81.87,-77,10,112,1,OK
21:56.2,640.86,79.57,424.02,81.87,-77,10,112,1,OK
21:56.2,627.52,79.57,440.01,81.87,-77,10,112,1,OK
21:56.2,598.81,79.57,446.43,81.87,-77,10,112,1,OK
21:56.2,557.72,79.57,442.51,81.87,-77,10,112,1,OK
21:56.2,508.14,79.57,431.35,81.87,-77,10,112,1,OK
21:56.2,451.44,79.57,414.86,81.87,-77,10,112,1,OK
21:56.2,388.91,79.57,391.92,81.87,-77,10,112,1,OK
21:56.2,322.32,79.57,363.11,81.87,-77,10,112,1,OK
21:56.2,254.31,79.57,333.55,81.87,-77,10,112,1,OK
21:56.3,185.96,79.57,299.62,81.87,-77,10,112,1,OK
21:56.3,119.07,79.57,263.8,81.87,-77,10,112,1,OK
21:56.3,57.38,79.57,226.56,81.87,-77,10,112,1,OK
21:56.3,0.29,79.57,190.07,81.87,-77,10,112,1,OK
21:56.3,-47.98,79.57,151.85,81.87,-77,10,112,1,OK
21:56.3,-88,79.57,115.53,81.87,-77,10,112,1,OK
21:56.3,-117.88,79.57,82.5,81.87,-77,10,112,1,OK
21:56.3,-139.28,79.57,54.51,81.87,-77,10,112,1,OK
21:56.3,-151.99,79.57,31.84,81.87,-77,10,112,1,OK
21:56.4,-157.04,79.57,14.71,81.87,-77,10,112,1,OK
21:56.4,-157.39,79.57,2.57,81.87,-77,10,112,1,OK
21:56.4,-153.05,79.57,-4.91,81.87,-77,10,112,1,OK
21:56.4,-146.64,79.57,-12.54,81.87,-77,10,112,1,OK
21:56.4,-141.13,79.57,-17.72,81.87,-77,10,112,1,OK
21:56.4,-137.54,79.57,-22.62,81.87,-77,10,112,1,OK
21:56.4,-134.98,79.57,-26.14,81.87,-77,10,112,1,OK
21:56.4,-134.1,79.57,-34.57,81.87,-77,10,112,1,OK
21:56.4,-137.39,79.57,-41.03,81.87,-77,10,112,1,OK
21:56.4,-139.19,79.57,-53.81,81.87,-77,10,112,1,OK
21:56.5,-142.22,79.57,-65.52,81.87,-77,10,112,1,OK
21:56.5,-146.02,79.57,-81.69,81.87,-77,10,112,1,OK
21:56.5,-151.64,79.57,-96.84,81.87,-77,10,112,1,OK
21:56.5,-157.85,79.57,-113.37,81.87,-77,10,112,1,OK
21:56.5,-166.59,79.57,-127.6,81.87,-77,10,112,1,OK
21:56.5,-176.09,79.57,-144.94,81.87,-77,10,112,1,OK
21:56.5,-185.65,79.57,-157.84,81.87,-77,10,112,1,OK
21:56.5,-197.72,79.57,-170.68,81.87,-77,10,112,1,OK
21:56.5,-207.45,79.57,-181.27,81.87,-77,10,112,1,OK
21:56.6,-215.7,79.57,-189.03,81.87,-77,10,112,1,OK
21:56.6,-222.34,79.57,-193.2,81.87,-77,10,112,1,OK
21:56.6,-229.25,79.57,-197.63,81.87,-77,10,112,1,OK
21:56.6,-229.43,79.57,-199.12,81.87,-77,10,112,1,OK
21:56.6,-229.07,79.57,-197.33,81.87,-77,10,112,1,OK
21:56.6,-226.19,79.57,-197.88,81.87,-77,10,112,1,OK
21:56.6,-221.61,79.57,-197.45,81.87,-77,10,112,1,OK
21:56.6,-214.35,79.57,-195.86,81.87,-77,10,112,1,OK
21:56.6,-205.98,79.57,-195.73,81.87,-77,10,112,1,OK
21:56.7,-196.98,79.57,-199.01,81.87,-77,10,112,1,OK
21:56.7,-188.28,79.57,-197.7,81.87,-77,10,112,1,OK
21:56.7,-179.94,79.57,-196.21,81.87,-77,10,112,1,OK
21:56.7,-171.61,79.57,-193.5,81.87,-77,10,112,1,OK
21:56.7,-163.77,79.57,-189.27,81.87,-77,10,112,1,OK
21:56.7,-153.97,79.57,-185.64,81.87,-77,10,112,1,OK
21:56.7,-142.65,79.57,-181.97,81.87,-77,10,112,1,OK
21:56.7,-126.55,79.57,-177.35,81.87,-77,10,112,1,OK
21:56.7,-104.84,79.57,-172.82,81.87,-77,10,112,1,OK
21:56.8,-77.27,79.57,-167.68,81.87,-77,10,112,1,OK
21:56.8,-37.12,79.57,-158.12,81.87,-77,10,112,1,OK
21:56.8,16.59,79.57,-143.92,81.87,-77,10,112,1,OK
21:56.8,82.85,76.5,-125.03,81.87,-77,10,112,1,OK
21:56.8,163.22,76.5,-96.1,81.87,-77,10,112,1,OK
21:56.8,253.98,76.5,-58.38,81.87,-77,10,112,1,OK
21:56.8,348.98,76.5,-9.06,81.87,-77,10,112,1,OK
21:56.8,443.79,76.5,50.41,77.68,44,30,114,1,OK
21:56.8,529.41,76.5,115.17,77.68,44,30,114,1,OK
21:56.9,601.35,76.5,178.88,77.68,44,30,114,1,OK
21:56.9,656.06,76.5,243.56,77.68,44,30,114,1,OK
21:56.9,690.38,76.5,304.73,77.68,44,30,114,1,OK
21:56.9,707,76.5,355.89,77.68,44,30,114,1,OK
21:56.9,706.99,76.5,398.84,77.68,44,30,114,1,OK
21:56.9,691.23,76.5,434.61,77.68,44,30,114,1,OK
21:56.9,664.18,76.5,460.41,77.68,44,30,114,1,OK
21:56.9,624.53,76.5,475.03,77.68,44,30,114,1,OK
21:56.9,573.34,76.5,477.94,77.68,44,30,114,1,OK
21:56.9,517.53,76.5,471.19,77.68,44,30,114,1,OK
21:57.0,456.92,76.5,456.12,77.68,44,30,114,1,OK
21:57.0,392.74,76.5,432.92,77.68,44,30,114,1,OK
21:57.0,327.7,76.5,401.61,77.68,44,30,114,1,OK
21:57.0,264.7,76.5,365.87,77.68,44,30,114,1,OK
21:57.0,200.07,76.5,326.95,77.68,44,30,114,1,OK
21:57.0,138.3,76.5,280.85,77.68,44,30,114,1,OK
21:57.0,79.37,76.5,234.99,77.68,44,30,114,1,OK
21:57.0,26.64,76.5,187.69,77.68,44,30,114,1,OK
21:57.0,-20.87,76.5,143.45,77.68,44,30,114,1,OK
21:57.0,-60.16,76.5,102.37,77.68,44,30,114,1,OK
21:57.1,-92.63,76.5,65.78,77.68,44,30,114,1,OK
21:57.1,-117.94,76.5,31.46,77.68,44,30,114,1,OK
21:57.1,-137.9,76.5,4.71,77.68,44,30,114,1,OK
21:57.1,-152.46,76.5,-17.2,77.68,44,30,114,1,OK
21:57.1,-162.92,76.5,-36.61,77.68,44,30,114,1,OK
21:57.1,-170.35,76.5,-48.11,77.68,44,30,114,1,OK
21:57.1,-173.89,76.5,-55.67,77.68,44,30,114,1,OK
21:57.1,-174.94,76.5,-61.83,77.68,44,30,114,1,OK
21:57.1,-173.89,76.5,-67.55,77.68,44,30,114,1,OK
21:57.2,-172.72,76.5,-70.45,77.68,44,30,114,1,OK
21:57.2,-173.55,76.5,-75.65,77.68,44,30,114,1,OK
21:57.2,-176.09,76.5,-80.43,77.68,44,30,114,1,OK
21:57.2,-179.6,76.5,-87.76,77.68,44,30,114,1,OK
21:57.2,-185.75,76.5,-96.32,77.68,44,30,114,1,OK
21:57.2,-192.37,76.5,-105.39,77.68,44,30,114,1,OK
21:57.2,-198.38,76.5,-117.96,77.68,44,30,114,1,OK
21:57.2,-204.9,76.5,-131.41,77.68,44,30,114,1,OK
21:57.2,-214,76.5,-144.33,77.68,44,30,114,1,OK
21:57.3,-222.96,76.5,-158.62,77.68,44,30,114,1,OK
21:57.3,-232.65,76.5,-173.63,77.68,44,30,114,1,OK
21:57.3,-240.14,76.5,-185.64,77.68,44,30,114,1,OK
21:57.3,-248.87,76.5,-198.09,77.68,44,30,114,1,OK
21:57.3,-256.07,76.5,-209.8,77.68,44,30,114,1,OK
21:57.3,-261.92,76.5,-219.19,77.68,44,30,114,1,OK
21:57.3,-265.86,76.5,-227.53,77.68,44,30,114,1,OK
21:57.3,-271.75,76.5,-234.98,77.68,44,30,114,1,OK
21:57.3,-273.49,76.5,-240.53,77.68,44,30,114,1,OK
21:57.4,-273.12,76.5,-242.76,77.68,44,30,114,1,OK
21:57.4,-271.43,76.5,-244.54,77.68,44,30,114,1,OK
21:57.4,-270.21,76.5,-246.56,77.68,44,30,114,1,OK
21:57.4,-264.8,76.5,-246.3,77.68,44,30,114,1,OK
21:57.4,-259.89,76.5,-243.7,77.68,44,30,114,1,OK
21:57.4,-254.39,76.5,-239.99,77.68,44,30,114,1,OK
21:57.4,-244.7,76.5,-231.72,77.68,44,30,114,1,OK
21:57.4,-233.57,76.5,-221.48,77.68,44,30,114,1,OK
21:57.4,-222.23,76.5,-209.98,77.68,44,30,114,1,OK
21:57.5,-211.71,76.5,-198.16,77.68,44,30,114,1,OK
21:57.5,-198.54,76.5,-185.89,77.68,44,30,114,1,OK
21:57.5,-188.99,76.5,-175.81,77.68,44,30,114,1,OK
21:57.5,-179.37,76.5,-164.7,77.68,44,30,114,1,OK
21:57.5,-170.59,76.5,-154.07,77.68,44,30,114,1,OK
21:57.5,-159.32,76.5,-145.9,77.68,44,30,114,1,OK
21:57.5,-145.31,76.5,-140.31,77.68,44,30,114,1,OK
21:57.5,-127.01,76.5,-137.33,77.68,44,30,114,1,OK
21:57.5,-98.18,76.5,-134.19,77.68,44,30,114,1,OK
21:57.6,-56.54,76.5,-131.32,77.68,44,30,114,1,OK
21:57.6,0.72,76.5,-120.91,77.68,44,30,114,1,OK
21:57.6,72.71,76.44,-99.28,77.68,44,30,114,1,OK
21:57.6,158.69,76.44,-65.76,77.68,44,30,114,1,OK
21:57.6,254.4,76.44,-20.17,77.68,44,30,114,1,OK
21:57.6,356.76,76.44,36.62,77.68,44,30,114,1,OK
21:57.6,453.66,76.44,102.81,75.38,43,36,54,1,OK
21:57.6,542.2,76.44,170.34,75.38,43,36,54,1,OK
21:57.6,618.31,76.44,236.67,75.38,43,36,54,1,OK
21:57.6,678.02,76.44,303.07,75.38,43,36,54,1,OK
21:57.7,716.58,76.44,367.11,75.38,43,36,54,1,OK
21:57.7,736.88,76.44,418.65,75.38,43,36,54,1,OK
21:57.7,742.27,76.44,460.06,75.38,43,36,54,1,OK
21:57.7,730.52,76.44,491.77,75.38,43,36,54,1,OK
21:57.7,702.39,76.44,507.15,75.38,43,36,54,1,OK
21:57.7,661.63,76.44,510.31,75.38,43,36,54,1,OK
21:57.7,612.96,76.44,502.04,75.38,43,36,54,1,OK
21:57.7,552.93,76.44,485,75.38,43,36,54,1,OK
21:57.7,488.84,76.44,459.06,75.38,43,36,54,1,OK
21:57.8,420.77,76.44,427.86,75.38,43,36,54,1,OK
21:57.8,349.38,76.44,387.82,75.38,43,36,54,1,OK
21:57.8,278.38,76.44,345.85,75.38,43,36,54,1,OK
21:57.8,209.45,76.44,298.87,75.38,43,36,54,1,OK
21:57.8,142.16,76.44,252.81,75.38,43,36,54,1,OK
21:57.8,79.03,76.44,205.22,75.38,43,36,54,1,OK
21:57.8,24.08,76.44,159.89,75.38,43,36,54,1,OK
21:57.8,-23.43,76.44,118.88,75.38,43,36,54,1,OK
21:57.8,-69.1,76.44,81.51,75.38,43,36,54,1,OK
21:57.8,-107.45,76.44,46.64,75.38,43,36,54,1,OK
21:57.8,-137.13,76.44,15.36,75.38,43,36,54,1,OK
21:57.9,-161.73,76.44,-11.02,75.38,43,36,54,1,OK
21:57.9,-181.74,76.44,-35.39,75.38,43,36,54,1,OK
21:57.9,-191.83,76.44,-51.29,75.38,43,36,54,1,OK
21:57.9,-194.91,76.44,-64.76,75.38,43,36,54,1,OK
21:57.9,-196.26,76.44,-75.84,75.38,43,36,54,1,OK
21:57.9,-195.26,76.44,-84.61,75.38,43,36,54,1,OK
21:57.9,-192.47,76.44,-91.53,75.38,43,36,54,1,OK
21:57.9,-189.22,76.44,-100.36,75.38,43,36,54,1,OK
21:57.9,-188.36,76.44,-106.15,75.38,43,36,54,1,OK
21:58.0,-188.08,76.44,-107.47,75.38,43,36,54,1,OK
21:58.0,-189.16,76.44,-109.07,75.38,43,36,54,1,OK
21:58.0,-193.55,76.44,-108.7,75.38,43,36,54,1,OK
21:58.0,-200.98,76.44,-109.18,75.38,43,36,54,1,OK
21:58.0,-212.22,76.44,-111.99,75.38,43,36,54,1,OK
21:58.0,-223.74,76.44,-117.75,75.38,43,36,54,1,OK
21:58.0,-234.3,76.44,-125.76,75.38,43,36,54,1,OK
21:58.0,-245.04,76.44,-135.09,75.38,43,36,54,1,OK
21:58.0,-255.62,76.44,-145.85,75.38,43,36,54,1,OK
21:58.1,-263.16,76.44,-156.69,75.38,43,36,54,1,OK
21:58.1,-269.39,76.44,-169.71,75.38,43,36,54,1,OK
21:58.1,-277.23,76.44,-181.33,75.38,43,36,54,1,OK
21:58.1,-283.17,76.44,-196.26,75.38,43,36,54,1,OK
21:58.1,-286.04,76.44,-212.54,75.38,43,36,54,1,OK
21:58.1,-286.91,76.44,-228.39,75.38,43,36,54,1,OK
21:58.1,-287.78,76.44,-242.47,75.38,43,36,54,1,OK
21:58.1,-285.55,76.44,-258.24,75.38,43,36,54,1,OK
21:58.1,-283.18,76.44,-268.15,75.38,43,36,54,1,OK
21:58.2,-280.86,76.44,-274.91,75.38,43,36,54,1,OK
21:58.2,-278.53,76.44,-279.32,75.38,43,36,54,1,OK
21:58.2,-273.19,76.44,-282.62,75.38,43,36,54,1,OK
21:58.2,-269.82,76.44,-279.55,75.38,43,36,54,1,OK
21:58.2,-264.13,76.44,-277.93,75.38,43,36,54,1,OK
21:58.2,-257.37,76.44,-275.43,75.38,43,36,54,1,OK
21:58.2,-248.88,76.44,-271.25,75.38,43,36,54,1,OK
21:58.2,-243.19,76.44,-265.62,75.38,43,36,54,1,OK
21:58.2,-233.52,76.44,-258.55,75.38,43,36,54,1,OK
21:58.3,-225.66,76.44,-251.35,75.38,43,36,54,1,OK
21:58.3,-218.05,76.44,-242.62,75.38,43,36,54,1,OK
21:58.3,-210.2,76.44,-233.63,75.38,43,36,54,1,OK
21:58.3,-202.87,76.44,-221.14,75.38,43,36,54,1,OK
21:58.3,-195.98,76.44,-210.27,75.38,43,36,54,1,OK
21:58.3,-187,76.44,-196.81,75.38,43,36,54,1,OK
21:58.3,-176.33,76.44,-179.93,75.38,43,36,54,1,OK
21:58.3,-164.22,76.44,-165.8,75.38,43,36,54,1,OK
21:58.3,-144.36,76.44,-152.42,75.38,43,36,54,1,OK
21:58.4,-115.56,76.44,-139.78,75.38,43,36,54,1,OK
21:58.4,-74.77,76.44,-125.78,75.38,43,36,54,1,OK
21:58.4,-18,76.44,-109.49,75.38,43,36,54,1,OK
21:58.4,56.22,76.53,-81.9,75.38,43,36,54,1,OK
21:58.4,145.21,76.53,-46.33,77.93,11,30,53,1,OK
21:58.4,244.8,76.53,6.29,77.93,11,30,53,1,OK
21:58.4,347.03,76.53,67.42,77.93,11,30,53,1,OK
21:58.4,442.75,76.53,136.63,77.93,11,30,53,1,OK
21:58.4,530.16,76.53,209.35,77.93,11,30,53,1,OK
21:58.5,600.68,76.53,282.74,77.93,11,30,53,1,OK
21:58.5,653.37,76.53,348.78,77.93,11,30,53,1,OK
21:58.5,688.99,76.53,412.34,77.93,11,30,53,1,OK
21:58.5,707.99,76.53,466.34,77.93,11,30,53,1,OK
21:58.5,707.81,76.53,508.76,77.93,11,30,53,1,OK
21:58.5,693.24,76.53,538.07,77.93,11,30,53,1,OK
21:58.5,664.88,76.53,556.2,77.93,11,30,53,1,OK
21:58.5,624.03,76.53,559.34,77.93,11,30,53,1,OK
21:58.5,572.89,76.53,552.9,77.93,11,30,53,1,OK
21:58.5,512.43,76.53,538.51,77.93,11,30,53,1,OK
21:58.6,447.55,76.53,515.93,77.93,11,30,53,1,OK
21:58.6,377.32,76.53,483.82,77.93,11,30,53,1,OK
21:58.6,304.51,76.53,446.35,77.93,11,30,53,1,OK
21:58.6,233,76.53,402.23,77.93,11,30,53,1,OK
21:58.6,164.76,76.53,352.26,77.93,11,30,53,1,OK
21:58.6,100.49,76.53,300.15,77.93,11,30,53,1,OK
21:58.6,43.98,76.53,248.24,77.93,11,30,53,1,OK
21:58.6,-4.17,76.53,196.52,77.93,11,30,53,1,OK
21:58.6,-47.82,76.53,147.5,77.93,11,30,53,1,OK
21:58.6,-83.51,76.53,104.34,77.93,11,30,53,1,OK
21:58.7,-114.3,76.53,66.89,77.93,11,30,53,1,OK
21:58.7,-139.22,76.53,32.71,77.93,11,30,53,1,OK
21:58.7,-158.7,76.53,4.29,77.93,11,30,53,1,OK
21:58.7,-170.15,76.53,-21.31,77.93,11,30,53,1,OK
21:58.7,-176.45,76.53,-41.12,77.93,11,30,53,1,OK
21:58.7,-178.08,76.53,-57.01,77.93,11,30,53,1,OK
21:58.7,-175.72,76.53,-68.61,77.93,11,30,53,1,OK
21:58.7,-172.49,76.53,-77.34,77.93,11,30,53,1,OK
21:58.7,-167.12,76.53,-81.3,77.93,11,30,53,1,OK
21:58.8,-165.82,76.53,-87.76,77.93,11,30,53,1,OK
21:58.8,-161.94,76.53,-93.4,77.93,11,30,53,1,OK
21:58.8,-162.19,76.53,-100.49,77.93,11,30,53,1,OK
21:58.8,-162.98,76.53,-106.07,77.93,11,30,53,1,OK
21:58.8,-170.27,76.53,-115.79,77.93,11,30,53,1,OK
21:58.8,-174.47,76.53,-122.87,77.93,11,30,53,1,OK
21:58.8,-183.79,76.53,-131.19,77.93,11,30,53,1,OK
21:58.8,-195.04,76.53,-138.3,77.93,11,30,53,1,OK
21:58.8,-206.5,76.53,-149.9,77.93,11,30,53,1,OK
21:58.9,-216.92,76.53,-159.15,77.93,11,30,53,1,OK
21:58.9,-229.69,76.53,-172.72,77.93,11,30,53,1,OK
21:58.9,-242.45,76.53,-186.12,77.93,11,30,53,1,OK
21:58.9,-252.12,76.53,-199.19,77.93,11,30,53,1,OK
21:58.9,-263.94,76.53,-211.66,77.93,11,30,53,1,OK
21:58.9,-271.88,76.53,-223.79,77.93,11,30,53,1,OK
21:58.9,-280.19,76.53,-233.95,77.93,11,30,53,1,OK
21:58.9,-284.34,76.53,-245.22,77.93,11,30,53,1,OK
21:58.9,-289.53,76.53,-255.92,77.93,11,30,53,1,OK
21:59.0,-289.8,76.53,-262.97,77.93,11,30,53,1,OK
21:59.0,-289.67,76.53,-267.51,77.93,11,30,53,1,OK
21:59.0,-285.94,76.53,-271.17,77.93,11,30,53,1,OK
21:59.0,-282.84,76.53,-271.34,77.93,11,30,53,1,OK
21:59.0,-276.16,76.53,-269.26,77.93,11,30,53,1,OK
21:59.0,-270.47,76.53,-268.81,77.93,11,30,53,1,OK
21:59.0,-262.82,76.53,-268.82,77.93,11,30,53,1,OK
21:59.0,-254.5,76.53,-269.35,77.93,11,30,53,1,OK
21:59.0,-245.25,76.53,-268.93,77.93,11,30,53,1,OK
21:59.0,-236.59,76.53,-269.08,77.93,11,30,53,1,OK
21:59.1,-226.85,76.53,-263.93,77.93,11,30,53,1,OK
21:59.1,-218.37,76.53,-257.46,77.93,11,30,53,1,OK
21:59.1,-209.37,76.53,-248.67,77.93,11,30,53,1,OK
21:59.1,-199.19,76.53,-239.26,77.93,11,30,53,1,OK
21:59.1,-184.2,76.53,-228.75,77.93,11,30,53,1,OK
21:59.1,-164.84,76.53,-219.72,77.93,11,30,53,1,OK
21:59.1,-132.7,76.53,-210.64,77.93,11,30,53,1,OK
21:59.1,-88.02,76.53,-197.13,77.93,11,30,53,1,OK
21:59.1,-26.47,76.53,-176.72,77.93,11,30,53,1,OK
21:59.2,49.29,77.71,-146.44,77.93,11,30,53,1,OK
21:59.2,140.79,77.71,-104.1,77.93,11,30,53,1,OK
21:59.2,240.66,77.71,-44.86,77.93,11,30,53,1,OK
21:59.2,343.94,77.71,28.54,78.54,33,31.5,53,1,OK
21:59.2,441.12,77.71,109.6,78.54,33,31.5,53,1,OK
21:59.2,528.71,77.71,193.78,78.54,33,31.5,53,1,OK
21:59.2,599.38,77.71,276.93,78.54,33,31.5,53,1,OK
21:59.2,650.92,77.71,357.63,78.54,33,31.5,53,1,OK
21:59.2,682.34,77.71,423.11,78.54,33,31.5,53,1,OK
21:59.3,694.48,77.71,476.35,78.54,33,31.5,53,1,OK
21:59.3,687.54,77.71,515.75,78.54,33,31.5,53,1,OK
21:59.3,666.59,77.71,542.6,78.54,33,31.5,53,1,OK
21:59.3,630.09,77.71,548.84,78.54,33,31.5,53,1,OK
21:59.3,579.75,77.71,544.79,78.54,33,31.5,53,1,OK
21:59.3,521.07,77.71,528.99,78.54,33,31.5,53,1,OK
21:59.3,453.6,77.71,501.63,78.54,33,31.5,53,1,OK
21:59.3,379.8,77.71,465.26,78.54,33,31.5,53,1,OK
21:59.3,303.44,77.71,424.68,78.54,33,31.5,53,1,OK
21:59.3,228.37,77.71,374.81,78.54,33,31.5,53,1,OK
21:59.4,154.56,77.71,321.27,78.54,33,31.5,53,1,OK
21:59.4,85.95,77.71,268.66,78.54,33,31.5,53,1,OK
21:59.4,21.89,77.71,212.97,78.54,33,31.5,53,1,OK
21:59.4,-35.09,77.71,157.57,78.54,33,31.5,53,1,OK
21:59.4,-83.92,77.71,107.72,78.54,33,31.5,53,1,OK
21:59.4,-123.84,77.71,62.84,78.54,33,31.5,53,1,OK
21:59.4,-155.46,77.71,21.25,78.54,33,31.5,53,1,OK
21:59.4,-177.29,77.71,-14.25,78.54,33,31.5,53,1,OK
21:59.4,-191.71,77.71,-43.9,78.54,33,31.5,53,1,OK
21:59.4,-198.64,77.71,-68.2,78.54,33,31.5,53,1,OK
21:59.5,-200.52,77.71,-86,78.54,33,31.5,53,1,OK
21:59.5,-196.32,77.71,-97.28,78.54,33,31.5,53,1,OK
21:59.5,-189.45,77.71,-106.2,78.54,33,31.5,53,1,OK
21:59.5,-180.06,77.71,-112.24,78.54,33,31.5,53,1,OK
21:59.5,-171.13,77.71,-116.55,78.54,33,31.5,53,1,OK
21:59.5,-162.42,77.71,-120.72,78.54,33,31.5,53,1,OK
21:59.5,-154.16,77.71,-127.82,78.54,33,31.5,53,1,OK
21:59.5,-148.97,77.71,-133.45,78.54,33,31.5,53,1,OK
21:59.5,-148.45,77.71,-139.49,78.54,33,31.5,53,1,OK
21:59.6,-151.31,77.71,-145.55,78.54,33,31.5,53,1,OK
21:59.6,-156.76,77.71,-153.31,78.54,33,31.5,53,1,OK
21:59.6,-167.32,77.71,-160.37,78.54,33,31.5,53,1,OK
21:59.6,-179.95,77.71,-167.36,78.54,33,31.5,53,1,OK
21:59.6,-191.86,77.71,-175.54,78.54,33,31.5,53,1,OK
21:59.6,-204.36,77.71,-184.37,78.54,33,31.5,53,1,OK
21:59.6,-218.08,77.71,-191.11,78.54,33,31.5,53,1,OK
21:59.6,-231.54,77.71,-199.54,78.54,33,31.5,53,1,OK
21:59.6,-245.12,77.71,-208.18,78.54,33,31.5,53,1,OK
21:59.7,-259.06,77.71,-218.3,78.54,33,31.5,53,1,OK
21:59.7,-271.63,77.71,-229.58,78.54,33,31.5,53,1,OK
21:59.7,-282.21,77.71,-240.68,78.54,33,31.5,53,1,OK
21:59.7,-290.49,77.71,-251.43,78.54,33,31.5,53,1,OK
21:59.7,-297.83,77.71,-262.42,78.54,33,31.5,53,1,OK
21:59.7,-302.07,77.71,-269.77,78.54,33,31.5,53,1,OK
21:59.7,-302.99,77.71,-273.64,78.54,33,31.5,53,1,OK
21:59.7,-302.83,77.71,-276.34,78.54,33,31.5,53,1,OK
21:59.7,-299.91,77.71,-275.65,78.54,33,31.5,53,1,OK
21:59.8,-291.43,77.71,-271.52,78.54,33,31.5,53,1,OK
21:59.8,-283.38,77.71,-266.85,78.54,33,31.5,53,1,OK
21:59.8,-273.04,77.71,-260.18,78.54,33,31.5,53,1,OK
21:59.8,-261.22,77.71,-251.92,78.54,33,31.5,53,1,OK
21:59.8,-248.08,77.71,-239.12,78.54,33,31.5,53,1,OK
21:59.8,-235.54,77.71,-223.19,78.54,33,31.5,53,1,OK
21:59.8,-220.54,77.71,-204.4,78.54,33,31.5,53,1,OK
21:59.8,-204.24,77.71,-185.28,78.54,33,31.5,53,1,OK
21:59.8,-181.71,77.71,-166.58,78.54,33,31.5,53,1,OK
21:59.9,-153.73,77.71,-150.72,78.54,33,31.5,53,1,OK
21:59.9,-113.68,77.71,-133.66,77.59,33,31.5,53,1,OK
21:59.9,-58.94,78.61,-110.5,77.59,-11,30,54,1,OK
21:59.9,11.11,78.61,-79.07,77.59,-11,30,54,1,OK
21:59.9,96.28,78.61,-35.95,77.59,-11,30,54,1,OK
21:59.9,196.54,78.61,23.97,77.59,-11,30,54,1,OK
21:59.9,303.76,78.61,93.49,77.59,-11,30,54,1,OK
21:59.9,413.71,78.61,174.29,77.59,-11,30,54,1,OK
21:59.9,517.62,78.61,263.37,77.59,-11,30,54,1,OK
22:00.0,608.95,78.61,354.89,77.59,-11,30,54,1,OK
22:00.0,682.92,78.61,443.22,77.59,-11,30,54,1,OK
22:00.0,734.61,78.61,525.87,77.59,-11,30,54,1,OK
22:00.0,763.29,78.61,594.64,77.59,-11,30,54,1,OK
22:00.0,767.89,78.61,648.68,77.59,-11,30,54,1,OK
22:00.0,750.08,78.61,684.92,77.59,-11,30,54,1,OK
22:00.0,713.41,78.61,699.88,77.59,-11,30,54,1,OK
22:00.0,664.44,78.61,698.99,77.59,-11,30,54,1,OK
22:00.0,601.23,78.61,680.04,77.59,-11,30,54,1,OK
22:00.1,531.05,78.61,648.46,77.59,-11,30,54,1,OK
22:00.1,455.4,78.61,604.08,77.59,-11,30,54,1,OK
22:00.1,376.29,78.61,553.11,77.59,-11,30,54,1,OK
22:00.1,294.32,78.61,492.55,77.59,-11,30,54,1,OK
22:00.1,214.28,78.61,429.16,77.59,-11,30,54,1,OK
22:00.1,138,78.61,363.64,77.59,-11,30,54,1,OK
22:00.1,66.74,78.61,298.61,77.59,-11,30,54,1,OK
22:00.1,0.66,78.61,231.59,77.59,-11,30,54,1,OK
22:00.1,-57.17,78.61,170.04,77.59,-11,30,54,1,OK
22:00.2,-104.18,78.61,112.46,77.59,-11,30,54,1,OK
22:00.2,-141.77,78.61,59.44,77.59,-11,30,54,1,OK
22:00.2,-169.52,78.61,12.26,77.59,-11,30,54,1,OK
22:00.2,-187.7,78.61,-25.46,77.59,-11,30,54,1,OK
22:00.2,-199.56,78.61,-55.92,77.59,-11,30,54,1,OK
22:00.2,-205.46,78.61,-78.98,77.59,-11,30,54,1,OK
22:00.2,-206.28,78.61,-96.69,77.59,-11,30,54,1,OK
22:00.2,-203.83,78.61,-110.64,77.59,-11,30,54,1,OK
22:00.2,-199.56,78.61,-118.23,77.59,-11,30,54,1,OK
22:00.3,-193.26,78.61,-124.6,77.59,-11,30,54,1,OK
22:00.3,-188.89,78.61,-131.97,77.59,-11,30,54,1,OK
22:00.3,-188,78.61,-135.97,77.59,-11,30,54,1,OK
22:00.3,-189.37,78.61,-141.45,77.59,-11,30,54,1,OK
22:00.3,-195.58,78.61,-148.75,77.59,-11,30,54,1,OK
22:00.3,-204.73,78.61,-157.05,77.59,-11,30,54,1,OK
22:00.3,-216.35,78.61,-165.28,77.59,-11,30,54,1,OK
22:00.3,-229.19,78.61,-177.94,77.59,-11,30,54,1,OK
22:00.3,-243,78.61,-190.66,77.59,-11,30,54,1,OK
22:00.3,-255.31,78.61,-205.75,77.59,-11,30,54,1,OK
22:00.4,-268.22,78.61,-223.74,77.59,-11,30,54,1,OK
22:00.4,-282.66,78.61,-240.49,77.59,-11,30,54,1,OK
22:00.4,-295.39,78.61,-256.83,77.59,-11,30,54,1,OK
22:00.4,-307.85,78.61,-273.13,77.59,-11,30,54,1,OK
22:00.4,-319.29,78.61,-290.89,77.59,-11,30,54,1,OK
22:00.4,-328.54,78.61,-303.84,77.59,-11,30,54,1,OK
22:00.4,-334.08,78.61,-318.73,77.59,-11,30,54,1,OK
22:00.4,-338.45,78.61,-331.59,77.59,-11,30,54,1,OK
22:00.4,-340.11,78.61,-340.41,77.59,-11,30,54,1,OK
22:00.5,-337.25,78.61,-343.49,77.59,-11,30,54,1,OK
22:00.5,-332.49,78.61,-344.01,77.59,-11,30,54,1,OK
22:00.5,-322.6,78.61,-341.66,77.59,-11,30,54,1,OK
22:00.5,-311.25,78.61,-336.29,77.59,-11,30,54,1,OK
22:00.5,-297.31,78.61,-329.5,77.59,-11,30,54,1,OK
22:00.5,-285.17,78.61,-321.88,77.59,-11,30,54,1,OK
22:00.5,-269.98,78.61,-314.7,77.59,-11,30,54,1,OK
22:00.5,-258.34,78.61,-304.55,77.59,-11,30,54,1,OK
22:00.5,-245.25,78.61,-293.75,77.59,-11,30,54,1,OK
22:00.6,-232.23,78.61,-281.45,77.59,-11,30,54,1,OK
22:00.6,-220.41,78.61,-268.48,77.59,-11,30,54,1,OK
22:00.6,-207.93,78.61,-255.11,77.59,-11,30,54,1,OK
22:00.6,-193.85,78.61,-241.21,77.59,-11,30,54,1,OK
22:00.6,-177.32,78.61,-228.41,77.59,-11,30,54,1,OK
22:00.6,-157.62,78.61,-217.14,77.59,-11,30,54,1,OK
22:00.6,-126.26,78.61,-204.67,77.59,-11,30,54,1,OK
22:00.6,-84.46,78.14,-187.91,77.59,-11,30,54,1,OK
22:00.6,-25.35,78.14,-163.71,77.59,-11,30,54,1,OK
22:00.7,52.48,78.14,-127.01,77.59,-11,30,54,1,OK
22:00.7,150.01,78.14,-71.98,78.55,33,31.5,53,1,OK
22:00.7,259.47,78.14,-1.59,78.55,33,31.5,53,1,OK
22:00.7,373.31,78.14,85.14,78.55,33,31.5,53,1,OK
22:00.7,484.13,78.14,182.09,78.55,33,31.5,53,1,OK
22:00.7,582.83,78.14,282.09,78.55,33,31.5,53,1,OK
22:00.7,664.46,78.14,379.57,78.55,33,31.5,53,1,OK
22:00.7,725.47,78.14,471.68,78.55,33,31.5,53,1,OK
22:00.7,768.67,78.14,551.28,78.55,33,31.5,53,1,OK
22:00.8,789.79,78.14,616.34,78.55,33,31.5,53,1,OK
22:00.8,790.58,78.14,666.57,78.55,33,31.5,53,1,OK
22:00.8,772.68,78.14,698.92,78.55,33,31.5,53,1,OK
22:00.8,738.58,78.14,712.78,78.55,33,31.5,53,1,OK
22:00.8,686.98,78.14,708.75,78.55,33,31.5,53,1,OK
22:00.8,625.49,78.14,687.45,78.55,33,31.5,53,1,OK
22:00.8,555.34,78.14,651.14,78.55,33,31.5,53,1,OK
22:00.8,480.06,78.14,604.07,78.55,33,31.5,53,1,OK
22:00.8,403.11,78.14,549.31,78.55,33,31.5,53,1,OK
22:00.8,326.84,78.14,489.77,78.55,33,31.5,53,1,OK
22:00.9,251.82,78.14,429,78.55,33,31.5,53,1,OK
22:00.9,180.87,78.14,365.94,78.55,33,31.5,53,1,OK
22:00.9,114.75,78.14,301.49,78.55,33,31.5,53,1,OK
22:00.9,53.14,78.14,237.79,78.55,33,31.5,53,1,OK
22:00.9,-0.57,78.14,175.13,78.55,33,31.5,53,1,OK
22:00.9,-48.63,78.14,115.48,78.55,33,31.5,53,1,OK
22:00.9,-90.59,78.14,57.76,78.55,33,31.5,53,1,OK
22:00.9,-125.55,78.14,6.79,78.55,33,31.5,53,1,OK
22:00.9,-154.03,78.14,-39.44,78.55,33,31.5,53,1,OK
22:00.9,-176.08,78.14,-78.64,78.55,33,31.5,53,1,OK
22:01.0,-192.98,78.14,-112.58,78.55,33,31.5,53,1,OK
22:01.0,-200.82,78.14,-135.59,78.55,33,31.5,53,1,OK
22:01.0,-206.54,78.14,-157.14,78.55,33,31.5,53,1,OK
22:01.0,-208.32,78.14,-172.45,78.55,33,31.5,53,1,OK
22:01.0,-208.57,78.14,-186.72,78.55,33,31.5,53,1,OK
22:01.0,-206.61,78.14,-196.57,78.55,33,31.5,53,1,OK
22:01.0,-209.01,78.14,-206.54,78.55,33,31.5,53,1,OK
22:01.0,-212.56,78.14,-212.04,78.55,33,31.5,53,1,OK
22:01.0,-219.03,78.14,-215.83,78.55,33,31.5,53,1,OK
22:01.1,-227.55,78.14,-220.05,78.55,33,31.5,53,1,OK
22:01.1,-237.32,78.14,-225.83,78.55,33,31.5,53,1,OK
22:01.1,-249.02,78.14,-231.87,78.55,33,31.5,53,1,OK
22:01.1,-261.42,78.14,-239.43,78.55,33,31.5,53,1,OK
22:01.1,-273.42,78.14,-249.85,78.55,33,31.5,53,1,OK
22:01.1,-286.88,78.14,-258.56,78.55,33,31.5,53,1,OK
22:01.1,-300.46,78.14,-269.92,78.55,33,31.5,53,1,OK
22:01.1,-312.1,78.14,-281.51,78.55,33,31.5,53,1,OK
22:01.1,-322.44,78.14,-294.42,78.55,33,31.5,53,1,OK
22:01.2,-330.75,78.14,-306.75,78.55,33,31.5,53,1,OK
22:01.2,-337.26,78.14,-322.27,78.55,33,31.5,53,1,OK
22:01.2,-344.11,78.14,-332.46,78.55,33,31.5,53,1,OK
22:01.2,-348.14,78.14,-343.17,78.55,33,31.5,53,1,OK
22:01.2,-348.74,78.14,-350.51,78.55,33,31.5,53,1,OK
22:01.2,-350.53,78.14,-355.84,78.55,33,31.5,53,1,OK
22:01.2,-349.8,78.14,-357.83,78.55,33,31.5,53,1,OK
22:01.2,-343.16,78.14,-361.29,78.55,33,31.5,53,1,OK
22:01.2,-333.61,78.14,-361.67,78.55,33,31.5,53,1,OK
22:01.3,-323.09,78.14,-360.48,78.55,33,31.5,53,1,OK
22:01.3,-308.79,78.14,-358.7,78.55,33,31.5,53,1,OK
22:01.3,-292.2,78.14,-352.8,78.55,33,31.5,53,1,OK
22:01.3,-275.85,78.14,-343.68,78.55,33,31.5,53,1,OK
22:01.3,-260.67,78.14,-333.09,78.55,33,31.5,53,1,OK
22:01.3,-246.16,78.14,-322.95,78.55,33,31.5,53,1,OK
22:01.3,-231.79,78.14,-310.03,78.55,33,31.5,53,1,OK
22:01.3,-219.25,78.14,-297.69,78.55,33,31.5,53,1,OK
22:01.3,-208.94,79.81,-286.3,78.55,33,31.5,53,1,OK
22:01.4,-196.76,79.81,-273.62,78.55,33,31.5,53,1,OK
22:01.4,-184.74,79.81,-258.73,78.55,33,31.5,53,1,OK
22:01.4,-174.58,79.81,-245.04,78.55,33,31.5,53,1,OK
22:01.4,-165.62,79.81,-231.05,78.55,33,31.5,53,1,OK
22:01.4,-153.54,79.81,-217.38,78.55,33,31.5,53,1,OK
22:01.4,-139.61,79.81,-202.07,78.55,33,31.5,53,1,OK
22:01.4,-117.4,79.81,-185.72,78.55,33,31.5,53,1,OK
22:01.4,-78.4,79.81,-163.46,78.97,88,33,53,1,OK
22:01.4,-18.76,79.81,-131.93,78.97,88,33,53,1,OK
22:01.5,57.89,79.81,-84.22,78.97,88,33,53,1,OK
22:01.5,157.24,79.81,-21.37,78.97,88,33,53,1,OK
22:01.5,270.86,79.81,59.69,78.97,88,33,53,1,OK
22:01.5,388,79.81,156.64,78.97,88,33,53,1,OK
22:01.5,499.7,79.81,262.09,78.97,88,33,53,1,OK
22:01.5,603.6,79.81,372.95,78.97,88,33,53,1,OK
22:01.5,684.88,79.81,481.43,78.97,88,33,53,1,OK
22:01.5,745.49,79.81,584.59,78.97,88,33,53,1,OK
22:01.5,782.98,79.81,671.64,78.97,88,33,53,1,OK
22:01.5,797.27,79.81,743.78,78.97,88,33,53,1,OK
22:01.6,788.31,79.81,797.98,78.97,88,33,53,1,OK
22:01.6,760.3,79.81,832.27,78.97,88,33,53,1,OK
22:01.6,714.14,79.81,841.84,78.97,88,33,53,1,OK
22:01.6,653.68,79.81,832.27,78.97,88,33,53,1,OK
22:01.6,584.54,79.81,810.32,78.97,88,33,53,1,OK
22:01.6,508.32,79.81,767.77,78.97,88,33,53,1,OK
22:01.6,428.22,79.81,712.93,78.97,88,33,53,1,OK
22:01.6,346.31,79.81,646.1,78.97,88,33,53,1,OK
22:01.6,267.16,79.81,576.03,78.97,88,33,53,1,OK
22:01.6,191.04,79.81,496.62,78.97,88,33,53,1,OK
22:01.7,118.32,79.81,415.45,78.97,88,33,53,1,OK
22:01.7,52.04,79.81,333.88,78.97,88,33,53,1,OK
22:01.7,-6.54,79.81,258.22,78.97,88,33,53,1,OK
22:01.7,-58.97,79.81,182.11,78.97,88,33,53,1,OK
22:01.7,-105.24,79.81,110.64,78.97,88,33,53,1,OK
22:01.7,-141.65,79.81,47.04,78.97,88,33,53,1,OK
22:01.7,-171.93,79.81,-7.3,78.97,88,33,53,1,OK
22:01.7,-192.19,79.81,-55.56,78.97,88,33,53,1,OK
22:01.7,-202.94,79.81,-89.73,78.97,88,33,53,1,OK
22:01.8,-206.48,79.81,-114.93,78.97,88,33,53,1,OK
22:01.8,-205.48,79.81,-131.48,78.97,88,33,53,1,OK
22:01.8,-199.14,79.81,-139.67,78.97,88,33,53,1,OK
22:01.8,-192.83,79.81,-141.45,78.97,88,33,53,1,OK
22:01.8,-188.87,79.81,-144.38,78.97,88,33,53,1,OK
22:01.8,-184.48,79.81,-142.63,78.97,88,33,53,1,OK
22:01.8,-181.55,79.81,-142.17,78.97,88,33,53,1,OK
22:01.8,-182.51,79.81,-145.86,78.97,88,33,53,1,OK
22:01.8,-186.37,79.81,-151.32,78.97,88,33,53,1,OK
22:01.9,-193.15,79.81,-155.52,78.97,88,33,53,1,OK
22:01.9,-202.72,79.81,-167.35,78.97,88,33,53,1,OK
22:01.9,-216.7,79.81,-177.27,78.97,88,33,53,1,OK
22:01.9,-229.32,79.81,-190.85,78.97,88,33,53,1,OK
22:01.9,-248.2,79.81,-204.95,78.97,88,33,53,1,OK
22:01.9,-264.71,79.81,-222.67,78.97,88,33,53,1,OK
22:01.9,-284.54,79.81,-238.58,78.97,88,33,53,1,OK
22:01.9,-302.45,79.81,-258.99,78.97,88,33,53,1,OK
22:01.9,-323.49,79.81,-275.95,78.97,88,33,53,1,OK
22:02.0,-336.44,79.81,-295,78.97,88,33,53,1,OK
22:02.0,-349.62,79.81,-311.84,78.97,88,33,53,1,OK
22:02.0,-355.78,79.81,-327.35,78.97,88,33,53,1,OK
22:02.0,-358.19,79.81,-338.16,78.97,88,33,53,1,OK
22:02.0,-354.74,79.81,-349.97,78.97,88,33,53,1,OK
22:02.0,-349.55,79.81,-357.01,78.97,88,33,53,1,OK
22:02.0,-339.41,79.81,-362.7,78.97,88,33,53,1,OK
22:02.0,-328.54,79.81,-364.09,78.97,88,33,53,1,OK
22:02.0,-315.9,79.81,-366.05,78.97,88,33,53,1,OK
22:02.0,-300.44,79.81,-362.7,78.97,88,33,53,1,OK
22:02.1,-283.98,79.81,-357.08,78.97,88,33,53,1,OK
22:02.1,-268.08,79.81,-348.51,78.97,88,33,53,1,OK
22:02.1,-251.76,79.81,-341.54,78.97,88,33,53,1,OK
22:02.1,-233.81,79.81,-329.38,78.97,88,33,53,1,OK
22:02.1,-217.94,79.81,-315.75,78.97,88,33,53,1,OK
22:02.1,-203.13,80.63,-301.77,78.97,88,33,53,1,OK
22:02.1,-188.94,80.63,-287.52,78.97,88,33,53,1,OK
22:02.1,-175.81,80.63,-272.43,78.97,88,33,53,1,OK
22:02.1,-163.91,80.63,-260.85,78.97,88,33,53,1,OK
22:02.2,-152.71,80.63,-254.24,78.97,88,33,53,1,OK
22:02.2,-139.25,80.63,-249.5,78.97,88,33,53,1,OK
22:02.2,-121.33,80.63,-248.81,78.97,88,33,53,1,OK
22:02.2,-94.23,80.63,-247.25,78.97,88,33,53,1,OK
22:02.2,-52.88,80.63,-240.36,78.97,88,33,53,1,OK
22:02.2,7.04,80.63,-222.69,78.97,88,33,53,1,OK
22:02.2,86.92,80.63,-188.24,78.97,88,33,53,1,OK
22:02.2,186.49,80.63,-130.56,78.97,88,33,53,1,OK
22:02.2,297.25,80.63,-50.09,78.97,88,33,53,1,OK
22:02.3,413.23,80.63,50.93,78.97,88,33,53,1,OK
22:02.3,522.91,80.63,165.11,77.99,153,33,54,1,OK
22:02.3,616.22,80.63,286.2,77.99,153,33,54,1,OK
22:02.3,686.97,80.63,404.09,77.99,153,33,54,1,OK
22:02.3,732.61,80.63,513.33,77.99,153,33,54,1,OK
22:02.3,749.9,80.63,602.25,77.99,153,33,54,1,OK
22:02.3,742.67,80.63,674.84,77.99,153,33,54,1,OK
22:02.3,714.68,80.63,723.85,77.99,153,33,54,1,OK
22:02.3,666.15,80.63,749.1,77.99,153,33,54,1,OK
22:02.4,603.98,80.63,751.64,77.99,153,33,54,1,OK
22:02.4,528.67,80.63,733.26,77.99,153,33,54,1,OK
22:02.4,446.28,80.63,695.42,77.99,153,33,54,1,OK
22:02.4,358.74,80.63,643.5,77.99,153,33,54,1,OK
22:02.4,271.46,80.63,580.24,77.99,153,33,54,1,OK
22:02.4,183.39,80.63,506.61,77.99,153,33,54,1,OK
22:02.4,98.8,80.63,428.54,77.99,153,33,54,1,OK
22:02.4,19.01,80.63,349.15,77.99,153,33,54,1,OK
22:02.4,-52.26,80.63,267.22,77.99,153,33,54,1,OK
22:02.4,-114.04,80.63,186.98,77.99,153,33,54,1,OK
22:02.5,-166.11,80.63,111.04,77.99,153,33,54,1,OK
22:02.5,-205.83,80.63,42.48,77.99,153,33,54,1,OK
22:02.5,-234.48,80.63,-20.41,77.99,153,33,54,1,OK
22:02.5,-253.24,80.63,-73.21,77.99,153,33,54,1,OK
22:02.5,-265.32,80.63,-115.99,77.99,153,33,54,1,OK
22:02.5,-266.2,80.63,-146.8,77.99,153,33,54,1,OK
22:02.5,-261.38,80.63,-167.66,77.99,153,33,54,1,OK
22:02.5,-253.35,80.63,-179.41,77.99,153,33,54,1,OK
22:02.5,-243.44,80.63,-184.05,77.99,153,33,54,1,OK
22:02.6,-228.63,80.63,-181.88,77.99,153,33,54,1,OK
22:02.6,-219.67,80.63,-177.42,77.99,153,33,54,1,OK
22:02.6,-212.36,80.63,-168.88,77.99,153,33,54,1,OK
22:02.6,-206.83,80.63,-160.65,77.99,153,33,54,1,OK
22:02.6,-203.91,80.63,-151.19,77.99,153,33,54,1,OK
22:02.6,-209.28,80.63,-143.89,77.99,153,33,54,1,OK
22:02.6,-215.3,80.63,-139.88,77.99,153,33,54,1,OK
22:02.6,-224.43,80.63,-140.74,77.99,153,33,54,1,OK
22:02.6,-237.28,80.63,-145.95,77.99,153,33,54,1,OK
22:02.7,-252.96,80.63,-154.94,77.99,153,33,54,1,OK
22:02.7,-268.91,80.63,-168.17,77.99,153,33,54,1,OK
22:02.7,-283.29,80.63,-183.92,77.99,153,33,54,1,OK
22:02.7,-298.8,80.63,-203.12,77.99,153,33,54,1,OK
22:02.7,-310.26,80.63,-223.36,77.99,153,33,54,1,OK
22:02.7,-318.1,80.63,-245.77,77.99,153,33,54,1,OK
22:02.7,-324.56,80.63,-269.52,77.99,153,33,54,1,OK
22:02.7,-329.01,80.63,-291.04,77.99,153,33,54,1,OK
22:02.7,-328.2,80.63,-311.74,77.99,153,33,54,1,OK
22:02.8,-325.96,80.63,-329.92,77.99,153,33,54,1,OK
22:02.8,-322.72,80.63,-345.15,77.99,153,33,54,1,OK
22:02.8,-315.26,80.63,-356.03,77.99,153,33,54,1,OK
22:02.8,-307.12,80.63,-363.69,77.99,153,33,54,1,OK
22:02.8,-298.21,80.63,-364.13,77.99,153,33,54,1,OK
22:02.8,-287.68,80.63,-360.2,77.99,153,33,54,1,OK
22:02.8,-275.52,80.63,-351.85,77.99,153,33,54,1,OK
22:02.8,-262.79,80.63,-340.14,77.99,153,33,54,1,OK
22:02.8,-247.09,80.63,-325.37,77.99,153,33,54,1,OK
22:02.9,-232.17,80.63,-309.63,77.99,153,33,54,1,OK
22:02.9,-215.94,80.63,-294.9,77.99,153,33,54,1,OK
22:02.9,-197.73,80.63,-280.19,77.99,153,33,54,1,OK
22:02.9,-175.09,80.63,-264.03,77.99,153,33,54,1,OK
22:02.9,-144.29,80.35,-245.53,77.99,153,33,54,1,OK
22:02.9,-96.83,80.35,-221.45,77.99,153,33,54,1,OK
22:02.9,-31.27,80.35,-184.25,81.2,22,33,54,1,OK
22:02.9,53.69,80.35,-132.01,81.2,22,33,54,1,OK
22:02.9,157.98,80.35,-63.12,81.2,22,33,54,1,OK
22:03.0,274.27,80.35,28.05,81.2,22,33,54,1,OK
22:03.0,392.3,80.35,134.73,81.2,22,33,54,1,OK
22:03.0,505.16,80.35,253.93,81.2,22,33,54,1,OK
22:03.0,603.41,80.35,380.31,81.2,22,33,54,1,OK
22:03.0,678.64,80.35,508.45,81.2,22,33,54,1,OK
22:03.0,728.07,80.35,622.87,81.2,22,33,54,1,OK
22:03.0,749.88,80.35,720.68,81.2,22,33,54,1,OK
22:03.0,742.26,80.35,796.57,81.2,22,33,54,1,OK
22:03.0,709.08,80.35,842.13,81.2,22,33,54,1,OK
22:03.1,654.24,80.35,857.76,81.2,22,33,54,1,OK
22:03.1,583.34,80.35,845.81,81.2,22,33,54,1,OK
22:03.1,503.28,80.35,812.86,81.2,22,33,54,1,OK
22:03.1,417.53,80.35,759.8,81.2,22,33,54,1,OK
22:03.1,329.65,80.35,691.76,81.2,22,33,54,1,OK
22:03.1,245.08,80.35,612.22,81.2,22,33,54,1,OK
22:03.1,162.94,80.35,525.91,81.2,22,33,54,1,OK
22:03.1,81.95,80.35,434.31,81.2,22,33,54,1,OK
22:03.1,7.72,80.35,340.04,81.2,22,33,54,1,OK
22:03.2,-59.76,80.35,246.74,81.2,22,33,54,1,OK
22:03.2,-120.19,80.35,156.92,81.2,22,33,54,1,OK
22:03.2,-171.64,80.35,72.99,81.2,22,33,54,1,OK
22:03.2,-211.21,80.35,-3.35,81.2,22,33,54,1,OK
22:03.2,-240.84,80.35,-71.48,81.2,22,33,54,1,OK
22:03.2,-258.87,80.35,-124.91,81.2,22,33,54,1,OK
22:03.2,-266.5,80.35,-166.25,81.2,22,33,54,1,OK
22:03.2,-265.87,80.35,-194.38,81.2,22,33,54,1,OK
22:03.2,-259.79,80.35,-210.53,81.2,22,33,54,1,OK
22:03.3,-248.68,80.35,-216.02,81.2,22,33,54,1,OK
22:03.3,-237.06,80.35,-215.68,81.2,22,33,54,1,OK
22:03.3,-224.39,80.35,-209.84,81.2,22,33,54,1,OK
22:03.3,-214.54,80.35,-201.87,81.2,22,33,54,1,OK
22:03.3,-206.72,80.35,-192.66,81.2,22,33,54,1,OK
22:03.3,-204.04,80.35,-184.05,81.2,22,33,54,1,OK
22:03.3,-202.65,80.35,-175.71,81.2,22,33,54,1,OK
22:03.3,-209.09,80.35,-171.21,81.2,22,33,54,1,OK
22:03.3,-216.89,80.35,-171.85,81.2,22,33,54,1,OK
22:03.4,-228.19,80.35,-176.55,81.2,22,33,54,1,OK
22:03.4,-240.61,80.35,-187.25,81.2,22,33,54,1,OK
22:03.4,-256.31,80.35,-204.14,81.2,22,33,54,1,OK
22:03.4,-270.35,80.35,-224.09,81.2,22,33,54,1,OK
22:03.4,-283.5,80.35,-245.78,81.2,22,33,54,1,OK
22:03.4,-294.46,80.35,-271.34,81.2,22,33,54,1,OK
22:03.4,-303.23,80.35,-295.58,81.2,22,33,54,1,OK
22:03.4,-309.89,80.35,-319.54,81.2,22,33,54,1,OK
22:03.4,-312.81,80.35,-342.06,81.2,22,33,54,1,OK
22:03.4,-313.91,80.35,-362.33,81.2,22,33,54,1,OK
22:03.5,-313.19,80.35,-379.98,81.2,22,33,54,1,OK
22:03.5,-311.17,80.35,-395.05,81.2,22,33,54,1,OK
22:03.5,-305.09,80.35,-405.85,81.2,22,33,54,1,OK
22:03.5,-297.58,80.35,-413.01,81.2,22,33,54,1,OK
22:03.5,-288.07,80.35,-416.48,81.2,22,33,54,1,OK
22:03.5,-276.16,80.35,-416.6,81.2,22,33,54,1,OK
22:03.5,-262.77,80.35,-412.61,81.2,22,33,54,1,OK
22:03.5,-246.69,80.35,-403.94,81.2,22,33,54,1,OK
22:03.5,-230.74,80.35,-392.88,81.2,22,33,54,1,OK
22:03.6,-212.17,80.35,-375.41,81.2,22,33,54,1,OK
22:03.6,-195.14,80.35,-353.95,81.2,22,33,54,1,OK
22:03.6,-176.47,80.35,-331.11,81.2,22,33,54,1,OK
22:03.6,-159.54,80.95,-306.94,81.2,22,33,54,1,OK
22:03.6,-138.58,80.95,-280.79,81.2,22,33,54,1,OK
22:03.6,-115.38,80.95,-257.32,80.71,22,31.5,33,1,OK
22:03.6,-80.19,80.95,-226.83,80.71,22,31.5,33,1,OK
22:03.6,-31,80.95,-188.81,80.71,22,31.5,33,1,OK
22:03.6,38.8,80.95,-138.5,80.71,22,31.5,33,1,OK
22:03.7,128.29,80.95,-69.09,80.71,22,31.5,33,1,OK
22:03.7,236.82,80.95,21.68,80.71,22,31.5,33,1,OK
22:03.7,358.01,80.95,130.77,80.71,22,31.5,33,1,OK
22:03.7,483.25,80.95,259.4,80.71,22,31.5,33,1,OK
22:03.7,600.11,80.95,398.11,80.71,22,31.5,33,1,OK
22:03.7,701.6,80.95,538.41,80.71,22,31.5,33,1,OK
22:03.7,779.62,80.95,673.55,80.71,22,31.5,33,1,OK
22:03.7,831.3,80.95,794.63,80.71,22,31.5,33,1,OK
22:03.8,852.99,80.95,891.36,80.71,22,31.5,33,1,OK
22:03.8,845.92,80.95,963.74,80.71,22,31.5,33,1,OK
22:03.8,815.77,80.95,1005.26,80.71,22,31.5,33,1,OK
22:03.8,766.81,80.95,1016.3,80.71,22,31.5,33,1,OK
22:03.8,701.24,80.95,996.82,80.71,22,31.5,33,1,OK
22:03.8,624.59,80.95,953.59,80.71,22,31.5,33,1,OK
22:03.8,545.98,80.95,885.33,80.71,22,31.5,33,1,OK
22:03.8,462.03,80.95,803.1,80.71,22,31.5,33,1,OK
22:03.8,378.6,80.95,709.81,80.71,22,31.5,33,1,OK
22:03.8,298.18,80.95,611.62,80.71,22,31.5,33,1,OK
22:03.9,222.17,80.95,506.68,80.71,22,31.5,33,1,OK
22:03.9,147.39,80.95,405.15,80.71,22,31.5,33,1,OK
22:03.9,76.41,80.95,300.97,80.71,22,31.5,33,1,OK
22:03.9,8.73,80.95,201.56,80.71,22,31.5,33,1,OK
22:03.9,-53.28,80.95,106.16,80.71,22,31.5,33,1,OK
22:03.9,-109.04,80.95,20.52,80.71,22,31.5,33,1,OK
22:03.9,-156.88,80.95,-58.43,80.71,22,31.5,33,1,OK
22:03.9,-193.3,80.95,-123.31,80.71,22,31.5,33,1,OK
22:03.9,-221.34,80.95,-177.68,80.71,22,31.5,33,1,OK
22:04.0,-241.66,80.95,-218.72,80.71,22,31.5,33,1,OK
22:04.0,-253.48,80.95,-247.75,80.71,22,31.5,33,1,OK
22:04.0,-259.18,80.95,-267.26,80.71,22,31.5,33,1,OK
22:04.0,-260.86,80.95,-277.2,80.71,22,31.5,33,1,OK
22:04.0,-257.94,80.95,-280.69,80.71,22,31.5,33,1,OK
22:04.0,-255.55,80.95,-281.6,80.71,22,31.5,33,1,OK
22:04.0,-252.28,80.95,-280.73,80.71,22,31.5,33,1,OK
22:04.0,-249.03,80.95,-277.31,80.71,22,31.5,33,1,OK
22:04.0,-248.57,80.95,-277.38,80.71,22,31.5,33,1,OK
22:04.1,-250.41,80.95,-279.17,80.71,22,31.5,33,1,OK
22:04.1,-251.71,80.95,-286.07,80.71,22,31.5,33,1,OK
22:04.1,-255.25,80.95,-296.5,80.71,22,31.5,33,1,OK
22:04.1,-259.9,80.95,-313.06,80.71,22,31.5,33,1,OK
22:04.1,-266.81,80.95,-330.79,80.71,22,31.5,33,1,OK
22:04.1,-273.94,80.95,-352.1,80.71,22,31.5,33,1,OK
22:04.1,-277.59,80.95,-371.78,80.71,22,31.5,33,1,OK
22:04.1,-285.48,80.95,-389.99,80.71,22,31.5,33,1,OK
22:04.1,-293.46,80.95,-404.81,80.71,22,31.5,33,1,OK
22:04.2,-298.34,80.95,-419.78,80.71,22,31.5,33,1,OK
22:04.2,-301.76,80.95,-433.12,80.71,22,31.5,33,1,OK
22:04.2,-307.73,80.95,-444.69,80.71,22,31.5,33,1,OK
22:04.2,-306.26,80.95,-454.56,80.71,22,31.5,33,1,OK
22:04.2,-302.55,80.95,-461.54,80.71,22,31.5,33,1,OK
22:04.2,-295.32,80.95,-467.28,80.71,22,31.5,33,1,OK
22:04.2,-286.7,80.95,-466.78,80.71,22,31.5,33,1,OK
22:04.2,-275.13,80.95,-463.98,80.71,22,31.5,33,1,OK
22:04.2,-261.51,80.95,-458.06,80.71,22,31.5,33,1,OK
22:04.3,-247.88,80.95,-450.43,80.71,22,31.5,33,1,OK
22:04.3,-233.65,80.95,-437.77,80.71,22,31.5,33,1,OK
22:04.3,-216.16,80.95,-422.92,80.71,22,31.5,33,1,OK
22:04.3,-199.03,80.95,-404.39,80.71,22,31.5,33,1,OK
22:04.3,-184.14,80.95,-382.6,80.71,22,31.5,33,1,OK
22:04.3,-167.9,80.95,-359.26,80.71,22,31.5,33,1,OK
22:04.3,-153.24,81.67,-334.43,80.71,22,31.5,33,1,OK
22:04.3,-140.94,81.67,-309.83,80.71,22,31.5,33,1,OK
22:04.3,-128.88,81.67,-286.65,82.3,22,30,32,1,OK
22:04.4,-112.96,81.67,-262.8,82.3,22,30,32,1,OK
22:04.4,-88.72,81.67,-240.75,82.3,22,30,32,1,OK
22:04.4,-51.79,81.67,-208.4,82.3,22,30,32,1,OK
22:04.4,5.29,81.67,-167.31,82.3,22,30,32,1,OK
22:04.4,85.35,81.67,-108.35,82.3,22,30,32,1,OK
22:04.4,186.76,81.67,-28.42,82.3,22,30,32,1,OK
22:04.4,305.95,81.67,77.32,82.3,22,30,32,1,OK
22:04.4,435.93,81.67,201.9,82.3,22,30,32,1,OK
22:04.4,561.74,81.67,342.5,82.3,22,30,32,1,OK
22:04.5,674.38,81.67,492.59,82.3,22,30,32,1,OK
22:04.5,769.08,81.67,639.7,82.3,22,30,32,1,OK
22:04.5,834.59,81.67,774.56,82.3,22,30,32,1,OK
22:04.5,871.15,81.67,888.18,82.3,22,30,32,1,OK
22:04.5,879.77,81.67,977.06,82.3,22,30,32,1,OK
22:04.5,864.53,81.67,1033.27,82.3,22,30,32,1,OK
22:04.5,825.09,81.67,1059.8,82.3,22,30,32,1,OK
22:04.5,769.54,81.67,1057.41,82.3,22,30,32,1,OK
22:04.5,699.58,81.67,1026.52,82.3,22,30,32,1,OK
22:04.5,622.9,81.67,971.52,82.3,22,30,32,1,OK
22:04.6,539.13,81.67,897.53,82.3,22,30,32,1,OK
22:04.6,454.06,81.67,807.86,82.3,22,30,32,1,OK
22:04.6,369.28,81.67,707.09,82.3,22,30,32,1,OK
22:04.6,286.01,81.67,602.14,82.3,22,30,32,1,OK
22:04.6,202.08,81.67,494.83,82.3,22,30,32,1,OK
22:04.6,121.42,81.67,387.06,82.3,22,30,32,1,OK
22:04.6,46.29,81.67,281.87,82.3,22,30,32,1,OK
22:04.6,-23.3,81.67,183.3,82.3,22,30,32,1,OK
22:04.6,-86.06,81.67,90.81,82.3,22,30,32,1,OK
22:04.7,-141.64,81.67,5.77,82.3,22,30,32,1,OK
22:04.7,-183.89,81.67,-68.07,82.3,22,30,32,1,OK
22:04.7,-218.47,81.67,-131.32,82.3,22,30,32,1,OK
22:04.7,-243.61,81.67,-184.63,82.3,22,30,32,1,OK
22:04.7,-260.4,81.67,-227.59,82.3,22,30,32,1,OK
22:04.7,-267.3,81.67,-263.48,82.3,22,30,32,1,OK
22:04.7,-270.18,81.67,-287.37,82.3,22,30,32,1,OK
22:04.7,-269.04,81.67,-303.12,82.3,22,30,32,1,OK
22:04.7,-265.86,81.67,-311.83,82.3,22,30,32,1,OK
22:04.8,-260.23,81.67,-316.94,82.3,22,30,32,1,OK
22:04.8,-254.85,81.67,-314.02,82.3,22,30,32,1,OK
22:04.8,-250.82,81.67,-316.01,82.3,22,30,32,1,OK
22:04.8,-246.08,81.67,-320.1,82.3,22,30,32,1,OK
22:04.8,-244.52,81.67,-327.06,82.3,22,30,32,1,OK
22:04.8,-244.68,81.67,-333.35,82.3,22,30,32,1,OK
22:04.8,-246.3,81.67,-344.69,82.3,22,30,32,1,OK
22:04.8,-251.11,81.67,-355.08,82.3,22,30,32,1,OK
22:04.8,-259,81.67,-367.49,82.3,22,30,32,1,OK
22:04.9,-267.27,81.67,-380.82,82.3,22,30,32,1,OK
22:04.9,-275.82,81.67,-394.88,82.3,22,30,32,1,OK
22:04.9,-285.89,81.67,-408.35,82.3,22,30,32,1,OK
22:04.9,-294.72,81.67,-420.6,82.3,22,30,32,1,OK
22:04.9,-302.6,81.67,-429.56,82.3,22,30,32,1,OK
22:04.9,-308.52,81.67,-433.87,82.3,22,30,32,1,OK
22:04.9,-313.6,81.67,-437.71,82.3,22,30,32,1,OK
22:04.9,-314.38,81.67,-436.82,82.3,22,30,32,1,OK
22:04.9,-312.18,81.67,-435.21,82.3,22,30,32,1,OK
22:05.0,-307.44,81.67,-430.73,82.3,22,30,32,1,OK
22:05.0,-299.69,81.67,-423.8,82.3,22,30,32,1,OK
22:05.0,-288.05,81.67,-415.5,82.3,22,30,32,1,OK
22:05.0,-276.37,81.67,-404.67,82.3,22,30,32,1,OK
22:05.0,-263.41,81.67,-391.96,82.3,22,30,32,1,OK
22:05.0,-248.08,81.67,-376.51,82.3,22,30,32,1,OK
22:05.0,-230.88,81.67,-360.39,82.3,22,30,32,1,OK
22:05.0,-215.65,81.67,-343.11,82.3,22,30,32,1,OK
22:05.0,-199.37,81.67,-324.88,82.3,22,30,32,1,OK
22:05.1,-181.17,81.67,-304.28,82.3,22,30,32,1,OK
22:05.1,-165.94,81.67,-284.87,82.3,22,30,32,1,OK
22:05.1,-152.68,80.49,-263.15,82.81,22,30,32,1,OK
22:05.1,-139.29,80.49,-242.26,82.81,22,30,32,1,OK
22:05.1,-127.45,80.49,-222.65,82.81,22,30,32,1,OK
22:05.1,-119.39,80.49,-206.62,82.81,22,30,32,1,OK
22:05.1,-108.49,80.49,-191.3,82.81,22,30,32,1,OK
22:05.1,-94.5,80.49,-179.01,82.81,22,30,32,1,OK
22:05.1,-70.6,80.49,-162.84,82.81,22,30,32,1,OK
22:05.2,-29.41,80.49,-140.38,82.81,22,30,32,1,OK
22:05.2,33.89,80.49,-102.53,82.81,22,30,32,1,OK
22:05.2,119.05,80.49,-47.42,82.81,22,30,32,1,OK
22:05.2,222.95,80.49,29.13,82.81,22,30,32,1,OK
22:05.2,345.28,80.49,130.41,82.81,22,30,32,1,OK
22:05.2,472.96,80.49,252.68,82.81,22,30,32,1,OK
22:05.2,592.46,80.49,386.23,82.81,22,30,32,1,OK
22:05.2,697.07,80.49,525.65,82.81,22,30,32,1,OK
22:05.2,781,80.49,661.69,82.81,22,30,32,1,OK
22:05.3,832.33,80.49,779.88,82.81,22,30,32,1,OK
22:05.3,851.36,80.49,873.92,82.81,nan,30,32,1,SKIP
22:05.3,843.83,80.49,940.42,82.81,nan,30,32,1,SKIP
22:05.3,812.36,80.49,975.67,82.81,nan,30,32,1,SKIP
22:05.3,760.11,80.49,979.06,82.81,nan,30,32,1,SKIP
22:05.3,694.61,80.49,955.83,82.81,nan,30,32,1,SKIP
22:05.3,619.36,80.49,908.91,82.81,nan,30,32,1,SKIP
22:05.3,537.59,80.49,843.49,82.81,nan,30,32,1,SKIP
22:05.3,452.72,80.49,764.3,82.81,nan,30,32,1,SKIP
22:05.3,368.99,80.49,674.41,82.81,nan,30,32,1,SKIP
22:05.4,285.11,80.49,578.64,82.81,nan,30,32,1,SKIP
22:05.4,203.34,80.49,478.69,82.81,nan,30,32,1,SKIP
22:05.4,125.23,80.49,378.04,82.81,nan,30,32,1,SKIP
22:05.4,51.42,80.49,278.48,82.81,nan,30,32,1,SKIP
22:05.4,-15.99,80.49,183.18,82.81,nan,30,32,1,SKIP
22:05.4,-76.23,80.49,94.51,82.81,nan,30,32,1,SKIP
22:05.4,-125.7,80.49,14.68,82.81,nan,30,32,1,SKIP
22:05.4,-166,80.49,-56.48,82.81,nan,30,32,1,SKIP
22:05.4,-197.87,80.49,-118.94,82.81,nan,30,32,1,SKIP
22:05.4,-222.74,80.49,-171.75,82.81,nan,30,32,1,SKIP
22:05.5,-238.29,80.49,-215.31,82.81,nan,30,32,1,SKIP
22:05.5,-248.53,80.49,-249.05,82.81,nan,30,32,1,SKIP
22:05.5,-251.23,80.49,-270.23,82.81,nan,30,32,1,SKIP
22:05.5,-248.25,80.49,-283.4,82.81,nan,30,32,1,SKIP
22:05.5,-240.55,80.49,-288.31,82.81,nan,30,32,1,SKIP
22:05.5,-230.66,80.49,-286.88,82.81,nan,30,32,1,SKIP
22:05.5,-218.97,80.49,-282.43,82.81,nan,30,32,1,SKIP
22:05.5,-207.25,80.49,-278.33,82.81,nan,30,32,1,SKIP
22:05.5,-194.96,80.49,-273.44,82.81,nan,30,32,1,SKIP
22:05.5,-185.39,80.49,-269.62,82.81,nan,30,32,1,SKIP
22:05.6,-178.72,80.49,-267.12,82.81,nan,30,32,1,SKIP
22:05.6,-173.16,80.49,-268.99,82.81,nan,30,32,1,SKIP
22:05.6,-173.08,80.49,-270.6,82.81,nan,30,32,1,SKIP
22:05.6,-177.91,80.49,-272.66,82.81,nan,30,32,1,SKIP
22:05.6,-185.54,80.49,-278.42,82.81,nan,30,32,1,SKIP
22:05.6,-195.89,80.49,-285.6,82.81,nan,30,32,1,SKIP
22:05.6,-208.35,80.49,-293.32,82.81,nan,30,32,1,SKIP
22:05.6,-220.89,80.49,-304.41,82.81,nan,30,32,1,SKIP
22:05.6,-235.78,80.49,-317.41,82.81,nan,30,32,1,SKIP
22:05.6,-249.51,80.49,-329.19,82.81,nan,30,32,1,SKIP
22:05.7,-262.93,80.49,-343.62,82.81,nan,30,32,1,SKIP
22:05.7,-275.64,80.49,-354.99,82.81,nan,30,32,1,SKIP
22:05.7,-284.8,80.49,-366.04,82.81,nan,30,32,1,SKIP
22:05.7,-290.78,80.49,-377.62,82.81,nan,30,32,1,SKIP
22:05.7,-294.3,80.49,-385.69,82.81,nan,30,32,1,SKIP
22:05.7,-294.42,80.49,-390.62,82.81,nan,30,32,1,SKIP
22:05.7,-290.24,80.49,-391.54,82.81,nan,30,32,1,SKIP
22:05.7,-285.92,80.49,-391.37,82.81,nan,30,32,1,SKIP
22:05.7,-277.58,80.49,-386.91,82.81,nan,30,32,1,SKIP
22:05.7,-266.27,80.49,-380.71,82.81,nan,30,32,1,SKIP
22:05.8,-253.2,80.49,-370.64,82.81,nan,30,32,1,SKIP
22:05.8,-240.96,80.49,-360.92,82.81,nan,30,32,1,SKIP
22:05.8,-225.59,80.49,-345.26,82.81,nan,30,32,1,SKIP
22:05.8,-210.36,80.49,-328.37,82.81,nan,30,32,1,SKIP
22:05.8,-196.39,80.49,-308.44,82.81,nan,30,32,1,SKIP
22:05.8,-182.85,80.49,-287.65,82.81,nan,30,32,1,SKIP
22:05.8,-169.89,80.49,-267.66,82.81,nan,30,32,1,SKIP
22:05.8,-157.37,80.49,-249.25,82.81,nan,30,32,1,SKIP
22:05.8,-145.85,80.49,-231.58,82.81,nan,30,32,1,SKIP
22:05.8,-128.47,80.49,-214.46,84.12,nan,30,32,1,SKIP
22:05.9,-104.29,80.49,-198.29,84.12,nan,30,32,1,SKIP
22:05.9,-68.43,80.49,-175.95,84.12,nan,30,32,1,SKIP
22:05.9,-20.33,80.49,-146.92,84.12,nan,30,32,1,SKIP
22:05.9,48.85,79.81,-104.89,84.12,-40,26,53,1,OK
22:05.9,134.3,79.81,-47.7,84.12,-40,26,53,1,OK
22:05.9,236.96,79.81,29.3,84.12,-40,26,53,1,OK
22:05.9,349.36,79.81,123.87,84.12,-40,26,53,1,OK
22:05.9,463.59,79.81,234.07,84.12,-40,26,53,1,OK
22:05.9,568.32,79.81,351.9,84.12,-40,26,53,1,OK
22:06.0,655.23,79.81,468.09,84.12,-40,26,53,1,OK
22:06.0,716.59,79.81,575.84,84.12,-40,26,53,1,OK
22:06.0,750.87,79.81,666.79,84.12,-40,26,53,1,OK
22:06.0,757.84,79.81,736.96,84.12,-40,26,53,1,OK
22:06.0,737.96,79.81,782.01,84.12,-40,26,53,1,OK
22:06.0,699.09,79.81,803.11,84.12,-40,26,53,1,OK
22:06.0,642.52,79.81,796.01,84.12,-40,26,53,1,OK
22:06.0,572.94,79.81,767.87,84.12,-40,26,53,1,OK
22:06.0,495.8,79.81,718.48,84.12,-40,26,53,1,OK
22:06.1,413.24,79.81,653.44,84.12,-40,26,53,1,OK
22:06.1,329,79.81,575.46,84.12,-40,26,53,1,OK
22:06.1,246.16,79.81,493.98,84.12,-40,26,53,1,OK
22:06.1,163.77,79.81,403.72,84.12,-40,26,53,1,OK
22:06.1,85.4,79.81,312.49,84.12,-40,26,53,1,OK
22:06.1,11.94,79.81,223.35,84.12,-40,26,53,1,OK
22:06.1,-57.41,79.81,138.83,84.12,-40,26,53,1,OK
22:06.1,-120.02,79.81,56.16,84.12,-40,26,53,1,OK
22:06.1,-174.43,79.81,-15.88,84.12,-40,26,53,1,OK
22:06.1,-218.82,79.81,-79.96,84.12,-40,26,53,1,OK
22:06.2,-250.31,79.81,-133.42,84.12,-40,26,53,1,OK
22:06.2,-273.09,79.81,-176.05,84.12,-40,26,53,1,OK
22:06.2,-286.48,79.81,-206.28,84.12,-40,26,53,1,OK
22:06.2,-288.12,79.81,-224.78,84.12,-40,26,53,1,OK
22:06.2,-281.81,79.81,-235.13,84.12,-40,26,53,1,OK
22:06.2,-271.27,79.81,-235.91,84.12,-40,26,53,1,OK
22:06.2,-255.57,79.81,-231.72,84.12,-40,26,53,1,OK
22:06.2,-236.52,79.81,-224.6,84.12,-40,26,53,1,OK
22:06.2,-219.87,79.81,-217.19,84.12,-40,26,53,1,OK
22:06.3,-206.11,79.81,-207.92,84.12,-40,26,53,1,OK
22:06.3,-198.29,79.81,-202.9,84.12,-40,26,53,1,OK
22:06.3,-194.4,79.81,-200.83,84.12,-40,26,53,1,OK
22:06.3,-197.53,79.81,-202.13,84.12,-40,26,53,1,OK
22:06.3,-203.85,79.81,-208.27,84.12,-40,26,53,1,OK
22:06.3,-215.09,79.81,-217.26,84.12,-40,26,53,1,OK
22:06.3,-226.82,79.81,-230.71,84.12,-40,26,53,1,OK
22:06.3,-240.06,79.81,-245.5,84.12,-40,26,53,1,OK
22:06.3,-252.86,79.81,-262.48,84.12,-40,26,53,1,OK
22:06.4,-266.38,79.81,-279.98,84.12,-40,26,53,1,OK
22:06.4,-277.85,79.81,-297.54,84.12,-40,26,53,1,OK
22:06.4,-287.33,79.81,-316.33,84.12,-40,26,53,1,OK
22:06.4,-294.86,79.81,-334.98,84.12,-40,26,53,1,OK
22:06.4,-300.01,79.81,-353.61,84.12,-40,26,53,1,OK
22:06.4,-300.85,79.81,-368.33,84.12,-40,26,53,1,OK
22:06.4,-298.89,79.81,-383.18,84.12,-40,26,53,1,OK
22:06.4,-296.06,79.81,-392.17,84.12,-40,26,53,1,OK
22:06.4,-289.15,79.81,-397.96,84.12,-40,26,53,1,OK
22:06.5,-280.47,79.81,-397.61,84.12,-40,26,53,1,OK
22:06.5,-269.05,79.81,-394.7,84.12,-40,26,53,1,OK
22:06.5,-255.51,79.81,-387,84.12,-40,26,53,1,OK
22:06.5,-237.94,79.81,-374.01,84.12,-40,26,53,1,OK
22:06.5,-223.38,79.81,-356.71,84.12,-40,26,53,1,OK
22:06.5,-205.01,79.81,-337.78,84.12,-40,26,53,1,OK
22:06.5,-188.16,79.81,-315.28,84.12,-40,26,53,1,OK
22:06.5,-171.35,79.81,-290.52,84.12,-40,26,53,1,OK
22:06.5,-152.4,82.71,-266.75,84.12,-40,26,53,1,OK
22:06.6,-121.7,82.71,-240.46,84.12,-40,26,53,1,OK
22:06.6,-79.18,82.71,-205.9,82.39,22,22,53,1,OK
22:06.6,-16.51,82.71,-165.36,82.39,22,22,53,1,OK
22:06.6,69.93,82.71,-112.85,82.39,22,22,53,1,OK
22:06.6,180.46,82.71,-40.89,82.39,22,22,53,1,OK
22:06.6,306.38,82.71,47.55,82.39,22,22,53,1,OK
22:06.6,439.39,82.71,153.37,82.39,22,22,53,1,OK
22:06.6,568.43,82.71,274.32,82.39,22,22,53,1,OK
22:06.6,683.86,82.71,404.01,82.39,22,22,53,1,OK
22:06.7,777.58,82.71,531.49,82.39,22,22,53,1,OK
22:06.7,843.23,82.71,651.54,82.39,22,22,53,1,OK
22:06.7,878.7,82.71,755.37,82.39,22,22,53,1,OK
22:06.7,884.39,82.71,837.34,82.39,22,22,53,1,OK
22:06.7,862.63,82.71,893.01,82.39,22,22,53,1,OK
22:06.7,816.58,82.71,923.78,82.39,22,22,53,1,OK
22:06.7,754.28,82.71,929.11,82.39,22,22,53,1,OK
22:06.7,679.97,82.71,908.43,82.39,22,22,53,1,OK
22:06.7,599.74,82.71,867.08,82.39,22,22,53,1,OK
22:06.8,515.68,82.71,811.09,82.39,22,22,53,1,OK
22:06.8,429.34,82.71,740.57,82.39,22,22,53,1,OK
22:06.8,345.96,82.71,661.74,82.39,22,22,53,1,OK
22:06.8,261.28,82.71,579.91,82.39,22,22,53,1,OK
22:06.8,178.43,82.71,493.8,82.39,22,22,53,1,OK
22:06.8,100.32,82.71,403.33,82.39,22,22,53,1,OK
22:06.8,28.36,82.71,315,82.39,22,22,53,1,OK
22:06.8,-40.97,82.71,226.79,82.39,22,22,53,1,OK
22:06.8,-99.35,82.71,140.76,82.39,22,22,53,1,OK
22:06.9,-148.32,82.71,61.73,82.39,22,22,53,1,OK
22:06.9,-189.07,82.71,-11.82,82.39,22,22,53,1,OK
22:06.9,-219.76,82.71,-74.79,82.39,22,22,53,1,OK
22:06.9,-240.2,82.71,-127.14,82.39,22,22,53,1,OK
22:06.9,-253.1,82.71,-170.82,82.39,22,22,53,1,OK
22:06.9,-258.49,82.71,-203.84,82.39,22,22,53,1,OK
22:06.9,-257.18,82.71,-222.16,82.39,22,22,53,1,OK
22:06.9,-253.15,82.71,-236.25,82.39,22,22,53,1,OK
22:06.9,-245.5,82.71,-244.03,82.39,22,22,53,1,OK
22:07.0,-239.71,82.71,-245.38,82.39,22,22,53,1,OK
22:07.0,-235.21,82.71,-244.98,82.39,22,22,53,1,OK
22:07.0,-231.76,82.71,-245.16,82.39,22,22,53,1,OK
22:07.0,-230.79,82.71,-244.39,82.39,22,22,53,1,OK
22:07.0,-233.62,82.71,-246.48,82.39,22,22,53,1,OK
22:07.0,-236.62,82.71,-250.27,82.39,22,22,53,1,OK
22:07.0,-243.86,82.71,-256.09,82.39,22,22,53,1,OK
22:07.0,-252.48,82.71,-264.7,82.39,22,22,53,1,OK
22:07.0,-262.43,82.71,-273.34,82.39,22,22,53,1,OK
22:07.1,-272.01,82.71,-281.27,82.39,22,22,53,1,OK
22:07.1,-283.61,82.71,-290.81,82.39,22,22,53,1,OK
22:07.1,-291.6,82.71,-300.76,82.39,22,22,53,1,OK
22:07.1,-301.33,82.71,-310.68,82.39,22,22,53,1,OK
22:07.1,-307.68,82.71,-320.3,82.39,22,22,53,1,OK
22:07.1,-312.18,82.71,-328.98,82.39,22,22,53,1,OK
22:07.1,-313.88,82.71,-335.43,82.39,22,22,53,1,OK
22:07.1,-312.95,82.71,-340,82.39,22,22,53,1,OK
22:07.1,-308,82.71,-342.37,82.39,22,22,53,1,OK
22:07.2,-300.51,82.71,-344.6,82.39,22,22,53,1,OK
22:07.2,-291.42,82.71,-343.55,82.39,22,22,53,1,OK
22:07.2,-278.83,82.71,-339.4,82.39,22,22,53,1,OK
22:07.2,-265.66,82.71,-333.27,82.39,22,22,53,1,OK
22:07.2,-250.3,82.71,-324.23,82.39,22,22,53,1,OK
22:07.2,-233.2,82.71,-313.58,82.39,22,22,53,1,OK
22:07.2,-216.59,82.71,-301.22,82.39,22,22,53,1,OK
22:07.2,-199.37,82.71,-286.06,82.39,22,22,53,1,OK
22:07.2,-180.9,82.71,-269.56,82.39,22,22,53,1,OK
22:07.2,-164.63,82.44,-251.44,82.39,22,22,53,1,OK
22:07.3,-151.18,82.44,-230.74,82.39,22,22,53,1,OK
22:07.3,-137.24,82.44,-211.83,82.39,22,22,53,1,OK
22:07.3,-119.99,82.44,-192.51,82.39,22,22,53,1,OK
22:07.3,-103.7,82.44,-172.35,81.61,44,26,33,1,OK
22:07.3,-79.39,82.44,-150.73,81.61,44,26,33,1,OK
22:07.3,-39.63,82.44,-127.44,81.61,44,26,33,1,OK
22:07.3,19.29,82.44,-93.14,81.61,44,26,33,1,OK
22:07.3,95.57,82.44,-48.04,81.61,44,26,33,1,OK
22:07.3,199.03,82.44,15.97,81.61,44,26,33,1,OK
22:07.4,320.37,82.44,99.13,81.61,44,26,33,1,OK
22:07.4,448.54,82.44,204.36,81.61,44,26,33,1,OK
22:07.4,575.05,82.44,324.26,81.61,44,26,33,1,OK
22:07.4,693.45,82.44,452.12,81.61,44,26,33,1,OK
22:07.4,787.79,82.44,579.77,81.61,44,26,33,1,OK
22:07.4,854.64,82.44,699.3,81.61,44,26,33,1,OK
22:07.4,895.54,82.44,803.14,81.61,44,26,33,1,OK
22:07.4,908.3,82.44,883.95,81.61,44,26,33,1,OK
22:07.4,892.48,82.44,942.47,81.61,44,26,33,1,OK
22:07.5,857.09,82.44,976.35,81.61,44,26,33,1,OK
22:07.5,805.06,82.44,986.1,81.61,44,26,33,1,OK
22:07.5,738.8,82.44,970.04,81.61,44,26,33,1,OK
22:07.5,664.03,82.44,936.11,81.61,44,26,33,1,OK
22:07.5,586.18,82.44,885.17,81.61,44,26,33,1,OK
22:07.5,504.13,82.44,817.16,81.61,44,26,33,1,OK
22:07.5,423.39,82.44,739.71,81.61,44,26,33,1,OK
22:07.5,343.74,82.44,654.61,81.61,44,26,33,1,OK
22:07.5,264.5,82.44,563.14,81.61,44,26,33,1,OK
22:07.6,187.71,82.44,469.06,81.61,44,26,33,1,OK
22:07.6,115.18,82.44,372.84,81.61,44,26,33,1,OK
22:07.6,45.46,82.44,277.92,81.61,44,26,33,1,OK
22:07.6,-18.14,82.44,189.95,81.61,44,26,33,1,OK
22:07.6,-73.98,82.44,107.21,81.61,44,26,33,1,OK
22:07.6,-123.28,82.44,29.73,81.61,44,26,33,1,OK
22:07.6,-163.28,82.44,-37.86,81.61,44,26,33,1,OK
22:07.6,-195.62,82.44,-98.19,81.61,44,26,33,1,OK
22:07.6,-223.41,82.44,-150.73,81.61,44,26,33,1,OK
22:07.7,-244.12,82.44,-195.02,81.61,44,26,33,1,OK
22:07.7,-259.11,82.44,-228.39,81.61,44,26,33,1,OK
22:07.7,-269.72,82.44,-252.7,81.61,44,26,33,1,OK
22:07.7,-274.5,82.44,-268.47,81.61,44,26,33,1,OK
22:07.7,-275.83,82.44,-278.87,81.61,44,26,33,1,OK
22:07.7,-277.46,82.44,-281.29,81.61,44,26,33,1,OK
22:07.7,-276.64,82.44,-284.89,81.61,44,26,33,1,OK
22:07.7,-276.16,82.44,-286.48,81.61,44,26,33,1,OK
22:07.7,-278.43,82.44,-290.32,81.61,44,26,33,1,OK
22:07.8,-281.8,82.44,-294.33,81.61,44,26,33,1,OK
22:07.8,-284.23,82.44,-299.39,81.61,44,26,33,1,OK
22:07.8,-290.4,82.44,-306.78,81.61,44,26,33,1,OK
22:07.8,-298.86,82.44,-314.54,81.61,44,26,33,1,OK
22:07.8,-307.24,82.44,-323.38,81.61,44,26,33,1,OK
22:07.8,-312.8,82.44,-333.2,81.61,44,26,33,1,OK
22:07.8,-320.49,82.44,-345,81.61,44,26,33,1,OK
22:07.8,-327.1,82.44,-354.65,81.61,44,26,33,1,OK
22:07.8,-330.55,82.44,-364.11,81.61,44,26,33,1,OK
22:07.9,-333.08,82.44,-371.58,81.61,44,26,33,1,OK
22:07.9,-334.27,82.44,-377.22,81.61,44,26,33,1,OK
22:07.9,-334.3,82.44,-383.98,81.61,44,26,33,1,OK
22:07.9,-328.97,82.44,-387.07,81.61,44,26,33,1,OK
22:07.9,-324.01,82.44,-387.49,81.61,44,26,33,1,OK
22:07.9,-316,82.44,-385.4,81.61,44,26,33,1,OK
22:07.9,-307.47,82.44,-380.1,81.61,44,26,33,1,OK
22:07.9,-296.81,82.44,-373.22,81.61,44,26,33,1,OK
22:07.9,-284.44,82.44,-364.64,81.61,44,26,33,1,OK
22:08.0,-270.89,82.44,-353.87,81.61,44,26,33,1,OK
22:08.0,-258.51,82.44,-341.22,81.61,44,26,33,1,OK
22:08.0,-244.52,82.44,-328.02,81.61,44,26,33,1,OK
22:08.0,-229.22,82.44,-310.44,81.61,44,26,33,1,OK
22:08.0,-216.56,82.44,-296.51,81.61,44,26,33,1,OK
22:08.0,-204.53,82.44,-281.4,81.61,44,26,33,1,OK
22:08.0,-191.48,82.44,-267.21,81.61,44,26,33,1,OK
22:08.0,-180.83,82.44,-249.48,81.61,44,26,33,1,OK
22:08.0,-172.27,82.44,-231.64,81.12,44,26,33,1,OK
22:08.1,-164.96,82.44,-208.19,81.12,44,26,33,1,OK
22:08.1,-158.18,82.44,-190.55,81.12,44,26,33,1,OK
22:08.1,-150.59,82.44,-173.12,81.12,44,26,33,1,OK
22:08.1,-141.08,82.44,-160.65,81.12,44,26,33,1,OK
22:08.1,-121.96,82.44,-147.53,81.12,44,26,33,1,OK
22:08.1,-87.82,82.44,-131.24,81.12,44,26,33,1,OK
22:08.1,-33.08,82.44,-104.31,81.12,44,26,33,1,OK
22:08.1,42.35,82.44,-61.2,81.12,44,26,33,1,OK
22:08.1,144.83,79.38,1.45,81.12,-99,22,53,1,OK
22:08.2,266.35,79.38,85.17,81.12,-99,22,53,1,OK
22:08.2,398.27,79.38,183.77,81.12,-99,22,53,1,OK
22:08.2,529.09,79.38,302.37,81.12,-99,22,53,1,OK
22:08.2,650.42,79.38,424.49,81.12,-99,22,53,1,OK
22:08.2,751.21,79.38,548.07,81.12,-99,22,53,1,OK
22:08.2,823.46,79.38,663.36,81.12,-99,22,53,1,OK
22:08.2,867.42,79.38,766.41,81.12,-99,22,53,1,OK
22:08.2,882.73,79.38,843.08,81.12,-99,22,53,1,OK
22:08.2,871.29,79.38,895.85,81.12,-99,22,53,1,OK
22:08.3,837.83,79.38,923.94,81.12,-99,22,53,1,OK
22:08.3,786.91,79.38,926.7,81.12,-99,22,53,1,OK
22:08.3,721.42,79.38,906.71,81.12,-99,22,53,1,OK
22:08.3,648.16,79.38,868.57,81.12,-99,22,53,1,OK
22:08.3,567.41,79.38,814.3,81.12,-99,22,53,1,OK
22:08.3,483.51,79.38,744.85,81.12,-99,22,53,1,OK
22:08.3,398.35,79.38,664.48,81.12,-99,22,53,1,OK
22:08.3,315.58,79.38,578.35,81.12,-99,22,53,1,OK
22:08.3,232.78,79.38,483.81,81.12,-99,22,53,1,OK
22:08.3,154.81,79.38,392.02,81.12,-99,22,53,1,OK
22:08.4,80.1,79.38,299.79,81.12,-99,22,53,1,OK
22:08.4,11.09,79.38,210.57,81.12,-99,22,53,1,OK
22:08.4,-52.5,79.38,125.36,81.12,-99,22,53,1,OK
22:08.4,-109.54,79.38,49.86,81.12,-99,22,53,1,OK
22:08.4,-158.21,79.38,-19.99,81.12,-99,22,53,1,OK
22:08.4,-199.08,79.38,-81.06,81.12,-99,22,53,1,OK
22:08.4,-231.85,79.38,-133.89,81.12,-99,22,53,1,OK
22:08.4,-258.23,79.38,-177.48,81.12,-99,22,53,1,OK
22:08.4,-276.75,79.38,-213.17,81.12,-99,22,53,1,OK
22:08.5,-287.19,79.38,-238.59,81.12,-99,22,53,1,OK
22:08.5,-294.16,79.38,-259.43,81.12,-99,22,53,1,OK
22:08.5,-294.49,79.38,-272.3,81.12,-99,22,53,1,OK
22:08.5,-291,79.38,-282.53,81.12,-99,22,53,1,OK
22:08.5,-285.71,79.38,-289.33,81.12,-99,22,53,1,OK
22:08.5,-283.04,79.38,-298.58,81.12,-99,22,53,1,OK
22:08.5,-279.59,79.38,-303.52,81.12,-99,22,53,1,OK
22:08.5,-279.87,79.38,-308.8,81.12,-99,22,53,1,OK
22:08.5,-281.75,79.38,-314.64,81.12,-99,22,53,1,OK
22:08.6,-285.1,79.38,-319.36,81.12,-99,22,53,1,OK
22:08.6,-288.86,79.38,-324.11,81.12,-99,22,53,1,OK
22:08.6,-295.42,79.38,-331.73,81.12,-99,22,53,1,OK
22:08.6,-299.59,79.38,-341.21,81.12,-99,22,53,1,OK
22:08.6,-306.02,79.38,-349.89,81.12,-99,22,53,1,OK
22:08.6,-313.59,79.38,-361.49,81.12,-99,22,53,1,OK
22:08.6,-319.82,79.38,-372.93,81.12,-99,22,53,1,OK
22:08.6,-322.55,79.38,-381.16,81.12,-99,22,53,1,OK
22:08.6,-328.22,79.38,-392.06,81.12,-99,22,53,1,OK
22:08.7,-328.72,79.38,-401.46,81.12,-99,22,53,1,OK
22:08.7,-328.19,79.38,-405.04,81.12,-99,22,53,1,OK
22:08.7,-326.11,79.38,-407.09,81.12,-99,22,53,1,OK
22:08.7,-321.02,79.38,-407.55,81.12,-99,22,53,1,OK
22:08.7,-312.09,79.38,-403.29,81.12,-99,22,53,1,OK
22:08.7,-303.76,79.38,-396.12,81.12,-99,22,53,1,OK
22:08.7,-294.62,79.38,-389.78,81.12,-99,22,53,1,OK
22:08.7,-281.26,79.38,-379.54,81.12,-99,22,53,1,OK
22:08.7,-270.92,79.38,-369.1,81.12,-99,22,53,1,OK
22:08.8,-258.35,79.38,-355.15,81.12,-99,22,53,1,OK
22:08.8,-244.56,79.38,-340.07,81.12,-99,22,53,1,OK
22:08.8,-229.75,79.38,-323.36,81.12,-99,22,53,1,OK
22:08.8,-215.97,79.38,-304.23,81.12,-99,22,53,1,OK
22:08.8,-202.06,79.38,-283.03,81.12,-99,22,53,1,OK
22:08.8,-189.89,79.38,-262.53,81.12,-99,22,53,1,OK
22:08.8,-178.42,79.38,-241.24,80.2,-99,22,53,1,OK
22:08.8,-168.32,79.38,-219.09,80.2,-99,22,53,1,OK
22:08.8,-160.29,79.38,-200.81,80.2,-99,22,53,1,OK
22:08.9,-154.3,79.38,-184.65,80.2,-99,22,53,1,OK
22:08.9,-145.7,79.38,-169.81,80.2,-99,22,53,1,OK
22:08.9,-132.71,79.38,-157.42,80.2,-99,22,53,1,OK
22:08.9,-108.53,79.38,-146.04,80.2,-99,22,53,1,OK
22:08.9,-69.75,79.38,-131.66,80.2,-99,22,53,1,OK
22:08.9,-5.11,79.38,-109.33,80.2,-99,22,53,1,OK
22:08.9,78.01,79.38,-77.25,80.2,-99,22,53,1,OK
22:08.9,182.77,78.72,-29.25,80.2,-110,22,54,1,OK
22:08.9,302.86,78.72,35.36,80.2,-110,22,54,1,OK
22:09.0,428.05,78.72,117.44,80.2,-110,22,54,1,OK
22:09.0,548.8,78.72,212.63,80.2,-110,22,54,1,OK
22:09.0,655.93,78.72,317.11,80.2,-110,22,54,1,OK
22:09.0,740.51,78.72,419.32,80.2,-110,22,54,1,OK
22:09.0,799.04,78.72,516.28,80.2,-110,22,54,1,OK
22:09.0,829.67,78.72,601.22,80.2,-110,22,54,1,OK
22:09.0,829.82,78.72,665.26,80.2,-110,22,54,1,OK
22:09.0,807.46,78.72,708.62,80.2,-110,22,54,1,OK
22:09.0,760.77,78.72,731.82,80.2,-110,22,54,1,OK
22:09.1,697.17,78.72,732.76,80.2,-110,22,54,1,OK
22:09.1,619.91,78.72,710.78,80.2,-110,22,54,1,OK
22:09.1,534.38,78.72,676.4,80.2,-110,22,54,1,OK
22:09.1,443.69,78.72,625.44,80.2,-110,22,54,1,OK
22:09.1,350.91,78.72,567.21,80.2,-110,22,54,1,OK
22:09.1,257.83,78.72,501.32,80.2,-110,22,54,1,OK
22:09.1,169.06,78.72,430.67,80.2,-110,22,54,1,OK
22:09.1,82.24,78.72,360.4,80.2,-110,22,54,1,OK
22:09.1,0.02,78.72,288.31,80.2,-110,22,54,1,OK
22:09.2,-72.51,78.72,215.17,80.2,-110,22,54,1,OK
22:09.2,-136.22,78.72,145.85,80.2,-110,22,54,1,OK
22:09.2,-189.71,78.72,83.22,80.2,-110,22,54,1,OK
22:09.2,-228.47,78.72,22.29,80.2,-110,22,54,1,OK
22:09.2,-257.06,78.72,-27.72,80.2,-110,22,54,1,OK
22:09.2,-272.72,78.72,-70.75,80.2,-110,22,54,1,OK
22:09.2,-279.57,78.72,-104.22,80.2,-110,22,54,1,OK
22:09.2,-279.07,78.72,-130.03,80.2,-110,22,54,1,OK
22:09.2,-274.2,78.72,-148.97,80.2,-110,22,54,1,OK
22:09.3,-262.57,78.72,-159.01,80.2,-110,22,54,1,OK
22:09.3,-251.24,78.72,-164.56,80.2,-110,22,54,1,OK
22:09.3,-237.71,78.72,-168.49,80.2,-110,22,54,1,OK
22:09.3,-227.5,78.72,-170.04,80.2,-110,22,54,1,OK
22:09.3,-219.93,78.72,-170.7,80.2,-110,22,54,1,OK
22:09.3,-215,78.72,-172.92,80.2,-110,22,54,1,OK
22:09.3,-215.25,78.72,-174.43,80.2,-110,22,54,1,OK
22:09.3,-218.86,78.72,-179.97,80.2,-110,22,54,1,OK
22:09.3,-221.44,78.72,-185.76,80.2,-110,22,54,1,OK
22:09.3,-230.61,78.72,-193.69,80.2,-110,22,54,1,OK
22:09.4,-240.8,78.72,-204.37,80.2,-110,22,54,1,OK
22:09.4,-249.57,78.72,-219.35,80.2,-110,22,54,1,OK
22:09.4,-259.45,78.72,-232.69,80.2,-110,22,54,1,OK
22:09.4,-271.28,78.72,-245.69,80.2,-110,22,54,1,OK
22:09.4,-278.97,78.72,-262.36,80.2,-110,22,54,1,OK
22:09.4,-284.16,78.72,-278.48,80.2,-110,22,54,1,OK
22:09.4,-289.55,78.72,-290.62,80.2,-110,22,54,1,OK
22:09.4,-291.95,78.72,-301.29,80.2,-110,22,54,1,OK
22:09.4,-293.28,78.72,-312.76,80.2,-110,22,54,1,OK
22:09.5,-290.12,78.72,-319.01,80.2,-110,22,54,1,OK
22:09.5,-288.36,78.72,-322.54,80.2,-110,22,54,1,OK
22:09.5,-282.86,78.72,-325.52,80.2,-110,22,54,1,OK
22:09.5,-276.94,78.72,-325.36,80.2,-110,22,54,1,OK
22:09.5,-268.87,78.72,-322.75,80.2,-110,22,54,1,OK
22:09.5,-261.34,78.72,-315.93,80.2,-110,22,54,1,OK
22:09.5,-251.01,78.72,-306.75,80.2,-110,22,54,1,OK
22:09.5,-240.17,78.72,-294.19,80.2,-110,22,54,1,OK
22:09.5,-227.31,78.72,-279.04,80.2,-110,22,54,1,OK
22:09.6,-211.17,78.72,-260.92,80.2,-110,22,54,1,OK
22:09.6,-196.84,78.72,-243.57,80.2,-110,22,54,1,OK
22:09.6,-183.19,78.72,-223.74,80.2,-110,22,54,1,OK
22:09.6,-168.46,78.72,-204.9,80.2,-110,22,54,1,OK
22:09.6,-149.78,78.72,-189.11,80.2,-110,22,54,1,OK
22:09.6,-122.4,78.72,-171.74,79.71,-110,22,54,1,OK
22:09.6,-79.64,81.16,-150.5,79.71,-11,22,54,1,OK
22:09.6,-17.74,81.16,-125.51,79.71,-11,22,54,1,OK
22:09.6,64.39,81.16,-87.03,79.71,-11,22,54,1,OK
22:09.7,166.36,81.16,-30.34,79.71,-11,22,54,1,OK
22:09.7,279.47,81.16,40.13,79.71,-11,22,54,1,OK
22:09.7,402.62,81.16,124.42,79.71,-11,22,54,1,OK
22:09.7,519.98,81.16,222.02,79.71,-11,22,54,1,OK
22:09.7,628.36,81.16,321.84,79.71,-11,22,54,1,OK
22:09.7,716.78,81.16,421.25,79.71,-11,22,54,1,OK
22:09.7,783.49,81.16,512.77,79.71,-11,22,54,1,OK
22:09.7,820.09,81.16,595.1,79.71,-11,22,54,1,OK
22:09.7,829.1,81.16,658.96,79.71,-11,22,54,1,OK
22:09.8,813.07,81.16,705.32,79.71,-11,22,54,1,OK
22:09.8,774.38,81.16,729.23,79.71,-11,22,54,1,OK
22:09.8,715.8,81.16,734.24,79.71,-11,22,54,1,OK
22:09.8,643.2,81.16,717.32,79.71,-11,22,54,1,OK
22:09.8,563.96,81.16,685.51,79.71,-11,22,54,1,OK
22:09.8,473.99,81.16,639.87,79.71,-11,22,54,1,OK
22:09.8,382.71,81.16,585.51,79.71,-11,22,54,1,OK
22:09.8,291.19,81.16,526.02,79.71,-11,22,54,1,OK
22:09.8,201.04,81.16,459.46,79.71,-11,22,54,1,OK
22:09.9,115.22,81.16,389.35,79.71,-11,22,54,1,OK
22:09.9,35.2,81.16,318.82,79.71,-11,22,54,1,OK
22:09.9,-40.18,81.16,248.14,79.71,-11,22,54,1,OK
22:09.9,-107.59,81.16,175.75,79.71,-11,22,54,1,OK
22:09.9,-164.98,81.16,112.05,79.71,-11,22,54,1,OK
22:09.9,-212.09,81.16,55.58,79.71,-11,22,54,1,OK
22:09.9,-249.03,81.16,5.04,79.71,-11,22,54,1,OK
22:09.9,-272.12,81.16,-38.81,79.71,-11,22,54,1,OK
22:09.9,-283.36,81.16,-71.62,79.71,-11,22,54,1,OK
22:10.0,-282.9,81.16,-96.38,79.71,-11,22,54,1,OK
22:10.0,-278.12,81.16,-115.87,79.71,-11,22,54,1,OK
22:10.0,-264.81,81.16,-126.67,79.71,-11,22,54,1,OK
22:10.0,-251.33,81.16,-132.9,79.71,-11,22,54,1,OK
22:10.0,-237.04,81.16,-137.25,79.71,-11,22,54,1,OK
22:10.0,-227.2,81.16,-142.13,79.71,-11,22,54,1,OK
22:10.0,-218.31,81.16,-145.19,79.71,-11,22,54,1,OK
22:10.0,-214.52,81.16,-151.43,79.71,-11,22,54,1,OK
22:10.0,-213.07,81.16,-158.16,79.71,-11,22,54,1,OK
22:10.1,-217.78,81.16,-165.34,79.71,-11,22,54,1,OK
22:10.1,-222.74,81.16,-173.45,79.71,-11,22,54,1,OK
22:10.1,-230.8,81.16,-183.76,79.71,-11,22,54,1,OK
22:10.1,-238.95,81.16,-194.33,79.71,-11,22,54,1,OK
22:10.1,-246.55,81.16,-206.41,79.71,-11,22,54,1,OK
22:10.1,-251.93,81.16,-221.14,79.71,-11,22,54,1,OK
22:10.1,-258.2,81.16,-237.8,79.71,-11,22,54,1,OK
22:10.1,-263.17,81.16,-253.15,79.71,-11,22,54,1,OK
22:10.1,-265.9,81.16,-269.71,79.71,-11,22,54,1,OK
22:10.2,-269.26,81.16,-285.86,79.71,-11,22,54,1,OK
22:10.2,-271.64,81.16,-300.59,79.71,-11,22,54,1,OK
22:10.2,-269.91,81.16,-312.88,79.71,-11,22,54,1,OK
22:10.2,-266.72,81.16,-326.81,79.71,-11,22,54,1,OK
22:10.2,-261.46,81.16,-337.11,79.71,-11,22,54,1,OK
22:10.2,-254.48,81.16,-342.54,79.71,-11,22,54,1,OK
22:10.2,-245.28,81.16,-343.93,79.71,-11,22,54,1,OK
22:10.2,-236.67,81.16,-342.92,79.71,-11,22,54,1,OK
22:10.2,-226.2,81.16,-335.61,79.71,-11,22,54,1,OK
22:10.3,-215.54,81.16,-325.57,79.71,-11,22,54,1,OK
22:10.3,-205.01,81.16,-316.82,79.71,-11,22,54,1,OK
22:10.3,-194.93,81.16,-305.57,79.71,-11,22,54,1,OK
22:10.3,-185.7,81.16,-289,79.71,-11,22,54,1,OK
22:10.3,-174.62,81.16,-270.78,79.71,-11,22,54,1,OK
22:10.3,-165.26,81.16,-248.8,79.71,-11,22,54,1,OK
22:10.3,-153.56,81.16,-225.31,79.71,-11,22,54,1,OK
22:10.3,-140.9,81.16,-201.37,79.71,-11,22,54,1,OK
22:10.3,-123.62,81.16,-182.54,79.62,-11,22,54,1,OK
22:10.4,-101,81.16,-166.34,79.62,-11,22,54,1,OK
22:10.4,-63.77,81.16,-148.45,79.62,-11,22,54,1,OK
22:10.4,-10.54,81.16,-123.75,79.62,-11,22,54,1,OK
22:10.4,63.26,78.79,-88.69,79.62,-44,22,54,1,OK
22:10.4,157.12,78.79,-41.21,79.62,-44,22,54,1,OK
22:10.4,269.23,78.79,24.96,79.62,-44,22,54,1,OK
22:10.4,391.75,78.79,105.52,79.62,-44,22,54,1,OK
22:10.4,515.85,78.79,198.12,79.62,-44,22,54,1,OK
22:10.4,632.39,78.79,298.75,79.62,-44,22,54,1,OK
22:10.5,733.13,78.79,406.35,79.62,-44,22,54,1,OK
22:10.5,810.39,78.79,513.44,79.62,-44,22,54,1,OK
22:10.5,863.31,78.79,608.38,79.62,-44,22,54,1,OK
22:10.5,887.69,78.79,690.19,79.62,-44,22,54,1,OK
22:10.5,887.01,78.79,753.97,79.62,-44,22,54,1,OK
22:10.5,862.52,78.79,796.21,79.62,-44,22,54,1,OK
22:10.5,817.89,78.79,812.32,79.62,-44,22,54,1,OK
22:10.5,755.72,78.79,809.52,79.62,-44,22,54,1,OK
22:10.5,683.86,78.79,789.49,79.62,-44,22,54,1,OK
22:10.6,602.13,78.79,747.94,79.62,-44,22,54,1,OK
22:10.6,514.96,78.79,694.44,79.62,-44,22,54,1,OK
22:10.6,427.4,78.79,633.09,79.62,-44,22,54,1,OK
22:10.6,339.45,78.79,567.46,79.62,-44,22,54,1,OK
22:10.6,251.47,78.79,495.35,79.62,-44,22,54,1,OK
22:10.6,168.14,78.79,424.99,79.62,-44,22,54,1,OK
22:10.6,88.11,78.79,354.3,79.62,-44,22,54,1,OK
22:10.6,13.56,78.79,280.78,79.62,-44,22,54,1,OK
22:10.6,-55.62,78.79,207.85,79.62,-44,22,54,1,OK
22:10.6,-114.2,78.79,139.5,79.62,-44,22,54,1,OK
22:10.7,-164.68,78.79,76.36,79.62,-44,22,54,1,OK
22:10.7,-202.64,78.79,19.62,79.62,-44,22,54,1,OK
22:10.7,-232.32,78.79,-28.21,79.62,-44,22,54,1,OK
22:10.7,-251.99,78.79,-68.56,79.62,-44,22,54,1,OK
22:10.7,-263.18,78.79,-100.01,79.62,-44,22,54,1,OK
22:10.7,-268.43,78.79,-123.79,79.62,-44,22,54,1,OK
22:10.7,-271.34,78.79,-141.9,79.62,-44,22,54,1,OK
22:10.7,-267.27,78.79,-152.01,79.62,-44,22,54,1,OK
22:10.7,-262.23,78.79,-157.36,79.62,-44,22,54,1,OK
22:10.8,-259.33,78.79,-162.55,79.62,-44,22,54,1,OK
22:10.8,-257.78,78.79,-165.79,79.62,-44,22,54,1,OK
22:10.8,-254.19,78.79,-169.15,79.62,-44,22,54,1,OK
22:10.8,-257.29,78.79,-177.47,79.62,-44,22,54,1,OK
22:10.8,-262.49,78.79,-188.54,79.62,-44,22,54,1,OK
22:10.8,-268.51,78.79,-200.22,79.62,-44,22,54,1,OK
22:10.8,-273.97,78.79,-214.67,79.62,-44,22,54,1,OK
22:10.8,-281.88,78.79,-231.23,79.62,-44,22,54,1,OK
22:10.8,-288.03,78.79,-249.66,79.62,-44,22,54,1,OK
22:10.9,-292.86,78.79,-267.73,79.62,-44,22,54,1,OK
22:10.9,-296.37,78.79,-287.17,79.62,-44,22,54,1,OK
22:10.9,-301.92,78.79,-307.16,79.62,-44,22,54,1,OK
22:10.9,-305.99,78.79,-322.91,79.62,-44,22,54,1,OK
22:10.9,-307.68,78.79,-337.37,79.62,-44,22,54,1,OK
22:10.9,-308.85,78.79,-349.79,79.62,-44,22,54,1,OK
22:10.9,-309.37,78.79,-359.18,79.62,-44,22,54,1,OK
22:10.9,-307.47,78.79,-365.39,79.62,-44,22,54,1,OK
22:10.9,-302.93,78.79,-373.47,79.62,-44,22,54,1,OK
22:11.0,-297.35,78.79,-377.96,79.62,-44,22,54,1,OK
22:11.0,-292.12,78.79,-380.63,79.62,-44,22,54,1,OK
22:11.0,-283.38,78.79,-381.46,79.62,-44,22,54,1,OK
22:11.0,-271.6,78.79,-379.73,79.62,-44,22,54,1,OK
22:11.0,-258.76,78.79,-374.27,79.62,-44,22,54,1,OK
22:11.0,-245.48,78.79,-364.98,79.62,-44,22,54,1,OK
22:11.0,-228.91,78.79,-352.25,79.62,-44,22,54,1,OK
22:11.0,-213.13,78.79,-338.06,79.62,-44,22,54,1,OK
22:11.0,-196.82,78.79,-320.05,79.62,-44,22,54,1,OK
22:11.1,-182.3,78.79,-300.53,79.62,-44,22,54,1,OK
22:11.1,-171.37,78.79,-279.98,79.62,-44,22,54,1,OK
22:11.1,-162.7,78.79,-259.13,79.62,-44,22,54,1,OK
22:11.1,-154.26,78.79,-236.11,79.62,-44,22,54,1,OK
22:11.1,-148.09,78.79,-216.91,78.9,-44,22,54,1,OK
22:11.1,-138.93,78.79,-198.99,78.9,-44,22,54,1,OK
22:11.1,-120.79,78.79,-181.79,78.9,-44,22,54,1,OK
22:11.1,-90,78.79,-165.31,78.9,-44,22,54,1,OK
22:11.1,-44.82,78.79,-145.13,78.9,-44,22,54,1,OK
22:11.2,23.67,78.79,-114.58,78.9,-44,22,54,1,OK
22:11.2,114.59,77.11,-70.46,78.9,-66,22,82,1,OK
22:11.2,224.29,77.11,-9.32,78.9,-66,22,82,1,OK
22:11.2,348.79,77.11,72.55,78.9,-66,22,82,1,OK
22:11.2,480.28,77.11,170.07,78.9,-66,22,82,1,OK
22:11.2,605.79,77.11,279.35,78.9,-66,22,82,1,OK
22:11.2,716.7,77.11,395.39,78.9,-66,22,82,1,OK
22:11.2,808.06,77.11,511.35,78.9,-66,22,82,1,OK
22:11.2,874.41,77.11,619.01,78.9,-66,22,82,1,OK
22:11.3,913.27,77.11,714.85,78.9,-66,22,82,1,OK
22:11.3,923.93,77.11,790.55,78.9,-66,22,82,1,OK
22:11.3,909.66,77.11,844.42,78.9,-66,22,82,1,OK
22:11.3,873.71,77.11,874.51,78.9,-66,22,82,1,OK
22:11.3,818.7,77.11,879.56,78.9,-66,22,82,1,OK
22:11.3,746.69,77.11,861.77,78.9,-66,22,82,1,OK
22:11.3,665.66,77.11,828.88,78.9,-66,22,82,1,OK
22:11.3,578.35,77.11,780.22,78.9,-66,22,82,1,OK
22:11.3,483.34,77.11,717.5,78.9,-66,22,82,1,OK
22:11.4,388.1,77.11,647.7,78.9,-66,22,82,1,OK
22:11.4,294.58,77.11,573.33,78.9,-66,22,82,1,OK
22:11.4,201.58,77.11,493.74,78.9,-66,22,82,1,OK
22:11.4,112.43,77.11,413.89,78.9,-66,22,82,1,OK
22:11.4,30.25,77.11,337.05,78.9,-66,22,82,1,OK
22:11.4,-47.58,77.11,259.98,78.9,-66,22,82,1,OK
22:11.4,-115.86,77.11,186.13,78.9,-66,22,82,1,OK
22:11.4,-171.97,77.11,116.79,78.9,-66,22,82,1,OK
22:11.4,-219.19,77.11,52.26,78.9,-66,22,82,1,OK
22:11.5,-256.18,77.11,-6.89,78.9,-66,22,82,1,OK
22:11.5,-281.65,77.11,-56.52,78.9,-66,22,82,1,OK
22:11.5,-296.32,77.11,-99.35,78.9,-66,22,82,1,OK
22:11.5,-305.03,77.11,-134.63,78.9,-66,22,82,1,OK
22:11.5,-307.39,77.11,-162.19,78.9,-66,22,82,1,OK
22:11.5,-302.59,77.11,-181.87,78.9,-66,22,82,1,OK
22:11.5,-298.19,77.11,-195.4,78.9,-66,22,82,1,OK
22:11.5,-294.89,77.11,-204.05,78.9,-66,22,82,1,OK
22:11.5,-290.92,77.11,-209.67,78.9,-66,22,82,1,OK
22:11.6,-287.36,77.11,-214.5,78.9,-66,22,82,1,OK
22:11.6,-288.41,77.11,-220.08,78.9,-66,22,82,1,OK
22:11.6,-289.19,77.11,-227.76,78.9,-66,22,82,1,OK
22:11.6,-295.28,77.11,-238.92,78.9,-66,22,82,1,OK
22:11.6,-302.42,77.11,-250.77,78.9,-66,22,82,1,OK
22:11.6,-312.75,77.11,-265.03,78.9,-66,22,82,1,OK
22:11.6,-321.18,77.11,-280.75,78.9,-66,22,82,1,OK
22:11.6,-328.4,77.11,-297.07,78.9,-66,22,82,1,OK
22:11.6,-332.2,77.11,-311.55,78.9,-66,22,82,1,OK
22:11.7,-336.25,77.11,-328.33,78.9,-66,22,82,1,OK
22:11.7,-338.1,77.11,-343.2,78.9,-66,22,82,1,OK
22:11.7,-338.94,77.11,-355.78,78.9,-66,22,82,1,OK
22:11.7,-340.73,77.11,-367.79,78.9,-66,22,82,1,OK
22:11.7,-338.64,77.11,-378.9,78.9,-66,22,82,1,OK
22:11.7,-334.91,77.11,-386.83,78.9,-66,22,82,1,OK
22:11.7,-327.22,77.11,-393.74,78.9,-66,22,82,1,OK
22:11.7,-318.78,77.11,-398.01,78.9,-66,22,82,1,OK
22:11.7,-306.7,77.11,-398.51,78.9,-66,22,82,1,OK
22:11.8,-296.61,77.11,-396.27,78.9,-66,22,82,1,OK
22:11.8,-283.49,77.11,-392.52,78.9,-66,22,82,1,OK
22:11.8,-270.41,77.11,-383.76,78.9,-66,22,82,1,OK
22:11.8,-256.5,77.11,-372.81,78.9,-66,22,82,1,OK
22:11.8,-243.17,77.11,-361.85,78.9,-66,22,82,1,OK
22:11.8,-225.59,77.11,-347.71,78.9,-66,22,82,1,OK
22:11.8,-210,77.11,-331.24,78.9,-66,22,82,1,OK
22:11.8,-196.36,77.11,-313.54,78.9,-66,22,82,1,OK
22:11.8,-182.67,81.53,-293.54,78.9,-66,22,82,1,OK
22:11.8,-168.95,81.53,-271.52,78.9,-66,22,82,1,OK
22:11.9,-160.23,81.53,-250.86,78.9,-66,22,82,1,OK
22:11.9,-150.44,81.53,-228.33,78.44,33,22,82,1,OK
22:11.9,-138.63,81.53,-209.4,78.44,33,22,82,1,OK
22:11.9,-123.01,81.53,-193.15,78.44,33,22,82,1,OK
22:11.9,-97.63,81.53,-177.08,78.44,33,22,82,1,OK
22:11.9,-56.06,81.53,-156.52,78.44,33,22,82,1,OK
22:11.9,7.47,81.53,-131.11,78.44,33,22,82,1,OK
22:11.9,92.99,81.53,-92.08,78.44,33,22,82,1,OK
22:11.9,199.92,81.53,-36.38,78.44,33,22,82,1,OK
22:12.0,321.34,81.53,36.81,78.44,33,22,82,1,OK
22:12.0,451.49,81.53,125.32,78.44,33,22,82,1,OK
22:12.0,573.71,81.53,227.36,78.44,33,22,82,1,OK
22:12.0,683.43,81.53,336.62,78.44,33,22,82,1,OK
22:12.0,773.15,81.53,444.29,78.44,33,22,82,1,OK
22:12.0,835.33,81.53,546.45,78.44,33,22,82,1,OK
22:12.0,869.97,81.53,635.37,78.44,33,22,82,1,OK
22:12.0,879.68,81.53,705.79,78.44,33,22,82,1,OK
22:12.0,863.77,81.53,755.18,78.44,33,22,82,1,OK
22:12.1,825.92,81.53,784.67,78.44,33,22,82,1,OK
22:12.1,765.88,81.53,789.68,78.44,33,22,82,1,OK
22:12.1,691.75,81.53,776.58,78.44,33,22,82,1,OK
22:12.1,606.62,81.53,745.37,78.44,33,22,82,1,OK
22:12.1,514.84,81.53,698.29,78.44,33,22,82,1,OK
22:12.1,418.77,81.53,636.97,78.44,33,22,82,1,OK
22:12.1,327.47,81.53,568.25,78.44,33,22,82,1,OK
22:12.1,235.68,81.53,490.92,78.44,33,22,82,1,OK
22:12.1,145.65,81.53,412.26,78.44,33,22,82,1,OK
22:12.2,62.5,81.53,332.66,78.44,33,22,82,1,OK
22:12.2,-14.69,81.53,253.69,78.44,33,22,82,1,OK
22:12.2,-84.55,81.53,177.56,78.44,33,22,82,1,OK
22:12.2,-146.15,81.53,106.56,78.44,33,22,82,1,OK
22:12.2,-195.03,81.53,40.22,78.44,33,22,82,1,OK
22:12.2,-234.8,81.53,-18.34,78.44,33,22,82,1,OK
22:12.2,-263.42,81.53,-68.45,78.44,33,22,82,1,OK
22:12.2,-279.8,81.53,-108.13,78.44,33,22,82,1,OK
22:12.2,-287.03,81.53,-137.05,78.44,33,22,82,1,OK
22:12.3,-289.17,81.53,-158.26,78.44,33,22,82,1,OK
22:12.3,-286.04,81.53,-172.01,78.44,33,22,82,1,OK
22:12.3,-278.73,81.53,-178.19,78.44,33,22,82,1,OK
22:12.3,-272.2,81.53,-182.73,78.44,33,22,82,1,OK
22:12.3,-263.23,81.53,-186.47,78.44,33,22,82,1,OK
22:12.3,-254.19,81.53,-187.63,78.44,33,22,82,1,OK
22:12.3,-246.98,81.53,-189.23,78.44,33,22,82,1,OK
22:12.3,-243.33,81.53,-193.74,78.44,33,22,82,1,OK
22:12.3,-239.9,81.53,-197.7,78.44,33,22,82,1,OK
22:12.4,-242.38,81.53,-206.68,78.44,33,22,82,1,OK
22:12.4,-245.87,81.53,-219.18,78.44,33,22,82,1,OK
22:12.4,-250.28,81.53,-232.47,78.44,33,22,82,1,OK
22:12.4,-254.69,81.53,-247.55,78.44,33,22,82,1,OK
22:12.4,-260.69,81.53,-265.32,78.44,33,22,82,1,OK
22:12.4,-265.04,81.53,-281.25,78.44,33,22,82,1,OK
22:12.4,-267.67,81.53,-301.38,78.44,33,22,82,1,OK
22:12.4,-271.72,81.53,-321.44,78.44,33,22,82,1,OK
22:12.4,-274.14,81.53,-341.91,78.44,33,22,82,1,OK
22:12.5,-276.66,81.53,-362.38,78.44,33,22,82,1,OK
22:12.5,-275.11,81.53,-381.65,78.44,33,22,82,1,OK
22:12.5,-275.18,81.53,-394.51,78.44,33,22,82,1,OK
22:12.5,-271.75,81.53,-410.05,78.44,33,22,82,1,OK
22:12.5,-266.99,81.53,-420.31,78.44,33,22,82,1,OK
22:12.5,-258.41,81.53,-425.77,78.44,33,22,82,1,OK
22:12.5,-252.2,81.53,-427.67,78.44,33,22,82,1,OK
22:12.5,-243.49,81.53,-422.13,78.44,33,22,82,1,OK
22:12.5,-234.2,81.53,-412.82,78.44,33,22,82,1,OK
22:12.6,-223.77,81.53,-399.92,78.44,33,22,82,1,OK
22:12.6,-213.61,81.53,-382.1,78.44,33,22,82,1,OK
22:12.6,-200.6,81.53,-361.23,78.44,33,22,82,1,OK
22:12.6,-186.68,81.53,-340.56,78.44,33,22,82,1,OK
22:12.6,-173.51,81.53,-316.78,78.44,33,22,82,1,OK
22:12.6,-161.1,81.53,-293.08,78.44,33,22,82,1,OK
22:12.6,-147.07,81.53,-273.31,78.44,33,22,82,1,OK
22:12.6,-130.14,81.53,-255.01,78.89,33,22,82,1,OK
22:12.6,-104.73,81.53,-236.72,78.89,33,22,82,1,OK
22:12.6,-64.96,81.53,-214.2,78.89,33,22,82,1,OK
22:12.7,-5.52,80.92,-183.09,78.89,-33,22,82,1,OK
22:12.7,72.59,80.92,-139.08,78.89,-33,22,82,1,OK
22:12.7,172.75,80.92,-77.31,78.89,-33,22,82,1,OK
22:12.7,283.19,80.92,-1.5,78.89,-33,22,82,1,OK
22:12.7,400.35,80.92,92.86,78.89,-33,22,82,1,OK
22:12.7,509.5,80.92,196.89,78.89,-33,22,82,1,OK
22:12.7,608.76,80.92,305.72,78.89,-33,22,82,1,OK
22:12.7,683.31,80.92,410.66,78.89,-33,22,82,1,OK
22:12.8,736.27,80.92,509.74,78.89,-33,22,82,1,OK
22:12.8,760.87,80.92,591.05,78.89,-33,22,82,1,OK
22:12.8,760.66,80.92,650.54,78.89,-33,22,82,1,OK
22:12.8,735.01,80.92,692.66,78.89,-33,22,82,1,OK
22:12.8,688.88,80.92,712.3,78.89,-33,22,82,1,OK
22:12.8,624.48,80.92,708.5,78.89,-33,22,82,1,OK
22:12.8,547.49,80.92,683.81,78.89,-33,22,82,1,OK
22:12.8,462.01,80.92,644.17,78.89,-33,22,82,1,OK
22:12.8,367.91,80.92,585,78.89,-33,22,82,1,OK
22:12.8,272.39,80.92,514.46,78.89,-33,22,82,1,OK
22:12.9,177.86,80.92,432.25,78.89,-33,22,82,1,OK
22:12.9,86.22,80.92,346.71,78.89,-33,22,82,1,OK
22:12.9,-1.88,80.92,257.49,78.89,-33,22,82,1,OK
22:12.9,-79.67,80.92,165.51,78.89,-33,22,82,1,OK
22:12.9,-149.94,80.92,71.81,78.89,-33,22,82,1,OK
22:12.9,-211.63,80.92,-15.48,78.89,-33,22,82,1,OK
22:12.9,-260.42,80.92,-101.02,78.89,-33,22,82,1,OK
22:12.9,-297.67,80.92,-181.21,78.89,-33,22,82,1,OK
22:12.9,-324.98,80.92,-250.52,78.89,-33,22,82,1,OK
22:13.0,-340.48,80.92,-308.47,78.89,-33,22,82,1,OK
22:13.0,-343.48,80.92,-359.65,78.89,-33,22,82,1,OK
22:13.0,-341.19,80.92,-398.97,78.89,-33,22,82,1,OK
22:13.0,-330.33,80.92,-426.63,78.89,-33,22,82,1,OK
22:13.0,-316.68,80.92,-447.06,78.89,-33,22,82,1,OK
22:13.0,-301.23,80.92,-461.01,78.89,-33,22,82,1,OK
22:13.0,-288.14,80.92,-467.82,78.89,-33,22,82,1,OK
22:13.0,-276.02,80.92,-473.12,78.89,-33,22,82,1,OK
22:13.0,-268.72,80.92,-483.18,78.89,-33,22,82,1,OK
22:13.1,-263.68,80.92,-496.83,78.89,-33,22,82,1,OK
22:13.1,-263.85,80.92,-515.08,78.89,-33,22,82,1,OK
22:13.1,-265.67,80.92,-538.95,78.89,-33,22,82,1,OK
22:13.1,-270.27,80.92,-571.31,78.89,-33,22,82,1,OK
22:13.1,-274.57,80.92,-604.86,78.89,-33,22,82,1,OK
22:13.1,-278.59,80.92,-640.66,78.89,-33,22,82,1,OK
22:13.1,-279.51,80.92,-676.13,78.89,-33,22,82,1,OK
22:13.1,-282.44,80.92,-712.84,78.89,-33,22,82,1,OK
22:13.1,-282.35,80.92,-747.26,78.89,-33,22,82,1,OK
22:13.2,-282.69,80.92,-779.53,78.89,-33,22,82,1,OK
22:13.2,-283.76,80.92,-809.73,78.89,-33,22,82,1,OK
22:13.2,-285.5,80.92,-838.48,78.89,-33,22,82,1,OK
22:13.2,-282.81,80.92,-859.57,78.89,-33,22,82,1,OK
22:13.2,-283.3,80.92,-869.49,78.89,-33,22,82,1,OK
22:13.2,-280.85,80.92,-858.8,78.89,-33,22,82,1,OK
22:13.2,-274.81,80.92,-827.12,78.89,-33,22,82,1,OK
22:13.2,-266.47,80.92,-776.79,78.89,-33,22,82,1,OK
22:13.2,-258.18,80.92,-712.08,78.89,-33,22,82,1,OK
22:13.3,-243.15,80.92,-637.13,78.89,-33,22,82,1,OK
22:13.3,-227.1,80.92,-564.76,78.89,-33,22,82,1,OK
22:13.3,-207.92,80.92,-495.49,82.22,-33,22,82,1,OK
22:13.3,-186.24,80.92,-429.68,82.22,-33,22,82,1,OK
22:13.3,-163.64,80.92,-367.73,82.22,-33,22,82,1,OK
22:13.3,-141.5,80.92,-310.2,82.22,-33,22,82,1,OK
22:13.3,-120.41,81.79,-257.28,82.22,-44,22,82,1,OK
22:13.3,-100.75,81.79,-209.21,82.22,-44,22,82,1,OK
22:13.3,-79.88,81.79,-164.95,82.22,-44,22,82,1,OK
22:13.4,-49.85,81.79,-108.79,82.22,-44,22,82,1,OK
22:13.4,-8.59,81.79,-41.82,82.22,-44,22,82,1,OK
22:13.4,51.17,81.79,38.3,82.22,-44,22,82,1,OK
22:13.4,130.56,81.79,128.6,82.22,-44,22,82,1,OK
22:13.4,228.11,81.79,230.73,82.22,-44,22,82,1,OK
22:13.4,336.72,81.79,329.05,82.22,-44,22,82,1,OK
22:13.4,450.74,81.79,422.95,82.22,-44,22,82,1,OK
22:13.4,560.12,81.79,508.19,82.22,-44,22,82,1,OK
22:13.4,655.54,81.79,588.27,82.22,-44,22,82,1,OK
22:13.5,732.86,81.79,661.36,82.22,-44,22,82,1,OK
22:13.5,785.03,81.79,723.12,82.22,-44,22,82,1,OK
22:13.5,811.08,81.79,774.63,82.22,-44,22,82,1,OK
22:13.5,811.41,81.79,817.1,82.22,-44,22,82,1,OK
22:13.5,787.91,81.79,846.74,82.22,-44,22,82,1,OK
22:13.5,742.62,81.79,856.93,82.22,-44,22,82,1,OK
22:13.5,682.6,81.79,854.91,82.22,-44,22,82,1,OK
22:13.5,609.79,81.79,839.03,82.22,-44,22,82,1,OK
22:13.5,528.7,81.79,810.98,82.22,-44,22,82,1,OK
22:13.6,443.62,81.79,769.16,82.22,-44,22,82,1,OK
22:13.6,358.01,81.79,720.88,82.22,-44,22,82,1,OK
22:13.6,271.42,81.79,657.03,82.22,-44,22,82,1,OK
22:13.6,185.3,81.79,576.25,82.22,-44,22,82,1,OK
22:13.6,104.34,81.79,477.32,82.22,-44,22,82,1,OK
22:13.6,26.9,81.79,366.31,82.22,-44,22,82,1,OK
22:13.6,-44.91,81.79,246.37,82.22,-44,22,82,1,OK
22:13.6,-109.91,81.79,120.38,82.22,-44,22,82,1,OK
22:13.6,-163.94,81.79,-0.36,82.22,-44,22,82,1,OK
22:13.7,-211.5,81.79,-114.28,82.22,-44,22,82,1,OK
22:13.7,-246.13,81.79,-226.4,82.22,-44,22,82,1,OK
22:13.7,-271.84,81.79,-342.55,82.22,-44,22,82,1,OK
22:13.7,-286.03,81.79,-460.71,82.22,-44,22,82,1,OK
22:13.7,-293.82,81.79,-584.82,82.22,-44,22,82,1,OK
22:13.7,-292.95,81.79,-710.56,82.22,-44,22,82,1,OK
22:13.7,-291.19,81.79,-827.55,82.22,-44,22,82,1,OK
22:13.7,-283.01,81.79,-924.22,82.22,-44,22,82,1,OK
22:13.7,-274.69,81.79,-980.56,82.22,-44,22,82,1,OK
22:13.8,-266.47,81.79,-995.63,82.22,-44,22,82,1,OK
22:13.8,-259.36,81.79,-973.72,82.22,-44,22,82,1,OK
22:13.8,-250.91,81.79,-920.26,82.22,-44,22,82,1,OK
22:13.8,-248.34,81.79,-844.72,82.22,-44,22,82,1,OK
22:13.8,-247.35,81.79,-765.25,82.22,-44,22,82,1,OK
22:13.8,-246.3,81.79,-686,82.22,-44,22,82,1,OK
22:13.8,-249.16,81.79,-608.09,82.22,-44,22,82,1,OK
22:13.8,-253,81.79,-532.43,87.51,-44,22,82,1,OK
22:13.8,-258.23,81.79,-459.87,87.51,-44,22,82,1,OK
22:13.8,-266.94,81.79,-391.17,87.51,-44,22,82,1,OK
22:13.9,-275.8,81.79,-326.55,87.51,-44,22,82,1,OK
22:13.9,-283.97,81.79,-266.16,87.51,-44,22,82,1,OK
22:13.9,-293.92,81.79,-210.43,87.51,-44,22,82,1,OK
22:13.9,-301.12,81.79,-160.12,87.51,-44,22,82,1,OK
22:13.9,-303.74,81.79,-115.91,87.51,-44,22,82,1,OK
22:13.9,-306.13,81.79,-78.71,87.51,-44,22,82,1,OK
22:13.9,-306.16,81.79,-49.24,87.51,-44,22,82,1,OK
22:13.9,-301.95,81.79,-27.69,87.51,-44,22,82,1,OK
22:13.9,-297.09,81.79,-13.61,87.51,-44,22,82,1,OK
22:14.0,-291.08,81.79,-5.45,87.51,-44,22,82,1,OK
22:14.0,-284.76,81.79,-1.5,87.51,-44,22,82,1,OK
22:14.0,-274.97,81.79,-0.16,87.51,-44,22,82,1,OK
22:14.0,-266.37,81.79,0,87.51,-44,22,82,1,OK
22:14.0,-253.3,81.79,0,87.51,-44,22,82,1,OK
22:14.0,-243.3,81.79,0,87.51,nan,22,82,1,SKIP
22:14.0,-228.62,81.79,0,87.51,nan,22,82,1,SKIP
22:14.0,-215.99,81.79,0,87.51,nan,22,82,1,SKIP
22:14.0,-200.07,81.79,0,87.51,nan,22,82,1,SKIP
22:14.1,-185.7,81.79,0,87.51,nan,22,82,1,SKIP
22:14.1,-166.57,81.79,0,87.51,nan,22,82,1,SKIP
22:14.1,-147.95,81.79,0,87.51,nan,22,82,1,SKIP
22:14.1,-121.88,81.79,0,87.51,nan,22,82,1,SKIP
22:14.1,-89.13,81.79,0,87.51,nan,22,82,1,SKIP
22:14.1,-45.29,81.3,0,87.51,nan,22,82,1,SKIP
22:14.1,15.22,81.3,11.4,87.51,nan,22,82,1,SKIP
22:14.1,94.78,81.3,42.15,87.51,nan,22,82,1,SKIP
22:14.1,188.09,81.3,92.91,87.51,nan,22,82,1,SKIP
22:14.1,294.17,81.3,165.2,87.51,nan,22,82,1,SKIP
22:14.2,407.11,81.3,260.21,87.51,nan,22,82,1,SKIP
22:14.2,517.11,81.3,365.13,87.51,nan,22,82,1,SKIP
22:14.2,617.85,81.3,470.98,106.28,70,22,82,1,OK
22:14.2,706.16,81.3,579.85,106.28,70,22,82,1,OK
22:14.2,776.91,81.3,689.33,106.28,70,22,82,1,OK
22:14.2,824.61,81.3,796.54,106.28,70,22,82,1,OK
22:14.2,851.13,81.3,897.78,106.28,70,22,82,1,OK
22:14.2,854.88,81.3,989.15,106.28,70,22,82,1,OK
22:14.2,838.07,81.3,1063.34,106.28,70,22,82,1,OK
22:14.3,800.84,81.3,1118.18,106.28,70,22,82,1,OK
22:14.3,749.79,81.3,1148.41,106.28,70,22,82,1,OK
22:14.3,686.24,81.3,1154.02,106.28,70,22,82,1,OK
22:14.3,613.7,81.3,1138.66,106.28,70,22,82,1,OK
22:14.3,533.86,81.3,1101.47,106.28,70,22,82,1,OK
22:14.3,449.88,81.3,1050.04,106.28,70,22,82,1,OK
22:14.3,363.34,81.3,985.53,106.28,70,22,82,1,OK
22:14.3,277.44,81.3,919.36,106.28,70,22,82,1,OK
22:14.3,193.75,81.3,857.16,106.28,70,22,82,1,OK
22:14.4,111.33,81.3,806.88,106.28,70,22,82,1,OK
22:14.4,33.52,81.3,766.55,106.28,70,22,82,1,OK
22:14.4,-37.47,81.3,747.01,106.28,70,22,82,1,OK
22:14.4,-102.26,81.3,748.48,106.28,70,22,82,1,OK
22:14.4,-159.27,81.3,761.23,106.28,70,22,82,1,OK
22:14.4,-204.52,81.3,784.88,106.28,70,22,82,1,OK
22:14.4,-240.42,81.3,817.83,106.28,70,22,82,1,OK
22:14.4,-267.53,81.3,851.97,106.28,70,22,82,1,OK
22:14.4,-285.23,81.3,876.01,106.28,70,22,82,1,OK
22:14.4,-296.16,81.3,890.84,106.28,70,22,82,1,OK
22:14.5,-303.19,81.3,889.91,106.28,70,22,82,1,OK
22:14.5,-303.06,81.3,872.96,106.28,70,22,82,1,OK
22:14.5,-299.46,81.3,838.12,106.28,70,22,82,1,OK
22:14.5,-295.91,81.3,787.94,106.28,70,22,82,1,OK
22:14.5,-291.26,81.3,732.01,106.28,70,22,82,1,OK
22:14.5,-284.21,81.3,667.55,106.28,70,22,82,1,OK
22:14.5,-281.79,81.3,590.73,106.28,70,22,82,1,OK
22:14.5,-281.34,81.3,504.79,106.28,70,22,82,1,OK
22:14.5,-282.9,81.3,408.6,106.28,70,22,82,1,OK
22:14.6,-285.74,81.3,297.18,106.28,70,22,82,1,OK
22:14.6,-291.37,81.3,174.02,106.28,70,22,82,1,OK
22:14.6,-297.51,81.3,46.74,106.28,70,22,82,1,OK
22:14.6,-306.49,81.3,-80.46,106.28,70,22,82,1,OK
22:14.6,-312.97,81.3,-201.98,106.28,70,22,82,1,OK
22:14.6,-319.98,81.3,-318.81,106.28,70,22,82,1,OK
22:14.6,-328.47,81.3,-419.9,106.28,70,22,82,1,OK
22:14.6,-334.86,81.3,-507.93,106.28,70,22,82,1,OK
22:14.6,-337.25,81.3,-582.24,106.28,70,22,82,1,OK
22:14.7,-342.69,81.3,-642.05,106.28,70,22,82,1,OK
22:14.7,-346.73,81.3,-685.69,106.28,70,22,82,1,OK
22:14.7,-351.13,81.3,-718.24,106.28,70,22,82,1,OK
22:14.7,-352.97,81.3,-739.86,106.28,70,22,82,1,OK
22:14.7,-353.8,81.3,-753.33,106.28,70,22,82,1,OK
22:14.7,-348.02,81.3,-758.94,106.28,70,22,82,1,OK
22:14.7,-338.8,81.3,-756.33,106.28,70,22,82,1,OK
22:14.7,-323.37,81.3,-747.4,106.28,70,22,82,1,OK
22:14.7,-304.97,81.3,-730.2,106.28,70,22,82,1,OK
22:14.8,-283.9,81.3,-706.95,106.28,70,22,82,1,OK
22:14.8,-263.88,81.3,-679.32,106.28,70,22,82,1,OK
22:14.8,-241.95,81.3,-647.54,106.28,70,22,82,1,OK
22:14.8,-221.65,81.3,-615.59,106.28,70,22,82,1,OK
22:14.8,-201.29,83.15,-587.16,106.28,70,22,82,1,OK
22:14.8,-178.06,83.15,-559.56,109.51,11,22,82,1,OK
22:14.8,-147.13,83.15,-536.88,109.51,11,22,82,1,OK
22:14.8,-107.12,83.15,-519.68,109.51,11,22,82,1,OK
22:14.8,-49.59,83.15,-509.86,109.51,11,22,82,1,OK
22:14.9,24.67,83.15,-512.77,109.51,11,22,82,1,OK
22:14.9,117.24,83.15,-537.03,109.51,11,22,82,1,OK
22:14.9,227.3,83.15,-585.18,109.51,11,22,82,1,OK
22:14.9,348.52,83.15,-653.54,109.51,11,22,82,1,OK
22:14.9,470.76,83.15,-734.18,109.51,11,22,82,1,OK
22:14.9,587.54,83.15,-813.77,109.51,11,22,82,1,OK
22:14.9,690.72,83.15,-876.1,109.51,11,22,82,1,OK
22:14.9,768.89,83.15,-907.66,109.51,11,22,82,1,OK
22:14.9,820.24,83.15,-905.32,109.51,11,22,82,1,OK
22:15.0,844.21,83.15,-866.81,109.51,11,22,82,1,OK
22:15.0,839.06,83.15,-798.08,109.51,11,22,82,1,OK
22:15.0,806.63,83.15,-705.49,109.51,11,22,82,1,OK
22:15.0,753.69,83.15,-595.37,109.51,11,22,82,1,OK
22:15.0,681.37,83.15,-479.24,109.51,11,22,82,1,OK
22:15.0,594.43,83.15,-360.42,109.51,11,22,82,1,OK
22:15.0,499.42,83.15,-243.19,109.51,11,22,82,1,OK
22:15.0,399.71,83.15,-129.19,109.51,11,22,82,1,OK
22:15.0,297.27,83.15,-16.19,109.51,11,22,82,1,OK
22:15.1,196.58,83.15,108.34,109.51,11,22,82,1,OK
22:15.1,97.09,83.15,245.87,109.51,11,22,82,1,OK
22:15.1,2.53,83.15,402.94,109.51,11,22,82,1,OK
22:15.1,-85.08,83.15,583.84,109.51,11,22,82,1,OK
22:15.1,-161.26,83.15,781.66,109.51,11,22,82,1,OK
22:15.1,-229.57,83.15,985.62,109.51,11,22,82,1,OK
22:15.1,-283.18,83.15,1190.65,109.51,11,22,82,1,OK
22:15.1,-321.61,83.15,1385.46,109.51,11,22,82,1,OK
22:15.1,-349.01,83.15,1564.12,109.51,11,22,82,1,OK
22:15.2,-364.65,83.15,1721.95,128.89,11,22,82,1,OK
22:15.2,-366.33,83.15,1859.56,128.89,11,22,82,1,OK
22:15.2,-357.64,83.15,1975.35,128.89,11,22,82,1,OK
22:15.2,-343.36,83.15,2058.37,128.89,11,22,82,1,OK
22:15.2,-324.09,83.15,2076.43,128.89,11,22,82,1,OK
22:15.2,-300.94,83.15,2038.03,128.89,11,22,82,1,OK
22:15.2,-276.35,83.15,1945.74,128.89,11,22,82,1,OK
22:15.2,-255.34,83.15,1804.1,128.89,11,22,82,1,OK
22:15.2,-236.14,83.15,1631.81,128.89,11,22,82,1,OK
22:15.3,-218.28,83.15,1462.99,128.89,11,22,82,1,OK
22:15.3,-210.01,91.24,1297.89,128.89,-110,22,86,1,OK
22:15.3,-207.38,91.24,1137.44,128.89,-110,22,86,1,OK
22:15.3,-206.91,91.24,982.71,128.89,-110,22,86,1,OK
22:15.3,-211.25,91.24,835.2,128.89,-110,22,86,1,OK
22:15.3,-220.59,91.24,696.77,128.89,-110,22,86,1,OK
22:15.3,-227.33,91.24,569.08,128.89,-110,22,86,1,OK
22:15.3,-236.83,91.24,453.37,128.89,-110,22,86,1,OK
22:15.3,-246.82,91.24,350.72,128.89,-110,22,86,1,OK
22:15.4,-256.81,91.24,261.68,128.89,-110,22,86,1,OK
22:15.4,-263.47,91.24,163.11,128.89,-110,22,86,1,OK
22:15.4,-270.01,91.24,43.43,128.89,-110,22,86,1,OK
22:15.4,-270.93,91.24,-94.84,128.89,-110,22,86,1,OK
22:15.4,-270.61,91.24,-248.84,128.89,-110,22,86,1,OK
22:15.4,-267.86,91.24,-414.56,128.89,-110,22,86,1,OK
22:15.4,-263.6,91.24,-564.33,128.89,-110,22,86,1,OK
22:15.4,-257.37,91.24,-686.39,128.89,-110,22,86,1,OK
22:15.4,-251.46,91.24,-777.74,128.89,-110,22,86,1,OK
22:15.5,-245.79,91.24,-840.57,128.89,-110,22,86,1,OK
22:15.5,-239.61,91.24,-882.95,128.89,-110,22,86,1,OK
22:15.5,-231.98,91.24,-907.74,128.89,-110,22,86,1,OK
22:15.5,-223.38,91.24,-914.65,128.89,-110,22,86,1,OK
22:15.5,-210.11,91.24,-914.46,128.89,-110,22,86,1,OK
22:15.5,-188.12,91.24,-905.07,128.89,-110,22,86,1,OK
22:15.5,-155.82,91.24,-884.12,128.89,-110,22,86,1,OK
22:15.5,-107.96,91.24,-859.08,128.89,-110,22,86,1,OK
22:15.5,-41.7,91.24,-830.97,128.89,-110,22,86,1,OK
22:15.5,40.02,91.24,-792.97,128.89,-110,22,86,1,OK
22:15.6,135.21,91.24,-747.93,128.89,-110,22,86,1,OK
22:15.6,239.66,91.24,-691.35,128.89,-110,22,86,1,OK
22:15.6,340.57,91.24,-617.55,138.37,-110,22,86,1,OK
22:15.6,430.17,91.24,-528.75,138.37,-110,22,86,1,OK
22:15.6,505.16,111.89,-427.92,138.37,-22,16.5,82,1,OK
22:15.6,558.98,111.89,-317.57,138.37,-22,16.5,82,1,OK
22:15.6,587.02,111.89,-206.13,138.37,-22,16.5,82,1,OK
22:15.6,595.17,111.89,-96.59,138.37,-22,16.5,82,1,OK
22:15.6,582.63,111.89,3.8,138.37,-22,16.5,82,1,OK
22:15.7,549.33,111.89,97.25,138.37,-22,16.5,82,1,OK
22:15.7,501.15,111.89,179.32,138.37,-22,16.5,82,1,OK
22:15.7,440.9,111.89,250.7,138.37,-22,16.5,82,1,OK
22:15.7,369.24,111.89,311.6,138.37,-22,16.5,82,1,OK
22:15.7,293.67,111.89,368.96,138.37,-22,16.5,82,1,OK
22:15.7,218.5,111.89,419.18,138.37,-22,16.5,82,1,OK
22:15.7,143.89,111.89,463.15,138.37,-22,16.5,82,1,OK
22:15.7,73.94,111.89,502.63,138.37,-22,16.5,82,1,OK
22:15.8,10.23,111.89,533.43,138.37,-22,16.5,82,1,OK
22:15.8,-48.55,111.89,552.86,138.37,-22,16.5,82,1,OK
22:15.8,-98.36,111.89,552.66,138.37,-22,16.5,82,1,OK
22:15.8,-140.5,111.89,534.41,138.37,-22,16.5,82,1,OK
22:15.8,-172.91,111.89,492.31,138.37,-22,16.5,82,1,OK
22:15.8,-196.33,111.89,426.83,138.37,-22,16.5,82,1,OK
22:15.8,-210.72,111.89,341.4,138.37,-22,16.5,82,1,OK
22:15.8,-217.21,111.89,244.69,138.37,-22,16.5,82,1,OK
22:15.8,-213.85,111.89,141.61,138.37,-22,16.5,82,1,OK
22:15.8,-205.21,111.89,37.92,138.37,-22,16.5,82,1,OK
22:15.9,-190.5,111.89,-57.94,138.37,-22,16.5,82,1,OK
22:15.9,-170.06,111.89,-145.16,138.37,-22,16.5,82,1,OK
22:15.9,-150.78,111.89,-220.81,138.37,-22,16.5,82,1,OK
22:15.9,-131.39,111.89,-287.14,138.37,-22,16.5,82,1,OK
22:15.9,-112.89,111.89,-340.61,138.37,-22,16.5,82,1,OK
22:15.9,-97.78,111.89,-384.37,138.37,-22,16.5,82,1,OK
22:15.9,-88.29,111.89,-419.02,138.37,-22,16.5,82,1,OK
22:15.9,-82.73,111.89,-445.7,138.37,-22,16.5,82,1,OK
22:15.9,-82.74,111.89,-463.57,138.37,-22,16.5,82,1,OK
22:16.0,-86.84,111.89,-474.43,138.37,-22,16.5,82,1,OK
22:16.0,-96.23,111.89,-478.69,138.37,-22,16.5,82,1,OK
22:16.0,-107.21,111.89,-475.95,138.37,-22,16.5,82,1,OK
22:16.0,-120.28,111.89,-465.75,138.37,-22,16.5,82,1,OK
22:16.0,-133.54,111.89,-452.23,138.37,-22,16.5,82,1,OK
22:16.0,-146.44,111.89,-435.55,138.37,-22,16.5,82,1,OK
22:16.0,-156.78,111.89,-417.14,138.37,-22,16.5,82,1,OK
22:16.0,-164.16,111.89,-398.16,138.37,-22,16.5,82,1,OK
22:16.0,-169.94,111.89,-381.51,138.37,-22,16.5,82,1,OK
22:16.1,-174.5,111.89,-365.44,138.37,-22,16.5,82,1,OK
22:16.1,-175.51,111.89,-353.59,138.37,-22,16.5,82,1,OK
22:16.1,-175.61,111.89,-346.37,140.8,-22,16.5,82,1,OK
22:16.1,-176.5,111.89,-342.03,140.8,-22,16.5,82,1,OK
22:16.1,-173.43,111.89,-340.84,140.8,-22,16.5,82,1,OK
22:16.1,-169.59,111.89,-345.42,140.8,-22,16.5,82,1,OK
22:16.1,-166.51,111.89,-350.25,140.8,-22,16.5,82,1,OK
22:16.1,-160.23,111.89,-353.82,140.8,-22,16.5,82,1,OK
22:16.1,-148.44,111.89,-358.9,140.8,-22,16.5,82,1,OK
22:16.2,-129.08,111.89,-362.84,140.8,-22,16.5,82,1,OK
22:16.2,-97.27,111.89,-363.26,140.8,-22,16.5,82,1,OK
22:16.2,-48.93,111.89,-359.7,140.8,-22,16.5,82,1,OK
22:16.2,19.68,111.89,-351.17,140.8,-22,16.5,82,1,OK
22:16.2,108.8,111.89,-333.28,140.8,-22,16.5,82,1,OK
22:16.2,215.89,113.54,-305.23,140.8,-132,11,77,1,OK
22:16.2,334.76,113.54,-260.75,140.8,-132,11,77,1,OK
22:16.2,459.12,113.54,-197.49,140.8,-132,11,77,1,OK
22:16.2,576.42,113.54,-119.36,140.8,-132,11,77,1,OK
22:16.3,679.89,113.54,-24.04,140.8,-132,11,77,1,OK
22:16.3,760.58,113.54,79.87,140.8,-132,11,77,1,OK
22:16.3,817.79,113.54,185.8,140.8,-132,11,77,1,OK
22:16.3,847.03,113.54,285.42,140.8,-132,11,77,1,OK
22:16.3,853.84,113.54,376.86,140.8,-132,11,77,1,OK
22:16.3,836.97,113.54,451.58,140.8,-132,11,77,1,OK
22:16.3,801.42,113.54,511.34,140.8,-132,11,77,1,OK
22:16.3,747.65,113.54,554.26,140.8,-132,11,77,1,OK
22:16.3,680.24,113.54,580.16,140.8,-132,11,77,1,OK
22:16.4,604.35,113.54,592.58,140.8,-132,11,77,1,OK
22:16.4,521.82,113.54,591.34,140.8,-132,11,77,1,OK
22:16.4,435.51,113.54,579.08,140.8,-132,11,77,1,OK
22:16.4,348.65,113.54,558.26,140.8,-132,11,77,1,OK
22:16.4,264.04,113.54,529.75,140.8,-132,11,77,1,OK
22:16.4,177.05,113.54,492.94,140.8,-132,11,77,1,OK
22:16.4,93.32,113.54,450.37,140.8,-132,11,77,1,OK
22:16.4,13.66,113.54,401.13,140.8,-132,11,77,1,OK
22:16.4,-60.21,113.54,346.85,140.8,-132,11,77,1,OK
22:16.5,-125.17,113.54,289.12,140.8,-132,11,77,1,OK
22:16.5,-178.47,113.54,228.23,140.8,-132,11,77,1,OK
22:16.5,-220.52,113.54,170.2,140.8,-132,11,77,1,OK
22:16.5,-253.17,113.54,119.66,140.8,-132,11,77,1,OK
22:16.5,-275.83,113.54,71.8,140.8,-132,11,77,1,OK
22:16.5,-290.18,113.54,33.26,140.8,-132,11,77,1,OK
22:16.5,-299.17,113.54,5.88,140.8,-132,11,77,1,OK
22:16.5,-302.53,113.54,-14.57,140.8,-132,11,77,1,OK
22:16.5,-300.43,113.54,-27.13,140.8,-132,11,77,1,OK
22:16.6,-294.81,113.54,-28.56,140.8,-132,11,77,1,OK
22:16.6,-290.59,113.54,-26.13,140.8,-132,11,77,1,OK
22:16.6,-285.97,113.54,-19.6,140.8,-132,11,77,1,OK
22:16.6,-282.24,113.54,-10.32,140.8,-132,11,77,1,OK
22:16.6,-279.2,113.54,-2.53,140.8,-132,11,77,1,OK
22:16.6,-279.78,113.54,1.35,140.8,-132,11,77,1,OK
22:16.6,-280.4,113.54,4.17,140.8,-132,11,77,1,OK
22:16.6,-278.73,113.54,2.3,140.8,-132,11,77,1,OK
22:16.6,-280.35,113.54,-3.63,140.8,-132,11,77,1,OK
22:16.7,-282.8,113.54,-14.44,140.8,-132,11,77,1,OK
22:16.7,-283.15,113.54,-26.33,140.8,-132,11,77,1,OK
22:16.7,-282.88,113.54,-41.39,140.8,-132,11,77,1,OK
22:16.7,-285.73,113.54,-64.32,140.8,-132,11,77,1,OK
22:16.7,-287.83,113.54,-88.13,140.8,-132,11,77,1,OK
22:16.7,-287.83,113.54,-113.77,140.8,-132,11,77,1,OK
22:16.7,-287.98,113.54,-141.07,140.8,-132,11,77,1,OK
22:16.7,-287.2,113.54,-171.05,140.8,-132,11,77,1,OK
22:16.7,-285.7,113.54,-194.48,140.8,-132,11,77,1,OK
22:16.7,-279.43,113.54,-217.4,140.8,-132,11,77,1,OK
22:16.8,-273.82,113.54,-236.53,140.8,-132,11,77,1,OK
22:16.8,-267.04,113.54,-255,140.8,-132,11,77,1,OK
22:16.8,-258.33,113.54,-264.5,140.8,-132,11,77,1,OK
22:16.8,-246.68,113.54,-269.65,140.8,-132,11,77,1,OK
22:16.8,-235.18,113.54,-268.42,140.8,-132,11,77,1,OK
22:16.8,-219.72,113.54,-262.32,140.8,-132,11,77,1,OK
22:16.8,-196.75,113.54,-248.55,140.8,-132,11,77,1,OK
22:16.8,-163.32,113.54,-233.26,140.8,-132,11,77,1,OK
22:16.8,-113.86,113.54,-212.79,140.8,-132,11,77,1,OK
22:16.9,-43.4,113.54,-190.69,140.8,-132,11,77,1,OK
22:16.9,48.85,116.4,-163.55,140.8,-132,11,77,1,OK
22:16.9,161.26,116.4,-127.39,140.8,-132,11,77,1,OK
22:16.9,285.12,116.4,-82.55,140.8,-132,11,77,1,OK
22:16.9,414.57,116.4,-24.12,120.76,33,16.5,77,1,OK
22:16.9,537.35,116.4,48.29,120.76,33,16.5,77,1,OK
22:16.9,645.68,116.4,134.56,120.76,33,16.5,77,1,OK
22:16.9,732.26,116.4,227.31,120.76,33,16.5,77,1,OK
22:16.9,794.99,116.4,320.18,120.76,33,16.5,77,1,OK
22:17.0,829.25,116.4,405.28,120.76,33,16.5,77,1,OK
22:17.0,839.85,116.4,480.33,120.76,33,16.5,77,1,OK
22:17.0,827.15,116.4,537.63,120.76,33,16.5,77,1,OK
22:17.0,794.1,116.4,575.23,120.76,33,16.5,77,1,OK
22:17.0,746.83,116.4,594.59,120.76,33,16.5,77,1,OK
22:17.0,688.98,116.4,595.97,120.76,33,16.5,77,1,OK
22:17.0,620.09,116.4,581.29,120.76,33,16.5,77,1,OK
22:17.0,544.53,116.4,555.78,120.76,33,16.5,77,1,OK
22:17.0,467.45,116.4,515.11,120.76,33,16.5,77,1,OK
22:17.1,384.83,116.4,470.31,120.76,33,16.5,77,1,OK
22:17.1,300.82,116.4,418.21,120.76,33,16.5,77,1,OK
22:17.1,216.51,116.4,366.12,120.76,33,16.5,77,1,OK
22:17.1,133.69,116.4,301.62,120.76,33,16.5,77,1,OK
22:17.1,50.13,116.4,240.93,120.76,33,16.5,77,1,OK
22:17.1,-28.42,116.4,173.85,120.76,33,16.5,77,1,OK
22:17.1,-101.82,116.4,109.86,120.76,33,16.5,77,1,OK
22:17.1,-168.22,116.4,39.65,120.76,33,16.5,77,1,OK
22:17.1,-223.41,116.4,-23.27,120.76,33,16.5,77,1,OK
22:17.2,-268.94,116.4,-82.69,120.76,33,16.5,77,1,OK
22:17.2,-303.43,116.4,-134.1,120.76,33,16.5,77,1,OK
22:17.2,-328.38,116.4,-181.78,120.76,33,16.5,77,1,OK
22:17.2,-345.29,116.4,-220.41,120.76,33,16.5,77,1,OK
22:17.2,-355.67,116.4,-249.93,120.76,33,16.5,77,1,OK
22:17.2,-358.44,116.4,-274.82,120.76,33,16.5,77,1,OK
22:17.2,-357.3,116.4,-292.51,120.76,33,16.5,77,1,OK
22:17.2,-353.18,116.4,-305.57,120.76,33,16.5,77,1,OK
22:17.2,-345.9,116.4,-313.58,120.76,33,16.5,77,1,OK
22:17.3,-339.5,116.4,-318.23,120.76,33,16.5,77,1,OK
22:17.3,-333.23,116.4,-319.52,120.76,33,16.5,77,1,OK
22:17.3,-327.96,116.4,-321.51,120.76,33,16.5,77,1,OK
22:17.3,-323.24,116.4,-320.08,120.76,33,16.5,77,1,OK
22:17.3,-321.14,116.4,-322.19,120.76,33,16.5,77,1,OK
22:17.3,-320.01,116.4,-323.52,120.76,33,16.5,77,1,OK
22:17.3,-320.58,116.4,-324.72,120.76,33,16.5,77,1,OK
22:17.3,-321.81,116.4,-326.01,120.76,33,16.5,77,1,OK
22:17.3,-324.09,116.4,-329.85,120.76,33,16.5,77,1,OK
22:17.4,-327.34,116.4,-330.75,120.76,33,16.5,77,1,OK
22:17.4,-329.36,116.4,-332.02,120.76,33,16.5,77,1,OK
22:17.4,-331.14,116.4,-333.8,120.76,33,16.5,77,1,OK
22:17.4,-332.17,116.4,-335.07,120.76,33,16.5,77,1,OK
22:17.4,-333.68,116.4,-335.08,120.76,33,16.5,77,1,OK
22:17.4,-332.48,116.4,-335.51,120.76,33,16.5,77,1,OK
22:17.4,-331.07,116.4,-336.39,120.76,33,16.5,77,1,OK
22:17.4,-326.96,116.4,-336.6,120.76,33,16.5,77,1,OK
22:17.4,-322.87,116.4,-335.67,120.76,33,16.5,77,1,OK
22:17.5,-317.03,116.4,-333.43,120.76,33,16.5,77,1,OK
22:17.5,-309.62,116.4,-328.9,120.76,33,16.5,77,1,OK
22:17.5,-301.19,116.4,-321.59,120.76,33,16.5,77,1,OK
22:17.5,-291.28,116.4,-310.43,120.76,33,16.5,77,1,OK
22:17.5,-281.2,116.4,-297.08,120.76,33,16.5,77,1,OK
22:17.5,-268.75,116.4,-281.38,120.76,33,16.5,77,1,OK
22:17.5,-255.37,116.4,-264.87,120.76,33,16.5,77,1,OK
22:17.5,-240.26,116.4,-248.78,120.76,33,16.5,77,1,OK
22:17.5,-226.11,116.4,-231.66,120.76,33,16.5,77,1,OK
22:17.5,-202.31,116.4,-216.12,120.76,33,16.5,77,1,OK
22:17.6,-171.36,116.4,-200.21,120.76,33,16.5,77,1,OK
22:17.6,-121.78,116.4,-182.73,119.83,33,16.5,77,1,OK
22:17.6,-52.87,115.96,-161.19,119.83,-11,11,77,1,OK
22:17.6,42.58,115.96,-137.04,119.83,-11,11,77,1,OK
22:17.6,156.54,115.96,-102.31,119.83,-11,11,77,1,OK
22:17.6,286.38,115.96,-57.01,119.83,-11,11,77,1,OK
22:17.6,418.68,115.96,2.72,119.83,-11,11,77,1,OK
22:17.6,546.43,115.96,73.65,119.83,-11,11,77,1,OK
22:17.7,657,115.96,154.25,119.83,-11,11,77,1,OK
22:17.7,744.17,115.96,241.34,119.83,-11,11,77,1,OK
22:17.7,804.82,115.96,328.46,119.83,-11,11,77,1,OK
22:17.7,838.88,115.96,409.13,119.83,-11,11,77,1,OK
22:17.7,846.32,115.96,480.65,119.83,-11,11,77,1,OK
22:17.7,829.86,115.96,539.39,119.83,-11,11,77,1,OK
22:17.7,793.03,115.96,582.24,119.83,-11,11,77,1,OK
22:17.7,742.2,115.96,606.48,119.83,-11,11,77,1,OK
22:17.7,675.42,115.96,613.5,119.83,-11,11,77,1,OK
22:17.8,598.34,115.96,601.56,119.83,-11,11,77,1,OK
22:17.8,514.33,115.96,578.06,119.83,-11,11,77,1,OK
22:17.8,425.08,115.96,542.33,119.83,-11,11,77,1,OK
22:17.8,332.14,115.96,498.05,119.83,-11,11,77,1,OK
22:17.8,240.12,115.96,448.61,119.83,-11,11,77,1,OK
22:17.8,148.42,115.96,397.96,119.83,-11,11,77,1,OK
22:17.8,59.83,115.96,345.82,119.83,-11,11,77,1,OK
22:17.8,-24.2,115.96,289.33,119.83,-11,11,77,1,OK
22:17.8,-103.62,115.96,235.92,119.83,-11,11,77,1,OK
22:17.8,-174.78,115.96,182.28,119.83,-11,11,77,1,OK
22:17.9,-237.56,115.96,130.52,119.83,-11,11,77,1,OK
22:17.9,-288.31,115.96,81.13,119.83,-11,11,77,1,OK
22:17.9,-325.46,115.96,41.9,119.83,-11,11,77,1,OK
22:17.9,-351.2,115.96,9.11,119.83,-11,11,77,1,OK
22:17.9,-365.45,115.96,-17.29,119.83,-11,11,77,1,OK
22:17.9,-366.17,115.96,-34.08,119.83,-11,11,77,1,OK
22:17.9,-364.72,115.96,-45.46,119.83,-11,11,77,1,OK
22:17.9,-357.37,115.96,-53.16,119.83,-11,11,77,1,OK
22:17.9,-348.33,115.96,-56.75,119.83,-11,11,77,1,OK
22:18.0,-336.07,115.96,-61.15,119.83,-11,11,77,1,OK
22:18.0,-326.15,115.96,-63.97,119.83,-11,11,77,1,OK
22:18.0,-315.36,115.96,-69.1,119.83,-11,11,77,1,OK
22:18.0,-306.9,115.96,-76.13,119.83,-11,11,77,1,OK
22:18.0,-299.79,115.96,-88.9,119.83,-11,11,77,1,OK
22:18.0,-296.55,115.96,-103.31,119.83,-11,11,77,1,OK
22:18.0,-296.44,115.96,-125.93,119.83,-11,11,77,1,OK
22:18.0,-297.19,115.96,-149.9,119.83,-11,11,77,1,OK
22:18.0,-300.83,115.96,-178.39,119.83,-11,11,77,1,OK
22:18.1,-304.61,115.96,-206.28,119.83,-11,11,77,1,OK
22:18.1,-309.77,115.96,-233.29,119.83,-11,11,77,1,OK
22:18.1,-314.84,115.96,-257.77,119.83,-11,11,77,1,OK
22:18.1,-320.12,115.96,-279.32,119.83,-11,11,77,1,OK
22:18.1,-325.38,115.96,-296.63,119.83,-11,11,77,1,OK
22:18.1,-330.63,115.96,-311.88,119.83,-11,11,77,1,OK
22:18.1,-333.33,115.96,-323.91,119.83,-11,11,77,1,OK
22:18.1,-336.2,115.96,-331.63,119.83,-11,11,77,1,OK
22:18.1,-337,115.96,-340.84,119.83,-11,11,77,1,OK
22:18.2,-335.46,115.96,-347.03,119.83,-11,11,77,1,OK
22:18.2,-331.5,115.96,-349.09,119.83,-11,11,77,1,OK
22:18.2,-328.54,115.96,-349.42,119.83,-11,11,77,1,OK
22:18.2,-322.29,115.96,-348.63,119.83,-11,11,77,1,OK
22:18.2,-317.63,115.96,-341.78,119.83,-11,11,77,1,OK
22:18.2,-310.79,115.96,-333.85,119.83,-11,11,77,1,OK
22:18.2,-303.27,115.96,-326.92,119.83,-11,11,77,1,OK
22:18.2,-294.35,115.96,-319.16,119.83,-11,11,77,1,OK
22:18.2,-286.17,115.96,-312.04,119.83,-11,11,77,1,OK
22:18.3,-274.19,115.96,-305.69,119.83,-11,11,77,1,OK
22:18.3,-263.52,115.96,-300.02,119.83,-11,11,77,1,OK
22:18.3,-250.32,115.96,-294.14,119.83,-11,11,77,1,OK
22:18.3,-235.38,115.96,-287.38,119.83,-11,11,77,1,OK
22:18.3,-211.78,115.96,-282.06,119.83,-11,11,77,1,OK
22:18.3,-178.5,115.96,-279.02,119.83,-11,11,77,1,OK
22:18.3,-127.76,115.96,-277.09,119.83,-11,11,77,1,OK
22:18.3,-58.12,106.03,-274.31,119.83,-11,11,77,1,OK
22:18.3,35.27,106.03,-264.96,119.83,-11,11,77,1,OK
22:18.4,148.43,106.03,-245.28,119.83,-11,11,77,1,OK
22:18.4,276.11,106.03,-215.82,119.83,-11,11,77,1,OK
22:18.4,408.91,106.03,-169.88,119.83,-11,11,77,1,OK
22:18.4,538.07,106.03,-108.3,119.83,-11,11,77,1,OK
22:18.4,652.61,106.03,-39.06,119.83,-11,11,77,1,OK
22:18.4,745,106.03,33.24,99,77,16.5,82,1,OK
22:18.4,809.21,106.03,109.04,99,77,16.5,82,1,OK
22:18.4,845.27,106.03,180.72,99,77,16.5,82,1,OK
22:18.4,852.25,106.03,241.52,99,77,16.5,82,1,OK
22:18.5,833.18,106.03,290.83,99,77,16.5,82,1,OK
22:18.5,792.42,106.03,325.95,99,77,16.5,82,1,OK
22:18.5,733.45,106.03,345.67,99,77,16.5,82,1,OK
22:18.5,659.95,106.03,348.13,99,77,16.5,82,1,OK
22:18.5,577.17,106.03,336.78,99,77,16.5,82,1,OK
22:18.5,484.59,106.03,315.54,99,77,16.5,82,1,OK
22:18.5,387.06,106.03,287.66,99,77,16.5,82,1,OK
22:18.5,291.02,106.03,252.2,99,77,16.5,82,1,OK
22:18.5,195.08,106.03,214.6,99,77,16.5,82,1,OK
22:18.6,102.86,106.03,178.23,99,77,16.5,82,1,OK
22:18.6,20.26,106.03,139.94,99,77,16.5,82,1,OK
22:18.6,-55.35,106.03,102.86,99,77,16.5,82,1,OK
22:18.6,-120.53,106.03,69.43,99,77,16.5,82,1,OK
22:18.6,-174.11,106.03,38,99,77,16.5,82,1,OK
22:18.6,-215,106.03,6.67,99,77,16.5,82,1,OK
22:18.6,-244.81,106.03,-21.36,99,77,16.5,82,1,OK
22:18.6,-260.76,106.03,-46.46,99,77,16.5,82,1,OK
22:18.6,-268.78,106.03,-67.22,99,77,16.5,82,1,OK
22:18.6,-266.64,106.03,-83.8,99,77,16.5,82,1,OK
22:18.7,-258.1,106.03,-94.8,99,77,16.5,82,1,OK
22:18.7,-244.05,106.03,-103.14,99,77,16.5,82,1,OK
22:18.7,-229.22,106.03,-108.35,99,77,16.5,82,1,OK
22:18.7,-212.14,106.03,-112.38,99,77,16.5,82,1,OK
22:18.7,-197.77,106.03,-115.72,99,77,16.5,82,1,OK
22:18.7,-186.25,106.03,-120.82,99,77,16.5,82,1,OK
22:18.7,-178.17,106.03,-126.25,99,77,16.5,82,1,OK
22:18.7,-176.19,106.03,-134.7,99,77,16.5,82,1,OK
22:18.8,-177.61,106.03,-146.13,99,77,16.5,82,1,OK
22:18.8,-183.79,106.03,-161.76,99,77,16.5,82,1,OK
22:18.8,-194.76,106.03,-178.77,99,77,16.5,82,1,OK
22:18.8,-208.22,106.03,-199.59,99,77,16.5,82,1,OK
22:18.8,-221.79,106.03,-220.69,99,77,16.5,82,1,OK
22:18.8,-237.84,106.03,-243.74,99,77,16.5,82,1,OK
22:18.8,-252.5,106.03,-265.31,99,77,16.5,82,1,OK
22:18.8,-265.84,106.03,-286.09,99,77,16.5,82,1,OK
22:18.8,-278.17,106.03,-303.76,99,77,16.5,82,1,OK
22:18.9,-287.31,106.03,-319.39,99,77,16.5,82,1,OK
22:18.9,-295.41,106.03,-332.43,99,77,16.5,82,1,OK
22:18.9,-298.44,106.03,-342.75,99,77,16.5,82,1,OK
22:18.9,-298.96,106.03,-352.42,99,77,16.5,82,1,OK
22:18.9,-298.43,106.03,-360.68,99,77,16.5,82,1,OK
22:18.9,-293.29,106.03,-368.28,99,77,16.5,82,1,OK
22:18.9,-285.37,106.03,-372.01,99,77,16.5,82,1,OK
22:18.9,-276.82,106.03,-375.85,99,77,16.5,82,1,OK
22:18.9,-265.12,106.03,-373.61,99,77,16.5,82,1,OK
22:18.9,-250.56,106.03,-364.28,99,77,16.5,82,1,OK
22:19.0,-237.74,106.03,-349.33,99,77,16.5,82,1,OK
22:19.0,-221.98,106.03,-330.17,99,77,16.5,82,1,OK
22:19.0,-206.14,106.03,-303.1,99,77,16.5,82,1,OK
22:19.0,-186.5,106.03,-275.72,99,77,16.5,82,1,OK
22:19.0,-159.83,106.03,-248.17,99,77,16.5,82,1,OK
22:19.0,-119.93,106.03,-220.81,99,77,16.5,82,1,OK
22:19.0,-64.31,88.16,-190.29,90.51,77,16.5,82,1,OK
22:19.0,11.62,88.16,-160.12,90.51,77,16.5,82,1,OK
22:19.0,108.54,88.16,-124.74,90.51,77,16.5,82,1,OK
22:19.1,222.07,88.16,-80.48,90.51,77,16.5,82,1,OK
22:19.1,345.05,88.16,-23.74,90.51,77,16.5,82,1,OK
22:19.1,470.72,88.16,42.43,90.51,77,16.5,82,1,OK
22:19.1,588.08,88.16,118.53,90.51,77,16.5,82,1,OK
22:19.1,687.13,88.16,202.42,90.51,77,16.5,82,1,OK
22:19.1,762.31,88.16,286.18,90.51,77,16.5,82,1,OK
22:19.1,810.28,88.16,363.75,90.51,77,16.5,82,1,OK
22:19.1,828.79,88.16,430.87,90.51,77,16.5,82,1,OK
22:19.1,819.66,88.16,484.26,90.51,77,16.5,82,1,OK
22:19.2,785.77,88.16,520.01,90.51,77,16.5,82,1,OK
22:19.2,730.68,88.16,538.13,90.51,77,16.5,82,1,OK
22:19.2,659.51,88.16,540.91,90.51,77,16.5,82,1,OK
22:19.2,574.56,88.16,528.24,90.51,77,16.5,82,1,OK
22:19.2,481.16,88.16,504.84,90.51,77,16.5,82,1,OK
22:19.2,384.04,88.16,472.78,90.51,nan,16.5,82,1,SKIP
22:19.2,285.63,88.16,434.63,90.51,nan,16.5,82,1,SKIP
22:19.2,189.76,88.16,391.89,90.51,nan,16.5,82,1,SKIP
22:19.2,97.44,88.16,348.85,90.51,nan,16.5,82,1,SKIP
22:19.3,12.25,88.16,302.21,90.51,nan,16.5,82,1,SKIP
22:19.3,-64.91,88.16,254.66,90.51,nan,16.5,82,1,SKIP
22:19.3,-132.71,88.16,205,90.51,nan,16.5,82,1,SKIP
22:19.3,-189.2,88.16,156.72,90.51,nan,16.5,82,1,SKIP
22:19.3,-231.47,88.16,107.17,90.51,nan,16.5,82,1,SKIP
22:19.3,-261.48,88.16,59.64,90.51,nan,16.5,82,1,SKIP
22:19.3,-277.64,88.16,18.75,90.51,nan,16.5,82,1,SKIP
22:19.3,-280.7,88.16,-13.93,90.51,nan,16.5,82,1,SKIP
22:19.3,-273.37,88.16,-41.57,90.51,nan,16.5,82,1,SKIP
22:19.4,-257.71,88.16,-59.24,90.51,nan,16.5,82,1,SKIP
22:19.4,-236.1,88.16,-68.35,90.51,nan,16.5,82,1,SKIP
22:19.4,-213.07,88.16,-76.4,90.51,nan,16.5,82,1,SKIP
22:19.4,-190.01,88.16,-79.95,90.51,nan,16.5,82,1,SKIP
22:19.4,-171.3,88.16,-79.88,90.51,nan,16.5,82,1,SKIP
22:19.4,-157.07,88.16,-81.48,90.51,nan,16.5,82,1,SKIP
22:19.4,-147.04,88.16,-82.96,90.51,nan,16.5,82,1,SKIP
22:19.4,-143.03,97.81,-84.65,90.51,nan,16.5,82,1,SKIP
22:19.4,-144.4,97.81,-90.57,90.51,nan,16.5,82,1,SKIP
22:19.5,-149.44,97.81,-99.73,90.51,nan,16.5,82,1,SKIP
22:19.5,-158.99,97.81,-111.56,90.51,nan,16.5,82,1,SKIP
22:19.5,-171.82,97.81,-128.16,90.51,nan,16.5,82,1,SKIP
22:19.5,-186.2,97.81,-143.81,90.51,nan,16.5,82,1,SKIP
22:19.5,-200.47,97.81,-160.02,90.51,nan,16.5,82,1,SKIP
22:19.5,-216.03,97.81,-175.63,90.51,nan,16.5,82,1,SKIP
22:19.5,-230.08,97.81,-191.05,90.51,nan,16.5,82,1,SKIP
22:19.5,-240.8,97.81,-204.66,90.51,nan,16.5,82,1,SKIP
22:19.5,-250.33,97.81,-218.91,90.51,nan,16.5,82,1,SKIP
22:19.6,-257.63,97.81,-231.49,90.51,nan,16.5,82,1,SKIP
22:19.6,-259.87,97.81,-245.11,90.51,nan,16.5,82,1,SKIP
22:19.6,-260.09,97.81,-255.61,90.51,nan,16.5,82,1,SKIP
22:19.6,-260.46,97.81,-259.64,90.51,nan,16.5,82,1,SKIP
22:19.6,-257.88,97.81,-262.92,90.51,nan,16.5,82,1,SKIP
22:19.6,-254.18,97.81,-265.55,90.51,nan,16.5,82,1,SKIP
22:19.6,-250.53,97.81,-263.45,90.51,nan,16.5,82,1,SKIP
22:19.6,-245.37,97.81,-259.45,90.51,nan,16.5,82,1,SKIP
22:19.6,-237.77,97.81,-254.43,90.51,nan,16.5,82,1,SKIP
22:19.7,-228.47,97.81,-244.67,90.51,nan,16.5,82,1,SKIP
22:19.7,-216.83,97.81,-228.75,90.51,nan,16.5,82,1,SKIP
22:19.7,-203.51,97.81,-211.76,90.51,nan,16.5,82,1,SKIP
22:19.7,-188.25,97.81,-191.12,90.51,nan,16.5,82,1,SKIP
22:19.7,-169.25,97.81,-171.54,90.51,nan,16.5,82,1,SKIP
22:19.7,-140.75,97.81,-151.14,90.51,nan,16.5,82,1,SKIP
22:19.7,-98.56,97.81,-134.86,90.51,nan,16.5,82,1,SKIP
22:19.7,-39.39,97.81,-116.12,83.31,nan,16.5,82,1,SKIP
22:19.7,43.38,97.81,-93.82,83.31,nan,16.5,82,1,SKIP
22:19.8,148.27,97.81,-65.51,83.31,nan,16.5,82,1,SKIP
22:19.8,268.18,97.81,-29.01,83.31,nan,16.5,82,1,SKIP
22:19.8,395.02,114.82,22.01,83.31,-44,11,77,1,OK
22:19.8,522.92,114.82,82.36,83.31,-44,11,77,1,OK
22:19.8,638.15,114.82,156.2,83.31,-44,11,77,1,OK
22:19.8,731.93,114.82,236.97,83.31,-44,11,77,1,OK
