t_ms,trial_id,t_trial_ms,phase,red_raw,ir_raw,red_dc,ir_dc,red_ac,ir_ac,R,spo2,spo2_valid
368703,1,0,0,51345,56421,51710.61,56079.48,-365.61,341.52,0.527195,96.82,1
368743,1,40,0,51358,56464,51709.91,56080.25,-351.91,383.75,0.527577,96.82,1
368783,1,80,0,51372,56490,51709.23,56081.07,-337.23,408.93,0.527963,96.82,1
368823,1,120,0,51376,56488,51708.57,56081.89,-332.57,406.11,0.528355,96.82,1
368863,1,160,0,51376,56485,51707.90,56082.70,-331.90,402.30,0.528751,96.82,1
368903,1,200,0,51374,56471,51707.23,56083.48,-333.23,387.52,0.529153,96.82,1
368943,1,240,0,51362,56456,51706.55,56084.22,-344.55,371.78,0.529561,96.82,1
368983,1,280,0,51355,56463,51705.84,56084.98,-350.84,378.02,0.529977,96.82,1
369023,1,320,0,51349,56463,51705.13,56085.74,-356.13,377.26,0.530399,96.81,1
369063,1,360,0,51352,56471,51704.43,56086.51,-352.43,384.49,0.530829,96.81,1
369103,1,400,0,51347,56444,51703.71,56087.23,-356.71,356.77,0.531266,96.81,1
369143,1,440,0,51337,56428,51702.98,56087.91,-365.98,340.09,0.531713,96.81,1
369183,1,480,0,51332,56432,51702.24,56088.60,-370.24,343.40,0.532169,96.80,1
369223,1,520,0,51333,56438,51701.50,56089.30,-368.50,348.70,0.532634,96.80,1
369263,1,560,0,51334,56438,51700.77,56090.00,-366.77,348.00,0.533107,96.79,1
369303,1,600,0,51333,56441,51700.04,56090.70,-367.04,350.30,0.533589,96.79,1
369343,1,640,0,51331,56438,51699.30,56091.40,-368.30,346.60,0.534080,96.79,1
369383,1,680,0,51329,56435,51698.56,56092.09,-369.56,342.91,0.534580,96.78,1
369423,1,720,0,51327,56441,51697.82,56092.79,-370.82,348.21,0.535089,96.78,1
369463,1,760,0,51331,56437,51697.09,56093.48,-366.09,343.52,0.535606,96.77,1
369503,1,800,0,51329,56438,51696.35,56094.17,-367.35,343.83,0.536131,96.77,1
369543,1,840,0,51326,56434,51695.61,56094.85,-369.61,339.15,0.536665,96.76,1
369583,1,880,0,51321,56419,51694.87,56095.50,-373.87,323.50,0.537209,96.76,1
369623,1,920,0,51316,56412,51694.11,56096.13,-378.11,315.87,0.537762,96.75,1
369663,1,960,0,51309,56409,51693.34,56096.76,-384.34,312.24,0.538326,96.74,1
369703,1,1000,0,51302,56407,51692.56,56097.38,-390.56,309.62,0.538902,96.74,1
369743,1,1040,0,51294,56407,51691.76,56098.00,-397.76,309.00,0.539489,96.73,1
369783,1,1080,0,51298,56393,51690.98,56098.59,-392.98,294.41,0.540088,96.72,1
369823,1,1120,0,51278,56351,51690.15,56099.10,-412.15,251.90,0.540701,96.72,1
369863,1,1160,0,51264,56342,51689.30,56099.59,-425.30,242.41,0.541331,96.71,1
369903,1,1200,0,51258,56345,51688.44,56100.08,-430.44,244.92,0.541977,96.70,1
369943,1,1240,0,51255,56336,51687.57,56100.55,-432.57,235.45,0.542640,96.69,1
369983,1,1280,0,51249,56326,51686.70,56101.00,-437.70,225.00,0.543320,96.68,1
370023,1,1320,0,51249,56333,51685.82,56101.47,-436.82,231.53,0.544018,96.68,1
370063,1,1360,0,51246,56336,51684.95,56101.94,-438.95,234.06,0.544732,96.67,1
370103,1,1400,0,51243,56332,51684.06,56102.40,-441.06,229.60,0.545464,96.66,1
370143,1,1440,0,51242,56326,51683.18,56102.85,-441.18,223.15,0.546214,96.65,1
370183,1,1480,0,51244,56333,51682.30,56103.31,-438.30,229.69,0.546980,96.64,1
370223,1,1520,0,51243,56348,51681.42,56103.80,-438.42,244.20,0.547762,96.63,1
370263,1,1560,0,51249,56369,51680.56,56104.33,-431.56,264.67,0.548559,96.62,1
370303,1,1600,0,51253,56370,51679.70,56104.86,-426.70,265.14,0.549370,96.61,1
370343,1,1640,0,51252,56352,51678.85,56105.36,-426.85,246.64,0.550197,96.60,1
370383,1,1680,0,51228,56314,51677.95,56105.78,-449.95,208.22,0.551041,96.59,1
370423,1,1720,0,51209,56317,51677.01,56106.20,-468.01,210.80,0.551905,96.57,1
370463,1,1760,0,51219,56295,51676.10,56106.58,-457.10,188.42,0.552788,96.56,1
370503,1,1800,0,51207,56277,51675.16,56106.93,-468.16,170.07,0.553692,96.55,1
370543,1,1840,0,51205,56264,51674.22,56107.24,-469.22,156.76,0.554617,96.54,1
370583,1,1880,0,51195,56239,51673.27,56107.51,-478.27,131.49,0.555564,96.53,1
370623,1,1920,0,51173,56210,51672.27,56107.71,-499.27,102.29,0.556536,96.51,1
370663,1,1960,0,51160,56225,51671.24,56107.95,-511.24,117.05,0.557535,96.50,1
370703,1,2000,0,51174,56252,51670.25,56108.24,-496.25,143.76,0.558558,96.48,1
370743,1,2040,0,51194,56258,51669.30,56108.54,-475.30,149.46,0.559601,96.47,1
370783,1,2080,0,51190,56242,51668.34,56108.81,-478.34,133.19,0.560667,96.46,1
370823,1,2120,0,51168,56220,51667.34,56109.03,-499.34,110.97,0.561757,96.44,1
370863,1,2160,0,51156,56231,51666.32,56109.28,-510.32,121.72,0.562872,96.43,1
370903,1,2200,0,51161,56251,51665.32,56109.56,-504.32,141.44,0.564012,96.41,1
370943,1,2240,0,51172,56256,51664.33,56109.86,-492.33,146.14,0.565174,96.39,1
370983,1,2280,0,51164,56245,51663.33,56110.13,-499.33,134.87,0.566360,96.38,1
371023,1,2320,0,51151,56244,51662.31,56110.40,-511.31,133.60,0.567571,96.36,1
371063,1,2360,0,51153,56257,51661.29,56110.69,-508.29,146.31,0.568805,96.34,1
371103,1,2400,0,51156,56260,51660.29,56110.99,-504.29,149.01,0.570063,96.32,1
371143,1,2440,0,51152,56229,51659.27,56111.23,-507.27,117.77,0.571345,96.31,1
371183,1,2480,0,51144,56235,51658.24,56111.48,-514.24,123.52,0.572653,96.29,1
371223,1,2520,0,51156,56256,51657.24,56111.77,-501.24,144.23,0.573983,96.27,1
371263,1,2560,0,51161,56252,51656.25,56112.05,-495.25,139.95,0.575335,96.25,1
371303,1,2600,0,51158,56240,51655.25,56112.31,-497.25,127.69,0.576710,96.23,1
371343,1,2640,0,51157,56255,51654.25,56112.59,-497.25,142.41,0.578107,96.21,1
371383,1,2680,0,51163,56272,51653.27,56112.91,-490.27,159.09,0.579525,96.19,1
371423,1,2720,0,51165,56290,51652.30,56113.27,-487.30,176.73,0.580962,96.17,1
371463,1,2760,0,51163,56289,51651.32,56113.62,-488.32,175.38,0.582419,96.14,1
371503,1,2800,0,51165,56297,51650.35,56113.99,-485.35,183.01,0.583895,96.12,1
371543,1,2840,0,51162,56305,51649.37,56114.37,-487.37,190.63,0.585389,96.10,1
371583,1,2880,0,51163,56302,51648.40,56114.75,-485.40,187.25,0.586903,96.08,1
371623,1,2920,0,51155,56295,51647.41,56115.11,-492.41,179.89,0.588436,96.05,1
371663,1,2960,0,51152,56303,51646.43,56115.49,-494.43,187.51,0.589988,96.03,1
371703,1,3000,0,51152,56306,51645.44,56115.87,-493.44,190.13,0.591559,96.00,1
371743,1,3040,0,51144,56299,51644.44,56116.24,-500.44,182.76,0.593150,95.98,1
371783,1,3080,0,51138,56255,51643.43,56116.52,-505.43,138.48,0.594764,95.95,1
371823,1,3120,0,51115,56221,51642.37,56116.73,-527.37,104.27,0.596404,95.93,1
371863,1,3160,0,51109,56225,51641.30,56116.95,-532.30,108.05,0.598069,95.90,1
371903,1,3200,0,51108,56225,51640.24,56117.16,-532.24,107.84,0.599761,95.87,1
371943,1,3240,0,51097,56216,51639.15,56117.36,-542.15,98.64,0.601481,95.85,1
371984,1,3281,0,51094,56217,51638.06,56117.56,-544.06,99.44,0.603228,95.82,1
372024,1,3321,0,51096,56220,51636.98,56117.77,-540.98,102.23,0.605002,95.79,1
372064,1,3361,0,51101,56256,51635.91,56118.05,-534.91,137.95,0.606801,95.76,1
372104,1,3401,0,51132,56327,51634.90,56118.46,-502.90,208.54,0.608618,95.73,1
372144,1,3441,0,51165,56401,51633.96,56119.03,-468.96,281.97,0.610443,95.70,1
372184,1,3481,0,51188,56443,51633.07,56119.68,-445.07,323.32,0.612271,95.67,1
372224,1,3521,0,51192,56448,51632.20,56120.34,-440.20,327.66,0.614099,95.64,1
372264,1,3561,0,51183,56434,51631.30,56120.96,-448.30,313.04,0.615932,95.61,1
372304,1,3601,0,51169,56432,51630.37,56121.59,-461.37,310.41,0.617769,95.58,1
372344,1,3641,0,51164,56435,51629.45,56122.22,-465.45,312.78,0.619612,95.55,1
372384,1,3681,0,51165,56440,51628.52,56122.86,-463.52,317.14,0.621458,95.51,1
372424,1,3721,0,51162,56415,51627.59,56123.44,-465.59,291.56,0.623312,95.48,1
372464,1,3761,0,51165,56426,51626.66,56124.05,-461.66,301.95,0.625171,95.45,1
372504,1,3801,0,51179,56464,51625.77,56124.73,-446.77,339.27,0.627030,95.41,1
372544,1,3841,0,51195,56472,51624.91,56125.42,-429.91,346.58,0.628887,95.38,1
372584,1,3881,0,51188,56469,51624.04,56126.11,-436.04,342.89,0.630742,95.35,1
372624,1,3921,0,51184,56483,51623.16,56126.82,-439.16,356.18,0.632595,95.31,1
372664,1,3961,0,51202,56525,51622.32,56127.62,-420.32,397.38,0.634439,95.28,1
372704,1,4001,0,51214,56566,51621.50,56128.50,-407.50,437.50,0.636268,95.24,1
372744,1,4041,0,51227,56573,51620.71,56129.39,-393.71,443.61,0.638080,95.20,1
372784,1,4081,0,51213,56543,51619.90,56130.22,-406.90,412.78,0.639880,95.17,1
372824,1,4121,0,51191,56502,51619.04,56130.96,-428.04,371.04,0.641675,95.13,1
372864,1,4161,0,51165,56485,51618.14,56131.68,-453.14,353.32,0.643470,95.10,1
372904,1,4201,0,51163,56494,51617.23,56132.40,-454.23,361.60,0.645264,95.06,1
372944,1,4241,0,51166,56500,51616.32,56133.14,-450.32,366.86,0.647056,95.02,1
372984,1,4281,0,51161,56492,51615.41,56133.86,-454.41,358.14,0.648847,94.98,1
373024,1,4321,0,51149,56477,51614.48,56134.55,-465.48,342.45,0.650639,94.95,1
373064,1,4361,0,51139,56449,51613.54,56135.18,-474.54,313.82,0.652437,94.91,1
373104,1,4401,0,51119,56408,51612.55,56135.72,-493.55,272.28,0.654246,94.87,1
373144,1,4441,0,51108,56407,51611.54,56136.27,-503.54,270.73,0.656068,94.83,1
373184,1,4481,0,51117,56408,51610.55,56136.81,-493.55,271.19,0.657900,94.79,1
373224,1,4521,0,51116,56412,51609.56,56137.36,-493.56,274.64,0.659743,94.76,1
373264,1,4561,0,51119,56424,51608.58,56137.93,-489.58,286.07,0.661594,94.72,1
373304,1,4601,0,51133,56456,51607.63,56138.57,-474.63,317.43,0.663450,94.68,1
373344,1,4641,0,51140,56471,51606.70,56139.24,-466.70,331.76,0.665308,94.64,1
373384,1,4681,0,51148,56488,51605.78,56139.94,-457.78,348.06,0.667165,94.60,1
373424,1,4721,0,51152,56501,51604.87,56140.66,-452.87,360.34,0.669019,94.56,1
373464,1,4761,0,51153,56503,51603.97,56141.39,-450.97,361.61,0.670870,94.52,1
373504,1,4801,0,51144,56502,51603.05,56142.11,-459.05,359.89,0.672719,94.48,1
373544,1,4841,0,51140,56505,51602.13,56142.84,-462.13,362.16,0.674565,94.44,1
373584,1,4881,0,51133,56508,51601.19,56143.57,-468.19,364.43,0.676410,94.40,1
373624,1,4921,0,51126,56518,51600.24,56144.32,-474.24,373.68,0.678253,94.36,1
373664,1,4961,0,51133,56528,51599.31,56145.09,-466.31,382.91,0.680092,94.32,1
373704,1,5001,0,51138,56535,51598.39,56145.87,-460.39,389.13,0.681925,94.28,1
373744,1,5041,0,51137,56531,51597.46,56146.64,-460.46,384.36,0.683753,94.24,1
373784,1,5081,0,51125,56497,51596.52,56147.34,-471.52,349.66,0.685581,94.19,1
373824,1,5121,0,51112,56481,51595.55,56148.01,-483.55,332.99,0.687413,94.15,1
373864,1,5161,0,51113,56481,51594.59,56148.68,-481.59,332.32,0.689247,94.11,1
373904,1,5201,0,51107,56465,51593.61,56149.31,-486.61,315.69,0.691086,94.07,1
373944,1,5241,0,51091,56432,51592.61,56149.88,-501.61,282.12,0.692936,94.03,1
373984,1,5281,0,51078,56433,51591.58,56150.45,-513.58,282.55,0.694795,93.99,1
374024,1,5321,0,51090,56462,51590.58,56151.07,-500.58,310.93,0.696662,93.94,1
374064,1,5361,0,51103,56469,51589.61,56151.71,-486.61,317.29,0.698533,93.90,1
374104,1,5401,0,51089,56463,51588.61,56152.33,-499.61,310.67,0.700410,93.86,1
374144,1,5441,0,51082,56470,51587.60,56152.97,-505.60,317.03,0.702293,93.82,1
374184,1,5481,0,51086,56501,51586.60,56153.67,-500.60,347.33,0.704179,93.77,1
374224,1,5521,0,51107,56537,51585.64,56154.44,-478.64,382.56,0.706060,93.73,1
374264,1,5561,0,51120,56557,51584.71,56155.24,-464.71,401.76,0.707933,93.69,1
374304,1,5601,0,51121,56559,51583.79,56156.05,-462.79,402.95,0.709797,93.65,1
374344,1,5641,0,51128,56585,51582.87,56156.91,-454.87,428.09,0.711649,93.60,1
374384,1,5681,0,51137,56596,51581.98,56157.79,-444.98,438.21,0.713486,93.56,1
374424,1,5721,0,51125,56603,51581.07,56158.68,-456.07,444.32,0.715308,93.52,1
374464,1,5761,0,51121,56610,51580.15,56159.58,-459.15,450.42,0.717116,93.47,1
374504,1,5801,0,51108,56587,51579.21,56160.44,-471.21,426.56,0.718914,93.43,1
374544,1,5841,0,51103,56582,51578.26,56161.28,-475.26,420.72,0.720703,93.39,1
374584,1,5881,0,51099,56564,51577.30,56162.09,-478.30,401.91,0.722486,93.34,1
374624,1,5921,0,51084,56551,51576.32,56162.87,-492.32,388.13,0.724266,93.30,1
374664,1,5961,0,51080,56552,51575.33,56163.65,-495.33,388.35,0.726044,93.26,1
374704,1,6001,0,51070,56552,51574.32,56164.43,-504.32,387.57,0.727820,93.21,1
374744,1,6041,0,51069,56543,51573.31,56165.18,-504.31,377.82,0.729596,93.17,1
374784,1,6081,0,51065,56540,51572.30,56165.93,-507.30,374.07,0.731372,93.12,1
374824,1,6121,0,51066,56550,51571.29,56166.70,-505.29,383.30,0.733146,93.08,1
374864,1,6161,0,51070,56570,51570.29,56167.51,-500.29,402.49,0.734917,93.04,1
374904,1,6201,0,51083,56596,51569.31,56168.37,-486.31,427.63,0.736679,92.99,1
374944,1,6241,0,51095,56605,51568.36,56169.25,-473.36,435.75,0.738430,92.95,1
374984,1,6281,0,51103,56629,51567.43,56170.17,-464.43,458.83,0.740167,92.91,1
375024,1,6321,0,51115,56666,51566.53,56171.16,-451.53,494.84,0.741882,92.86,1
375064,1,6361,0,51133,56699,51565.66,56172.22,-432.66,526.78,0.743571,92.82,1
375104,1,6401,0,51145,56713,51564.82,56173.30,-419.82,539.70,0.745230,92.78,1
375144,1,6441,0,51139,56691,51563.97,56174.34,-424.97,516.66,0.746865,92.73,1
375184,1,6481,0,51125,56685,51563.10,56175.36,-438.10,509.64,0.748477,92.69,1
375224,1,6521,0,51131,56695,51562.23,56176.40,-431.23,518.60,0.750066,92.65,1
375264,1,6561,0,51129,56711,51561.37,56177.47,-432.37,533.53,0.751630,92.60,1
375304,1,6601,0,51137,56740,51560.52,56178.59,-423.52,561.41,0.753165,92.56,1
375344,1,6641,0,51151,56774,51559.71,56179.79,-408.71,594.21,0.754665,92.52,1
375384,1,6681,0,51160,56790,51558.91,56181.01,-398.91,608.99,0.756129,92.47,1
375424,1,6721,0,51164,56806,51558.12,56182.26,-394.12,623.74,0.757554,92.43,1
375464,1,6761,0,51166,56821,51557.34,56183.54,-391.34,637.46,0.758941,92.39,1
375504,1,6801,0,51170,56851,51556.57,56184.87,-386.57,666.13,0.760284,92.35,1
375545,1,6842,0,51187,56874,51555.83,56186.25,-368.83,687.75,0.761582,92.31,1
375585,1,6882,0,51191,56895,51555.10,56187.67,-364.10,707.33,0.762833,92.27,1
375625,1,6922,0,51199,56914,51554.39,56189.12,-355.39,724.88,0.764035,92.22,1
375665,1,6962,0,51200,56929,51553.68,56190.60,-353.68,738.40,0.765188,92.18,1
375705,1,7002,0,51210,56950,51553.00,56192.12,-343.00,757.88,0.766291,92.14,1
375745,1,7042,0,51218,56953,51552.33,56193.64,-334.33,759.36,0.767345,92.10,1
375785,1,7082,0,51210,56929,51551.64,56195.12,-341.64,733.88,0.768356,92.06,1
375825,1,7122,0,51197,56943,51550.94,56196.61,-353.94,746.39,0.769325,92.03,1
375865,1,7162,0,51206,56968,51550.25,56198.16,-344.25,769.84,0.770249,91.99,1
375905,1,7202,0,51213,56989,51549.58,56199.74,-336.58,789.26,0.771128,91.95,1
375945,1,7242,0,51220,56994,51548.92,56201.33,-328.92,792.67,0.771963,91.91,1
375985,1,7282,0,51217,57012,51548.26,56202.95,-331.26,809.05,0.772753,91.87,1
376025,1,7322,0,51218,57009,51547.60,56204.56,-329.60,804.44,0.773500,91.84,1
376065,1,7362,0,51212,57020,51546.93,56206.20,-334.93,813.80,0.774207,91.80,1
376105,1,7402,0,51219,57029,51546.27,56207.84,-327.27,821.16,0.774872,91.77,1
376145,1,7442,0,51220,57049,51545.62,56209.53,-325.62,839.47,0.775496,91.73,1
376185,1,7482,0,51227,57065,51544.98,56211.24,-317.98,853.76,0.776079,91.70,1
376225,1,7522,0,51230,57086,51544.36,56212.99,-314.36,873.01,0.776619,91.67,1
376265,1,7562,0,51237,57102,51543.74,56214.77,-306.74,887.23,0.777118,91.63,1
376305,1,7602,0,51243,57120,51543.14,56216.58,-300.14,903.42,0.777574,91.60,1
376345,1,7642,0,51247,57116,51542.55,56218.38,-295.55,897.62,0.777990,91.57,1
376385,1,7682,0,51243,57108,51541.95,56220.16,-298.95,887.84,0.778368,91.54,1
376425,1,7722,0,51233,57092,51541.34,56221.91,-308.34,870.09,0.778713,91.51,1
376465,1,7762,0,51229,57102,51540.71,56223.67,-311.71,878.33,0.779025,91.48,1
376505,1,7802,0,51236,57121,51540.10,56225.47,-304.10,895.53,0.779303,91.45,1
376545,1,7842,0,51242,57135,51539.51,56227.29,-297.51,907.71,0.779548,91.42,1
376585,1,7882,0,51243,57155,51538.92,56229.14,-295.92,925.86,0.779758,91.39,1
376625,1,7922,0,51252,57173,51538.34,56231.04,-286.34,941.96,0.779935,91.37,1
376665,1,7962,0,51253,57187,51537.77,56232.95,-284.77,954.05,0.780077,91.34,1
376705,1,8002,0,51261,57198,51537.22,56234.88,-276.22,963.12,0.780186,91.32,1
376745,1,8042,0,51258,57202,51536.66,56236.82,-278.66,965.18,0.780263,91.29,1
376785,1,8082,0,51258,57206,51536.11,56238.76,-278.11,967.24,0.780308,91.27,1
376825,1,8122,0,51259,57224,51535.55,56240.73,-276.55,983.27,0.780322,91.24,1
376865,1,8162,0,51266,57238,51535.02,56242.73,-269.02,995.27,0.780306,91.22,1
376905,1,8202,0,51266,57244,51534.48,56244.73,-268.48,999.27,0.780259,91.20,1
376945,1,8242,0,51272,57243,51533.96,56246.73,-261.96,996.27,0.780183,91.18,1
376985,1,8282,0,51269,57243,51533.43,56248.72,-264.43,994.28,0.780080,91.16,1
377025,1,8322,0,51265,57219,51532.89,56250.66,-267.89,968.34,0.779952,91.14,1
377065,1,8362,0,51246,57187,51532.32,56252.54,-286.32,934.46,0.779803,91.12,1
377105,1,8402,0,51244,57176,51531.75,56254.38,-287.75,921.62,0.779634,91.10,1
377145,1,8442,0,51233,57169,51531.15,56256.21,-298.15,912.79,0.779447,91.08,1
377185,1,8482,0,51235,57159,51530.56,56258.02,-295.56,900.98,0.779243,91.07,1
377225,1,8522,0,51221,57131,51529.94,56259.77,-308.94,871.23,0.779024,91.05,1
377265,1,8562,0,51212,57124,51529.31,56261.50,-317.31,862.50,0.778792,91.03,1
377305,1,8602,0,51206,57114,51528.66,56263.21,-322.66,850.79,0.778547,91.02,1
377345,1,8642,0,51200,57103,51528.01,56264.89,-328.01,838.11,0.778291,91.01,1
377385,1,8682,0,51190,57088,51527.33,56266.54,-337.33,821.46,0.778026,90.99,1
377425,1,8722,0,51182,57093,51526.64,56268.19,-344.64,824.81,0.777751,90.98,1
377465,1,8762,0,51182,57087,51525.96,56269.83,-343.96,817.17,0.777467,90.97,1
377505,1,8802,0,51176,57076,51525.26,56271.45,-349.26,804.55,0.777176,90.95,1
377545,1,8842,0,51165,57058,51524.54,56273.02,-359.54,784.98,0.776878,90.94,1
377585,1,8882,0,51158,57058,51523.81,56274.59,-365.81,783.41,0.776575,90.93,1
377625,1,8922,0,51153,57045,51523.07,56276.13,-370.07,768.87,0.776267,90.92,1
377665,1,8962,0,51139,57029,51522.30,56277.64,-383.30,751.36,0.775955,90.91,1
377705,1,9002,0,51124,56978,51521.50,56279.04,-397.50,698.96,0.775642,90.90,1
377745,1,9042,0,51103,56952,51520.67,56280.39,-417.67,671.61,0.775331,90.89,1
377785,1,9082,0,51098,56961,51519.82,56281.75,-421.82,679.25,0.775021,90.89,1
377825,1,9122,0,51105,56971,51519.00,56283.13,-414.00,687.87,0.774711,90.88,1
377865,1,9162,0,51110,56994,51518.18,56284.55,-408.18,709.45,0.774401,90.87,1
377905,1,9202,0,51119,57034,51517.38,56286.05,-398.38,747.95,0.774088,90.87,1
377945,1,9242,0,51132,57043,51516.61,56287.57,-384.61,755.43,0.773772,90.86,1
377985,1,9282,0,51130,57034,51515.84,56289.07,-385.84,744.93,0.773453,90.85,1
378025,1,9322,0,51120,57026,51515.05,56290.54,-395.05,735.46,0.773133,90.85,1
378065,1,9362,0,51107,57017,51514.23,56292.00,-407.23,725.00,0.772811,90.84,1
378105,1,9402,0,51102,57016,51513.41,56293.45,-411.41,722.55,0.772489,90.84,1
378145,1,9442,0,51101,57018,51512.59,56294.89,-411.59,723.11,0.772166,90.83,1
378185,1,9482,0,51101,57011,51511.77,56296.33,-410.77,714.67,0.771844,90.83,1
378225,1,9522,0,51093,57007,51510.93,56297.75,-417.93,709.25,0.771521,90.83,1
378265,1,9562,0,51087,57004,51510.08,56299.16,-423.08,704.84,0.771199,90.82,1
378305,1,9602,0,51080,56999,51509.22,56300.57,-429.22,698.43,0.770879,90.82,1
378345,1,9642,0,51081,56982,51508.37,56301.93,-427.37,680.07,0.770560,90.82,1
378385,1,9682,0,51064,56938,51507.48,56303.20,-443.48,634.80,0.770245,90.82,1
378425,1,9722,0,51052,56939,51506.57,56304.48,-454.57,634.52,0.769935,90.81,1
378465,1,9762,0,51059,56954,51505.68,56305.78,-446.68,648.22,0.769629,90.81,1
378506,1,9803,0,51060,56956,51504.79,56307.08,-444.79,648.92,0.769326,90.81,1
378546,1,9843,0,51061,56953,51503.90,56308.37,-442.90,644.63,0.769027,90.81,1
378586,1,9883,0,51058,56951,51503.01,56309.66,-445.01,641.34,0.768732,90.81,1
378626,1,9923,0,51051,56943,51502.11,56310.93,-451.11,632.07,0.768441,90.81,1
378666,1,9963,0,51049,56938,51501.20,56312.18,-452.20,625.82,0.768155,90.81,1
378706,1,10003,0,51044,56945,51500.29,56313.45,-456.29,631.55,0.767873,90.81,1
378746,1,10043,0,51045,56963,51499.37,56314.75,-454.37,648.25,0.767596,90.81,1
378786,1,10083,0,51053,56969,51498.48,56316.05,-445.48,652.95,0.767321,90.81,1
378826,1,10123,0,51045,56973,51497.58,56317.37,-452.58,655.63,0.767050,90.81,1
378866,1,10163,0,51049,56974,51496.68,56318.69,-447.68,655.31,0.766782,90.81,1
378906,1,10203,0,51051,56974,51495.79,56320.00,-444.79,654.00,0.766517,90.81,1
378946,1,10243,0,51047,56980,51494.90,56321.32,-447.90,658.68,0.766255,90.81,1
378986,1,10283,0,51047,56974,51494.00,56322.63,-447.00,651.37,0.765996,90.81,1
379026,1,10323,0,51038,56936,51493.09,56323.86,-455.09,612.14,0.765742,90.81,1
379066,1,10363,0,51027,56942,51492.16,56325.09,-465.16,616.91,0.765493,90.81,1
379106,1,10403,0,51037,56975,51491.25,56326.39,-454.25,648.61,0.765248,90.82,1
379146,1,10443,0,51048,56985,51490.37,56327.71,-442.37,657.29,0.765005,90.82,1
379186,1,10483,0,51047,56989,51489.48,56329.04,-442.48,659.96,0.764764,90.82,1
379226,1,10523,0,51054,57005,51488.61,56330.39,-434.61,674.61,0.764525,90.82,1
379266,1,10563,0,51059,57008,51487.75,56331.75,-428.75,676.25,0.764287,90.82,1
379306,1,10603,0,51059,57011,51486.89,56333.11,-427.89,677.89,0.764050,90.83,1
379346,1,10643,0,51060,57019,51486.04,56334.48,-426.04,684.52,0.763814,90.83,1
379386,1,10683,0,51062,57029,51485.20,56335.87,-423.20,693.13,0.763578,90.83,1
379426,1,10723,0,51063,57042,51484.35,56337.29,-421.35,704.71,0.763341,90.83,1
379466,1,10763,0,51067,57062,51483.52,56338.73,-416.52,723.27,0.763104,90.84,1
379506,1,10803,0,51078,57087,51482.71,56340.23,-404.71,746.77,0.762864,90.84,1
379546,1,10843,0,51088,57118,51481.92,56341.79,-393.92,776.21,0.762620,90.84,1
379586,1,10883,0,51099,57142,51481.16,56343.39,-382.16,798.61,0.762370,90.85,1
379626,1,10923,0,51103,57164,51480.40,56345.04,-377.40,818.96,0.762114,90.85,1
379666,1,10963,0,51109,57154,51479.66,56346.66,-370.66,807.34,0.761852,90.85,1
379706,1,11003,0,51100,57130,51478.90,56348.22,-378.90,781.78,0.761586,90.85,1
379746,1,11043,0,51092,57135,51478.13,56349.80,-386.13,785.20,0.761315,90.86,1
379786,1,11083,0,51097,57143,51477.37,56351.38,-380.37,791.62,0.761039,90.86,1
379826,1,11123,0,51090,57141,51476.59,56352.96,-386.59,788.04,0.760760,90.87,1
379866,1,11163,0,51081,57134,51475.80,56354.53,-394.80,779.47,0.760477,90.87,1
379906,1,11203,0,51083,57142,51475.02,56356.11,-392.02,785.89,0.760190,90.87,1
379946,1,11243,0,51088,57146,51474.25,56357.69,-386.25,788.31,0.759899,90.88,1
379986,1,11283,0,51087,57146,51473.47,56359.27,-386.47,786.73,0.759605,90.88,1
380026,1,11323,0,51083,57150,51472.69,56360.85,-389.69,789.15,0.759307,90.88,1
380066,1,11363,0,51085,57146,51471.92,56362.42,-386.92,783.58,0.759006,90.89,1
380106,1,11403,0,51087,57147,51471.15,56363.99,-384.15,783.01,0.758701,90.89,1
380146,1,11443,0,51083,57150,51470.37,56365.56,-387.37,784.44,0.758393,90.90,1
380186,1,11483,0,51082,57149,51469.60,56367.13,-387.60,781.87,0.758081,90.90,1
380226,1,11523,0,51077,57137,51468.81,56368.67,-391.81,768.33,0.757767,90.91,1
380266,1,11563,0,51071,57135,51468.02,56370.21,-397.02,764.79,0.757451,90.91,1
380306,1,11603,0,51073,57135,51467.23,56371.74,-394.23,763.26,0.757133,90.92,1
380346,1,11643,0,51062,57117,51466.42,56373.23,-404.42,743.77,0.756815,90.92,1
380386,1,11683,0,51047,57081,51465.59,56374.65,-418.59,706.35,0.756497,90.93,1
380426,1,11723,0,51034,57073,51464.72,56376.05,-430.72,696.95,0.756181,90.93,1
380466,1,11763,0,51039,57080,51463.87,56377.46,-424.87,702.54,0.755866,90.94,1
380506,1,11803,0,51038,57074,51463.02,56378.85,-425.02,695.15,0.755553,90.94,1
380546,1,11843,0,51030,57063,51462.16,56380.22,-432.16,682.78,0.755243,90.95,1
380586,1,11883,0,51029,57078,51461.29,56381.62,-432.29,696.38,0.754934,90.95,1
380626,1,11923,0,51032,57083,51460.44,56383.02,-428.44,699.98,0.754627,90.96,1
380666,1,11963,0,51033,57090,51459.58,56384.44,-426.58,705.56,0.754321,90.96,1
380706,1,12003,0,51029,57098,51458.72,56385.87,-429.72,712.13,0.754016,90.97,1
380746,1,12043,0,51025,57096,51457.86,56387.29,-432.86,708.71,0.753713,90.97,1
380786,1,12083,0,51028,57106,51457.00,56388.73,-429.00,717.27,0.753411,90.98,1
380826,1,12123,0,51025,57106,51456.13,56390.16,-431.13,715.84,0.753111,90.99,1
380866,1,12163,0,51024,57122,51455.27,56391.63,-431.27,730.37,0.752811,90.99,1
380906,1,12203,0,51021,57116,51454.40,56393.08,-433.40,722.92,0.752512,91.00,1
380946,1,12243,0,51020,57113,51453.54,56394.52,-433.54,718.48,0.752214,91.00,1
380986,1,12283,0,51020,57121,51452.67,56395.97,-432.67,725.03,0.751918,91.01,1
381026,1,12323,0,51022,57128,51451.81,56397.44,-429.81,730.56,0.751622,91.02,1
381066,1,12363,0,51021,57127,51450.95,56398.90,-429.95,728.10,0.751327,91.02,1
381106,1,12403,0,51013,57092,51450.07,56400.29,-437.07,691.71,0.751034,91.03,1
381146,1,12443,0,50994,57072,51449.16,56401.63,-455.16,670.37,0.750745,91.03,1
381186,1,12483,0,50997,57086,51448.26,56403.00,-451.26,683.00,0.750459,91.04,1
381226,1,12523,0,51003,57095,51447.37,56404.39,-444.37,690.61,0.750175,91.05,1
381266,1,12563,0,51000,57094,51446.48,56405.77,-446.48,688.23,0.749895,91.05,1
381306,1,12603,0,50993,57101,51445.57,56407.16,-452.57,693.84,0.749617,91.06,1
381346,1,12643,0,50990,57103,51444.66,56408.55,-454.66,694.45,0.749342,91.06,1
381386,1,12683,0,50989,57105,51443.75,56409.95,-454.75,695.05,0.749069,91.07,1
381426,1,12723,0,50988,57110,51442.84,56411.35,-454.84,698.65,0.748800,91.08,1
381466,1,12763,0,50987,57124,51441.93,56412.77,-454.93,711.23,0.748532,91.08,1
381506,1,12803,0,50990,57135,51441.03,56414.22,-451.03,720.78,0.748267,91.09,1
381546,1,12843,0,50988,57138,51440.12,56415.67,-452.12,722.33,0.748003,91.10,1
381586,1,12883,0,50990,57145,51439.22,56417.13,-449.22,727.87,0.747741,91.10,1
381626,1,12923,0,50988,57153,51438.32,56418.60,-450.32,734.40,0.747480,91.11,1
381667,1,12964,0,50992,57160,51437.43,56420.09,-445.43,739.91,0.747220,91.12,1
381707,1,13004,0,50989,57160,51436.54,56421.57,-447.54,738.43,0.746961,91.12,1
381747,1,13044,0,50986,57166,51435.64,56423.06,-449.64,742.94,0.746703,91.13,1
381787,1,13084,0,50988,57170,51434.74,56424.55,-446.74,745.45,0.746445,91.13,1
381827,1,13124,0,50988,57170,51433.85,56426.05,-445.85,743.95,0.746189,91.14,1
381867,1,13164,0,50979,57147,51432.94,56427.49,-453.94,719.51,0.745934,91.15,1
381907,1,13204,0,50963,57128,51432.00,56428.89,-469.00,699.11,0.745682,91.15,1
381947,1,13244,0,50961,57132,51431.06,56430.30,-470.06,701.70,0.745434,91.16,1
381987,1,13284,0,50966,57149,51430.13,56431.74,-464.13,717.26,0.745188,91.17,1
382027,1,13324,0,50966,57161,51429.21,56433.20,-463.21,727.80,0.744944,91.17,1
382067,1,13364,0,50967,57163,51428.29,56434.66,-461.29,728.34,0.744702,91.18,1
382107,1,13404,0,50966,57169,51427.36,56436.13,-461.36,732.87,0.744462,91.18,1
382147,1,13444,0,50962,57167,51426.43,56437.59,-464.43,729.41,0.744224,91.19,1
382187,1,13484,0,50959,57173,51425.50,56439.07,-466.50,733.93,0.743988,91.20,1
382227,1,13524,0,50958,57172,51424.57,56440.54,-466.57,731.46,0.743753,91.20,1
382267,1,13564,0,50955,57177,51423.63,56442.01,-468.63,734.99,0.743521,91.21,1
382307,1,13604,0,50951,57165,51422.68,56443.46,-471.68,721.54,0.743291,91.22,1
382347,1,13644,0,50944,57158,51421.73,56444.89,-477.73,713.11,0.743064,91.22,1
382387,1,13684,0,50939,57154,51420.76,56446.30,-481.76,707.70,0.742841,91.23,1
382427,1,13724,0,50930,57148,51419.78,56447.71,-489.78,700.29,0.742622,91.23,1
382467,1,13764,0,50925,57146,51418.79,56449.11,-493.79,696.89,0.742406,91.24,1
382507,1,13804,0,50919,57130,51417.79,56450.47,-498.79,679.53,0.742196,91.25,1
382547,1,13844,0,50911,57128,51416.78,56451.83,-505.78,676.17,0.741992,91.25,1
382587,1,13884,0,50907,57124,51415.76,56453.18,-508.76,670.82,0.741793,91.26,1
382627,1,13924,0,50897,57108,51414.73,56454.49,-517.73,653.51,0.741600,91.27,1
382667,1,13964,0,50885,57060,51413.67,56455.70,-528.67,604.30,0.741416,91.27,1
382707,1,14004,0,50863,57036,51412.57,56456.86,-549.57,579.14,0.741243,91.28,1
382747,1,14044,0,50859,57040,51411.46,56458.03,-552.46,581.97,0.741079,91.28,1
382787,1,14084,0,50858,57042,51410.36,56459.20,-552.36,582.80,0.740926,91.29,1
382827,1,14124,0,50850,57035,51409.23,56460.35,-559.23,574.65,0.740784,91.29,1
382867,1,14164,0,50845,57033,51408.11,56461.50,-563.11,571.50,0.740652,91.30,1
382907,1,14204,0,50839,57032,51406.97,56462.64,-567.97,569.36,0.740531,91.31,1
382947,1,14244,0,50830,57010,51405.82,56463.73,-575.82,546.27,0.740422,91.31,1
382987,1,14284,0,50817,56992,51404.64,56464.79,-587.64,527.21,0.740327,91.32,1
383027,1,14324,0,50806,56982,51403.45,56465.83,-597.45,516.17,0.740245,91.32,1
383067,1,14364,0,50796,56954,51402.23,56466.80,-606.23,487.20,0.740178,91.33,1
383107,1,14404,0,50779,56931,51400.98,56467.73,-621.98,463.27,0.740128,91.33,1
383147,1,14444,0,50770,56919,51399.72,56468.64,-629.72,450.36,0.740095,91.34,1
383187,1,14484,0,50758,56905,51398.44,56469.51,-640.44,435.49,0.740079,91.34,1
383227,1,14524,0,50757,56906,51397.16,56470.39,-640.16,435.61,0.740082,91.35,1
383267,1,14564,0,50749,56897,51395.86,56471.24,-646.86,425.76,0.740103,91.35,1
383307,1,14604,0,50743,56898,51394.56,56472.10,-651.56,425.90,0.740142,91.36,1
383347,1,14644,0,50743,56898,51393.26,56472.95,-650.26,425.05,0.740199,91.36,1
383387,1,14684,0,50740,56885,51391.95,56473.77,-651.95,411.23,0.740275,91.36,1
383427,1,14724,0,50724,56845,51390.62,56474.52,-666.62,370.48,0.740371,91.37,1
383467,1,14764,0,50716,56849,51389.27,56475.27,-673.27,373.73,0.740488,91.37,1
383507,1,14804,0,50720,56862,51387.93,56476.04,-667.93,385.96,0.740624,91.37,1
383547,1,14844,0,50722,56857,51386.60,56476.80,-664.60,380.20,0.740779,91.38,1
383587,1,14884,0,50721,56859,51385.27,56477.57,-664.27,381.43,0.740954,91.38,1
383627,1,14924,0,50715,56857,51383.93,56478.33,-668.93,378.67,0.741148,91.38,1
383667,1,14964,0,50709,56861,51382.59,56479.09,-673.59,381.91,0.741362,91.39,1
383707,1,15004,0,50704,56857,51381.23,56479.85,-677.23,377.15,0.741595,91.39,1
383747,1,15044,0,50704,56857,51379.88,56480.61,-675.88,376.39,0.741848,91.39,1
383787,1,15084,0,50697,56858,51378.52,56481.36,-681.52,376.64,0.742120,91.39,1
383827,1,15124,0,50699,56864,51377.16,56482.13,-678.16,381.87,0.742412,91.39,1
383867,1,15164,0,50694,56867,51375.79,56482.90,-681.79,384.10,0.742723,91.39,1
383907,1,15204,0,50693,56873,51374.43,56483.68,-681.43,389.32,0.743052,91.40,1
383947,1,15244,0,50690,56872,51373.06,56484.46,-683.06,387.54,0.743401,91.40,1
383987,1,15284,0,50690,56875,51371.70,56485.24,-681.70,389.76,0.743768,91.40,1
384027,1,15324,0,50687,56877,51370.33,56486.02,-683.33,390.98,0.744154,91.40,1
384067,1,15364,0,50685,56881,51368.96,56486.82,-683.96,394.18,0.744559,91.40,1
384107,1,15404,0,50680,56848,51367.59,56487.54,-687.59,360.46,0.744982,91.40,1
384147,1,15444,0,50663,56820,51366.18,56488.21,-703.18,331.79,0.745427,91.39,1
384187,1,15484,0,50661,56835,51364.77,56488.90,-703.77,346.10,0.745892,91.39,1
384227,1,15524,0,50665,56837,51363.37,56489.60,-698.37,347.40,0.746377,91.39,1
384267,1,15564,0,50663,56832,51361.97,56490.29,-698.97,341.71,0.746882,91.39,1
384307,1,15604,0,50661,56842,51360.57,56490.99,-699.57,351.01,0.747407,91.39,1
384347,1,15644,0,50660,56841,51359.17,56491.70,-699.17,349.30,0.747951,91.38,1
384387,1,15684,0,50654,56833,51357.76,56492.38,-703.76,340.62,0.748516,91.38,1
384427,1,15724,0,50651,56836,51356.35,56493.07,-705.35,342.93,0.749100,91.38,1
384467,1,15764,0,50647,56835,51354.93,56493.75,-707.93,341.25,0.749704,91.38,1
384507,1,15804,0,50642,56842,51353.50,56494.45,-711.50,347.55,0.750328,91.37,1
384547,1,15844,0,50647,56847,51352.09,56495.16,-705.09,351.84,0.750972,91.37,1
384587,1,15884,0,50640,56846,51350.67,56495.86,-710.67,350.14,0.751635,91.36,1
384627,1,15924,0,50640,56851,51349.25,56496.57,-709.25,354.43,0.752317,91.36,1
384667,1,15964,0,50641,56858,51347.84,56497.29,-706.84,360.71,0.753017,91.35,1
384707,1,16004,0,50641,56867,51346.42,56498.04,-705.42,368.96,0.753736,91.35,1
384747,1,16044,0,50648,56882,51345.03,56498.80,-697.03,383.20,0.754472,91.34,1
384787,1,16084,0,50647,56888,51343.63,56499.59,-696.63,388.41,0.755224,91.33,1
384827,1,16124,0,50644,56865,51342.23,56500.32,-698.23,364.68,0.755994,91.33,1
384867,1,16164,0,50628,56835,51340.81,56500.99,-712.81,334.01,0.756783,91.32,1
384908,1,16205,0,50620,56834,51339.37,56501.66,-719.37,332.34,0.757591,91.31,1
384948,1,16245,0,50626,56847,51337.94,56502.35,-711.94,344.65,0.758418,91.30,1
384988,1,16285,0,50628,56852,51336.52,56503.05,-708.52,348.95,0.759264,91.29,1
385028,1,16325,0,50627,56854,51335.11,56503.75,-708.11,350.25,0.760127,91.29,1
385068,1,16365,0,50631,56868,51333.70,56504.48,-702.70,363.52,0.761007,91.28,1
385108,1,16405,0,50628,56868,51332.29,56505.21,-704.29,362.79,0.761903,91.27,1
385148,1,16445,0,50630,56873,51330.89,56505.95,-700.89,367.05,0.762817,91.26,1
385188,1,16485,0,50631,56887,51329.49,56506.71,-698.49,380.29,0.763745,91.25,1
385228,1,16525,0,50627,56901,51328.09,56507.50,-701.09,393.50,0.764689,91.23,1
385268,1,16565,0,50627,56902,51326.68,56508.29,-699.68,393.71,0.765648,91.22,1
385308,1,16605,0,50631,56916,51325.29,56509.10,-694.29,406.90,0.766621,91.21,1
385348,1,16645,0,50640,56948,51323.92,56509.98,-683.92,438.02,0.767605,91.20,1
385388,1,16685,0,50650,56979,51322.57,56510.92,-672.57,468.08,0.768599,91.19,1
385428,1,16725,0,50654,57008,51321.24,56511.92,-667.24,496.08,0.769600,91.17,1
385468,1,16765,0,50664,57021,51319.93,56512.94,-655.93,508.06,0.770608,91.16,1
385508,1,16805,0,50668,57035,51318.62,56513.98,-650.62,521.02,0.771620,91.15,1
385548,1,16845,0,50676,57046,51317.34,56515.05,-641.34,530.95,0.772635,91.13,1
385588,1,16885,0,50670,57051,51316.05,56516.12,-646.05,534.87,0.773655,91.12,1
385628,1,16925,0,50670,57021,51314.76,56517.14,-644.76,503.86,0.774679,91.10,1
385668,1,16965,0,50657,56995,51313.45,56518.09,-656.45,476.91,0.775711,91.09,1
385708,1,17005,0,50651,57009,51312.12,56519.08,-661.12,489.92,0.776749,91.07,1
385748,1,17045,0,50662,57020,51310.82,56520.08,-648.82,499.92,0.777793,91.06,1
385788,1,17085,0,50654,57014,51309.51,56521.07,-655.51,492.93,0.778843,91.04,1
385828,1,17125,0,50650,57022,51308.19,56522.07,-658.19,499.93,0.779898,91.03,1
385868,1,17165,0,50653,57036,51306.88,56523.11,-653.88,512.89,0.780958,91.01,1
385908,1,17205,0,50653,57038,51305.58,56524.14,-652.58,513.86,0.782023,90.99,1
385948,1,17245,0,50651,57039,51304.27,56525.17,-653.27,513.83,0.783092,90.98,1
385988,1,17285,0,50649,57049,51302.96,56526.22,-653.96,522.78,0.784165,90.96,1
386028,1,17325,0,50649,57056,51301.66,56527.28,-652.66,528.72,0.785242,90.94,1
386068,1,17365,0,50652,57066,51300.36,56528.36,-648.36,537.64,0.786321,90.92,1
386108,1,17405,0,50654,57073,51299.07,56529.45,-645.07,543.55,0.787401,90.91,1
386148,1,17445,0,50653,57075,51297.78,56530.54,-644.78,544.46,0.788484,90.89,1
386188,1,17485,0,50651,57086,51296.48,56531.66,-645.48,554.34,0.789568,90.87,1
386228,1,17525,0,50655,57093,51295.20,56532.78,-640.20,560.22,0.790652,90.85,1
386268,1,17565,0,50654,57098,51293.92,56533.91,-639.92,564.09,0.791736,90.83,1
386308,1,17605,0,50657,57100,51292.65,56535.05,-635.65,564.95,0.792820,90.81,1
386348,1,17645,0,50656,57104,51291.37,56536.19,-635.37,567.81,0.793903,90.79,1
386388,1,17685,0,50655,57095,51290.11,56537.30,-635.11,557.70,0.794986,90.77,1
386428,1,17725,0,50642,57095,51288.81,56538.42,-646.81,556.58,0.796070,90.75,1
386468,1,17765,0,50639,57058,51287.52,56539.46,-648.52,518.54,0.797158,90.73,1
386508,1,17805,0,50624,57044,51286.19,56540.47,-662.19,503.53,0.798250,90.71,1
386548,1,17845,0,50623,57044,51284.87,56541.48,-661.87,502.52,0.799347,90.69,1
386588,1,17885,0,50622,57047,51283.54,56542.49,-661.54,504.51,0.800449,90.67,1
386628,1,17925,0,50616,57041,51282.21,56543.49,-666.21,497.51,0.801556,90.65,1
386668,1,17965,0,50614,57044,51280.87,56544.50,-666.87,499.50,0.802669,90.62,1
386708,1,18005,0,50612,57049,51279.54,56545.51,-667.54,503.49,0.803786,90.60,1
386748,1,18045,0,50612,57043,51278.21,56546.50,-666.21,496.50,0.804908,90.58,1
386788,1,18085,0,50609,57046,51276.87,56547.50,-667.87,498.50,0.806035,90.56,1
386828,1,18125,0,50601,57041,51275.52,56548.49,-674.52,492.51,0.807168,90.54,1
386868,1,18165,0,50595,57043,51274.16,56549.48,-679.16,493.52,0.808306,90.52,1
386908,1,18205,0,50593,57043,51272.80,56550.47,-679.80,492.53,0.809451,90.49,1
386948,1,18245,0,50588,57043,51271.43,56551.46,-683.43,491.54,0.810602,90.47,1
386988,1,18285,0,50584,57044,51270.06,56552.45,-686.06,491.55,0.811759,90.45,1
387028,1,18325,0,50585,57045,51268.69,56553.44,-683.69,491.56,0.812921,90.42,1
387068,1,18365,0,50581,57043,51267.32,56554.42,-686.32,488.58,0.814090,90.40,1
387108,1,18405,0,50577,57045,51265.94,56555.40,-688.94,489.60,0.815265,90.38,1
387148,1,18445,0,50576,57044,51264.56,56556.38,-688.56,487.62,0.816446,90.35,1
387188,1,18485,0,50575,57043,51263.18,56557.36,-688.18,485.64,0.817634,90.33,1
387228,1,18525,0,50573,57044,51261.80,56558.34,-688.80,485.66,0.818827,90.31,1
387268,1,18565,0,50568,57038,51260.41,56559.30,-692.41,478.70,0.820028,90.28,1
387308,1,18605,0,50555,56999,51259.00,56560.18,-704.00,438.82,0.821237,90.26,1
387348,1,18645,0,50542,56980,51257.57,56561.02,-715.57,418.98,0.822459,90.23,1
387388,1,18685,0,50538,56988,51256.13,56561.87,-718.13,426.12,0.823691,90.21,1
387428,1,18725,0,50536,56997,51254.70,56562.75,-718.70,434.25,0.824934,90.18,1
387468,1,18765,0,50536,56993,51253.26,56563.61,-717.26,429.39,0.826187,90.16,1
387508,1,18805,0,50529,56996,51251.81,56564.48,-722.81,431.52,0.827452,90.13,1
387548,1,18845,0,50529,56997,51250.37,56565.34,-721.37,431.66,0.828727,90.11,1
387588,1,18885,0,50522,56998,51248.91,56566.21,-726.91,431.79,0.830012,90.08,1
387628,1,18925,0,50523,57005,51247.46,56567.09,-724.46,437.91,0.831308,90.06,1
387668,1,18965,0,50522,57010,51246.01,56567.98,-724.01,442.02,0.832614,90.03,1
387708,1,19005,0,50518,57015,51244.56,56568.87,-726.56,446.13,0.833929,90.00,1
387748,1,19045,0,50514,57018,51243.10,56569.77,-729.10,448.23,0.835253,89.98,1
387788,1,19085,0,50508,57017,51241.63,56570.66,-733.63,446.34,0.836588,89.95,1
387828,1,19125,0,50504,57020,51240.16,56571.56,-736.16,448.44,0.837932,89.92,1
387869,1,19166,0,50500,57018,51238.68,56572.46,-738.68,445.54,0.839286,89.90,1
387909,1,19206,0,50499,57022,51237.20,56573.36,-738.20,448.64,0.840650,89.87,1
387949,1,19246,0,50494,57033,51235.71,56574.28,-741.71,458.72,0.842023,89.84,1
387989,1,19286,0,50504,57049,51234.25,56575.23,-730.25,473.77,0.843404,89.81,1
388029,1,19326,0,50502,57055,51232.79,56576.19,-730.79,478.81,0.844790,89.78,1
388069,1,19366,0,50505,57059,51231.34,56577.16,-726.34,481.84,0.846184,89.76,1
388109,1,19406,0,50494,57020,51229.86,56578.05,-735.86,441.95,0.847586,89.73,1
388149,1,19446,0,50480,57012,51228.36,56578.92,-748.36,433.08,0.848999,89.70,1
388189,1,19486,0,50485,57020,51226.88,56579.80,-741.88,440.20,0.850422,89.67,1
388229,1,19526,0,50482,57026,51225.39,56580.70,-743.39,445.30,0.851853,89.64,1
388269,1,19566,0,50480,57044,51223.90,56581.62,-743.90,462.37,0.853293,89.61,1
388309,1,19606,0,50489,57063,51222.43,56582.59,-733.43,480.41,0.854739,89.58,1
388349,1,19646,0,50493,57065,51220.98,56583.55,-727.98,481.45,0.856190,89.55,1
388389,1,19686,0,50491,57063,51219.52,56584.52,-728.52,478.48,0.857647,89.52,1
388429,1,19726,0,50480,57069,51218.04,56585.48,-738.04,483.52,0.859110,89.49,1
388469,1,19766,0,50487,57086,51216.58,56586.49,-729.58,499.51,0.860576,89.46,1
388509,1,19806,0,50484,57094,51215.12,56587.50,-731.12,506.50,0.862045,89.43,1
388549,1,19846,0,50484,57105,51213.66,56588.54,-729.66,516.46,0.863517,89.40,1
388589,1,19886,0,50490,57109,51212.21,56589.58,-722.21,519.42,0.864991,89.37,1
388629,1,19926,0,50485,57112,51210.76,56590.63,-725.76,521.37,0.866466,89.34,1
388669,1,19966,0,50490,57122,51209.32,56591.69,-719.32,530.31,0.867941,89.31,1
388709,1,20006,0,50493,57148,51207.89,56592.80,-714.89,555.20,0.869415,89.28,1
388749,1,20046,0,50500,57166,51206.47,56593.95,-706.47,572.05,0.870884,89.25,1
388789,1,20086,0,50502,57175,51205.07,56595.12,-703.07,579.88,0.872349,89.21,1
388829,1,20126,0,50507,57165,51203.67,56596.26,-696.67,568.74,0.873809,89.18,1
388869,1,20166,0,50495,57143,51202.25,56597.35,-707.25,545.65,0.875267,89.15,1
388909,1,20206,0,50498,57151,51200.85,56598.46,-702.85,552.54,0.876723,89.12,1
388949,1,20246,0,50501,57167,51199.45,56599.60,-698.45,567.40,0.878175,89.09,1
388989,1,20286,0,50505,57176,51198.06,56600.75,-693.06,575.25,0.879621,89.05,1
389029,1,20326,0,50505,57190,51196.68,56601.93,-691.68,588.07,0.881061,89.02,1
389069,1,20366,0,50512,57200,51195.31,56603.13,-683.31,596.87,0.882494,88.99,1
389109,1,20406,0,50514,57209,51193.95,56604.34,-679.95,604.66,0.883918,88.96,1
389149,1,20446,0,50518,57226,51192.60,56605.59,-674.60,620.41,0.885332,88.92,1
389189,1,20486,0,50524,57245,51191.26,56606.87,-667.26,638.13,0.886734,88.89,1
389229,1,20526,0,50527,57258,51189.93,56608.18,-662.93,649.82,0.888122,88.86,1
389269,1,20566,0,50529,57269,51188.61,56609.50,-659.61,659.50,0.889497,88.83,1
389309,1,20606,0,50528,57272,51187.29,56610.83,-659.29,661.17,0.890858,88.79,1
389349,1,20646,0,50536,57271,51185.99,56612.15,-649.99,658.85,0.892204,88.76,1
389389,1,20686,0,50532,57280,51184.68,56613.48,-652.68,666.52,0.893536,88.73,1
389429,1,20726,0,50532,57292,51183.38,56614.84,-651.38,677.16,0.894852,88.69,1
389469,1,20766,0,50537,57302,51182.09,56616.22,-645.09,685.78,0.896153,88.66,1
389509,1,20806,0,50536,57305,51180.80,56617.60,-644.80,687.40,0.897437,88.63,1
389549,1,20846,0,50541,57310,51179.52,56618.98,-638.52,691.02,0.898704,88.60,1
389589,1,20886,0,50532,57267,51178.23,56620.28,-646.23,646.72,0.899960,88.56,1
389629,1,20926,0,50516,57238,51176.90,56621.52,-660.90,616.48,0.901207,88.53,1
389669,1,20966,0,50508,57244,51175.57,56622.77,-667.57,621.23,0.902446,88.50,1
389709,1,21006,0,50510,57243,51174.24,56624.01,-664.24,618.99,0.903677,88.46,1
389749,1,21046,0,50507,57234,51172.91,56625.23,-665.91,608.77,0.904901,88.43,1
389789,1,21086,0,50500,57226,51171.56,56626.43,-671.56,599.57,0.906119,88.40,1
389829,1,21126,0,50502,57222,51170.23,56627.62,-668.23,594.37,0.907331,88.37,1
389869,1,21166,0,50498,57217,51168.88,56628.80,-670.88,588.20,0.908537,88.33,1
389909,1,21206,0,50496,57213,51167.54,56629.97,-671.54,583.03,0.909740,88.30,1
389949,1,21246,0,50486,57219,51166.18,56631.15,-680.18,587.85,0.910938,88.27,1
389989,1,21286,0,50490,57234,51164.82,56632.36,-674.82,601.64,0.912130,88.24,1
390029,1,21326,0,50491,57237,51163.48,56633.57,-672.48,603.43,0.913316,88.21,1
390069,1,21366,0,50496,57243,51162.14,56634.79,-666.14,608.21,0.914496,88.17,1
390109,1,21406,0,50489,57248,51160.80,56636.02,-671.80,611.98,0.915669,88.14,1
390149,1,21446,0,50490,57261,51159.46,56637.27,-669.46,623.73,0.916834,88.11,1
390189,1,21486,0,50501,57270,51158.14,56638.53,-657.14,631.47,0.917990,88.08,1
390229,1,21526,0,50498,57274,51156.82,56639.80,-658.82,634.20,0.919138,88.05,1
390269,1,21566,0,50500,57275,51155.51,56641.08,-655.51,633.92,0.920277,88.01,1
390309,1,21606,0,50499,57276,51154.20,56642.35,-655.20,633.65,0.921406,87.98,1
390349,1,21646,0,50487,57233,51152.87,56643.53,-665.87,589.47,0.922532,87.95,1
390389,1,21686,0,50465,57193,51151.49,56644.63,-686.49,548.37,0.923656,87.92,1
390429,1,21726,0,50459,57196,51150.11,56645.74,-691.11,550.26,0.924780,87.89,1
390469,1,21766,0,50462,57198,51148.73,56646.84,-686.73,551.16,0.925904,87.86,1
390509,1,21806,0,50455,57194,51147.35,56647.94,-692.35,546.06,0.927027,87.83,1
390549,1,21846,0,50456,57198,51145.96,56649.04,-689.96,548.96,0.928150,87.80,1
390589,1,21886,0,50464,57199,51144.60,56650.14,-680.60,548.86,0.929272,87.77,1
390629,1,21926,0,50462,57196,51143.24,56651.24,-681.24,544.76,0.930393,87.73,1
390669,1,21966,0,50458,57181,51141.87,56652.30,-683.87,528.70,0.931515,87.70,1
390709,1,22006,0,50457,57186,51140.50,56653.37,-683.50,532.63,0.932637,87.67,1
390749,1,22046,0,50462,57197,51139.14,56654.46,-677.14,542.54,0.933758,87.64,1
390789,1,22086,0,50463,57198,51137.79,56655.55,-674.79,542.45,0.934878,87.61,1
390829,1,22126,0,50461,57203,51136.44,56656.65,-675.44,546.35,0.935996,87.58,1
390869,1,22166,0,50465,57222,51135.10,56657.78,-670.10,564.22,0.937112,87.55,1
390909,1,22206,0,50479,57257,51133.79,56658.98,-654.79,598.02,0.938221,87.52,1
390949,1,22246,0,50496,57316,51132.52,56660.30,-636.52,655.70,0.939319,87.49,1
390989,1,22286,0,50527,57357,51131.30,56661.69,-604.30,695.31,0.940399,87.46,1
391029,1,22326,0,50540,57372,51130.12,56663.11,-590.12,708.89,0.941462,87.43,1
391069,1,22366,0,50546,57374,51128.96,56664.54,-582.96,709.46,0.942505,87.40,1
391109,1,22406,0,50540,57358,51127.78,56665.92,-587.78,692.08,0.943532,87.37,1
391149,1,22446,0,50528,57312,51126.58,56667.21,-598.58,644.79,0.944547,87.34,1
391189,1,22486,0,50513,57299,51125.36,56668.48,-612.36,630.52,0.945552,87.31,1
391229,1,22526,0,50518,57316,51124.14,56669.78,-606.14,646.22,0.946546,87.28,1
391269,1,22566,0,50532,57343,51122.96,56671.12,-590.96,671.87,0.947525,87.25,1
391309,1,22606,0,50546,57371,51121.80,56672.53,-575.80,698.47,0.948488,87.23,1
391350,1,22647,0,50560,57385,51120.68,56673.95,-560.68,711.05,0.949433,87.20,1
391390,1,22687,0,50570,57384,51119.58,56675.37,-549.58,708.62,0.950360,87.17,1
391430,1,22727,0,50569,57387,51118.48,56676.80,-549.48,710.20,0.951268,87.14,1
391470,1,22767,0,50574,57377,51117.39,56678.20,-543.39,698.80,0.952159,87.11,1
391510,1,22807,0,50571,57377,51116.30,56679.60,-545.30,697.40,0.953034,87.08,1
391550,1,22847,0,50573,57393,51115.22,56681.03,-542.22,711.97,0.953891,87.06,1
391590,1,22887,0,50582,57392,51114.15,56682.45,-532.15,709.55,0.954730,87.03,1
391630,1,22927,0,50579,57384,51113.08,56683.86,-534.08,700.14,0.955552,87.00,1
391670,1,22967,0,50576,57383,51112.01,56685.26,-536.01,697.74,0.956358,86.97,1
391710,1,23007,0,50563,57360,51110.91,56686.61,-547.91,673.39,0.957151,86.95,1
391750,1,23047,0,50555,57338,51109.80,56687.91,-554.80,650.09,0.957933,86.92,1
391790,1,23087,0,50546,57320,51108.68,56689.18,-562.68,630.82,0.958705,86.89,1
391830,1,23127,0,50535,57292,51107.53,56690.39,-572.53,601.61,0.959471,86.87,1
391870,1,23167,0,50515,57257,51106.35,56691.52,-591.35,565.48,0.960232,86.84,1
391910,1,23207,0,50493,57204,51105.12,56692.55,-612.12,511.45,0.960995,86.81,1
391950,1,23247,0,50464,57124,51103.84,56693.41,-639.84,430.59,0.961763,86.79,1
391990,1,23287,0,50435,57089,51102.50,56694.20,-667.50,394.80,0.962541,86.76,1
392030,1,23327,0,50426,57064,51101.15,56694.95,-675.15,369.05,0.963330,86.74,1
392070,1,23367,0,50414,57026,51099.78,56695.61,-685.78,330.39,0.964132,86.71,1
392110,1,23407,0,50396,56995,51098.37,56696.21,-702.37,298.79,0.964949,86.69,1
392150,1,23447,0,50379,56979,51096.94,56696.78,-717.94,282.22,0.965782,86.66,1
392190,1,23487,0,50374,56950,51095.49,56697.29,-721.49,252.71,0.966634,86.64,1
392230,1,23527,0,50360,56915,51094.02,56697.72,-734.02,217.28,0.967504,86.61,1
392270,1,23567,0,50345,56893,51092.53,56698.11,-747.53,194.89,0.968396,86.59,1
392310,1,23607,0,50338,56880,51091.02,56698.48,-753.02,181.52,0.969309,86.56,1
392350,1,23647,0,50329,56867,51089.50,56698.82,-760.50,168.18,0.970244,86.54,1
392390,1,23687,0,50325,56864,51087.97,56699.15,-762.97,164.85,0.971202,86.51,1
392430,1,23727,0,50318,56851,51086.43,56699.46,-768.43,151.54,0.972184,86.49,1
392470,1,23767,0,50311,56838,51084.88,56699.73,-773.88,138.27,0.973189,86.46,1
392510,1,23807,0,50309,56836,51083.33,56700.01,-774.33,135.99,0.974217,86.44,1
392550,1,23847,0,50307,56834,51081.78,56700.28,-774.78,133.72,0.975270,86.42,1
392590,1,23887,0,50300,56839,51080.21,56700.55,-780.21,138.45,0.976347,86.39,1
392630,1,23927,0,50303,56830,51078.66,56700.82,-775.66,129.18,0.977448,86.37,1
392670,1,23967,0,50295,56780,51077.09,56700.98,-782.09,79.02,0.978574,86.34,1
392710,1,24007,0,50277,56741,51075.50,56701.06,-798.50,39.94,0.979727,86.32,1
392750,1,24047,0,50270,56730,51073.89,56701.12,-803.89,28.88,0.980907,86.29,1
392790,1,24087,0,50272,56732,51072.29,56701.18,-800.29,30.82,0.982114,86.27,1
392830,1,24127,0,50276,56729,51070.70,56701.24,-794.70,27.76,0.983347,86.24,1
392870,1,24167,0,50276,56721,51069.11,56701.28,-793.11,19.72,0.984607,86.21,1
392910,1,24207,0,50274,56714,51067.52,56701.30,-793.52,12.70,0.985894,86.19,1
392950,1,24247,0,50273,56710,51065.93,56701.32,-792.93,8.68,0.987206,86.16,1
392990,1,24287,0,50278,56707,51064.36,56701.34,-786.36,5.66,0.988545,86.14,1
393030,1,24327,0,50281,56708,51062.79,56701.35,-781.79,6.65,0.989910,86.11,1
393070,1,24367,0,50288,56716,51061.24,56701.38,-773.24,14.62,0.991299,86.08,1
393110,1,24407,0,50291,56717,51059.70,56701.41,-768.70,15.59,0.992713,86.06,1
393150,1,24447,0,50297,56722,51058.18,56701.46,-761.18,20.54,0.994152,86.03,1
393190,1,24487,0,50302,56721,51056.67,56701.50,-754.67,19.50,0.995614,86.00,1
393230,1,24527,0,50301,56702,51055.16,56701.50,-754.16,0.50,0.997100,85.97,1
393270,1,24567,0,50284,56679,51053.62,56701.46,-769.62,-22.46,0.998610,85.95,1
393310,1,24607,0,50279,56661,51052.07,56701.38,-773.07,-40.38,1.000146,85.92,1
393350,1,24647,0,50273,56653,51050.51,56701.29,-777.51,-48.29,1.001707,85.89,1
393390,1,24687,0,50262,56615,51048.94,56701.11,-786.94,-86.11,1.003294,85.86,1
393430,1,24727,0,50251,56575,51047.34,56700.86,-796.34,-125.86,1.004906,85.83,1
393470,1,24767,0,50253,56571,51045.76,56700.61,-792.76,-129.61,1.006543,85.80,1
393510,1,24807,0,50260,56577,51044.19,56700.36,-784.19,-123.36,1.008205,85.77,1
393550,1,24847,0,50270,56583,51042.64,56700.12,-772.64,-117.12,1.009891,85.74,1
393590,1,24887,0,50278,56591,51041.11,56699.91,-763.11,-108.91,1.011601,85.71,1
393630,1,24927,0,50288,56590,51039.61,56699.69,-751.61,-109.69,1.013333,85.68,1
393670,1,24967,0,50294,56590,51038.12,56699.47,-744.12,-109.47,1.015086,85.65,1
393710,1,25007,0,50300,56595,51036.64,56699.27,-736.64,-104.27,1.016862,85.61,1
393750,1,25047,0,50308,56601,51035.19,56699.07,-727.19,-98.07,1.018658,85.58,1
393790,1,25087,0,50317,56617,51033.75,56698.91,-716.75,-81.91,1.020475,85.55,1
393830,1,25127,0,50321,56625,51032.33,56698.76,-711.33,-73.76,1.022312,85.51,1
393870,1,25167,0,50331,56627,51030.93,56698.62,-699.93,-71.62,1.024168,85.48,1
393910,1,25207,0,50333,56640,51029.53,56698.50,-696.53,-58.50,1.026045,85.45,1
393950,1,25247,0,50348,56654,51028.17,56698.42,-680.17,-44.42,1.027940,85.41,1
393990,1,25287,0,50355,56662,51026.82,56698.35,-671.82,-36.35,1.029853,85.38,1
394030,1,25327,0,50366,56683,51025.50,56698.32,-659.50,-15.32,1.031783,85.34,1
394070,1,25367,0,50373,56688,51024.20,56698.30,-651.20,-10.30,1.033731,85.31,1
394110,1,25407,0,50377,56667,51022.91,56698.24,-645.91,-31.24,1.035695,85.27,1
394150,1,25447,0,50372,56636,51021.61,56698.12,-649.61,-62.12,1.037676,85.24,1
394190,1,25487,0,50375,56640,51020.31,56698.00,-645.31,-58.00,1.039673,85.20,1
394230,1,25527,0,50388,56650,51019.05,56697.91,-631.05,-47.91,1.041686,85.16,1
394271,1,25568,0,50403,56648,51017.82,56697.81,-614.82,-49.81,1.043713,85.12,1
394311,1,25608,0,50410,56653,51016.61,56697.72,-606.61,-44.72,1.045755,85.09,1
394351,1,25648,0,50430,56671,51015.43,56697.67,-585.43,-26.67,1.047809,85.05,1
394391,1,25688,0,50442,56669,51014.29,56697.62,-572.29,-28.62,1.049876,85.01,1
394431,1,25728,0,50449,56677,51013.16,56697.58,-564.16,-20.58,1.051955,84.97,1
394471,1,25768,0,50460,56698,51012.05,56697.58,-552.05,0.42,1.054045,84.93,1
394511,1,25808,0,50480,56726,51010.99,56697.64,-530.99,28.36,1.056144,84.89,1
394551,1,25848,0,50494,56740,51009.96,56697.73,-515.96,42.27,1.058253,84.85,1
394591,1,25888,0,50509,56756,51008.96,56697.84,-499.96,58.16,1.060369,84.81,1
394631,1,25928,0,50523,56770,51007.99,56697.99,-484.99,72.01,1.062492,84.77,1
394671,1,25968,0,50534,56783,51007.05,56698.16,-473.05,84.84,1.064621,84.73,1
394711,1,26008,0,50544,56799,51006.12,56698.36,-462.12,100.64,1.066755,84.68,1
394751,1,26048,0,50557,56812,51005.22,56698.59,-448.22,113.41,1.068893,84.64,1
394791,1,26088,0,50567,56825,51004.35,56698.85,-437.35,126.15,1.071033,84.60,1
394831,1,26128,0,50578,56843,51003.50,56699.14,-425.50,143.86,1.073175,84.56,1
394871,1,26168,0,50600,56844,51002.69,56699.43,-402.69,144.57,1.075317,84.51,1
394911,1,26208,0,50599,56815,51001.89,56699.66,-402.89,115.34,1.077461,84.47,1
394951,1,26248,0,50606,56815,51001.10,56699.89,-395.10,115.11,1.079606,84.43,1
394991,1,26288,0,50630,56819,51000.36,56700.13,-370.36,118.87,1.081751,84.38,1
395031,1,26328,0,50639,56809,50999.63,56700.35,-360.63,108.65,1.083896,84.34,1
395071,1,26368,0,50644,56807,50998.92,56700.57,-354.92,106.43,1.086040,84.29,1
395111,1,26408,0,50660,56805,50998.25,56700.78,-338.25,104.22,1.088184,84.25,1
395151,1,26448,0,50671,56807,50997.59,56700.99,-326.59,106.01,1.090327,84.20,1
395191,1,26488,0,50678,56815,50996.96,56701.22,-318.96,113.78,1.092467,84.16,1
395231,1,26528,0,50686,56808,50996.34,56701.44,-310.34,106.56,1.094606,84.11,1
395271,1,26568,0,50690,56810,50995.72,56701.66,-305.72,108.34,1.096742,84.07,1
395311,1,26608,0,50699,56819,50995.13,56701.89,-296.13,117.11,1.098875,84.02,1
395351,1,26648,0,50707,56830,50994.55,56702.15,-287.55,127.85,1.101005,83.97,1
395391,1,26688,0,50718,56841,50994.00,56702.43,-276.00,138.57,1.103130,83.93,1
395431,1,26728,0,50725,56838,50993.47,56702.70,-268.47,135.30,1.105251,83.88,1
395471,1,26768,0,50734,56847,50992.95,56702.99,-258.95,144.01,1.107366,83.83,1
395511,1,26808,0,50742,56855,50992.45,56703.29,-250.45,151.71,1.109475,83.79,1
395551,1,26848,0,50751,56867,50991.97,56703.62,-240.97,163.38,1.111577,83.74,1
395591,1,26888,0,50761,56883,50991.51,56703.98,-230.51,179.02,1.113670,83.69,1
395631,1,26928,0,50766,56880,50991.06,56704.33,-225.06,175.67,1.115755,83.64,1
395671,1,26968,0,50766,56831,50990.61,56704.59,-224.61,126.41,1.117835,83.60,1
395711,1,27008,0,50749,56783,50990.13,56704.75,-241.13,78.25,1.119911,83.55,1
395751,1,27048,0,50748,56776,50989.64,56704.89,-241.64,71.11,1.121984,83.50,1
395791,1,27088,0,50760,56770,50989.19,56705.02,-229.19,64.98,1.124055,83.45,1
395831,1,27128,0,50770,56774,50988.75,56705.16,-218.75,68.84,1.126122,83.40,1
395871,1,27168,0,50781,56777,50988.34,56705.31,-207.34,71.69,1.128185,83.36,1
395911,1,27208,0,50784,56773,50987.93,56705.45,-203.93,67.55,1.130244,83.31,1
395951,1,27248,0,50796,56771,50987.55,56705.58,-191.55,65.42,1.132298,83.26,1
395991,1,27288,0,50793,56764,50987.16,56705.70,-194.16,58.30,1.134349,83.21,1
396031,1,27328,0,50795,56751,50986.78,56705.79,-191.78,45.21,1.136397,83.16,1
396071,1,27368,0,50791,56755,50986.39,56705.89,-195.39,49.11,1.138440,83.11,1
396111,1,27408,0,50798,56755,50986.01,56705.99,-188.01,49.01,1.140480,83.06,1
396151,1,27448,0,50801,56757,50985.64,56706.09,-184.64,50.91,1.142516,83.02,1
396191,1,27488,0,50802,56761,50985.28,56706.20,-183.28,54.80,1.144548,82.97,1
396231,1,27528,0,50809,56764,50984.93,56706.32,-175.93,57.68,1.146576,82.92,1
396271,1,27568,0,50816,56772,50984.59,56706.45,-168.59,65.55,1.148599,82.87,1
396311,1,27608,0,50822,56772,50984.27,56706.59,-162.27,65.41,1.150618,82.82,1
396351,1,27648,0,50817,56761,50983.93,56706.70,-166.93,54.30,1.152632,82.77,1
396391,1,27688,0,50812,56758,50983.59,56706.80,-171.59,51.20,1.154642,82.72,1
396431,1,27728,0,50811,56756,50983.25,56706.90,-172.25,49.10,1.156648,82.67,1
396471,1,27768,0,50802,56714,50982.89,56706.92,-180.89,7.08,1.158651,82.62,1
396511,1,27808,0,50793,56673,50982.51,56706.85,-189.51,-33.85,1.160651,82.57,1
396551,1,27848,0,50792,56664,50982.13,56706.77,-190.13,-42.77,1.162647,82.52,1
396591,1,27888,0,50790,56662,50981.75,56706.68,-191.75,-44.68,1.164641,82.48,1
396631,1,27928,0,50792,56652,50981.37,56706.57,-189.37,-54.57,1.166631,82.43,1
396671,1,27968,0,50791,56647,50980.99,56706.45,-189.99,-59.45,1.168618,82.38,1
396711,1,28008,0,50797,56649,50980.62,56706.34,-183.62,-57.34,1.170601,82.33,1
396751,1,28048,0,50804,56641,50980.27,56706.21,-176.27,-65.21,1.172579,82.28,1
396791,1,28088,0,50801,56623,50979.91,56706.04,-178.91,-83.04,1.174553,82.23,1
396831,1,28128,0,50800,56615,50979.55,56705.86,-179.55,-90.86,1.176523,82.18,1
396871,1,28168,0,50800,56598,50979.20,56705.65,-179.20,-107.65,1.178486,82.13,1
396911,1,28208,0,50791,56579,50978.82,56705.40,-187.82,-126.40,1.180443,82.08,1
396951,1,28248,0,50781,56565,50978.43,56705.12,-197.43,-140.12,1.182392,82.03,1
396991,1,28288,0,50778,56578,50978.03,56704.86,-200.03,-126.86,1.184335,81.98,1
397031,1,28328,0,50784,56585,50977.64,56704.62,-193.64,-119.62,1.186273,81.93,1
397072,1,28369,0,50793,56614,50977.27,56704.45,-184.27,-90.45,1.188205,81.88,1
397112,1,28409,0,50805,56637,50976.93,56704.31,-171.93,-67.31,1.190134,81.84,1
397152,1,28449,0,50820,56651,50976.62,56704.21,-156.62,-53.21,1.192059,81.79,1
397192,1,28489,0,50819,56655,50976.30,56704.11,-157.30,-49.11,1.193980,81.74,1
397232,1,28529,0,50816,56622,50975.98,56703.95,-159.98,-81.95,1.195895,81.69,1
397272,1,28569,0,50801,56568,50975.64,56703.68,-174.64,-135.68,1.197803,81.64,1
397312,1,28609,0,50792,56564,50975.27,56703.40,-183.27,-139.40,1.199704,81.59,1
397352,1,28649,0,50798,56550,50974.92,56703.09,-176.92,-153.09,1.201595,81.54,1
397392,1,28689,0,50798,56548,50974.57,56702.79,-176.57,-154.79,1.203477,81.49,1
397432,1,28729,0,50797,56545,50974.21,56702.47,-177.21,-157.47,1.205349,81.44,1
397472,1,28769,0,50801,56552,50973.87,56702.17,-172.87,-150.17,1.207213,81.40,1
397512,1,28809,0,50799,56541,50973.52,56701.85,-174.52,-160.85,1.209066,81.35,1
397552,1,28849,0,50796,56539,50973.16,56701.53,-177.16,-162.53,1.210910,81.30,1
397592,1,28889,0,50796,56545,50972.81,56701.21,-176.81,-156.21,1.212744,81.25,1
397632,1,28929,0,50807,56565,50972.48,56700.95,-165.48,-135.95,1.214571,81.20,1
397672,1,28969,0,50820,56573,50972.18,56700.69,-152.18,-127.69,1.216389,81.15,1
397712,1,29009,0,50826,56586,50971.88,56700.46,-145.88,-114.46,1.218200,81.10,1
397752,1,29049,0,50837,56594,50971.61,56700.25,-134.61,-106.25,1.220005,81.06,1
397792,1,29089,0,50842,56604,50971.36,56700.06,-129.36,-96.06,1.221803,81.01,1
397832,1,29129,0,50841,56621,50971.10,56699.91,-130.10,-78.91,1.223596,80.96,1
397872,1,29169,0,50860,56636,50970.87,56699.78,-110.87,-63.78,1.225384,80.91,1
397912,1,29209,0,50862,56641,50970.66,56699.66,-108.66,-58.66,1.227167,80.86,1
397952,1,29249,0,50858,56610,50970.44,56699.48,-112.44,-89.48,1.228943,80.82,1
397992,1,29289,0,50852,56577,50970.20,56699.24,-118.20,-122.24,1.230711,80.77,1
398032,1,29329,0,50849,56572,50969.96,56698.99,-120.96,-126.99,1.232470,80.72,1
398072,1,29369,0,50858,56581,50969.74,56698.75,-111.74,-117.75,1.234220,80.67,1
398112,1,29409,0,50869,56586,50969.54,56698.53,-100.54,-112.53,1.235963,80.63,1
398152,1,29449,0,50875,56582,50969.35,56698.30,-94.35,-116.30,1.237697,80.58,1
398192,1,29489,0,50881,56582,50969.18,56698.07,-88.18,-116.07,1.239421,80.53,1
398232,1,29529,0,50882,56571,50969.00,56697.82,-87.00,-126.82,1.241137,80.49,1
398272,1,29569,0,50879,56559,50968.82,56697.54,-89.82,-138.54,1.242841,80.44,1
398312,1,29609,0,50884,56569,50968.66,56697.29,-84.66,-128.29,1.244536,80.39,1
398352,1,29649,0,50893,56571,50968.51,56697.04,-75.51,-126.04,1.246221,80.35,1
398392,1,29689,0,50899,56576,50968.37,56696.79,-69.37,-120.79,1.247896,80.30,1
398432,1,29729,0,50908,56591,50968.25,56696.58,-60.25,-105.58,1.249563,80.25,1
398472,1,29769,0,50916,56594,50968.15,56696.38,-52.15,-102.38,1.251221,80.21,1
398512,1,29809,0,50921,56598,50968.05,56696.18,-47.05,-98.18,1.252871,80.16,1
398552,1,29849,0,50930,56605,50967.98,56696.00,-37.98,-91.00,1.254514,80.12,1
398592,1,29889,0,50933,56604,50967.91,56695.82,-34.91,-91.82,1.256148,80.07,1
398632,1,29929,0,50936,56591,50967.85,56695.61,-31.85,-104.61,1.257774,80.03,1
398672,1,29969,0,50926,56537,50967.77,56695.30,-41.77,-158.30,1.259386,79.98,1
398712,1,30009,0,50921,56515,50967.67,56694.94,-46.67,-179.94,1.260981,79.94,1
398752,1,30049,0,50931,56526,50967.60,56694.60,-36.60,-168.60,1.262561,79.89,1
398792,1,30089,0,50943,56520,50967.55,56694.25,-24.55,-174.25,1.264125,79.85,1
398832,1,30129,0,50950,56521,50967.52,56693.91,-17.52,-172.91,1.265673,79.80,1
398872,1,30169,0,50960,56524,50967.50,56693.57,-7.50,-169.57,1.267205,79.76,1
398912,1,30209,0,50963,56521,50967.50,56693.23,-4.50,-172.23,1.268722,79.71,1
398952,1,30249,0,50969,56517,50967.50,56692.87,1.50,-175.87,1.270222,79.67,1
398992,1,30289,0,50975,56525,50967.52,56692.54,7.48,-167.54,1.271706,79.62,1
399032,1,30329,0,50984,56530,50967.55,56692.21,16.45,-162.21,1.273177,79.58,1
399072,1,30369,0,50993,56539,50967.60,56691.91,25.40,-152.91,1.274633,79.54,1
399112,1,30409,0,51001,56549,50967.67,56691.62,33.33,-142.62,1.276078,79.49,1
399152,1,30449,0,51005,56554,50967.74,56691.35,37.26,-137.35,1.277511,79.45,1
399192,1,30489,0,51010,56564,50967.83,56691.10,42.17,-127.10,1.278934,79.41,1
399232,1,30529,0,51019,56573,50967.93,56690.86,51.07,-117.86,1.280347,79.37,1
399272,1,30569,0,51027,56595,50968.05,56690.67,58.95,-95.67,1.281753,79.32,1
399312,1,30609,0,51039,56603,50968.20,56690.50,70.80,-87.50,1.283153,79.28,1
399352,1,30649,0,51042,56572,50968.35,56690.26,73.65,-118.26,1.284543,79.24,1
399392,1,30689,0,51030,56540,50968.47,56689.96,61.53,-149.96,1.285921,79.20,1
399432,1,30729,0,51034,56534,50968.61,56689.65,65.39,-155.65,1.287285,79.16,1
399472,1,30769,0,51042,56535,50968.75,56689.34,73.25,-154.34,1.288637,79.12,1
399512,1,30809,0,51051,56527,50968.92,56689.02,82.08,-162.02,1.289974,79.07,1
399552,1,30849,0,51047,56523,50969.07,56688.69,77.93,-165.69,1.291297,79.03,1
399592,1,30889,0,51055,56535,50969.25,56688.38,85.75,-153.38,1.292608,78.99,1
399632,1,30929,0,51062,56537,50969.43,56688.08,92.57,-151.08,1.293906,78.95,1
399672,1,30969,0,51068,56541,50969.63,56687.79,98.37,-146.79,1.295194,78.91,1
399712,1,31009,0,51072,56543,50969.84,56687.50,102.16,-144.50,1.296470,78.87,1
399752,1,31049,0,51081,56553,50970.06,56687.23,110.94,-134.23,1.297737,78.83,1
399792,1,31089,0,51086,56564,50970.30,56686.99,115.70,-122.99,1.298996,78.79,1
399832,1,31129,0,51095,56572,50970.55,56686.76,124.45,-114.76,1.300248,78.76,1
399872,1,31169,0,51105,56581,50970.82,56686.55,134.18,-105.55,1.301495,78.72,1
399912,1,31209,0,51116,56599,50971.11,56686.38,144.89,-87.38,1.302739,78.68,1
399952,1,31249,0,51125,56603,50971.42,56686.21,153.58,-83.21,1.303980,78.64,1
399992,1,31289,0,51130,56612,50971.74,56686.07,158.26,-74.07,1.305220,78.60,1
400032,1,31329,0,51137,56627,50972.07,56685.95,164.93,-58.95,1.306460,78.56,1
400072,1,31369,0,51141,56612,50972.41,56685.80,168.59,-73.80,1.307698,78.53,1
400112,1,31409,0,51128,56553,50972.72,56685.54,155.28,-132.54,1.308930,78.49,1
400153,1,31450,0,51117,56532,50973.01,56685.23,143.99,-153.23,1.310151,78.45,1
400193,1,31490,0,51123,56526,50973.31,56684.92,149.69,-158.92,1.311361,78.41,1
400233,1,31530,0,51125,56516,50973.62,56684.58,151.38,-168.58,1.312558,78.38,1
400273,1,31570,0,51128,56512,50973.93,56684.24,154.07,-172.24,1.313743,78.34,1
400313,1,31610,0,51135,56514,50974.25,56683.90,160.75,-169.90,1.314916,78.30,1
400353,1,31650,0,51142,56523,50974.59,56683.58,167.41,-160.58,1.316078,78.27,1
400393,1,31690,0,51149,56533,50974.94,56683.28,174.06,-150.28,1.317233,78.23,1
400433,1,31730,0,51154,56539,50975.30,56682.99,178.70,-143.99,1.318380,78.20,1
400473,1,31770,0,51170,56555,50975.69,56682.74,194.31,-127.74,1.319525,78.16,1
400513,1,31810,0,51175,56577,50976.09,56682.53,198.91,-105.53,1.320668,78.13,1
400553,1,31850,0,51188,56588,50976.51,56682.34,211.49,-94.34,1.321813,78.09,1
400593,1,31890,0,51195,56592,50976.95,56682.16,218.05,-90.16,1.322960,78.06,1
400633,1,31930,0,51204,56596,50977.41,56681.99,226.59,-85.99,1.324111,78.02,1
400673,1,31970,0,51208,56601,50977.87,56681.83,230.13,-80.83,1.325266,77.99,1
400713,1,32010,0,51210,56610,50978.33,56681.69,231.67,-71.69,1.326427,77.95,1
400753,1,32050,0,51217,56629,50978.81,56681.58,238.19,-52.58,1.327595,77.92,1
400793,1,32090,0,51222,56643,50979.30,56681.51,242.70,-38.51,1.328771,77.88,1
400833,1,32130,0,51233,56652,50979.81,56681.45,253.19,-29.45,1.329957,77.85,1
400873,1,32170,0,51232,56610,50980.31,56681.31,251.69,-71.31,1.331151,77.82,1
400913,1,32210,0,51215,56566,50980.78,56681.08,234.22,-115.08,1.332346,77.78,1
400953,1,32250,0,51213,56557,50981.25,56680.83,231.75,-123.83,1.333542,77.75,1
400993,1,32290,0,51212,56549,50981.71,56680.57,230.29,-131.57,1.334736,77.71,1
401033,1,32330,0,51217,56545,50982.18,56680.30,234.82,-135.30,1.335928,77.68,1
401073,1,32370,0,51226,56552,50982.67,56680.05,243.33,-128.05,1.337122,77.65,1
401113,1,32410,0,51238,56562,50983.18,56679.81,254.82,-117.81,1.338319,77.62,1
401153,1,32450,0,51241,56570,50983.70,56679.59,257.30,-109.59,1.339521,77.58,1
401193,1,32490,0,51251,56576,50984.23,56679.39,266.77,-103.39,1.340729,77.55,1
401233,1,32530,0,51256,56588,50984.77,56679.21,271.23,-91.21,1.341946,77.52,1
401273,1,32570,0,51269,56597,50985.34,56679.04,283.66,-82.04,1.343174,77.48,1
401313,1,32610,0,51271,56605,50985.92,56678.89,285.08,-73.89,1.344414,77.45,1
401353,1,32650,0,51277,56615,50986.50,56678.77,290.50,-63.77,1.345668,77.42,1
401393,1,32690,0,51282,56629,50987.09,56678.67,294.91,-49.67,1.346937,77.38,1
401433,1,32730,0,51290,56636,50987.70,56678.59,302.30,-42.59,1.348223,77.35,1
401473,1,32770,0,51303,56645,50988.33,56678.52,314.67,-33.52,1.349528,77.32,1
401513,1,32810,0,51311,56656,50988.98,56678.48,322.02,-22.48,1.350854,77.29,1
401553,1,32850,0,51313,56661,50989.63,56678.45,323.37,-17.45,1.352201,77.25,1
401593,1,32890,0,51324,56668,50990.30,56678.43,333.70,-10.43,1.353570,77.22,1
401633,1,32930,0,51326,56678,50990.97,56678.43,335.03,-0.43,1.354963,77.19,1
401673,1,32970,0,51328,56634,50991.65,56678.34,336.35,-44.34,1.356379,77.16,1
401713,1,33010,0,51307,56587,50992.28,56678.16,314.72,-91.16,1.357808,77.12,1
401753,1,33050,0,51309,56582,50992.91,56677.97,316.09,-95.97,1.359252,77.09,1
401793,1,33090,0,51315,56584,50993.56,56677.78,321.44,-93.78,1.360712,77.06,1
401833,1,33130,0,51315,56578,50994.20,56677.58,320.80,-99.58,1.362185,77.02,1
401873,1,33170,0,51315,56572,50994.85,56677.37,320.15,-105.37,1.363672,76.99,1
401913,1,33210,0,51320,56576,50995.50,56677.17,324.50,-101.17,1.365174,76.96,1
401953,1,33250,0,51323,56568,50996.16,56676.95,326.84,-108.95,1.366690,76.92,1
401993,1,33290,0,51315,56555,50996.80,56676.71,318.20,-121.71,1.368217,76.89,1
402033,1,33330,0,51311,56549,50997.43,56676.45,313.57,-127.45,1.369751,76.85,1
402073,1,33370,0,51318,56549,50998.07,56676.20,319.93,-127.20,1.371296,76.82,1
402113,1,33410,0,51311,56552,50998.70,56675.95,312.30,-123.95,1.372849,76.79,1
402153,1,33450,0,51311,56556,50999.32,56675.71,311.68,-119.71,1.374412,76.75,1
402193,1,33490,0,51309,56558,50999.94,56675.48,309.06,-117.48,1.375985,76.72,1
402233,1,33530,0,51315,56555,51000.57,56675.24,314.43,-120.24,1.377567,76.68,1
402273,1,33570,0,51311,56559,51001.20,56675.01,309.80,-116.01,1.379159,76.65,1
402313,1,33610,0,51313,56550,51001.82,56674.76,311.18,-124.76,1.380760,76.61,1
402353,1,33650,0,51316,56557,51002.45,56674.53,313.55,-117.53,1.382371,76.58,1
402393,1,33690,0,51315,56566,51003.07,56674.31,311.93,-108.31,1.383993,76.54,1
402433,1,33730,0,51317,56563,51003.70,56674.09,313.30,-111.09,1.385626,76.51,1
402473,1,33770,0,51315,56533,51004.33,56673.81,310.67,-140.81,1.387265,76.47,1
402513,1,33810,0,51296,56493,51004.91,56673.45,291.09,-180.45,1.388894,76.44,1
402553,1,33850,0,51293,56483,51005.49,56673.07,287.51,-190.07,1.390512,76.40,1
402593,1,33890,0,51302,56490,51006.09,56672.71,295.91,-182.71,1.392121,76.36,1
402633,1,33930,0,51304,56492,51006.68,56672.35,297.32,-180.35,1.393723,76.33,1
402673,1,33970,0,51301,56499,51007.27,56672.00,293.73,-173.00,1.395319,76.29,1
402713,1,34010,0,51308,56502,51007.87,56671.66,300.12,-169.66,1.396910,76.25,1
402753,1,34050,0,51312,56500,51008.48,56671.32,303.52,-171.32,1.398499,76.22,1
402793,1,34090,0,51310,56513,51009.09,56671.00,300.91,-158.00,1.400086,76.18,1
402833,1,34130,0,51319,56530,51009.71,56670.72,309.29,-140.72,1.401678,76.14,1
402873,1,34170,0,51327,56546,51010.35,56670.48,316.65,-124.48,1.403280,76.11,1
402913,1,34210,0,51332,56561,51010.99,56670.26,321.01,-109.26,1.404895,76.07,1
402953,1,34250,0,51343,56575,51011.66,56670.07,331.34,-95.07,1.406527,76.03,1
402993,1,34290,0,51344,56595,51012.32,56669.92,331.68,-74.92,1.408180,76.00,1
403033,1,34330,0,51357,56606,51013.01,56669.80,343.99,-63.80,1.409857,75.96,1
403073,1,34370,0,51364,56621,51013.71,56669.70,350.29,-48.70,1.411560,75.92,1
403113,1,34410,0,51371,56636,51014.43,56669.63,356.57,-33.63,1.413293,75.88,1
403154,1,34451,0,51374,56647,51015.15,56669.59,358.85,-22.59,1.415055,75.85,1
403194,1,34491,0,51381,56654,51015.88,56669.56,365.12,-15.56,1.416849,75.81,1
403234,1,34531,0,51380,56617,51016.61,56669.45,363.39,-52.45,1.418672,75.77,1
403274,1,34571,0,51366,56597,51017.31,56669.31,348.69,-72.31,1.420518,75.73,1
403314,1,34611,0,51376,56617,51018.03,56669.21,357.97,-52.21,1.422393,75.69,1
403354,1,34651,0,51383,56624,51018.76,56669.12,364.24,-45.12,1.424297,75.65,1
403394,1,34691,0,51395,56640,51019.52,56669.06,375.48,-29.06,1.426235,75.61,1
403434,1,34731,0,51404,56652,51020.29,56669.03,383.71,-17.03,1.428209,75.58,1
403474,1,34771,0,51413,56663,51021.07,56669.02,391.93,-6.02,1.430220,75.54,1
403514,1,34811,0,51413,56663,51021.86,56669.00,391.14,-6.00,1.432269,75.49,1
403554,1,34851,0,51420,56673,51022.65,56669.01,397.35,3.99,1.434357,75.45,1
403594,1,34891,0,51425,56690,51023.46,56669.05,401.54,20.95,1.436485,75.41,1
403634,1,34931,0,51433,56699,51024.28,56669.12,408.72,29.88,1.438654,75.37,1
403674,1,34971,0,51437,56715,51025.11,56669.21,411.89,45.79,1.440863,75.33,1
403714,1,35011,0,51445,56724,51025.95,56669.32,419.05,54.68,1.443113,75.29,1
403754,1,35051,0,51454,56739,51026.80,56669.46,427.20,69.54,1.445404,75.25,1
403794,1,35091,0,51465,56762,51027.68,56669.65,437.32,92.35,1.447733,75.20,1
403834,1,35131,0,51479,56787,51028.59,56669.88,450.41,117.12,1.450099,75.16,1
403874,1,35171,0,51491,56807,51029.51,56670.16,461.49,136.84,1.452496,75.11,1
403914,1,35211,0,51496,56820,51030.45,56670.46,465.55,149.54,1.454923,75.07,1
403954,1,35251,0,51502,56809,51031.39,56670.74,470.61,138.26,1.457383,75.02,1
403994,1,35291,0,51486,56762,51032.30,56670.92,453.70,91.08,1.459885,74.98,1
404034,1,35331,0,51481,56766,51033.20,56671.11,447.80,94.89,1.462426,74.93,1
404074,1,35371,0,51496,56782,51034.12,56671.34,461.87,110.66,1.465005,74.89,1
404114,1,35411,0,51505,56787,51035.07,56671.57,469.93,115.43,1.467623,74.84,1
404154,1,35451,0,51512,56794,51036.02,56671.82,475.98,122.18,1.470279,74.79,1
404194,1,35491,0,51520,56807,51036.99,56672.09,483.01,134.91,1.472971,74.74,1
404234,1,35531,0,51518,56811,51037.96,56672.37,480.04,138.63,1.475695,74.69,1
404274,1,35571,0,51526,56815,51038.93,56672.65,487.07,142.35,1.478451,74.64,1
404314,1,35611,0,51537,56825,51039.93,56672.96,497.07,152.04,1.481239,74.59,1
404354,1,35651,0,51539,56837,51040.93,56673.29,498.07,163.71,1.484052,74.54,1
404394,1,35691,0,51550,56847,51041.95,56673.63,508.05,173.37,1.486890,74.49,1
404434,1,35731,0,51556,56863,51042.98,56674.01,513.02,188.99,1.489744,74.44,1
404474,1,35771,0,51564,56878,51044.02,56674.42,519.98,203.58,1.492609,74.39,1
404514,1,35811,0,51573,56885,51045.08,56674.84,527.92,210.16,1.495483,74.33,1
404554,1,35851,0,51578,56898,51046.15,56675.29,531.85,222.71,1.498359,74.28,1
404594,1,35891,0,51581,56901,51047.22,56675.75,533.78,225.25,1.501237,74.23,1
404634,1,35931,0,51583,56916,51048.29,56676.23,534.71,239.77,1.504107,74.17,1
404674,1,35971,0,51587,56917,51049.37,56676.71,537.63,240.29,1.506970,74.12,1
404714,1,36011,0,51587,56919,51050.45,56677.20,536.55,241.80,1.509824,74.06,1
404754,1,36051,0,51590,56887,51051.53,56677.62,538.47,209.38,1.512689,74.00,1
404794,1,36091,0,51571,56838,51052.57,56677.94,518.43,160.06,1.515583,73.95,1
404834,1,36131,0,51564,56831,51053.59,56678.25,510.41,152.75,1.518504,73.89,1
404874,1,36171,0,51564,56829,51054.62,56678.55,509.38,150.45,1.521453,73.83,1
404914,1,36211,0,51561,56826,51055.63,56678.85,505.37,147.15,1.524431,73.77,1
404954,1,36251,0,51567,56824,51056.66,56679.14,510.34,144.86,1.527439,73.71,1
404994,1,36291,0,51572,56834,51057.69,56679.45,514.31,154.55,1.530473,73.65,1
405034,1,36331,0,51575,56839,51058.72,56679.77,516.28,159.23,1.533532,73.60,1
405074,1,36371,0,51574,56837,51059.75,56680.09,514.25,156.91,1.536615,73.53,1
405114,1,36411,0,51573,56821,51060.78,56680.37,512.22,140.62,1.539729,73.47,1
405154,1,36451,0,51568,56805,51061.80,56680.62,506.20,124.37,1.542876,73.41,1
405194,1,36491,0,51564,56791,51062.80,56680.85,501.20,110.15,1.542876,73.41,0
405234,1,36531,0,51553,56774,51063.78,56681.04,489.22,92.96,1.542876,73.41,0
405274,1,36571,0,51554,56765,51064.76,56681.20,489.24,83.80,1.542876,73.41,0
405314,1,36611,0,51543,56759,51065.72,56681.36,477.28,77.64,1.542876,73.41,0
405354,1,36651,0,51539,56736,51066.67,56681.47,472.33,54.53,1.542876,73.41,0
405394,1,36691,0,51531,56715,51067.60,56681.54,463.40,33.46,1.542876,73.41,0
405434,1,36731,0,51524,56703,51068.51,56681.58,455.49,21.42,1.542876,73.41,0
405474,1,36771,0,51521,56709,51069.42,56681.64,451.58,27.36,1.542876,73.41,0
405514,1,36811,0,51521,56708,51070.32,56681.69,450.68,26.31,1.542876,73.41,0
405554,1,36851,0,51514,56682,51071.21,56681.70,442.79,0.30,1.542876,73.41,0
405594,1,36891,0,51491,56629,51072.05,56681.59,418.95,-52.59,1.542876,73.41,0
405634,1,36931,0,51475,56612,51072.86,56681.45,402.14,-69.45,1.542876,73.41,0
405674,1,36971,0,51480,56615,51073.68,56681.32,406.32,-66.32,1.542876,73.41,0
405714,1,37011,0,51481,56610,51074.50,56681.18,406.50,-71.18,1.542876,73.41,0
405754,1,37051,0,51479,56605,51075.30,56681.03,403.70,-76.03,1.542876,73.41,0
405794,1,37091,0,51479,56610,51076.11,56680.89,402.89,-70.89,1.542876,73.41,0
405834,1,37131,0,51483,56621,51076.93,56680.77,406.07,-59.77,1.542876,73.41,0
405874,1,37171,0,51484,56622,51077.75,56680.65,406.25,-58.65,1.542876,73.41,0
405914,1,37211,0,51484,56634,51078.56,56680.56,405.44,-46.56,1.542876,73.41,0
405954,1,37251,0,51488,56642,51079.38,56680.48,408.62,-38.48,1.542876,73.41,0
405994,1,37291,0,51493,56652,51080.21,56680.43,412.79,-28.43,1.542876,73.41,0
406034,1,37331,0,51499,56664,51081.05,56680.40,417.95,-16.40,1.542876,73.41,0
406074,1,37371,0,51496,56668,51081.88,56680.37,414.12,-12.38,1.542876,73.41,0
406115,1,37412,0,51500,56676,51082.71,56680.37,417.29,-4.37,1.542876,73.41,0
406155,1,37452,0,51499,56677,51083.55,56680.36,415.45,-3.36,1.542876,73.41,0
406195,1,37492,0,51508,56687,51084.40,56680.38,423.60,6.62,1.542876,73.41,0
406235,1,37532,0,51505,56692,51085.24,56680.40,419.76,11.60,1.542876,73.41,0
406275,1,37572,0,51508,56700,51086.09,56680.44,421.91,19.56,1.542876,73.41,0
406315,1,37612,0,51508,56702,51086.93,56680.48,421.07,21.52,1.542876,73.41,0
406355,1,37652,0,51508,56713,51087.78,56680.55,420.22,32.45,1.542876,73.41,0
406395,1,37692,0,51515,56685,51088.63,56680.56,426.37,4.44,1.542876,73.41,0
406435,1,37732,0,51494,56651,51089.45,56680.50,404.55,-29.50,1.542876,73.41,0
406475,1,37772,0,51489,56649,51090.25,56680.44,398.75,-31.44,1.542876,73.41,0
406515,1,37812,0,51494,56657,51091.05,56680.39,402.95,-23.39,1.542876,73.41,0
406555,1,37852,0,51491,56661,51091.86,56680.36,399.14,-19.36,1.542876,73.41,0
406595,1,37892,0,51491,56660,51092.66,56680.32,398.34,-20.32,1.542876,73.41,0
406635,1,37932,0,51495,56657,51093.46,56680.27,401.54,-23.27,1.542876,73.41,0
406675,1,37972,0,51492,56661,51094.26,56680.23,397.74,-19.23,1.542876,73.41,0
406715,1,38012,0,51496,56667,51095.06,56680.21,400.94,-13.21,1.542876,73.41,0
406755,1,38052,0,51494,56676,51095.86,56680.20,398.14,-4.20,1.542876,73.41,0
406795,1,38092,0,51501,56686,51096.68,56680.21,404.32,5.79,1.542876,73.41,0
406835,1,38132,0,51501,56700,51097.48,56680.26,403.52,19.74,1.542876,73.41,0
406875,1,38172,0,51509,56702,51098.31,56680.30,410.69,21.70,1.542876,73.41,0
406915,1,38212,0,51509,56714,51099.13,56680.37,409.87,33.63,1.542876,73.41,0
406955,1,38252,0,51513,56712,51099.96,56680.44,413.04,31.56,1.542876,73.41,0
406995,1,38292,0,51510,56713,51100.78,56680.51,409.22,32.49,1.542876,73.41,0
407035,1,38332,0,51514,56721,51101.61,56680.59,412.39,40.41,1.542876,73.41,0
407075,1,38372,0,51519,56724,51102.45,56680.68,416.55,43.32,1.542876,73.41,0
407115,1,38412,0,51520,56717,51103.28,56680.75,416.72,36.25,1.542876,73.41,0
407155,1,38452,0,51510,56710,51104.10,56680.81,405.90,29.19,1.542876,73.41,0
407195,1,38492,0,51506,56681,51104.90,56680.81,401.10,0.19,1.542876,73.41,0
407235,1,38532,0,51485,56635,51105.66,56680.72,379.34,-45.72,1.542876,73.41,0
407275,1,38572,0,51476,56614,51106.41,56680.59,369.59,-66.59,1.542876,73.41,0
407315,1,38612,0,51471,56611,51107.14,56680.45,363.86,-69.45,1.542876,73.41,0
407355,1,38652,0,51471,56612,51107.87,56680.32,363.13,-68.32,1.542876,73.41,0
407395,1,38692,0,51463,56605,51108.58,56680.17,354.42,-75.17,1.542876,73.41,0
407435,1,38732,0,51458,56595,51109.28,56680.00,348.72,-85.00,1.542876,73.41,0
407475,1,38772,0,51453,56582,51109.96,56679.80,343.04,-97.80,1.542876,73.41,0
407515,1,38812,0,51443,56573,51110.63,56679.59,332.37,-106.59,1.542876,73.41,0
407555,1,38852,0,51438,56556,51111.29,56679.35,326.71,-123.35,1.542876,73.41,0
407595,1,38892,0,51428,56552,51111.92,56679.09,316.08,-127.09,1.542876,73.41,0
407635,1,38932,0,51426,56550,51112.55,56678.84,313.45,-128.84,1.542876,73.41,0
407675,1,38972,0,51422,56550,51113.17,56678.58,308.83,-128.58,1.542876,73.41,0
407715,1,39012,0,51419,56552,51113.79,56678.33,305.21,-126.33,1.542876,73.41,0
407755,1,39052,0,51419,56553,51114.40,56678.08,304.60,-125.08,1.542876,73.41,0
407795,1,39092,0,51419,56556,51115.01,56677.84,303.99,-121.84,1.542876,73.41,0
407835,1,39132,0,51423,56566,51115.62,56677.61,307.37,-111.61,1.542876,73.41,0
407875,1,39172,0,51423,56570,51116.24,56677.40,306.76,-107.40,1.542876,73.41,0
407915,1,39212,0,51426,56576,51116.86,56677.20,309.14,-101.20,1.542876,73.41,0
407955,1,39252,0,51425,56551,51117.48,56676.95,307.52,-125.95,1.542876,73.41,0
407995,1,39292,0,51411,56521,51118.07,56676.64,292.93,-155.64,1.542876,73.41,0
408035,1,39332,0,51407,56521,51118.65,56676.33,288.35,-155.33,1.542876,73.41,0
408075,1,39372,0,51411,56527,51119.23,56676.03,291.77,-149.03,1.542876,73.41,0
408115,1,39412,0,51412,56525,51119.82,56675.73,292.18,-150.73,1.542876,73.41,0
408155,1,39452,0,51412,56533,51120.41,56675.45,291.59,-142.45,1.542876,73.41,0
408195,1,39492,0,51417,56529,51121.00,56675.15,296.00,-146.15,1.542876,73.41,0
408235,1,39532,0,51412,56525,51121.58,56674.85,290.42,-149.85,1.542876,73.41,0
408275,1,39572,0,51404,56521,51122.15,56674.55,281.85,-153.55,1.542876,73.41,0
408315,1,39612,0,51406,56529,51122.72,56674.26,283.28,-145.26,1.542876,73.41,0
408355,1,39652,0,51408,56535,51123.29,56673.98,284.71,-138.98,1.542876,73.41,0
408395,1,39692,0,51407,56544,51123.86,56673.72,283.14,-129.72,1.542876,73.41,0
408435,1,39732,0,51409,56556,51124.43,56673.49,284.57,-117.49,1.542876,73.41,0
408475,1,39772,0,51413,56563,51125.01,56673.27,287.99,-110.27,1.542876,73.41,0
408515,1,39812,0,51414,56572,51125.59,56673.07,288.41,-101.07,1.542876,73.41,0
408555,1,39852,0,51416,56578,51126.17,56672.88,289.83,-94.88,1.542876,73.41,0
408595,1,39892,0,51420,56581,51126.76,56672.70,293.24,-91.70,1.542876,73.41,0
408635,1,39932,0,51417,56594,51127.34,56672.54,289.66,-78.54,1.542876,73.41,0
408675,1,39972,0,51418,56560,51127.92,56672.32,290.08,-112.32,1.542876,73.41,0
408715,1,40012,0,51400,56535,51128.47,56672.05,271.53,-137.05,1.542876,73.41,0
408755,1,40052,0,51396,56551,51129.00,56671.80,267.00,-120.80,1.542876,73.41,0
408795,1,40092,0,51409,56560,51129.57,56671.58,279.43,-111.58,1.542876,73.41,0
408835,1,40132,0,51410,56556,51130.13,56671.35,279.87,-115.35,1.542876,73.41,0
408875,1,40172,0,51410,56564,51130.69,56671.14,279.31,-107.14,1.542876,73.41,0
408915,1,40212,0,51410,56571,51131.25,56670.94,278.75,-99.94,1.542876,73.41,0
408955,1,40252,0,51411,56578,51131.81,56670.75,279.19,-92.75,1.542876,73.41,0
408995,1,40292,0,51416,56579,51132.38,56670.57,283.62,-91.57,1.542876,73.41,0
409035,1,40332,0,51416,56594,51132.95,56670.42,283.05,-76.42,1.542876,73.41,0
409075,1,40372,0,51418,56602,51133.52,56670.28,284.48,-68.28,1.542876,73.41,0
409115,1,40412,0,51421,56610,51134.10,56670.16,286.90,-60.16,1.542876,73.41,0
409155,1,40452,0,51426,56622,51134.69,56670.07,291.31,-48.07,1.542876,73.41,0
409195,1,40492,0,51427,56633,51135.27,56670.00,291.73,-37.00,1.542876,73.41,0
409235,1,40532,0,51429,56650,51135.86,56669.96,293.14,-19.96,1.542876,73.41,0
409275,1,40572,0,51438,56675,51136.47,56669.97,301.53,5.03,1.542876,73.41,0
409315,1,40612,0,51446,56684,51137.09,56670.00,308.91,14.00,1.542876,73.41,0
409355,1,40652,0,51446,56683,51137.71,56670.03,308.29,12.97,1.542876,73.41,0
409395,1,40692,0,51433,56639,51138.30,56669.96,294.70,-30.96,1.542876,73.41,0
409436,1,40733,0,51417,56628,51138.86,56669.88,278.14,-41.88,1.542876,73.41,0
409476,1,40773,0,51424,56645,51139.43,56669.84,284.57,-24.84,1.542876,73.41,0
409516,1,40813,0,51431,56654,51140.02,56669.80,290.98,-15.80,1.542876,73.41,0
409556,1,40853,0,51434,56648,51140.61,56669.76,293.39,-21.76,1.542876,73.41,0
409596,1,40893,0,51431,56657,51141.19,56669.74,289.81,-12.74,1.542876,73.41,0
409636,1,40933,0,51443,56672,51141.80,56669.75,301.20,2.25,1.542876,73.41,0
409676,1,40973,0,51444,56679,51142.40,56669.77,301.60,9.23,1.542876,73.41,0
409716,1,41013,0,51443,56675,51143.00,56669.78,300.00,5.22,1.542876,73.41,0
409756,1,41053,0,51439,56679,51143.60,56669.80,295.40,9.20,1.542876,73.41,0
409796,1,41093,0,51442,56688,51144.20,56669.84,297.80,18.16,1.542876,73.41,0
409836,1,41133,0,51445,56698,51144.80,56669.89,300.20,28.11,1.542876,73.41,0
409876,1,41173,0,51445,56698,51145.40,56669.95,299.60,28.05,1.542876,73.41,0
409916,1,41213,0,51447,56713,51146.00,56670.04,301.00,42.96,1.542876,73.41,0
409956,1,41253,0,51454,56727,51146.62,56670.16,307.38,56.84,1.542876,73.41,0
409996,1,41293,0,51458,56740,51147.25,56670.30,310.75,69.70,1.542876,73.41,0
410036,1,41333,0,51461,56747,51147.87,56670.45,313.12,76.55,1.542876,73.41,0
410076,1,41373,0,51457,56750,51148.50,56670.61,308.50,79.39,1.542876,73.41,0
410116,1,41413,0,51456,56716,51149.11,56670.71,306.89,45.29,1.542876,73.41,0
410156,1,41453,0,51436,56680,51149.69,56670.73,286.31,9.27,1.542876,73.41,0
410196,1,41493,0,51435,56679,51150.26,56670.75,284.74,8.25,1.542876,73.41,0
410236,1,41533,0,51434,56677,51150.83,56670.76,283.17,6.24,1.542876,73.41,0
410276,1,41573,0,51429,56672,51151.39,56670.77,277.61,1.23,1.542876,73.41,0
410316,1,41613,0,51428,56674,51151.94,56670.77,276.06,3.23,1.542876,73.41,0
410356,1,41653,0,51436,56680,51152.51,56670.79,283.49,9.21,1.542876,73.41,0
410396,1,41693,0,51436,56678,51153.08,56670.81,282.92,7.19,1.542876,73.41,0
410436,1,41733,0,51434,56678,51153.64,56670.82,280.36,7.18,1.542876,73.41,0
410476,1,41773,0,51429,56675,51154.19,56670.84,274.81,4.16,1.542876,73.41,0
410516,1,41813,0,51431,56681,51154.75,56670.86,276.25,10.14,1.542876,73.41,0
410556,1,41853,0,51430,56693,51155.30,56670.91,274.70,22.09,1.542876,73.41,0
410596,1,41893,0,51432,56695,51155.85,56670.96,276.15,24.04,1.542876,73.41,0
410636,1,41933,0,51428,56702,51156.40,56671.02,271.60,30.98,1.542876,73.41,0
410676,1,41973,0,51432,56715,51156.95,56671.11,275.05,43.89,1.542876,73.41,0
410716,1,42013,0,51433,56725,51157.50,56671.22,275.50,53.78,1.542876,73.41,0
410756,1,42053,0,51439,56729,51158.07,56671.34,280.93,57.66,1.542876,73.41,0
410796,1,42093,0,51438,56734,51158.63,56671.46,279.37,62.54,1.542876,73.41,0
410836,1,42133,0,51436,56734,51159.18,56671.59,276.82,62.41,1.542876,73.41,0
410876,1,42173,0,51430,56706,51159.73,56671.66,270.27,34.34,1.542876,73.41,0
410916,1,42213,0,51420,56678,51160.25,56671.67,259.75,6.33,1.542876,73.41,0
410956,1,42253,0,51413,56678,51160.76,56671.69,252.24,6.31,1.542876,73.41,0
410996,1,42293,0,51417,56685,51161.27,56671.71,255.73,13.29,1.542876,73.41,0
411036,1,42333,0,51414,56678,51161.78,56671.73,252.22,6.27,1.542876,73.41,0
411076,1,42373,0,51417,56679,51162.29,56671.75,254.71,7.25,1.542876,73.41,0
411116,1,42413,0,51415,56687,51162.80,56671.78,252.20,15.22,1.542876,73.41,0
411156,1,42453,0,51420,56689,51163.32,56671.81,256.68,17.19,1.542876,73.41,0
411196,1,42493,0,51421,56703,51163.83,56671.87,257.17,31.12,1.542876,73.41,0
411236,1,42533,0,51421,56705,51164.35,56671.94,256.65,33.06,1.542876,73.41,0
411276,1,42573,0,51423,56714,51164.87,56672.03,258.13,41.97,1.542876,73.41,0
411316,1,42613,0,51421,56723,51165.38,56672.13,255.62,50.87,1.542876,73.41,0
411356,1,42653,0,51432,56736,51165.91,56672.26,266.09,63.74,1.542876,73.41,0
411396,1,42693,0,51430,56737,51166.45,56672.39,263.55,64.61,1.542876,73.41,0
411436,1,42733,0,51427,56746,51166.97,56672.54,260.03,73.46,1.542876,73.41,0
411476,1,42773,0,51432,56752,51167.50,56672.70,264.50,79.30,1.542876,73.41,0
411516,1,42813,0,51430,56752,51168.03,56672.86,261.97,79.14,1.542876,73.41,0
411556,1,42853,0,51425,56750,51168.54,56673.02,256.46,76.98,1.542876,73.41,0
411596,1,42893,0,51417,56749,51169.04,56673.17,247.96,75.83,1.542876,73.41,0
411636,1,42933,0,51419,56732,51169.54,56673.29,249.46,58.71,1.542876,73.41,0
411676,1,42973,0,51404,56683,51170.01,56673.30,233.99,9.70,1.542876,73.41,0
411716,1,43013,0,51384,56664,51170.44,56673.29,213.56,-9.29,1.542876,73.41,0
411756,1,43053,0,51380,56664,51170.86,56673.27,209.14,-9.27,1.542876,73.41,0
411796,1,43093,0,51377,56658,51171.28,56673.25,205.72,-15.25,1.542876,73.41,0
411836,1,43133,0,51370,56648,51171.68,56673.20,198.32,-25.20,1.542876,73.41,0
411876,1,43173,0,51368,56652,51172.07,56673.16,195.93,-21.16,1.542876,73.41,0
411916,1,43213,0,51362,56638,51172.45,56673.09,189.55,-35.09,1.542876,73.41,0
411956,1,43253,0,51352,56621,51172.81,56672.98,179.19,-51.98,1.542876,73.41,0
411996,1,43293,0,51339,56610,51173.14,56672.86,165.86,-62.86,1.542876,73.41,0
412036,1,43333,0,51336,56596,51173.47,56672.71,162.53,-76.71,1.542876,73.41,0
412076,1,43373,0,51320,56579,51173.77,56672.52,146.23,-93.52,1.542876,73.41,0
412116,1,43413,0,51314,56570,51174.05,56672.32,139.95,-102.32,1.542876,73.41,0
412156,1,43453,0,51305,56563,51174.31,56672.10,130.69,-109.10,1.542876,73.41,0
412196,1,43493,0,51293,56552,51174.55,56671.86,118.45,-119.86,1.542876,73.41,0
412236,1,43533,0,51288,56547,51174.77,56671.61,113.23,-124.61,1.542876,73.41,0
412276,1,43573,0,51280,56539,51174.98,56671.34,105.02,-132.34,1.542876,73.41,0
412316,1,43613,0,51274,56539,51175.18,56671.08,98.82,-132.08,1.542876,73.41,0
412356,1,43653,0,51271,56538,51175.37,56670.82,95.62,-132.82,1.542876,73.41,0
412396,1,43693,0,51265,56517,51175.55,56670.51,89.45,-153.51,1.542876,73.41,0
412436,1,43733,0,51250,56476,51175.70,56670.12,74.30,-194.12,1.542876,73.41,0
412476,1,43773,0,51240,56476,51175.83,56669.74,64.17,-193.74,1.542876,73.41,0
412516,1,43813,0,51239,56484,51175.96,56669.37,63.04,-185.37,1.542876,73.41,0
412556,1,43853,0,51238,56481,51176.09,56668.99,61.91,-187.99,1.542876,73.41,0
412596,1,43893,0,51236,56486,51176.21,56668.63,59.79,-182.63,1.542876,73.41,0
412637,1,43934,0,51242,56497,51176.34,56668.29,65.66,-171.29,1.542876,73.41,0
412677,1,43974,0,51243,56495,51176.47,56667.95,66.53,-172.95,1.542876,73.41,0
412717,1,44014,0,51241,56493,51176.60,56667.60,64.40,-174.60,1.542876,73.41,0
412757,1,44054,0,51235,56492,51176.72,56667.25,58.28,-175.25,1.542876,73.41,0
412797,1,44094,0,51234,56500,51176.84,56666.91,57.16,-166.91,1.542876,73.41,0
412837,1,44134,0,51237,56508,51176.96,56666.60,60.04,-158.60,1.542876,73.41,0
412877,1,44174,0,51237,56515,51177.08,56666.30,59.92,-151.30,1.542876,73.41,0
412917,1,44214,0,51239,56515,51177.20,56666.00,61.80,-151.00,1.542876,73.41,0
412957,1,44254,0,51236,56519,51177.32,56665.70,58.68,-146.70,1.542876,73.41,0
412997,1,44294,0,51234,56532,51177.43,56665.44,56.57,-133.44,1.542876,73.41,0
413037,1,44334,0,51235,56539,51177.55,56665.19,57.45,-126.19,1.542876,73.41,0
413077,1,44374,0,51239,56543,51177.68,56664.95,61.32,-121.95,1.542876,73.41,0
413117,1,44414,0,51237,56543,51177.80,56664.70,59.20,-121.70,1.542876,73.41,0
413157,1,44454,0,51224,56506,51177.89,56664.39,46.11,-158.39,1.542876,73.41,0
413197,1,44494,0,51212,56501,51177.96,56664.06,34.04,-163.06,1.542876,73.41,0
413237,1,44534,0,51219,56516,51178.04,56663.77,40.96,-147.77,1.542876,73.41,0
413277,1,44574,0,51222,56523,51178.13,56663.49,43.87,-140.49,1.542876,73.41,0
413317,1,44614,0,51224,56528,51178.23,56663.22,45.77,-135.22,1.542876,73.41,0
413357,1,44654,0,51230,56537,51178.33,56662.97,51.67,-125.97,1.542876,73.41,0
413397,1,44694,0,51231,56547,51178.44,56662.74,52.56,-115.74,1.542876,73.41,0
413437,1,44734,0,51232,56548,51178.55,56662.51,53.45,-114.51,1.542876,73.41,0
413477,1,44774,0,51233,56543,51178.66,56662.27,54.34,-119.27,1.542876,73.41,0
413517,1,44814,0,51229,56557,51178.76,56662.06,50.24,-105.06,1.542876,73.41,0
413557,1,44854,0,51237,56564,51178.87,56661.87,58.13,-97.87,1.542876,73.41,0
413597,1,44894,0,51238,56574,51179.00,56661.69,59.00,-87.69,1.542876,73.41,0
413637,1,44934,0,51241,56589,51179.12,56661.55,61.88,-72.55,1.542876,73.41,0
413677,1,44974,0,51246,56596,51179.26,56661.42,66.74,-65.42,1.542876,73.41,0
413717,1,45014,0,51249,56604,51179.40,56661.30,69.60,-57.30,1.542876,73.41,0
413757,1,45054,0,51253,56618,51179.55,56661.22,73.45,-43.22,1.542876,73.41,0
413797,1,45094,0,51256,56629,51179.70,56661.16,76.30,-32.16,1.542876,73.41,0
413837,1,45134,0,51253,56634,51179.85,56661.10,73.15,-27.10,1.542876,73.41,0
413877,1,45174,0,51248,56599,51179.98,56660.98,68.02,-61.98,1.542876,73.41,0
413917,1,45214,0,51236,56582,51180.10,56660.82,55.90,-78.82,1.542876,73.41,0
413957,1,45254,0,51242,56601,51180.22,56660.71,61.78,-59.71,1.546047,73.35,1
413997,1,45294,0,51252,56613,51180.37,56660.61,71.63,-47.61,1.549205,73.29,1
414037,1,45334,0,51258,56615,51180.52,56660.52,77.48,-45.52,1.552349,73.23,1
414077,1,45374,0,51251,56615,51180.66,56660.43,70.34,-45.43,1.555480,73.16,1
414117,1,45414,0,51260,56643,51180.82,56660.40,79.18,-17.40,1.558604,73.10,1
414157,1,45454,0,51266,56646,51181.00,56660.37,85.00,-14.37,1.561723,73.03,1
414197,1,45494,0,51266,56649,51181.17,56660.35,84.83,-11.35,1.564837,72.97,1
414237,1,45534,0,51264,56657,51181.34,56660.35,82.66,-3.35,1.564837,72.97,0
414277,1,45574,0,51269,56662,51181.51,56660.35,87.49,1.65,1.564837,72.97,0
414317,1,45614,0,51270,56668,51181.69,56660.37,88.31,7.63,1.564837,72.97,0
414357,1,45654,0,51272,56679,51181.87,56660.41,90.12,18.59,1.564837,72.97,0
414397,1,45694,0,51278,56691,51182.07,56660.47,95.93,30.53,1.564837,72.97,0
414437,1,45734,0,51281,56700,51182.27,56660.55,98.73,39.45,1.564837,72.97,0
414477,1,45774,0,51286,56713,51182.48,56660.66,103.52,52.34,1.564837,72.97,0
414517,1,45814,0,51292,56719,51182.70,56660.77,109.30,58.23,1.564837,72.97,0
414557,1,45854,0,51294,56728,51182.92,56660.91,111.08,67.09,1.564837,72.97,0
414597,1,45894,0,51287,56737,51183.13,56661.06,103.87,75.94,1.567932,72.90,1
414637,1,45934,0,51283,56703,51183.33,56661.15,99.67,41.85,1.571018,72.84,1
414677,1,45974,0,51270,56681,51183.50,56661.19,86.50,19.81,1.574098,72.77,1
414717,1,46014,0,51268,56682,51183.68,56661.23,84.32,20.77,1.577172,72.71,1
414757,1,46054,0,51265,56688,51183.84,56661.29,81.16,26.71,1.580239,72.64,1
414797,1,46094,0,51267,56692,51184.01,56661.35,82.99,30.65,1.583298,72.57,1
414837,1,46134,0,51267,56691,51184.18,56661.41,82.82,29.59,1.583298,72.57,0
414877,1,46174,0,51274,56706,51184.36,56661.50,89.64,44.50,1.586347,72.51,1
414917,1,46214,0,51273,56705,51184.54,56661.59,88.46,43.41,1.589386,72.44,1
414957,1,46254,0,51276,56710,51184.72,56661.69,91.28,48.31,1.592411,72.37,1
414997,1,46294,0,51272,56716,51184.89,56661.80,87.11,54.20,1.595421,72.30,1
415037,1,46334,0,51275,56721,51185.07,56661.92,89.93,59.08,1.598414,72.24,1
415077,1,46374,0,51277,56723,51185.26,56662.05,91.74,60.95,1.601388,72.17,1
415117,1,46414,0,51276,56715,51185.44,56662.15,90.56,52.85,1.604348,72.10,1
415157,1,46454,0,51271,56706,51185.61,56662.24,85.39,43.76,1.607297,72.03,1
415197,1,46494,0,51265,56688,51185.77,56662.30,79.23,25.70,1.610239,71.96,1
415237,1,46534,0,51252,56674,51185.91,56662.32,66.09,11.68,1.613175,71.89,1
415277,1,46574,0,51245,56667,51186.03,56662.33,58.97,4.67,1.616104,71.83,1
415317,1,46614,0,51244,56674,51186.14,56662.36,57.86,11.64,1.619027,71.76,1
415357,1,46654,0,51244,56678,51186.26,56662.39,57.74,15.61,1.621943,71.69,1
415397,1,46694,0,51239,56680,51186.37,56662.42,52.63,17.58,1.624852,71.62,1
415437,1,46734,0,51234,56648,51186.46,56662.39,47.54,-14.39,1.627752,71.55,1
415477,1,46774,0,51217,56629,51186.53,56662.33,30.47,-33.33,1.630639,71.48,1
415517,1,46814,0,51222,56635,51186.60,56662.27,35.40,-27.27,1.633515,71.41,1
415557,1,46854,0,51220,56647,51186.67,56662.25,33.33,-15.25,1.636383,71.34,1
415597,1,46894,0,51224,56644,51186.74,56662.21,37.26,-18.21,1.639241,71.27,1
415637,1,46934,0,51219,56654,51186.81,56662.20,32.19,-8.20,1.642091,71.20,1
415677,1,46974,0,51223,56667,51186.88,56662.21,36.12,4.79,1.644934,71.13,1
415717,1,47014,0,51225,56669,51186.96,56662.22,38.04,6.78,1.647770,71.06,1
415757,1,47054,0,51225,56665,51187.04,56662.23,37.96,2.77,1.650598,70.99,1
415797,1,47094,0,51219,56673,51187.11,56662.25,31.89,10.75,1.653418,70.92,1
415837,1,47134,0,51221,56679,51187.18,56662.29,33.82,16.71,1.656229,70.85,1
415877,1,47174,0,51225,56686,51187.25,56662.34,37.75,23.66,1.659030,70.78,1
415918,1,47215,0,51223,56688,51187.33,56662.39,35.67,25.61,1.661821,70.71,1
415958,1,47255,0,51227,56693,51187.41,56662.46,39.59,30.54,1.664600,70.64,1
415998,1,47295,0,51223,56690,51187.48,56662.51,35.52,27.49,1.667367,70.57,1
416038,1,47335,0,51218,56695,51187.55,56662.58,30.45,32.42,1.670122,70.50,1
416078,1,47375,0,51221,56696,51187.61,56662.64,33.39,33.36,1.672864,70.43,1
416118,1,47415,0,51217,56700,51187.67,56662.72,29.33,37.28,1.675591,70.36,1
416158,1,47455,0,51217,56700,51187.73,56662.80,29.27,37.20,1.678303,70.29,1
416198,1,47495,0,51207,56688,51187.77,56662.85,19.23,25.15,1.681004,70.22,1
416238,1,47535,0,51201,56674,51187.80,56662.87,13.20,11.13,1.683697,70.15,1
416278,1,47575,0,51187,56637,51187.80,56662.82,-0.80,-25.82,1.686378,70.09,1
416318,1,47615,0,51173,56624,51187.77,56662.74,-14.77,-38.74,1.689042,70.02,1
416358,1,47655,0,51171,56628,51187.74,56662.68,-16.74,-34.68,1.691692,69.95,1
416398,1,47695,0,51171,56627,51187.71,56662.61,-16.71,-35.61,1.694327,69.88,1
416438,1,47735,0,51163,56625,51187.66,56662.53,-24.66,-37.53,1.696947,69.81,1
416478,1,47775,0,51160,56627,51187.61,56662.46,-27.61,-35.46,1.699553,69.74,1
416518,1,47815,0,51157,56615,51187.55,56662.37,-30.55,-47.37,1.702139,69.67,1
416558,1,47855,0,51152,56615,51187.48,56662.27,-35.48,-47.27,1.704706,69.60,1
416598,1,47895,0,51148,56607,51187.40,56662.16,-39.40,-55.16,1.707249,69.53,1
416638,1,47935,0,51139,56600,51187.30,56662.04,-48.30,-62.04,1.709764,69.47,1
416678,1,47975,0,51136,56603,51187.20,56661.93,-51.20,-58.93,1.712255,69.40,1
416718,1,48015,0,51133,56601,51187.10,56661.80,-54.10,-60.80,1.714720,69.33,1
416758,1,48055,0,51133,56601,51186.99,56661.68,-53.99,-60.68,1.717159,69.26,1
416798,1,48095,0,51128,56600,51186.87,56661.56,-58.88,-61.56,1.719572,69.19,1
416838,1,48135,0,51124,56604,51186.75,56661.45,-62.75,-57.45,1.721964,69.13,1
416878,1,48175,0,51129,56612,51186.64,56661.35,-57.64,-49.35,1.724337,69.06,1
416918,1,48215,0,51126,56618,51186.52,56661.27,-60.52,-43.27,1.726696,68.99,1
416958,1,48255,0,51126,56624,51186.39,56661.19,-60.39,-37.19,1.729045,68.93,1
416998,1,48295,0,51124,56631,51186.27,56661.13,-62.27,-30.13,1.731385,68.86,1
417038,1,48335,0,51127,56613,51186.15,56661.04,-59.15,-48.04,1.733709,68.79,1
417078,1,48375,0,51108,56589,51186.00,56660.89,-78.00,-71.89,1.736001,68.73,1
417118,1,48415,0,51107,56587,51185.84,56660.75,-78.84,-73.75,1.738261,68.66,1
417158,1,48455,0,51110,56607,51185.69,56660.64,-75.69,-53.64,1.740503,68.60,1
417198,1,48495,0,51115,56613,51185.55,56660.55,-70.55,-47.55,1.742731,68.53,1
417238,1,48535,0,51117,56624,51185.41,56660.48,-68.41,-36.48,1.744950,68.47,1
417278,1,48575,0,51119,56630,51185.28,56660.42,-66.28,-30.42,1.747162,68.40,1
417318,1,48615,0,51121,56634,51185.15,56660.37,-64.15,-26.37,1.749368,68.34,1
417358,1,48655,0,51122,56640,51185.03,56660.33,-63.03,-20.33,1.751570,68.28,1
417398,1,48695,0,51117,56642,51184.89,56660.30,-67.89,-18.30,1.753769,68.21,1
417438,1,48735,0,51124,56662,51184.77,56660.30,-60.77,1.70,1.755966,68.15,1
417478,1,48775,0,51132,56682,51184.67,56660.34,-52.67,21.66,1.758157,68.09,1
417518,1,48815,0,51137,56700,51184.57,56660.43,-47.57,39.57,1.760334,68.02,1
417558,1,48855,0,51142,56708,51184.49,56660.52,-42.49,47.48,1.762492,67.96,1
417598,1,48895,0,51140,56713,51184.41,56660.63,-44.41,52.37,1.764628,67.90,1
417638,1,48935,0,51142,56719,51184.32,56660.75,-42.32,58.25,1.766738,67.84,1
417678,1,48975,0,51142,56726,51184.24,56660.88,-42.24,65.12,1.768815,67.77,1
417718,1,49015,0,51142,56729,51184.16,56661.02,-42.16,67.98,1.770859,67.71,1
417758,1,49055,0,51142,56735,51184.08,56661.16,-42.08,73.84,1.772862,67.65,1
417798,1,49095,0,51138,56704,51183.99,56661.25,-45.99,42.75,1.774851,67.59,1
417838,1,49135,0,51130,56705,51183.88,56661.34,-53.88,43.66,1.776825,67.53,1
417878,1,49175,0,51134,56718,51183.79,56661.45,-49.79,56.55,1.778775,67.47,1
417918,1,49215,0,51134,56726,51183.69,56661.58,-49.69,64.42,1.780695,67.41,1
417958,1,49255,0,51139,56734,51183.60,56661.73,-44.60,72.27,1.782577,67.35,1
417998,1,49295,0,51138,56740,51183.51,56661.88,-45.51,78.12,1.784417,67.29,1
418038,1,49335,0,51136,56747,51183.41,56662.05,-47.41,84.95,1.786207,67.23,1
418078,1,49375,0,51139,56753,51183.33,56662.24,-44.33,90.76,1.787940,67.18,1
418118,1,49415,0,51141,56760,51183.25,56662.43,-42.25,97.57,1.789611,67.12,1
418158,1,49455,0,51143,56771,51183.17,56662.65,-40.17,108.35,1.791204,67.06,1
418198,1,49495,0,51148,56783,51183.10,56662.89,-35.10,120.11,1.792707,67.01,1
418238,1,49535,0,51154,56808,51183.04,56663.19,-29.04,144.81,1.794082,66.95,1
418278,1,49575,0,51165,56827,51183.00,56663.52,-18.00,163.48,1.795303,66.89,1
418318,1,49615,0,51172,56865,51182.98,56663.92,-10.98,201.08,1.796309,66.84,1
418358,1,49655,0,51186,56889,51182.99,56664.37,3.01,224.62,1.797073,66.79,1
418398,1,49695,0,51189,56905,51183.00,56664.86,6.00,240.14,1.797590,66.74,1
418438,1,49735,0,51198,56923,51183.04,56665.38,14.96,257.62,1.797853,66.69,1
418478,1,49775,0,51202,56930,51183.07,56665.91,18.93,264.09,1.797881,66.64,1
418518,1,49815,0,51198,56914,51183.11,56666.41,14.89,247.59,1.797724,66.59,1
418558,1,49855,0,51182,56882,51183.11,56666.84,-1.11,215.16,1.797437,66.54,1
418598,1,49895,0,51179,56898,51183.10,56667.30,-4.10,230.70,1.797013,66.50,1
418638,1,49935,0,51188,56933,51183.11,56667.84,4.89,265.16,1.796421,66.46,1
418678,1,49975,0,51205,56966,51183.16,56668.43,21.84,297.57,1.795639,66.42,1
418718,1,50015,0,51213,56985,51183.22,56669.07,29.78,315.93,1.794668,66.38,1
418758,1,50055,0,51222,57006,51183.30,56669.74,38.70,336.26,1.793508,66.34,1
418798,1,50095,0,51230,57016,51183.39,56670.44,46.61,345.56,1.792172,66.31,1
418838,1,50135,0,51228,57014,51183.48,56671.12,44.52,342.87,1.790684,66.27,1
418878,1,50175,0,51225,57014,51183.57,56671.81,41.43,342.19,1.789060,66.24,1
418919,1,50216,0,51227,57021,51183.66,56672.51,43.34,348.49,1.787309,66.22,1
418959,1,50256,0,51226,57022,51183.74,56673.21,42.26,348.79,1.785443,66.19,1
418999,1,50296,0,51226,57023,51183.83,56673.91,42.17,349.09,1.783473,66.17,1
419039,1,50336,0,51226,57018,51183.91,56674.60,42.09,343.40,1.781411,66.15,1
419079,1,50376,0,51218,57018,51183.98,56675.29,34.02,342.71,1.779264,66.13,1
419119,1,50416,0,51215,57017,51184.05,56675.97,30.95,341.03,1.777040,66.11,1
419159,1,50456,0,51218,57029,51184.12,56676.68,33.88,352.32,1.774741,66.10,1
419199,1,50496,0,51221,57032,51184.19,56677.39,36.81,354.61,1.772370,66.08,1
419239,1,50536,0,51218,57045,51184.26,56678.13,33.74,366.87,1.769927,66.07,1
419279,1,50576,0,51214,57018,51184.32,56678.81,29.68,339.19,1.767430,66.07,1
419319,1,50616,0,51204,56998,51184.36,56679.45,19.64,318.55,1.764887,66.06,1
419359,1,50656,0,51200,56994,51184.39,56680.08,15.61,313.92,1.762303,66.06,1
419399,1,50696,0,51201,57000,51184.43,56680.72,16.57,319.28,1.759678,66.06,1
419439,1,50736,0,51202,56997,51184.46,56681.35,17.54,315.65,1.757015,66.06,1
419479,1,50776,0,51196,56999,51184.49,56681.99,11.51,317.01,1.754316,66.06,1
419519,1,50816,0,51196,57007,51184.51,56682.64,11.49,324.36,1.751582,66.06,1
419559,1,50856,0,51197,57013,51184.54,56683.30,12.46,329.70,1.748811,66.07,1
419599,1,50896,0,51200,57015,51184.57,56683.97,15.43,331.03,1.746007,66.08,1
419639,1,50936,0,51202,57020,51184.61,56684.64,17.39,335.36,1.743169,66.09,1
419679,1,50976,0,51199,57022,51184.64,56685.32,14.36,336.68,1.740300,66.10,1
419719,1,51016,0,51195,57024,51184.66,56686.00,10.34,338.00,1.737400,66.12,1
419759,1,51056,0,51199,57019,51184.69,56686.66,14.31,332.34,1.734473,66.13,1
419799,1,51096,0,51197,57015,51184.72,56687.32,12.28,327.68,1.731520,66.15,1
419839,1,51136,0,51193,57022,51184.74,56687.99,8.26,334.01,1.728542,66.17,1
419879,1,51176,0,51195,57026,51184.76,56688.67,10.24,337.33,1.725540,66.19,1
419919,1,51216,0,51195,57032,51184.79,56689.36,10.21,342.64,1.722513,66.21,1
419959,1,51256,0,51197,57031,51184.81,56690.04,12.19,340.96,1.719463,66.23,1
419999,1,51296,0,51191,57020,51184.83,56690.70,6.17,329.30,1.716394,66.26,1
420039,1,51336,0,51177,56981,51184.81,56691.28,-7.81,289.72,1.713312,66.29,1
420079,1,51376,0,51165,56972,51184.77,56691.84,-19.77,280.16,1.710219,66.32,1
420119,1,51416,0,51166,56977,51184.74,56692.41,-18.74,284.59,1.707116,66.35,1
420159,1,51456,0,51166,56977,51184.70,56692.98,-18.70,284.02,1.704002,66.38,1
420199,1,51496,0,51167,56974,51184.67,56693.55,-17.67,280.45,1.700880,66.41,1
420239,1,51536,0,51161,56972,51184.62,56694.11,-23.62,277.89,1.697749,66.45,1
420279,1,51576,0,51161,56967,51184.57,56694.65,-23.57,272.35,1.694610,66.48,1
420319,1,51616,0,51155,56962,51184.52,56695.19,-29.52,266.81,1.691465,66.52,1
420359,1,51656,0,51146,56955,51184.44,56695.71,-38.44,259.29,1.688316,66.56,1
420399,1,51696,0,51143,56956,51184.36,56696.23,-41.36,259.77,1.685161,66.60,1
420439,1,51736,0,51150,56973,51184.29,56696.79,-34.29,276.21,1.682001,66.64,1
420479,1,51776,0,51166,56991,51184.26,56697.37,-18.26,293.62,1.678832,66.68,1
420519,1,51816,0,51170,56999,51184.23,56697.98,-14.23,301.02,1.675653,66.72,1
420559,1,51856,0,51172,57007,51184.21,56698.60,-12.21,308.40,1.672464,66.77,1
420599,1,51896,0,51175,57010,51184.19,56699.23,-9.19,310.77,1.669265,66.81,1
420639,1,51936,0,51171,57004,51184.17,56699.84,-13.17,304.16,1.666058,66.86,1
420679,1,51976,0,51170,56996,51184.14,56700.43,-14.14,295.57,1.662843,66.90,1
420719,1,52016,0,51156,56961,51184.09,56700.95,-28.09,260.05,1.659626,66.95,1
420759,1,52056,0,51146,56936,51184.01,56701.43,-38.01,234.57,1.656409,67.00,1
420799,1,52096,0,51142,56933,51183.93,56701.89,-41.93,231.11,1.653193,67.05,1
420839,1,52136,0,51145,56925,51183.85,56702.34,-38.85,222.66,1.649978,67.10,1
420879,1,52176,0,51138,56921,51183.76,56702.78,-45.76,218.22,1.646765,67.15,1
420919,1,52216,0,51131,56919,51183.66,56703.21,-52.66,215.79,1.643555,67.21,1
420959,1,52256,0,51135,56921,51183.56,56703.65,-48.56,217.35,1.640348,67.26,1
420999,1,52296,0,51125,56899,51183.44,56704.04,-58.44,194.96,1.637146,67.31,1
421039,1,52336,0,51115,56888,51183.30,56704.41,-68.30,183.59,1.633950,67.37,1
421079,1,52376,0,51104,56873,51183.15,56704.75,-79.15,168.25,1.630763,67.43,1
421119,1,52416,0,51099,56872,51182.98,56705.09,-83.98,166.91,1.627585,67.48,1
421159,1,52456,0,51098,56863,51182.81,56705.40,-84.81,157.60,1.624418,67.54,1
421199,1,52496,0,51091,56864,51182.63,56705.72,-91.63,158.28,1.621261,67.60,1
421239,1,52536,0,51086,56857,51182.44,56706.03,-96.44,150.97,1.618116,67.66,1
421279,1,52576,0,51092,56858,51182.26,56706.33,-90.26,151.67,1.614981,67.71,1
421319,1,52616,0,51090,56847,51182.07,56706.61,-92.07,140.39,1.611859,67.77,1
421359,1,52656,0,51082,56830,51181.87,56706.86,-99.87,123.14,1.608750,67.83,1
421399,1,52696,0,51071,56789,51181.66,56707.03,-110.66,81.97,1.605657,67.90,1
421439,1,52736,0,51059,56780,51181.41,56707.18,-122.41,72.82,1.602584,67.96,1
421479,1,52776,0,51054,56780,51181.16,56707.32,-127.16,72.68,1.599531,68.02,1
421519,1,52816,0,51058,56775,51180.91,56707.46,-122.91,67.54,1.596497,68.08,1
421559,1,52856,0,51056,56773,51180.66,56707.59,-124.66,65.41,1.593482,68.14,1
421599,1,52896,0,51051,56773,51180.41,56707.73,-129.41,65.27,1.590488,68.21,1
421639,1,52936,0,51047,56754,51180.14,56707.82,-133.14,46.18,1.587515,68.27,1
421679,1,52976,0,51027,56729,51179.84,56707.86,-152.84,21.14,1.584569,68.33,1
421719,1,53016,0,51020,56727,51179.52,56707.90,-159.52,19.10,1.581649,68.40,1
421759,1,53056,0,51019,56723,51179.20,56707.93,-160.20,15.07,1.578757,68.46,1
421799,1,53096,0,51015,56723,51178.87,56707.96,-163.87,15.04,1.575894,68.52,1
421839,1,53136,0,51010,56714,51178.54,56707.98,-168.54,6.02,1.573060,68.59,1
421879,1,53176,0,50999,56710,51178.18,56707.98,-179.18,2.02,1.570257,68.65,1
421919,1,53216,0,50998,56710,51177.82,56707.98,-179.82,2.02,1.567487,68.72,1
421959,1,53256,0,50995,56712,51177.45,56707.99,-182.45,4.01,1.564749,68.78,1
421999,1,53296,0,50992,56692,51177.08,56707.96,-185.08,-15.96,1.562045,68.85,1
422039,1,53336,0,50980,56649,51176.69,56707.84,-196.69,-58.84,1.559375,68.91,1
422080,1,53377,0,50958,56620,51176.25,56707.67,-218.25,-87.67,1.556746,68.98,1
422120,1,53417,0,50956,56628,51175.81,56707.51,-219.81,-79.51,1.554157,69.04,1
422160,1,53457,0,50953,56613,51175.37,56707.32,-222.37,-94.32,1.551608,69.11,1
422200,1,53497,0,50944,56599,51174.91,56707.11,-230.91,-108.11,1.549102,69.17,1
422240,1,53537,0,50937,56593,51174.43,56706.88,-237.43,-113.88,1.546638,69.24,1
422280,1,53577,0,50931,56576,51173.95,56706.62,-242.95,-130.62,1.544217,69.30,1
422320,1,53617,0,50922,56559,51173.45,56706.33,-251.45,-147.33,1.541839,69.37,1
422360,1,53657,0,50914,56553,51172.93,56706.02,-258.93,-153.02,1.539506,69.43,1
422400,1,53697,0,50910,56545,51172.41,56705.70,-262.41,-160.70,1.537218,69.50,1
422440,1,53737,0,50909,56543,51171.88,56705.38,-262.88,-162.38,1.534973,69.56,1
422480,1,53777,0,50903,56540,51171.34,56705.05,-268.34,-165.05,1.532773,69.62,1
422520,1,53817,0,50896,56527,51170.79,56704.70,-274.79,-177.70,1.530616,69.69,1
422560,1,53857,0,50882,56516,51170.21,56704.32,-288.21,-188.32,1.528506,69.75,1
422600,1,53897,0,50879,56506,51169.63,56703.93,-290.63,-197.93,1.526440,69.81,1
422640,1,53937,0,50872,56483,51169.04,56703.48,-297.04,-220.48,1.524418,69.87,1
422680,1,53977,0,50854,56446,51168.41,56702.97,-314.41,-256.97,1.522436,69.94,1
422720,1,54017,0,50845,56448,51167.77,56702.46,-322.77,-254.46,1.520498,70.00,1
422760,1,54057,0,50851,56451,51167.13,56701.96,-316.13,-250.96,1.518600,70.06,1
422800,1,54097,0,50852,56459,51166.50,56701.48,-314.50,-242.48,1.516741,70.12,1
422840,1,54137,0,50857,56463,51165.89,56701.00,-308.89,-238.00,1.514920,70.18,1
422880,1,54177,0,50857,56466,51165.27,56700.54,-308.27,-234.54,1.513135,70.24,1
422920,1,54217,0,50852,56474,51164.64,56700.08,-312.64,-226.08,1.511389,70.30,1
422960,1,54257,0,50855,56476,51164.03,56699.64,-309.03,-223.64,1.509679,70.36,1
423000,1,54297,0,50861,56490,51163.42,56699.22,-302.42,-209.22,1.508005,70.42,1
423040,1,54337,0,50861,56504,51162.82,56698.83,-301.82,-194.83,1.506369,70.47,1
423080,1,54377,0,50866,56508,51162.22,56698.45,-296.22,-190.45,1.504767,70.53,1
423120,1,54417,0,50865,56519,51161.63,56698.09,-296.63,-179.09,1.503202,70.59,1
423160,1,54457,0,50872,56530,51161.05,56697.75,-289.05,-167.75,1.501672,70.64,1
423200,1,54497,0,50875,56542,51160.48,56697.45,-285.48,-155.45,1.500177,70.70,1
423240,1,54537,0,50883,56550,51159.93,56697.15,-276.93,-147.15,1.498716,70.75,1
423280,1,54577,0,50883,56529,51159.37,56696.82,-276.37,-167.82,1.497284,70.81,1
423320,1,54617,0,50879,56522,51158.82,56696.47,-279.82,-174.47,1.495882,70.86,1
423360,1,54657,0,50887,56530,51158.27,56696.14,-271.27,-166.14,1.494508,70.92,1
423400,1,54697,0,50883,56534,51157.72,56695.81,-274.72,-161.81,1.493163,70.97,1
423440,1,54737,0,50889,56554,51157.19,56695.53,-268.19,-141.53,1.491849,71.02,1
423480,1,54777,0,50913,56599,51156.70,56695.34,-243.70,-96.34,1.490562,71.07,1
423520,1,54817,0,50936,56617,51156.26,56695.18,-220.26,-78.18,1.489299,71.12,1
423560,1,54857,0,50936,56603,51155.82,56695.00,-219.82,-92.00,1.488060,71.17,1
423600,1,54897,0,50921,56574,51155.35,56694.76,-234.35,-120.76,1.486844,71.22,1
423640,1,54937,0,50900,56541,51154.84,56694.45,-254.84,-153.45,1.485652,71.27,1
423680,1,54977,0,50887,56542,51154.31,56694.15,-267.31,-152.15,1.484487,71.32,1
423720,1,55017,0,50885,56541,51153.77,56693.84,-268.77,-152.84,1.483348,71.37,1
423760,1,55057,0,50892,56548,51153.25,56693.55,-261.25,-145.55,1.482236,71.42,1
423800,1,55097,0,50893,56542,51152.73,56693.25,-259.73,-151.25,1.481147,71.46,1
423840,1,55137,0,50890,56530,51152.20,56692.93,-262.20,-162.93,1.480081,71.51,1
423880,1,55177,0,50878,56507,51151.66,56692.56,-273.66,-185.56,1.479037,71.55,1
423920,1,55217,0,50864,56456,51151.08,56692.09,-287.08,-236.09,1.478007,71.60,1
423960,1,55257,0,50853,56454,51150.49,56691.61,-297.49,-237.61,1.476994,71.64,1
424000,1,55297,0,50857,56470,51149.90,56691.17,-292.90,-221.17,1.475999,71.69,1
424040,1,55337,0,50862,56470,51149.33,56690.73,-287.33,-220.73,1.475020,71.73,1
424080,1,55377,0,50859,56464,51148.75,56690.27,-289.75,-226.27,1.474058,71.77,1
424120,1,55417,0,50862,56480,51148.18,56689.86,-286.18,-209.86,1.473113,71.81,1
424160,1,55457,0,50867,56498,51147.62,56689.47,-280.62,-191.47,1.472189,71.86,1
424200,1,55497,0,50871,56505,51147.07,56689.11,-276.07,-184.11,1.471284,71.90,1
424240,1,55537,0,50869,56519,51146.51,56688.77,-277.51,-169.77,1.470401,71.94,1
424280,1,55577,0,50875,56527,51145.97,56688.45,-270.97,-161.45,1.469541,71.98,1
424320,1,55617,0,50882,56544,51145.44,56688.16,-263.44,-144.16,1.468703,72.02,1
424360,1,55657,0,50887,56553,51144.93,56687.89,-257.93,-134.89,1.467887,72.05,1
424400,1,55697,0,50884,56559,51144.41,56687.63,-260.41,-128.63,1.467095,72.09,1
424440,1,55737,0,50883,56560,51143.88,56687.37,-260.88,-127.37,1.466326,72.13,1
424480,1,55777,0,50887,56577,51143.37,56687.16,-256.37,-110.16,1.465582,72.17,1
424520,1,55817,0,50888,56588,51142.86,56686.96,-254.86,-98.96,1.464864,72.20,1
424560,1,55857,0,50884,56563,51142.35,56686.71,-258.35,-123.71,1.464168,72.24,1
424600,1,55897,0,50875,56549,51141.81,56686.44,-266.81,-137.44,1.463496,72.27,1
424640,1,55937,0,50872,56557,51141.27,56686.18,-269.27,-129.18,1.462848,72.31,1
424680,1,55977,0,50878,56562,51140.75,56685.94,-262.75,-123.94,1.462223,72.34,1
424720,1,56017,0,50875,56561,51140.22,56685.69,-265.22,-124.69,1.461623,72.38,1
424760,1,56057,0,50877,56574,51139.70,56685.46,-262.70,-111.46,1.461047,72.41,1
424800,1,56097,0,50884,56591,51139.18,56685.28,-255.18,-94.28,1.460496,72.44,1
424840,1,56137,0,50888,56601,51138.68,56685.11,-250.68,-84.11,1.459970,72.47,1
424880,1,56177,0,50883,56607,51138.17,56684.95,-255.17,-77.95,1.459470,72.50,1
424921,1,56218,0,50888,56612,51137.67,56684.81,-249.67,-72.81,1.458997,72.54,1
424961,1,56258,0,50891,56616,51137.18,56684.67,-246.18,-68.67,1.458548,72.57,1
425001,1,56298,0,50888,56617,51136.68,56684.54,-248.68,-67.54,1.458125,72.59,1
425041,1,56338,0,50888,56630,51136.19,56684.43,-248.19,-54.43,1.457729,72.62,1
425081,1,56378,0,50888,56637,51135.69,56684.34,-247.69,-47.34,1.457360,72.65,1
425121,1,56418,0,50880,56626,51135.18,56684.22,-255.18,-58.22,1.457018,72.68,1
425161,1,56458,0,50883,56637,51134.68,56684.13,-251.68,-47.13,1.456704,72.71,1
425201,1,56498,0,50885,56640,51134.18,56684.04,-249.18,-44.04,1.456418,72.73,1
425241,1,56538,0,50884,56644,51133.68,56683.96,-249.68,-39.96,1.456159,72.76,1
425281,1,56578,0,50875,56636,51133.16,56683.87,-258.16,-47.87,1.455930,72.78,1
425321,1,56618,0,50874,56640,51132.65,56683.79,-258.65,-43.79,1.455730,72.81,1
425361,1,56658,0,50875,56637,51132.13,56683.69,-257.13,-46.69,1.455559,72.83,1
425401,1,56698,0,50873,56626,51131.62,56683.58,-258.62,-57.58,1.455416,72.86,1
425441,1,56738,0,50866,56625,51131.09,56683.46,-265.09,-58.46,1.455303,72.88,1
425481,1,56778,0,50866,56623,51130.56,56683.34,-264.56,-60.34,1.455219,72.90,1
425521,1,56818,0,50868,56621,51130.04,56683.21,-262.04,-62.21,1.455164,72.92,1
425561,1,56858,0,50861,56610,51129.50,56683.07,-268.50,-73.07,1.455138,72.94,1
425601,1,56898,0,50855,56595,51128.95,56682.89,-273.95,-87.89,1.455140,72.96,1
425641,1,56938,0,50848,56597,51128.39,56682.72,-280.39,-85.72,1.455173,72.98,1
425681,1,56978,0,50849,56590,51127.83,56682.54,-278.83,-92.54,1.455233,73.00,1
425721,1,57018,0,50842,56578,51127.26,56682.33,-285.26,-104.33,1.455323,73.02,1
425761,1,57058,0,50832,56567,51126.67,56682.10,-294.67,-115.10,1.455440,73.04,1
425801,1,57098,0,50827,56565,51126.07,56681.87,-299.07,-116.87,1.455586,73.06,1
425841,1,57138,0,50816,56560,51125.46,56681.62,-309.46,-121.62,1.455764,73.07,1
425881,1,57178,0,50813,56555,51124.83,56681.37,-311.83,-126.37,1.455971,73.09,1
425921,1,57218,0,50809,56553,51124.20,56681.12,-315.20,-128.12,1.456208,73.10,1
425961,1,57258,0,50801,56529,51123.56,56680.82,-322.56,-151.82,1.456472,73.12,1
426001,1,57298,0,50780,56486,51122.87,56680.43,-342.87,-194.43,1.456754,73.13,1
426041,1,57338,0,50764,56472,51122.16,56680.02,-358.16,-208.02,1.457055,73.15,1
426081,1,57378,0,50757,56463,51121.43,56679.58,-364.43,-216.58,1.457373,73.16,1
426121,1,57418,0,50752,56455,51120.69,56679.13,-368.69,-224.13,1.457705,73.17,1
426161,1,57458,0,50750,56445,51119.95,56678.66,-369.95,-233.66,1.458048,73.18,1
426201,1,57498,0,50743,56447,51119.20,56678.20,-376.20,-231.20,1.458404,73.19,1
426241,1,57538,0,50739,56433,51118.44,56677.71,-379.44,-244.71,1.458769,73.20,1
426281,1,57578,0,50727,56414,51117.66,56677.19,-390.66,-263.19,1.459137,73.21,1
426321,1,57618,0,50716,56407,51116.86,56676.65,-400.86,-269.65,1.459510,73.22,1
426361,1,57658,0,50716,56406,51116.05,56676.11,-400.05,-270.11,1.459886,73.23,1
426401,1,57698,0,50716,56414,51115.26,56675.59,-399.26,-261.59,1.460268,73.24,1
426441,1,57738,0,50712,56417,51114.45,56675.07,-402.45,-258.07,1.460659,73.24,1
426481,1,57778,0,50712,56413,51113.65,56674.55,-401.65,-261.55,1.461057,73.25,1
426521,1,57818,0,50711,56423,51112.84,56674.05,-401.84,-251.05,1.461465,73.26,1
426561,1,57858,0,50716,56429,51112.05,56673.56,-396.05,-244.56,1.461884,73.26,1
426601,1,57898,0,50712,56435,51111.25,56673.08,-399.25,-238.08,1.462317,73.27,1
426641,1,57938,0,50715,56449,51110.46,56672.64,-395.46,-223.64,1.462767,73.27,1
426681,1,57978,0,50719,56443,51109.68,56672.18,-390.68,-229.18,1.463231,73.28,1
426721,1,58018,0,50711,56408,51108.88,56671.65,-397.88,-263.65,1.463697,73.28,1
426761,1,58058,0,50703,56419,51108.07,56671.15,-405.07,-252.15,1.464172,73.29,1
426801,1,58098,0,50710,56439,51107.28,56670.69,-397.28,-231.69,1.464660,73.29,1
426841,1,58138,0,50711,56436,51106.49,56670.22,-395.49,-234.22,1.465160,73.29,1
426881,1,58178,0,50704,56444,51105.68,56669.77,-401.68,-225.77,1.465675,73.29,1
426921,1,58218,0,50712,56449,51104.90,56669.33,-392.90,-220.33,1.466206,73.29,1
426961,1,58258,0,50709,56452,51104.11,56668.89,-395.11,-216.89,1.466753,73.30,1
427001,1,58298,0,50707,56453,51103.32,56668.46,-396.32,-215.46,1.467316,73.30,1
427041,1,58338,0,50706,56459,51102.52,56668.05,-396.52,-209.05,1.467897,73.30,1
427081,1,58378,0,50709,56473,51101.74,56667.66,-392.74,-194.66,1.468500,73.30,1
427121,1,58418,0,50708,56471,51100.95,56667.27,-392.95,-196.27,1.469122,73.30,1
427161,1,58458,0,50697,56461,51100.15,56666.86,-403.15,-205.86,1.469764,73.29,1
427201,1,58498,0,50691,56474,51099.33,56666.48,-408.33,-192.48,1.470430,73.29,1
427241,1,58538,0,50697,56490,51098.53,56666.12,-401.53,-176.12,1.471123,73.29,1
427281,1,58578,0,50714,56528,51097.76,56665.85,-383.76,-137.85,1.471847,73.29,1
427321,1,58618,0,50730,56553,51097.02,56665.63,-367.02,-112.63,1.472602,73.28,1
427361,1,58658,0,50736,56546,51096.30,56665.39,-360.30,-119.39,1.473385,73.28,1
427401,1,58698,0,50719,56506,51095.55,56665.07,-376.55,-159.07,1.474191,73.28,1
427441,1,58738,0,50700,56484,51094.76,56664.71,-394.76,-180.71,1.475019,73.27,1
427481,1,58778,0,50687,56479,51093.95,56664.34,-406.95,-185.34,1.475870,73.27,1
427521,1,58818,0,50681,56473,51093.12,56663.96,-412.12,-190.96,1.476743,73.26,1
427561,1,58858,0,50676,56478,51092.29,56663.59,-416.29,-185.59,1.477640,73.26,1
427601,1,58898,0,50672,56477,51091.45,56663.22,-419.45,-186.22,1.478562,73.25,1
427641,1,58938,0,50680,56513,51090.63,56662.92,-410.63,-149.92,1.479515,73.24,1
427681,1,58978,0,50697,56527,51089.84,56662.65,-392.84,-135.65,1.480498,73.23,1
427721,1,59018,0,50701,56539,51089.07,56662.40,-388.07,-123.40,1.481512,73.23,1
427761,1,59058,0,50697,56540,51088.29,56662.16,-391.29,-122.16,1.482558,73.22,1
427801,1,59098,0,50699,56539,51087.51,56661.91,-388.51,-122.91,1.483635,73.21,1
427841,1,59138,0,50687,56522,51086.71,56661.64,-399.71,-139.64,1.484742,73.20,1
427882,1,59179,0,50682,56530,51085.90,56661.37,-403.90,-131.37,1.485880,73.19,1
427922,1,59219,0,50688,56554,51085.11,56661.16,-397.11,-107.16,1.487054,73.18,1
427962,1,59259,0,50694,56562,51084.32,56660.96,-390.32,-98.96,1.488262,73.17,1
428002,1,59299,0,50701,56592,51083.56,56660.83,-382.56,-68.83,1.489508,73.15,1
428042,1,59339,0,50713,56606,51082.82,56660.72,-369.82,-54.72,1.490790,73.14,1
428082,1,59379,0,50707,56583,51082.07,56660.57,-375.07,-77.57,1.492106,73.13,1
428122,1,59419,0,50683,56536,51081.27,56660.32,-398.27,-124.32,1.493453,73.11,1
428162,1,59459,0,50679,56567,51080.47,56660.14,-401.47,-93.14,1.494837,73.10,1
428202,1,59499,0,50698,56595,51079.71,56660.01,-381.71,-65.01,1.496258,73.08,1
428242,1,59539,0,50702,56594,51078.95,56659.88,-376.95,-65.88,1.497715,73.07,1
428282,1,59579,0,50700,56590,51078.20,56659.74,-378.20,-69.74,1.499207,73.05,1
428322,1,59619,0,50700,56596,51077.44,56659.62,-377.44,-63.62,1.500735,73.03,1
428362,1,59659,0,50705,56616,51076.70,56659.53,-371.70,-43.53,1.502300,73.02,1
428402,1,59699,0,50708,56629,51075.96,56659.47,-367.96,-30.47,1.503901,73.00,1
428442,1,59739,0,50710,56638,51075.23,56659.43,-365.23,-21.43,1.505539,72.98,1
428482,1,59779,0,50711,56648,51074.51,56659.41,-363.51,-11.41,1.507214,72.96,1
428522,1,59819,0,50715,56660,51073.79,56659.41,-358.79,0.59,1.508925,72.94,1
428562,1,59859,0,50714,56673,51073.07,56659.44,-359.07,13.56,1.510671,72.92,1
428602,1,59899,0,50721,56688,51072.37,56659.50,-351.37,28.50,1.512451,72.90,1
428642,1,59939,0,50720,56697,51071.66,56659.58,-351.66,37.42,1.514263,72.87,1
428682,1,59979,0,50726,56710,51070.97,56659.68,-344.97,50.32,1.516105,72.85,1
428722,1,60019,0,50733,56728,51070.30,56659.82,-337.30,68.18,1.517973,72.83,1
428762,1,60059,1,50743,56752,51069.64,56660.00,-326.64,92.00,1.519859,72.80,1
428802,1,60099,1,50747,56763,51069.00,56660.21,-322.00,102.79,1.521761,72.78,1
428842,1,60139,1,50745,56742,51068.35,56660.37,-323.35,81.62,1.523682,72.75,1
428882,1,60179,1,50735,56725,51067.69,56660.50,-332.69,64.50,1.525629,72.72,1
428922,1,60219,1,50735,56748,51067.02,56660.68,-332.02,87.32,1.527597,72.70,1
428962,1,60259,1,50749,56769,51066.39,56660.90,-317.39,108.10,1.529577,72.67,1
429002,1,60299,1,50751,56779,51065.76,56661.14,-314.76,117.86,1.531567,72.64,1
429042,1,60339,1,50754,56778,51065.14,56661.37,-311.14,116.63,1.533564,72.61,1
429082,1,60379,1,50747,56782,51064.50,56661.61,-317.50,120.39,1.535570,72.58,1
429122,1,60419,1,50748,56783,51063.87,56661.86,-315.87,121.14,1.537584,72.55,1
429162,1,60459,1,50743,56782,51063.23,56662.10,-320.23,119.90,1.539608,72.52,1
429202,1,60499,1,50735,56761,51062.57,56662.30,-327.57,98.70,1.541648,72.49,1
429242,1,60539,1,50720,56750,51061.89,56662.48,-341.89,87.52,1.543711,72.45,1
429282,1,60579,1,50707,56749,51061.18,56662.65,-354.18,86.35,1.545799,72.42,1
429322,1,60619,1,50708,56744,51060.48,56662.82,-352.48,81.18,1.547915,72.39,1
429362,1,60659,1,50703,56735,51059.77,56662.96,-356.77,72.04,1.550059,72.35,1
429402,1,60699,1,50694,56730,51059.04,56663.10,-365.04,66.90,1.552236,72.32,1
429442,1,60739,1,50696,56735,51058.31,56663.24,-362.31,71.76,1.554443,72.28,1
429482,1,60779,1,50695,56742,51057.58,56663.40,-362.58,78.60,1.556680,72.25,1
429522,1,60819,1,50701,56747,51056.87,56663.57,-355.87,83.43,1.558942,72.21,1
429562,1,60859,1,50701,56743,51056.16,56663.73,-355.16,79.27,1.561232,72.17,1
429602,1,60899,1,50689,56700,51055.43,56663.80,-366.43,36.20,1.563559,72.14,1
429642,1,60939,1,50669,56672,51054.65,56663.82,-385.65,8.18,1.565930,72.10,1
429682,1,60979,1,50666,56678,51053.87,56663.86,-387.87,14.14,1.568345,72.06,1
429722,1,61019,1,50668,56688,51053.11,56663.91,-385.11,24.09,1.570803,72.02,1
429762,1,61059,1,50666,56685,51052.33,56663.95,-386.33,21.05,1.573304,71.98,1
429802,1,61099,1,50666,56668,51051.56,56663.96,-385.56,4.04,1.575850,71.94,1
429842,1,61139,1,50644,56639,51050.75,56663.91,-406.75,-24.91,1.578445,71.89,1
429882,1,61179,1,50627,56618,51049.90,56663.82,-422.90,-45.82,1.581090,71.85,1
