t_ms,trial_id,t_trial_ms,phase,red_raw,ir_raw,red_dc,ir_dc,red_ac,ir_ac,R,spo2,spo2_valid
1945611,1,0,0,47255,54034,46997.35,53321.05,257.65,712.95,0.986046,85.68,1
1945651,1,40,0,47262,54058,46997.88,53322.53,264.12,735.47,0.985669,85.67,1
1945691,1,80,0,47278,54089,46998.45,53324.07,279.55,764.93,0.985262,85.66,1
1945731,1,120,0,47287,54103,46999.02,53325.62,287.98,777.37,0.984826,85.65,1
1945771,1,160,0,47293,54114,46999.61,53327.20,293.39,786.80,0.984361,85.65,1
1945811,1,200,0,47293,54090,47000.20,53328.73,292.80,761.27,0.983871,85.64,1
1945851,1,240,0,47296,54098,47000.80,53330.27,295.20,767.73,0.983357,85.63,1
1945891,1,280,0,47296,54111,47001.39,53331.83,294.61,779.17,0.982819,85.63,1
1945931,1,320,0,47310,54121,47002.00,53333.41,308.00,787.59,0.982258,85.62,1
1945971,1,360,0,47304,54125,47002.61,53335.00,301.39,790.00,0.981675,85.62,1
1946011,1,400,0,47311,54141,47003.23,53336.61,307.77,804.39,0.981069,85.61,1
1946051,1,440,0,47315,54152,47003.85,53338.24,311.15,813.76,0.980440,85.61,1
1946091,1,480,0,47317,54162,47004.48,53339.89,312.52,822.11,0.979791,85.60,1
1946132,1,521,0,47325,54185,47005.12,53341.58,319.88,843.42,0.979119,85.60,1
1946172,1,561,0,47328,54186,47005.77,53343.27,322.23,842.73,0.978427,85.60,1
1946212,1,601,0,47331,54227,47006.42,53345.04,324.58,881.96,0.977712,85.60,1
1946252,1,641,0,47344,54239,47007.10,53346.83,336.90,892.17,0.976975,85.60,1
1946292,1,681,0,47354,54273,47007.79,53348.69,346.21,924.31,0.976216,85.60,1
1946332,1,721,0,47366,54287,47008.51,53350.57,357.49,936.43,0.975437,85.60,1
1946372,1,761,0,47369,54314,47009.23,53352.50,359.77,961.50,0.974635,85.60,1
1946412,1,801,0,47384,54324,47009.98,53354.44,374.02,969.56,0.973814,85.60,1
1946452,1,841,0,47391,54338,47010.75,53356.41,380.25,981.59,0.972973,85.60,1
1946492,1,881,0,47398,54316,47011.52,53358.33,386.48,957.67,0.972116,85.61,1
1946532,1,921,0,47371,54307,47012.24,53360.23,358.76,946.77,0.971242,85.61,1
1946572,1,961,0,47388,54315,47013.00,53362.14,375.00,952.86,0.970353,85.61,1
1946612,1,1001,0,47385,54307,47013.74,53364.03,371.26,942.97,0.969451,85.62,1
1946652,1,1041,0,47376,54311,47014.47,53365.93,361.53,945.07,0.968534,85.62,1
1946692,1,1081,0,47368,54311,47015.18,53367.82,352.82,943.18,0.967604,85.63,1
1946733,1,1122,0,47373,54316,47015.89,53369.71,357.11,946.29,0.966661,85.63,1
1946773,1,1162,0,47368,54302,47016.60,53371.58,351.40,930.42,0.965706,85.64,1
1946813,1,1202,0,47359,54320,47017.29,53373.48,341.71,946.52,0.964739,85.65,1
1946853,1,1242,0,47365,54323,47017.98,53375.38,347.02,947.62,0.963759,85.66,1
1946893,1,1282,0,47363,54332,47018.68,53377.30,344.32,954.70,0.962767,85.66,1
1946933,1,1322,0,47370,54350,47019.38,53379.24,350.62,970.76,0.961764,85.67,1
1946973,1,1362,0,47375,54365,47020.09,53381.21,354.91,983.79,0.960749,85.68,1
1947013,1,1402,0,47385,54377,47020.82,53383.21,364.18,993.79,0.959723,85.69,1
1947053,1,1442,0,47384,54390,47021.55,53385.22,362.45,1004.78,0.958686,85.70,1
1947093,1,1482,0,47391,54395,47022.29,53387.24,368.71,1007.76,0.957639,85.71,1
1947133,1,1522,0,47388,54402,47023.02,53389.27,364.98,1012.73,0.956581,85.72,1
1947173,1,1562,0,47394,54411,47023.76,53391.32,370.24,1019.68,0.955514,85.74,1
1947213,1,1602,0,47384,54382,47024.48,53393.30,359.52,988.70,0.954438,85.75,1
1947253,1,1642,0,47376,54367,47025.19,53395.25,350.81,971.75,0.953354,85.76,1
1947293,1,1682,0,47367,54368,47025.87,53397.20,341.13,970.80,0.952262,85.77,1
1947334,1,1723,0,47360,54366,47026.54,53399.13,333.46,966.87,0.951163,85.79,1
1947374,1,1763,0,47359,54366,47027.21,53401.07,331.79,964.93,0.950055,85.80,1
1947414,1,1803,0,47356,54376,47027.87,53403.02,328.13,972.98,0.948940,85.82,1
1947454,1,1843,0,47354,54380,47028.52,53404.98,325.48,975.02,0.947818,85.83,1
1947494,1,1883,0,47358,54384,47029.18,53406.94,328.82,977.06,0.946688,85.84,1
1947534,1,1923,0,47354,54396,47029.83,53408.92,324.17,987.08,0.945550,85.86,1
1947574,1,1963,0,47359,54395,47030.49,53410.89,328.51,984.11,0.944406,85.88,1
1947614,1,2003,0,47361,54401,47031.16,53412.87,329.84,988.13,0.943255,85.89,1
1947654,1,2043,0,47365,54410,47031.82,53414.87,333.18,995.13,0.942098,85.91,1
1947694,1,2083,0,47364,54413,47032.49,53416.86,331.51,996.14,0.940934,85.93,1
1947734,1,2123,0,47364,54413,47033.15,53418.86,330.85,994.14,0.939765,85.94,1
1947774,1,2163,0,47364,54427,47033.82,53420.87,330.18,1006.12,0.938589,85.96,1
1947814,1,2203,0,47366,54416,47034.48,53422.87,331.52,993.13,0.937409,85.98,1
1947854,1,2243,0,47358,54429,47035.13,53424.88,322.87,1004.12,0.936222,86.00,1
1947894,1,2283,0,47357,54400,47035.77,53426.83,321.23,973.17,0.935030,86.02,1
1947935,1,2324,0,47338,54375,47036.38,53428.73,301.62,946.27,0.933834,86.04,1
1947975,1,2364,0,47334,54392,47036.98,53430.66,297.02,961.34,0.932634,86.06,1
1948015,1,2404,0,47326,54379,47037.55,53432.56,288.45,946.44,0.931428,86.08,1
1948055,1,2444,0,47331,54395,47038.14,53434.48,292.86,960.52,0.930218,86.10,1
1948095,1,2484,0,47332,54403,47038.73,53436.42,293.27,966.58,0.929002,86.12,1
1948135,1,2524,0,47338,54420,47039.34,53438.39,298.66,981.61,0.927783,86.14,1
1948175,1,2564,0,47337,54428,47039.93,53440.37,297.07,987.63,0.926558,86.16,1
1948215,1,2604,0,47345,54424,47040.55,53442.34,304.45,981.66,0.925329,86.18,1
1948255,1,2644,0,47348,54441,47041.16,53444.34,306.84,996.66,0.924096,86.20,1
1948295,1,2684,0,47350,54438,47041.78,53446.33,308.22,991.67,0.922860,86.22,1
1948335,1,2724,0,47349,54455,47042.40,53448.35,306.60,1006.65,0.921619,86.24,1
1948375,1,2764,0,47355,54458,47043.02,53450.37,311.98,1007.63,0.920374,86.27,1
1948415,1,2804,0,47356,54467,47043.65,53452.40,312.35,1014.60,0.919125,86.29,1
1948455,1,2844,0,47351,54478,47044.27,53454.45,306.73,1023.55,0.917873,86.31,1
1948495,1,2884,0,47354,54480,47044.89,53456.50,309.11,1023.50,0.916616,86.34,1
1948536,1,2925,0,47354,54456,47045.51,53458.50,308.49,997.50,0.915357,86.36,1
1948576,1,2965,0,47338,54444,47046.10,53460.48,291.90,983.52,0.914095,86.38,1
1948616,1,3005,0,47330,54447,47046.67,53462.45,283.33,984.55,0.912829,86.41,1
1948656,1,3045,0,47326,54442,47047.23,53464.41,278.77,977.59,0.911560,86.43,1
1948696,1,3085,0,47334,54449,47047.80,53466.38,286.20,982.62,0.910289,86.45,1
1948736,1,3125,0,47329,54461,47048.36,53468.37,280.64,992.63,0.909014,86.48,1
1948776,1,3165,0,47337,54464,47048.94,53470.36,288.06,993.64,0.907736,86.50,1
1948816,1,3205,0,47338,54470,47049.52,53472.36,288.48,997.64,0.906455,86.53,1
1948856,1,3245,0,47347,54467,47050.12,53474.36,296.88,992.64,0.905173,86.55,1
1948896,1,3285,0,47338,54476,47050.70,53476.36,287.30,999.64,0.903888,86.58,1
1948936,1,3325,0,47338,54475,47051.27,53478.36,286.73,996.64,0.902600,86.61,1
1948976,1,3365,0,47336,54482,47051.84,53480.37,284.16,1001.63,0.901310,86.63,1
1949016,1,3405,0,47342,54483,47052.42,53482.37,289.58,1000.62,0.900018,86.66,1
1949056,1,3445,0,47333,54492,47052.98,53484.39,280.02,1007.61,0.898723,86.68,1
1949096,1,3485,0,47337,54504,47053.55,53486.43,283.45,1017.57,0.897426,86.71,1
1949137,1,3526,0,47335,54499,47054.12,53488.46,280.88,1010.54,0.896126,86.74,1
1949177,1,3566,0,47333,54517,47054.68,53490.52,278.32,1026.48,0.894824,86.76,1
1949217,1,3606,0,47336,54518,47055.24,53492.57,280.76,1025.43,0.893519,86.79,1
1949257,1,3646,0,47329,54492,47055.79,53494.57,273.21,997.43,0.892213,86.82,1
1949297,1,3686,0,47316,54460,47056.31,53496.51,259.69,963.49,0.890904,86.84,1
1949337,1,3726,0,47315,54482,47056.83,53498.48,258.17,983.52,0.889594,86.87,1
1949377,1,3766,0,47315,54479,47057.34,53500.44,257.66,978.56,0.888282,86.90,1
1949417,1,3806,0,47317,54479,47057.86,53502.40,259.14,976.60,0.886969,86.93,1
1949457,1,3846,0,47320,54464,47058.39,53504.32,261.61,959.68,0.885654,86.96,1
1949497,1,3886,0,47308,54475,47058.89,53506.27,249.11,968.73,0.884338,86.98,1
1949537,1,3926,0,47312,54477,47059.40,53508.21,252.60,968.79,0.883020,87.01,1
1949577,1,3966,0,47308,54465,47059.90,53510.12,248.10,954.88,0.881701,87.04,1
1949617,1,4006,0,47307,54475,47060.39,53512.05,246.61,962.95,0.880381,87.07,1
1949657,1,4046,0,47301,54471,47060.88,53513.97,240.12,957.03,0.879059,87.10,1
1949697,1,4086,0,47303,54482,47061.36,53515.91,241.64,966.09,0.877736,87.13,1
1949738,1,4127,0,47307,54496,47061.86,53517.87,245.14,978.13,0.876412,87.16,1
1949778,1,4167,0,47305,54506,47062.34,53519.84,242.66,986.16,0.875086,87.18,1
1949818,1,4207,0,47306,54515,47062.83,53521.84,243.17,993.16,0.873758,87.21,1
1949858,1,4247,0,47317,54534,47063.34,53523.86,253.66,1010.14,0.872429,87.24,1
1949898,1,4287,0,47316,54545,47063.85,53525.91,252.15,1019.09,0.871098,87.27,1
1949938,1,4327,0,47318,54557,47064.36,53527.97,253.64,1029.03,0.869765,87.30,1
1949978,1,4367,0,47329,54572,47064.89,53530.06,264.11,1041.94,0.868431,87.33,1
1950018,1,4407,0,47334,54577,47065.43,53532.15,268.57,1044.85,0.867096,87.36,1
1950058,1,4447,0,47333,54555,47065.96,53534.20,267.04,1020.80,0.865760,87.39,1
1950098,1,4487,0,47321,54529,47066.47,53536.19,254.53,992.81,0.864423,87.42,1
1950138,1,4527,0,47314,54525,47066.97,53538.17,247.03,986.83,0.863086,87.45,1
1950178,1,4567,0,47307,54509,47067.45,53540.11,239.55,968.89,0.861748,87.48,1
1950218,1,4607,0,47298,54510,47067.91,53542.05,230.09,967.95,0.860409,87.51,1
1950258,1,4647,0,47292,54503,47068.36,53543.98,223.64,959.02,0.859070,87.54,1
1950299,1,4688,0,47288,54498,47068.80,53545.89,219.20,952.11,0.857730,87.57,1
1950339,1,4728,0,47287,54502,47069.24,53547.80,217.76,954.20,0.856389,87.60,1
1950379,1,4768,0,47276,54501,47069.65,53549.71,206.35,951.29,0.855047,87.63,1
1950419,1,4808,0,47279,54504,47070.07,53551.62,208.93,952.38,0.853704,87.66,1
1950459,1,4848,0,47277,54509,47070.48,53553.54,206.52,955.46,0.852361,87.69,1
1950499,1,4888,0,47277,54520,47070.90,53555.47,206.10,964.53,0.851016,87.73,1
1950539,1,4928,0,47283,54534,47071.32,53557.43,211.68,976.57,0.849670,87.76,1
1950579,1,4968,0,47290,54542,47071.76,53559.39,218.24,982.61,0.848324,87.79,1
1950619,1,5008,0,47292,54544,47072.20,53561.36,219.80,982.64,0.846977,87.82,1
1950659,1,5048,0,47290,54551,47072.64,53563.34,217.36,987.66,0.845629,87.85,1
1950699,1,5088,0,47289,54556,47073.07,53565.33,215.93,990.67,0.844280,87.88,1
1950739,1,5128,0,47290,54551,47073.51,53567.30,216.49,983.70,0.842931,87.91,1
1950779,1,5168,0,47284,54558,47073.93,53569.29,210.07,988.71,0.841581,87.94,1
1950819,1,5208,0,47283,54558,47074.35,53571.27,208.65,986.73,0.840230,87.98,1
1950859,1,5248,0,47277,54537,47074.75,53573.20,202.25,963.80,0.838879,88.01,1
1950900,1,5289,0,47258,54505,47075.12,53575.07,182.88,929.93,0.837527,88.04,1
1950940,1,5329,0,47251,54497,47075.47,53576.91,175.53,920.09,0.836174,88.07,1
1950980,1,5369,0,47239,54494,47075.80,53578.75,163.20,915.25,0.834821,88.10,1
1951020,1,5409,0,47235,54488,47076.12,53580.57,158.88,907.43,0.833468,88.13,1
1951060,1,5449,0,47236,54486,47076.44,53582.38,159.56,903.62,0.832113,88.17,1
1951100,1,5489,0,47231,54490,47076.75,53584.20,154.25,905.80,0.830759,88.20,1
1951140,1,5529,0,47231,54492,47077.06,53586.01,153.94,905.99,0.829403,88.23,1
1951180,1,5569,0,47234,54491,47077.37,53587.82,156.62,903.18,0.828048,88.26,1
1951220,1,5609,0,47230,54486,47077.68,53589.62,152.32,896.38,0.826692,88.29,1
1951260,1,5649,0,47226,54485,47077.98,53591.41,148.02,893.59,0.825335,88.33,1
1951300,1,5689,0,47218,54489,47078.26,53593.21,139.74,895.79,0.823978,88.36,1
1951340,1,5729,0,47219,54477,47078.54,53594.98,140.46,882.02,0.822620,88.39,1
1951380,1,5769,0,47212,54489,47078.81,53596.77,133.19,892.23,0.821262,88.42,1
1951420,1,5809,0,47211,54481,47079.07,53598.54,131.93,882.46,0.819904,88.46,1
1951460,1,5849,0,47200,54490,47079.32,53600.32,120.68,889.68,0.818545,88.49,1
1951501,1,5890,0,47206,54493,47079.57,53602.11,126.43,890.89,0.817185,88.52,1
1951541,1,5930,0,47198,54493,47079.81,53603.89,118.19,889.11,0.815825,88.55,1
1951581,1,5970,0,47201,54518,47080.05,53605.72,120.95,912.28,0.814463,88.59,1
1951621,1,6010,0,47203,54509,47080.30,53607.53,122.70,901.47,0.813101,88.62,1
1951661,1,6050,0,47201,54518,47080.54,53609.35,120.46,908.65,0.811738,88.65,1
1951701,1,6090,0,47198,54505,47080.77,53611.14,117.23,893.86,0.810375,88.68,1
1951741,1,6130,0,47191,54492,47081.00,53612.91,110.00,879.09,0.809011,88.72,1
1951781,1,6170,0,47193,54494,47081.22,53614.67,111.78,879.33,0.807647,88.75,1
1951821,1,6210,0,47199,54496,47081.46,53616.43,117.54,879.57,0.806282,88.78,1
1951861,1,6250,0,47183,54487,47081.66,53618.18,101.34,868.82,0.804917,88.81,1
1951901,1,6290,0,47184,54501,47081.87,53619.94,102.13,881.06,0.803552,88.85,1
1951941,1,6330,0,47188,54483,47082.09,53621.67,105.91,861.33,0.802186,88.88,1
1951981,1,6370,0,47175,54489,47082.27,53623.40,92.73,865.60,0.800819,88.91,1
1952021,1,6410,0,47176,54494,47082.46,53625.14,93.54,868.86,0.799453,88.95,1
1952061,1,6450,0,47170,54486,47082.64,53626.87,87.36,859.13,0.798086,88.98,1
1952102,1,6491,0,47166,54500,47082.80,53628.61,83.20,871.39,0.796718,89.01,1
1952142,1,6531,0,47172,54507,47082.98,53630.37,89.02,876.63,0.795350,89.05,1
1952182,1,6571,0,47168,54520,47083.16,53632.15,84.84,887.85,0.793981,89.08,1
1952222,1,6611,0,47174,54538,47083.34,53633.96,90.66,904.04,0.792612,89.11,1
1952262,1,6651,0,47173,54542,47083.52,53635.78,89.48,906.22,0.791241,89.15,1
1952302,1,6691,0,47179,54562,47083.71,53637.64,95.29,924.36,0.789870,89.18,1
1952342,1,6731,0,47188,54561,47083.92,53639.48,104.08,921.52,0.788498,89.21,1
1952382,1,6771,0,47192,54578,47084.14,53641.36,107.86,936.64,0.787126,89.25,1
1952422,1,6811,0,47195,54581,47084.36,53643.24,110.64,937.76,0.785753,89.28,1
1952462,1,6851,0,47189,54570,47084.57,53645.10,104.43,924.90,0.784379,89.31,1
1952502,1,6891,0,47180,54550,47084.77,53646.91,95.23,903.09,0.783005,89.35,1
1952542,1,6931,0,47175,54529,47084.95,53648.68,90.05,880.32,0.781631,89.38,1
1952582,1,6971,0,47156,54535,47085.09,53650.45,70.91,884.55,0.780256,89.41,1
1952622,1,7011,0,47164,54536,47085.25,53652.22,78.75,883.78,0.778881,89.45,1
1952663,1,7052,0,47155,54520,47085.39,53653.96,69.61,866.04,0.777505,89.48,1
1952703,1,7092,0,47149,54532,47085.52,53655.72,63.48,876.28,0.776129,89.51,1
1952743,1,7132,0,47148,54533,47085.65,53657.48,62.35,875.52,0.774753,89.55,1
1952783,1,7172,0,47143,54535,47085.77,53659.23,57.23,875.77,0.773377,89.58,1
1952823,1,7212,0,47142,54539,47085.88,53661.00,56.12,878.00,0.772000,89.61,1
1952863,1,7252,0,47142,54551,47085.99,53662.78,56.01,888.22,0.770623,89.65,1
1952903,1,7292,0,47145,54562,47086.11,53664.58,58.89,897.42,0.769245,89.68,1
1952943,1,7332,0,47152,54561,47086.25,53666.37,65.75,894.63,0.767867,89.71,1
1952983,1,7372,0,47153,54570,47086.38,53668.18,66.62,901.82,0.766488,89.75,1
1953023,1,7412,0,47156,54569,47086.52,53669.98,69.48,899.02,0.765109,89.78,1
1953063,1,7452,0,47147,54581,47086.64,53671.81,60.36,909.19,0.763729,89.82,1
1953103,1,7492,0,47152,54584,47086.77,53673.63,65.23,910.37,0.762349,89.85,1
1953143,1,7532,0,47151,54583,47086.90,53675.45,64.10,907.55,0.760969,89.88,1
1953183,1,7572,0,47148,54595,47087.03,53677.29,60.97,917.71,0.759588,89.92,1
1953223,1,7612,0,47147,54589,47087.15,53679.12,59.85,909.88,0.758207,89.95,1
1953264,1,7653,0,47146,54604,47087.27,53680.97,58.73,923.03,0.756825,89.98,1
1953304,1,7693,0,47141,54611,47087.37,53682.83,53.63,928.17,0.755443,90.02,1
1953344,1,7733,0,47137,54597,47087.48,53684.66,49.52,912.34,0.754060,90.05,1
1953384,1,7773,0,47131,54563,47087.57,53686.42,43.43,876.58,0.752677,90.09,1
1953424,1,7813,0,47118,54571,47087.63,53688.19,30.37,882.81,0.751294,90.12,1
1953464,1,7853,0,47117,54569,47087.69,53689.95,29.31,879.05,0.749911,90.15,1
1953504,1,7893,0,47117,54570,47087.75,53691.71,29.25,878.29,0.748528,90.19,1
1953544,1,7933,0,47122,54564,47087.82,53693.46,34.18,870.54,0.747145,90.22,1
1953584,1,7973,0,47118,54567,47087.88,53695.21,30.12,871.79,0.745761,90.26,1
1953624,1,8013,0,47119,54576,47087.94,53696.97,31.06,879.03,0.744378,90.29,1
1953664,1,8053,0,47118,54572,47088.00,53698.72,30.00,873.28,0.742994,90.32,1
1953704,1,8093,0,47110,54561,47088.05,53700.45,21.95,860.55,0.741611,90.36,1
1953744,1,8133,0,47102,54554,47088.08,53702.15,13.92,851.85,0.740228,90.39,1
1953784,1,8173,0,47103,54560,47088.11,53703.87,14.89,856.13,0.738845,90.43,1
1953824,1,8213,0,47092,54555,47088.12,53705.57,3.88,849.43,0.737463,90.46,1
1953865,1,8254,0,47090,54565,47088.12,53707.29,1.88,857.71,0.736080,90.49,1
1953905,1,8294,0,47087,54563,47088.12,53709.00,-1.12,854.00,0.734698,90.53,1
1953945,1,8334,0,47083,54576,47088.11,53710.74,-5.11,865.26,0.733316,90.56,1
1953985,1,8374,0,47085,54573,47088.11,53712.46,-3.11,860.54,0.731934,90.60,1
1954025,1,8414,0,47089,54590,47088.11,53714.22,0.89,875.78,0.730552,90.63,1
1954065,1,8454,0,47088,54605,47088.11,53716.00,-0.11,889.00,0.729171,90.67,1
1954105,1,8494,0,47092,54609,47088.12,53717.79,3.88,891.21,0.727789,90.70,1
1954145,1,8534,0,47098,54618,47088.14,53719.59,9.86,898.41,0.726407,90.73,1
1954185,1,8574,0,47104,54628,47088.17,53721.41,15.83,906.59,0.725025,90.77,1
1954225,1,8614,0,47096,54620,47088.19,53723.21,7.81,896.79,0.723643,90.80,1
1954265,1,8654,0,47083,54568,47088.18,53724.90,-5.18,843.10,0.722261,90.84,1
1954305,1,8694,0,47071,54552,47088.15,53726.55,-17.15,825.45,0.720881,90.87,1
1954345,1,8734,0,47053,54533,47088.08,53728.17,-35.08,804.83,0.719501,90.91,1
1954385,1,8774,0,47051,54538,47088.00,53729.79,-37.00,808.21,0.718122,90.94,1
1954426,1,8815,0,47045,54520,47087.92,53731.37,-42.92,788.63,0.716744,90.97,1
1954466,1,8855,0,47030,54523,47087.80,53732.96,-57.80,790.04,0.715368,91.01,1
1954506,1,8895,0,47039,54542,47087.71,53734.58,-48.71,807.42,0.713992,91.04,1
1954546,1,8935,0,47044,54545,47087.62,53736.20,-43.62,808.80,0.712618,91.08,1
1954586,1,8975,0,47041,54547,47087.53,53737.82,-46.53,809.18,0.711245,91.11,1
1954626,1,9015,0,47039,54544,47087.43,53739.43,-48.43,804.57,0.709872,91.15,1
1954666,1,9055,0,47035,54541,47087.32,53741.04,-52.32,799.96,0.708501,91.18,1
1954706,1,9095,0,47031,54519,47087.21,53742.60,-56.21,776.40,0.707132,91.21,1
1954746,1,9135,0,47023,54513,47087.08,53744.14,-64.08,768.86,0.705764,91.25,1
1954786,1,9175,0,47015,54505,47086.94,53745.66,-71.94,759.34,0.704398,91.28,1
1954826,1,9215,0,47008,54504,47086.78,53747.18,-78.78,756.82,0.703033,91.32,1
1954866,1,9255,0,47001,54495,47086.61,53748.68,-85.61,746.32,0.701671,91.35,1
1954906,1,9295,0,47003,54501,47086.45,53750.19,-83.45,750.81,0.700311,91.38,1
1954946,1,9335,0,46994,54504,47086.26,53751.70,-92.26,752.30,0.698953,91.42,1
1954986,1,9375,0,46996,54518,47086.08,53753.23,-90.08,764.77,0.697597,91.45,1
1955027,1,9416,0,47000,54519,47085.91,53754.76,-85.91,764.24,0.696243,91.49,1
1955067,1,9456,0,46997,54533,47085.73,53756.32,-88.73,776.68,0.694891,91.52,1
1955107,1,9496,0,47001,54554,47085.57,53757.92,-84.57,796.08,0.693540,91.56,1
1955147,1,9536,0,47003,54533,47085.40,53759.47,-82.40,773.53,0.692192,91.59,1
1955187,1,9576,0,46989,54497,47085.21,53760.95,-96.21,736.05,0.690846,91.62,1
1955227,1,9616,0,46979,54490,47085.00,53762.41,-106.00,727.59,0.689502,91.66,1
1955267,1,9656,0,46975,54469,47084.78,53763.82,-109.78,705.18,0.688161,91.69,1
1955307,1,9696,0,46975,54465,47084.56,53765.22,-109.56,699.78,0.686824,91.73,1
1955347,1,9736,0,46969,54446,47084.33,53766.59,-115.33,679.41,0.685489,91.76,1
1955387,1,9776,0,46962,54441,47084.09,53767.94,-122.09,673.06,0.684158,91.79,1
1955427,1,9816,0,46962,54433,47083.85,53769.27,-121.85,663.73,0.682830,91.83,1
1955467,1,9856,0,46955,54423,47083.59,53770.58,-128.59,652.42,0.681507,91.86,1
1955507,1,9896,0,46950,54423,47083.32,53771.88,-133.32,651.12,0.680186,91.90,1
1955547,1,9936,0,46944,54416,47083.05,53773.17,-139.05,642.83,0.678870,91.93,1
1955587,1,9976,0,46937,54415,47082.76,53774.46,-145.76,640.54,0.677559,91.96,1
1955628,1,10017,0,46940,54414,47082.47,53775.74,-142.47,638.26,0.676251,92.00,1
1955668,1,10057,0,46935,54421,47082.18,53777.03,-147.18,643.97,0.674948,92.03,1
1955708,1,10097,0,46935,54419,47081.89,53778.32,-146.89,640.68,0.673649,92.07,1
1955748,1,10137,0,46932,54426,47081.59,53779.61,-149.59,646.39,0.672355,92.10,1
1955788,1,10177,0,46939,54439,47081.30,53780.93,-142.30,658.07,0.671064,92.13,1
1955828,1,10217,0,46940,54439,47081.02,53782.25,-141.02,656.75,0.669778,92.17,1
1955868,1,10257,0,46953,54450,47080.77,53783.59,-127.77,666.41,0.668494,92.20,1
1955908,1,10297,0,46951,54454,47080.51,53784.93,-129.51,669.07,0.667215,92.23,1
1955948,1,10337,0,46952,54450,47080.26,53786.26,-128.26,663.74,0.665938,92.27,1
1955988,1,10377,0,46948,54450,47080.00,53787.59,-132.00,662.41,0.664666,92.30,1
1956028,1,10417,0,46936,54408,47079.71,53788.83,-143.71,619.17,0.663398,92.33,1
1956068,1,10457,0,46914,54346,47079.38,53789.95,-165.38,556.05,0.662135,92.37,1
1956108,1,10497,0,46888,54303,47079.00,53790.98,-191.00,512.02,0.660878,92.40,1
1956148,1,10537,0,46866,54291,47078.57,53791.98,-212.57,499.02,0.659630,92.43,1
1956189,1,10578,0,46861,54252,47078.14,53792.90,-217.14,459.10,0.658390,92.47,1
1956229,1,10618,0,46843,54246,47077.67,53793.80,-234.67,452.20,0.657159,92.50,1
1956269,1,10658,0,46828,54232,47077.17,53794.68,-249.17,437.32,0.655939,92.53,1
1956309,1,10698,0,46833,54220,47076.68,53795.54,-243.68,424.46,0.654728,92.57,1
1956349,1,10738,0,46827,54235,47076.18,53796.41,-249.18,438.59,0.653527,92.60,1
1956389,1,10778,0,46833,54205,47075.70,53797.23,-242.70,407.77,0.652336,92.63,1
1956429,1,10818,0,46815,54200,47075.18,53798.04,-260.18,401.96,0.651155,92.67,1
1956469,1,10858,0,46820,54184,47074.67,53798.82,-254.67,385.18,0.649985,92.70,1
1956509,1,10898,0,46810,54153,47074.14,53799.53,-264.14,353.47,0.648826,92.73,1
1956549,1,10938,0,46793,54136,47073.58,53800.20,-280.58,335.80,0.647679,92.76,1
1956589,1,10978,0,46787,54130,47073.01,53800.86,-286.01,329.14,0.646545,92.79,1
1956629,1,11018,0,46765,54081,47072.39,53801.43,-307.39,279.57,0.645425,92.83,1
1956669,1,11058,0,46738,54037,47071.73,53801.90,-333.73,235.10,0.644321,92.86,1
1956709,1,11098,0,46705,53995,47071.00,53802.29,-366.00,192.71,0.643235,92.89,1
1956749,1,11138,0,46683,53950,47070.22,53802.58,-387.22,147.42,0.642171,92.92,1
1956790,1,11179,0,46649,53897,47069.38,53802.77,-420.38,94.23,0.641129,92.95,1
1956830,1,11219,0,46615,53809,47068.48,53802.79,-453.48,6.21,0.640114,92.99,1
1956870,1,11259,0,46559,53718,47067.46,53802.62,-508.46,-84.62,0.639131,93.02,1
1956910,1,11299,0,46532,53644,47066.39,53802.30,-534.39,-158.30,0.638181,93.05,1
1956950,1,11339,0,46474,53555,47065.20,53801.81,-591.20,-246.81,0.637271,93.08,1
1956990,1,11379,0,46416,53445,47063.91,53801.10,-647.91,-356.10,0.636406,93.11,1
1957030,1,11419,0,46333,53280,47062.45,53800.06,-729.45,-520.06,0.635593,93.14,1
1957070,1,11459,0,46218,53111,47060.76,53798.69,-842.76,-687.69,0.634844,93.17,1
1957110,1,11499,0,46102,52890,47058.84,53796.87,-956.84,-906.87,0.634170,93.20,1
1957150,1,11539,0,45898,52604,47056.52,53794.49,-1158.52,-1190.49,0.633593,93.23,1
1957190,1,11579,0,45692,52297,47053.79,53791.50,-1361.79,-1494.50,0.633128,93.25,1
1957230,1,11619,0,45457,52140,47050.60,53788.20,-1593.60,-1648.20,0.632798,93.28,1
1957270,1,11659,0,45404,52070,47047.31,53784.76,-1643.31,-1714.76,0.632589,93.31,1
1957311,1,11700,0,45323,51908,47043.86,53781.01,-1720.86,-1873.01,0.632488,93.34,1
1957351,1,11740,0,45226,51723,47040.23,53776.89,-1814.23,-2053.89,0.632486,93.36,1
1957391,1,11780,0,45018,51476,47036.18,53772.29,-2018.18,-2296.29,0.632585,93.39,1
1957431,1,11820,0,44833,51281,47031.78,53767.31,-2198.78,-2486.31,0.632783,93.41,1
1957471,1,11860,0,44658,50855,47027.03,53761.49,-2369.03,-2906.49,0.633058,93.43,1
1957511,1,11900,0,44193,50400,47021.36,53754.77,-2828.36,-3354.77,0.633427,93.45,1
1957551,1,11940,0,43851,50052,47015.02,53747.36,-3164.02,-3695.36,0.633888,93.48,1
1957591,1,11980,0,43554,49770,47008.10,53739.41,-3454.10,-3969.41,0.634435,93.50,1
1957631,1,12020,0,43456,49610,47001.00,53731.15,-3545.00,-4121.15,0.635047,93.51,1
1957671,1,12060,0,43299,49513,46993.60,53722.72,-3694.60,-4209.72,0.635717,93.53,1
1957711,1,12100,0,43288,49547,46986.19,53714.37,-3698.19,-4167.37,0.636436,93.55,1
1957751,1,12140,0,43333,49628,46978.88,53706.20,-3645.88,-4078.20,0.637195,93.56,1
1957791,1,12180,0,43450,49797,46971.83,53698.38,-3521.83,-3901.38,0.637987,93.58,1
1957831,1,12220,0,43611,49894,46965.11,53690.77,-3354.11,-3796.77,0.638800,93.59,1
1957871,1,12260,0,43656,50031,46958.49,53683.46,-3302.49,-3652.46,0.639633,93.61,1
1957912,1,12301,0,43818,50140,46952.21,53676.37,-3134.21,-3536.37,0.640481,93.62,1
1957952,1,12341,0,43927,50342,46946.16,53669.70,-3019.16,-3327.70,0.641342,93.63,1
1957992,1,12381,0,44045,50457,46940.36,53663.28,-2895.36,-3206.28,0.642215,93.64,1
1958032,1,12421,0,44208,50669,46934.89,53657.29,-2726.89,-2988.29,0.643097,93.65,1
1958072,1,12461,0,44321,50773,46929.67,53651.52,-2608.67,-2878.52,0.643986,93.65,1
1958112,1,12501,0,44461,50906,46924.73,53646.04,-2463.73,-2740.04,0.644881,93.66,1
1958152,1,12541,0,44547,51057,46919.98,53640.86,-2372.98,-2583.86,0.645781,93.67,1
1958192,1,12581,0,44677,51134,46915.49,53635.85,-2238.49,-2501.85,0.646684,93.67,1
1958232,1,12621,0,44724,51183,46911.11,53630.94,-2187.11,-2447.94,0.647590,93.67,1
1958272,1,12661,0,44792,51329,46906.87,53626.34,-2114.87,-2297.34,0.648498,93.68,1
1958312,1,12701,0,44839,51255,46902.74,53621.60,-2063.74,-2366.60,0.649407,93.68,1
1958352,1,12741,0,44805,51173,46898.54,53616.70,-2093.54,-2443.70,0.650315,93.68,1
1958392,1,12781,0,44805,51177,46894.36,53611.82,-2089.36,-2434.82,0.651222,93.68,1
1958432,1,12821,0,44858,51319,46890.29,53607.24,-2032.29,-2288.24,0.652130,93.68,1
1958473,1,12862,0,45034,51490,46886.57,53603.00,-1852.57,-2113.00,0.653037,93.68,1
1958513,1,12902,0,45129,51584,46883.06,53598.97,-1754.06,-2014.97,0.653943,93.68,1
1958553,1,12942,0,45237,51715,46879.77,53595.20,-1642.77,-1880.20,0.654849,93.68,1
1958593,1,12982,0,45325,51784,46876.66,53591.58,-1551.66,-1807.58,0.655752,93.68,1
1958633,1,13022,0,45410,51922,46873.73,53588.25,-1463.73,-1666.25,0.656654,93.68,1
1958673,1,13062,0,45499,51993,46870.98,53585.06,-1371.98,-1592.06,0.657554,93.67,1
1958713,1,13102,0,45546,52096,46868.33,53582.08,-1322.33,-1486.08,0.658453,93.67,1
1958753,1,13142,0,45645,52214,46865.88,53579.35,-1220.88,-1365.35,0.659350,93.66,1
1958793,1,13182,0,45744,52367,46863.64,53576.93,-1119.64,-1209.93,0.660246,93.66,1
1958833,1,13222,0,45892,52538,46861.70,53574.85,-969.70,-1036.85,0.661141,93.65,1
1958873,1,13262,0,45985,52661,46859.95,53573.02,-874.95,-912.02,0.662034,93.65,1
1958913,1,13302,0,46102,52805,46858.43,53571.48,-756.43,-766.48,0.662926,93.64,1
1958953,1,13342,0,46184,52888,46857.08,53570.12,-673.08,-682.12,0.663816,93.63,1
1958993,1,13382,0,46251,52973,46855.87,53568.93,-604.87,-595.93,0.664705,93.63,1
1959033,1,13422,0,46308,53063,46854.78,53567.91,-546.78,-504.91,0.665591,93.62,1
1959074,1,13463,0,46420,53187,46853.91,53567.15,-433.91,-380.15,0.666476,93.61,1
1959114,1,13503,0,46500,53268,46853.20,53566.55,-353.20,-298.55,0.667358,93.60,1
1959154,1,13543,0,46566,53340,46852.63,53566.10,-286.63,-226.10,0.668238,93.59,1
1959194,1,13583,0,46604,53359,46852.13,53565.69,-248.13,-206.69,0.669116,93.58,1
1959234,1,13623,0,46616,53383,46851.66,53565.32,-235.66,-182.32,0.669991,93.57,1
1959274,1,13663,0,46648,53404,46851.25,53565.00,-203.25,-161.00,0.670864,93.56,1
1959314,1,13703,0,46648,53429,46850.85,53564.73,-202.85,-135.73,0.671735,93.55,1
1959354,1,13743,0,46679,53427,46850.50,53564.46,-171.50,-137.46,0.672603,93.54,1
1959394,1,13783,0,46687,53448,46850.18,53564.23,-163.18,-116.23,0.673468,93.53,1
1959434,1,13823,0,46691,53461,46849.86,53564.03,-158.86,-103.03,0.674331,93.52,1
1959474,1,13863,0,46708,53484,46849.58,53563.87,-141.58,-79.87,0.675192,93.51,1
1959514,1,13903,0,46713,53498,46849.31,53563.74,-136.31,-65.74,0.676050,93.49,1
1959554,1,13943,0,46731,53535,46849.07,53563.68,-118.07,-28.68,0.676906,93.48,1
1959594,1,13983,0,46744,53554,46848.87,53563.66,-104.87,-9.66,0.677759,93.47,1
1959635,1,14024,0,46755,53579,46848.68,53563.70,-93.68,15.30,0.678610,93.45,1
1959675,1,14064,0,46772,53606,46848.53,53563.78,-76.53,42.22,0.679458,93.44,1
1959715,1,14104,0,46771,53580,46848.37,53563.82,-77.37,16.18,0.680304,93.43,1
1959755,1,14144,0,46768,53576,46848.21,53563.84,-80.21,12.16,0.681147,93.41,1
1959795,1,14184,0,46773,53587,46848.07,53563.89,-75.07,23.11,0.681988,93.40,1
1959835,1,14224,0,46786,53593,46847.95,53563.95,-61.95,29.05,0.682827,93.39,1
1959875,1,14264,0,46788,53614,46847.83,53564.05,-59.83,49.95,0.683663,93.37,1
1959915,1,14304,0,46810,53610,46847.75,53564.14,-37.75,45.86,0.684496,93.36,1
1959955,1,14344,0,46811,53638,46847.68,53564.29,-36.68,73.71,0.685327,93.34,1
1959995,1,14384,0,46822,53653,46847.63,53564.47,-25.63,88.53,0.686155,93.33,1
1960035,1,14424,0,46832,53656,46847.60,53564.66,-15.60,91.34,0.686981,93.31,1
1960075,1,14464,0,46836,53686,46847.57,53564.90,-11.57,121.10,0.687804,93.30,1
1960115,1,14504,0,46849,53694,46847.58,53565.16,1.42,128.84,0.688625,93.28,1
1960155,1,14544,0,46853,53722,46847.59,53565.47,5.41,156.53,0.689443,93.27,1
1960196,1,14585,0,46865,53738,46847.62,53565.82,17.37,172.18,0.690259,93.25,1
1960236,1,14625,0,46876,53769,46847.68,53566.23,28.32,202.77,0.691071,93.24,1
1960276,1,14665,0,46887,53806,46847.76,53566.71,39.24,239.29,0.691881,93.22,1
1960316,1,14705,0,46906,53834,46847.88,53567.24,58.12,266.76,0.692688,93.20,1
1960356,1,14745,0,46920,53863,46848.02,53567.84,71.98,295.16,0.693493,93.19,1
1960396,1,14785,0,46935,53867,46848.20,53568.44,86.80,298.56,0.694294,93.17,1
1960436,1,14825,0,46928,53864,46848.36,53569.03,79.64,294.97,0.695092,93.15,1
1960476,1,14865,0,46935,53861,46848.54,53569.62,86.46,291.38,0.695887,93.14,1
1960516,1,14905,0,46950,53872,46848.74,53570.22,101.26,301.78,0.696679,93.12,1
1960556,1,14945,0,46951,53883,46848.95,53570.85,102.05,312.15,0.697469,93.10,1
1960596,1,14985,0,46955,53897,46849.16,53571.50,105.84,325.50,0.698255,93.09,1
1960636,1,15025,0,46957,53908,46849.38,53572.18,107.62,335.82,0.699038,93.07,1
1960676,1,15065,0,46969,53918,46849.62,53572.87,119.38,345.13,0.699818,93.05,1
1960716,1,15105,0,46963,53909,46849.85,53573.54,113.15,335.46,0.700596,93.04,1
1960756,1,15145,0,46971,53937,46850.09,53574.27,120.91,362.73,0.701370,93.02,1
1960797,1,15186,0,46972,53932,46850.34,53574.98,121.66,357.02,0.702140,93.00,1
1960837,1,15226,0,46968,53954,46850.57,53575.74,117.43,378.26,0.702908,92.98,1
1960877,1,15266,0,46982,53974,46850.84,53576.54,131.16,397.46,0.703672,92.97,1
1960917,1,15306,0,46984,53993,46851.11,53577.37,132.89,415.62,0.704433,92.95,1
1960957,1,15346,0,47003,54022,46851.41,53578.27,151.59,443.73,0.705190,92.93,1
1960997,1,15386,0,47006,54052,46851.72,53579.21,154.28,472.79,0.705943,92.92,1
1961037,1,15426,0,47029,54076,46852.07,53580.21,176.93,495.79,0.706692,92.90,1
1961077,1,15466,0,47034,54071,46852.44,53581.20,181.56,489.80,0.707438,92.88,1
1961117,1,15506,0,47036,54050,46852.80,53582.13,183.20,467.87,0.708180,92.86,1
1961157,1,15546,0,47029,54031,46853.16,53583.03,175.84,447.97,0.708918,92.85,1
1961197,1,15586,0,47012,54033,46853.48,53583.93,158.52,449.07,0.709653,92.83,1
1961237,1,15626,0,47011,54008,46853.80,53584.78,157.20,423.22,0.710384,92.81,1
1961277,1,15666,0,46993,53985,46854.08,53585.58,138.92,399.42,0.711112,92.79,1
1961317,1,15706,0,46981,53984,46854.33,53586.38,126.67,397.62,0.711836,92.77,1
1961357,1,15746,0,46977,53965,46854.58,53587.14,122.42,377.86,0.712558,92.76,1
1961398,1,15787,0,46973,53976,46854.82,53587.91,118.18,388.09,0.713276,92.74,1
1961438,1,15827,0,46971,53971,46855.05,53588.68,115.95,382.32,0.713990,92.72,1
1961478,1,15867,0,46960,53977,46855.26,53589.46,104.74,387.54,0.714702,92.70,1
1961518,1,15907,0,46961,53986,46855.47,53590.25,105.53,395.75,0.715410,92.69,1
1961558,1,15947,0,46965,53981,46855.69,53591.03,109.31,389.97,0.716114,92.67,1
1961598,1,15987,0,46959,53996,46855.90,53591.84,103.10,404.16,0.716816,92.65,1
1961638,1,16027,0,46963,54000,46856.11,53592.66,106.89,407.34,0.717513,92.63,1
1961678,1,16067,0,46967,54006,46856.34,53593.49,110.66,412.51,0.718207,92.62,1
1961718,1,16107,0,46968,54012,46856.56,53594.33,111.44,417.67,0.718898,92.60,1
1961758,1,16147,0,46957,54013,46856.76,53595.17,100.24,417.83,0.719585,92.58,1
1961798,1,16187,0,46968,53997,46856.98,53595.97,111.02,401.03,0.720268,92.56,1
1961838,1,16227,0,46959,53980,46857.19,53596.74,101.81,383.26,0.720949,92.55,1
1961878,1,16267,0,46956,53996,46857.39,53597.54,98.61,398.46,0.721625,92.53,1
1961918,1,16307,0,46961,54008,46857.60,53598.37,103.40,409.63,0.722299,92.51,1
1961958,1,16347,0,46966,53999,46857.82,53599.17,108.18,399.83,0.722968,92.49,1
1961999,1,16388,0,46956,54004,46858.02,53599.98,97.98,404.02,0.723635,92.48,1
1962039,1,16428,0,46958,54011,46858.22,53600.80,99.78,410.20,0.724297,92.46,1
1962079,1,16468,0,46953,54008,46858.41,53601.62,94.59,406.38,0.724956,92.44,1
1962119,1,16508,0,46960,54013,46858.61,53602.45,101.39,410.55,0.725612,92.42,1
1962159,1,16548,0,46958,54033,46858.81,53603.31,99.19,429.69,0.726264,92.41,1
1962199,1,16588,0,46972,54058,46859.04,53604.22,112.96,453.78,0.726912,92.39,1
1962239,1,16628,0,46982,54079,46859.29,53605.17,122.71,473.83,0.727556,92.37,1
1962279,1,16668,0,47002,54104,46859.57,53606.17,142.43,497.83,0.728195,92.35,1
1962319,1,16708,0,47012,54132,46859.87,53607.22,152.12,524.78,0.728830,92.34,1
1962359,1,16748,0,47023,54152,46860.20,53608.31,162.80,543.69,0.729461,92.32,1
1962399,1,16788,0,47030,54163,46860.54,53609.42,169.46,553.58,0.730086,92.30,1
1962439,1,16828,0,47037,54158,46860.90,53610.52,176.10,547.48,0.730707,92.28,1
1962479,1,16868,0,47025,54130,46861.23,53611.56,163.77,518.44,0.731324,92.27,1
1962519,1,16908,0,47012,54109,46861.53,53612.55,150.47,496.45,0.731936,92.25,1
1962560,1,16949,0,46999,54101,46861.81,53613.53,137.19,487.47,0.732544,92.23,1
1962600,1,16989,0,47001,54100,46862.09,53614.50,138.91,485.50,0.733148,92.22,1
1962640,1,17029,0,46990,54089,46862.35,53615.45,127.65,473.55,0.733748,92.20,1
1962680,1,17069,0,46989,54098,46862.60,53616.42,126.40,481.58,0.734344,92.18,1
1962720,1,17109,0,46991,54099,46862.86,53617.38,128.14,481.62,0.734935,92.17,1
1962760,1,17149,0,46990,54099,46863.11,53618.35,126.89,480.65,0.735523,92.15,1
1962800,1,17189,0,46986,54107,46863.36,53619.33,122.64,487.67,0.736106,92.13,1
1962840,1,17229,0,46996,54112,46863.62,53620.32,132.37,491.68,0.736684,92.12,1
1962880,1,17269,0,47005,54119,46863.91,53621.32,141.09,497.68,0.737259,92.10,1
1962920,1,17309,0,47003,54120,46864.19,53622.32,138.81,497.68,0.737829,92.08,1
1962960,1,17349,0,47004,54130,46864.47,53623.33,139.53,506.67,0.738395,92.07,1
1963000,1,17389,0,47001,54137,46864.75,53624.36,136.25,512.64,0.738956,92.05,1
1963040,1,17429,0,47007,54142,46865.03,53625.39,141.97,516.61,0.739512,92.04,1
1963080,1,17469,0,47000,54127,46865.30,53626.40,134.70,500.60,0.740064,92.02,1
1963120,1,17509,0,46988,54094,46865.55,53627.34,122.45,466.66,0.740612,92.00,1
1963161,1,17550,0,46980,54086,46865.78,53628.25,114.22,457.75,0.741156,91.99,1
1963201,1,17590,0,46979,54083,46866.00,53629.16,113.00,453.84,0.741696,91.97,1
1963241,1,17630,0,46972,54088,46866.22,53630.08,105.78,457.92,0.742232,91.96,1
1963281,1,17670,0,46976,54088,46866.44,53631.00,109.56,457.00,0.742764,91.94,1
1963321,1,17710,0,46978,54098,46866.66,53631.93,111.34,466.07,0.743292,91.92,1
1963361,1,17750,0,46978,54106,46866.89,53632.88,111.11,473.12,0.743816,91.91,1
1963401,1,17790,0,46980,54099,46867.11,53633.82,112.89,465.18,0.744335,91.89,1
1963441,1,17830,0,46983,54111,46867.35,53634.77,115.65,476.23,0.744850,91.88,1
1963481,1,17870,0,46993,54118,46867.60,53635.74,125.40,482.26,0.745361,91.86,1
1963521,1,17910,0,46988,54124,46867.84,53636.72,120.16,487.28,0.745868,91.85,1
1963561,1,17950,0,47002,54142,46868.11,53637.73,133.89,504.27,0.746369,91.83,1
1963601,1,17990,0,47006,54146,46868.39,53638.75,137.61,507.25,0.746867,91.82,1
1963641,1,18030,0,47002,54156,46868.66,53639.79,133.34,516.21,0.747359,91.80,1
1963681,1,18070,0,47006,54158,46868.94,53640.82,137.06,517.18,0.747847,91.79,1
1963721,1,18110,0,46997,54125,46869.20,53641.79,127.80,483.21,0.748331,91.77,1
1963762,1,18151,0,46982,54092,46869.42,53642.70,112.58,449.30,0.748810,91.76,1
1963802,1,18191,0,46975,54086,46869.63,53643.58,105.37,442.42,0.749286,91.74,1
1963842,1,18231,0,46961,54078,46869.82,53644.45,91.18,433.55,0.749758,91.73,1
1963882,1,18271,0,46967,54068,46870.01,53645.30,96.99,422.70,0.750226,91.71,1
1963922,1,18311,0,46960,54073,46870.19,53646.16,89.81,426.84,0.750690,91.70,1
1963962,1,18351,0,46961,54088,46870.37,53647.04,90.62,440.96,0.751150,91.68,1
1964002,1,18391,0,46973,54088,46870.58,53647.93,102.42,440.07,0.751607,91.67,1
1964042,1,18431,0,46974,54093,46870.79,53648.82,103.21,444.18,0.752059,91.66,1
1964082,1,18471,0,46980,54104,46871.01,53649.73,108.99,454.27,0.752507,91.64,1
1964122,1,18511,0,46983,54108,46871.23,53650.64,111.77,457.36,0.752951,91.63,1
1964162,1,18551,0,46982,54128,46871.46,53651.60,110.54,476.40,0.753391,91.61,1
1964202,1,18591,0,46996,54138,46871.71,53652.57,124.29,485.43,0.753826,91.60,1
1964242,1,18631,0,46999,54154,46871.96,53653.58,127.04,500.42,0.754257,91.59,1
1964282,1,18671,0,47000,54165,46872.22,53654.60,127.78,510.40,0.754682,91.57,1
1964323,1,18712,0,47003,54173,46872.48,53655.64,130.52,517.36,0.755103,91.56,1
1964363,1,18752,0,47008,54181,46872.75,53656.69,135.25,524.31,0.755519,91.55,1
1964403,1,18792,0,47008,54193,46873.03,53657.77,134.97,535.23,0.755929,91.53,1
1964443,1,18832,0,47006,54155,46873.29,53658.76,132.71,496.24,0.756335,91.52,1
1964483,1,18872,0,46996,54149,46873.54,53659.74,122.46,489.26,0.756736,91.51,1
1964523,1,18912,0,46994,54133,46873.78,53660.69,120.22,472.31,0.757133,91.49,1
1964563,1,18952,0,46986,54135,46874.01,53661.64,111.99,473.36,0.757526,91.48,1
1964603,1,18992,0,46989,54124,46874.24,53662.57,114.76,461.43,0.757914,91.47,1
1964643,1,19032,0,46982,54116,46874.45,53663.48,107.55,452.52,0.758299,91.45,1
1964683,1,19072,0,46980,54119,46874.66,53664.39,105.34,454.61,0.758679,91.44,1
1964723,1,19112,0,46977,54115,46874.87,53665.29,102.13,449.71,0.759055,91.43,1
1964763,1,19152,0,46976,54117,46875.07,53666.20,100.93,450.80,0.759427,91.42,1
1964803,1,19192,0,46972,54104,46875.27,53667.08,96.73,436.92,0.759794,91.40,1
1964843,1,19232,0,46963,54114,46875.45,53667.97,87.55,446.03,0.760158,91.39,1
1964883,1,19272,0,46966,54108,46875.63,53668.86,90.37,439.14,0.760518,91.38,1
1964924,1,19313,0,46958,54116,46875.79,53669.75,82.21,446.25,0.760873,91.37,1
1964964,1,19353,0,46961,54124,46875.96,53670.66,85.04,453.34,0.761224,91.36,1
1965004,1,19393,0,46958,54126,46876.13,53671.57,81.87,454.43,0.761571,91.34,1
1965044,1,19433,0,46959,54139,46876.30,53672.51,82.70,466.49,0.761913,91.33,1
1965084,1,19473,0,46964,54148,46876.47,53673.46,87.53,474.54,0.762250,91.32,1
1965124,1,19513,0,46962,54151,46876.64,53674.42,85.36,476.58,0.762583,91.31,1
1965164,1,19553,0,46960,54128,46876.81,53675.33,83.19,452.67,0.762912,91.30,1
1965204,1,19593,0,46952,54095,46876.96,53676.17,75.04,418.83,0.763236,91.29,1
1965244,1,19633,0,46940,54084,46877.09,53676.98,62.91,407.02,0.763557,91.28,1
1965284,1,19673,0,46935,54074,46877.21,53677.78,57.79,396.22,0.763874,91.26,1
1965324,1,19713,0,46918,54058,46877.29,53678.54,40.71,379.46,0.764188,91.25,1
1965364,1,19753,0,46918,54048,46877.37,53679.29,40.63,368.71,0.764498,91.24,1
1965404,1,19793,0,46905,54036,46877.43,53680.00,27.57,356.00,0.764805,91.23,1
1965444,1,19833,0,46901,54032,46877.48,53680.71,23.52,351.29,0.765110,91.22,1
1965485,1,19874,0,46887,54011,46877.50,53681.37,9.50,329.63,0.765411,91.21,1
1965525,1,19914,0,46885,54021,46877.51,53682.05,7.49,338.95,0.765709,91.20,1
1965565,1,19954,0,46880,54021,46877.52,53682.73,2.48,338.27,0.766004,91.19,1
1965605,1,19994,0,46878,54027,46877.52,53683.42,0.48,343.58,0.766296,91.18,1
1965645,1,20034,0,46878,54034,46877.53,53684.12,0.47,349.88,0.766585,91.17,1
1965685,1,20074,1,46880,54047,46877.54,53684.85,2.46,362.15,0.766870,91.16,1
1965725,1,20114,1,46882,54052,46877.55,53685.58,4.45,366.42,0.767153,91.15,1
1965765,1,20154,1,46883,54049,46877.56,53686.31,5.44,362.69,0.767431,91.14,1
1965805,1,20194,1,46887,54049,46877.58,53687.04,9.42,361.96,0.767707,91.13,1
1965845,1,20234,1,46881,54031,46877.59,53687.72,3.41,343.28,0.767979,91.12,1
1965885,1,20274,1,46863,53995,46877.56,53688.34,-14.56,306.66,0.768248,91.11,1
1965925,1,20314,1,46847,53976,46877.50,53688.92,-30.50,287.08,0.768516,91.10,1
1965965,1,20354,1,46845,53973,46877.44,53689.49,-32.44,283.51,0.768780,91.09,1
1966005,1,20394,1,46831,53951,46877.35,53690.01,-46.35,260.99,0.769043,91.08,1
1966045,1,20434,1,46821,53948,46877.23,53690.53,-56.23,257.47,0.769304,91.07,1
1966086,1,20475,1,46816,53944,46877.11,53691.04,-61.11,252.96,0.769563,91.06,1
1966126,1,20515,1,46808,53941,46876.98,53691.54,-68.98,249.46,0.769820,91.05,1
1966166,1,20555,1,46808,53947,46876.84,53692.05,-68.84,254.95,0.770075,91.04,1
1966206,1,20595,1,46803,53941,46876.70,53692.55,-73.70,248.45,0.770328,91.03,1
1966246,1,20635,1,46799,53955,46876.54,53693.07,-77.54,261.93,0.770579,91.02,1
1966286,1,20675,1,46810,53955,46876.41,53693.60,-66.41,261.40,0.770828,91.02,1
1966326,1,20715,1,46805,53972,46876.27,53694.16,-71.27,277.84,0.771075,91.01,1
1966366,1,20755,1,46813,53968,46876.14,53694.71,-63.14,273.29,0.771320,91.00,1
1966406,1,20795,1,46811,53972,46876.02,53695.26,-65.02,276.74,0.771562,90.99,1
1966446,1,20835,1,46813,53975,46875.89,53695.82,-62.89,279.18,0.771802,90.98,1
1966486,1,20875,1,46809,53980,46875.76,53696.39,-66.76,283.61,0.772040,90.97,1
1966526,1,20915,1,46812,53971,46875.63,53696.95,-63.63,274.05,0.772276,90.96,1
1966566,1,20955,1,46797,53934,46875.48,53697.42,-78.48,236.58,0.772510,90.96,1
1966606,1,20995,1,46785,53920,46875.30,53697.87,-90.30,222.13,0.772743,90.95,1
1966646,1,21035,1,46772,53903,46875.09,53698.28,-103.09,204.72,0.772974,90.94,1
1966687,1,21076,1,46763,53900,46874.87,53698.68,-111.87,201.32,0.773204,90.93,1
1966727,1,21116,1,46760,53883,46874.64,53699.05,-114.64,183.95,0.773434,90.92,1
1966767,1,21156,1,46747,53889,46874.38,53699.44,-127.38,189.56,0.773662,90.92,1
1966807,1,21196,1,46749,53896,46874.13,53699.83,-125.13,196.17,0.773890,90.91,1
1966847,1,21236,1,46746,53892,46873.88,53700.22,-127.88,191.78,0.774116,90.90,1
1966887,1,21276,1,46747,53899,46873.62,53700.62,-126.62,198.38,0.774342,90.89,1
1966927,1,21316,1,46748,53886,46873.37,53700.99,-125.37,185.01,0.774567,90.88,1
1966967,1,21356,1,46747,53901,46873.12,53701.39,-126.12,199.61,0.774792,90.88,1
1967007,1,21396,1,46752,53896,46872.88,53701.78,-120.88,194.22,0.775015,90.87,1
1967047,1,21436,1,46740,53911,46872.62,53702.20,-132.62,208.80,0.775237,90.86,1
1967087,1,21476,1,46749,53903,46872.37,53702.60,-123.37,200.40,0.775459,90.85,1
1967127,1,21516,1,46741,53913,46872.11,53703.02,-131.11,209.98,0.775679,90.85,1
1967167,1,21556,1,46743,53914,46871.85,53703.45,-128.85,210.55,0.775898,90.84,1
1967207,1,21596,1,46738,53911,46871.59,53703.86,-133.59,207.14,0.776117,90.83,1
1967248,1,21637,1,46744,53922,46871.33,53704.30,-127.33,217.70,0.776334,90.83,1
1967288,1,21677,1,46724,53902,46871.04,53704.70,-147.04,197.30,0.776551,90.82,1
1967328,1,21717,1,46728,53887,46870.75,53705.07,-142.75,181.93,0.776768,90.81,1
1967368,1,21757,1,46721,53870,46870.46,53705.40,-149.46,164.60,0.776984,90.80,1
1967408,1,21797,1,46715,53885,46870.15,53705.76,-155.15,179.24,0.777199,90.80,1
1967448,1,21837,1,46712,53879,46869.83,53706.11,-157.83,172.89,0.777415,90.79,1
1967488,1,21877,1,46711,53875,46869.52,53706.45,-158.52,168.55,0.777630,90.78,1
1967528,1,21917,1,46716,53874,46869.21,53706.78,-153.21,167.22,0.777846,90.78,1
1967568,1,21957,1,46713,53879,46868.90,53707.13,-155.90,171.87,0.778061,90.77,1
1967608,1,21997,1,46710,53871,46868.58,53707.46,-158.58,163.54,0.778276,90.76,1
1967648,1,22037,1,46709,53874,46868.27,53707.79,-159.27,166.21,0.778491,90.76,1
1967688,1,22077,1,46709,53877,46867.95,53708.13,-158.95,168.87,0.778706,90.75,1
1967728,1,22117,1,46700,53883,46867.61,53708.48,-167.61,174.52,0.778921,90.74,1
1967768,1,22157,1,46703,53888,46867.29,53708.84,-164.29,179.16,0.779135,90.74,1
1967809,1,22198,1,46703,53883,46866.96,53709.20,-163.96,173.80,0.779350,90.73,1
1967849,1,22238,1,46698,53895,46866.62,53709.57,-168.62,185.43,0.779565,90.72,1
1967889,1,22278,1,46700,53907,46866.29,53709.96,-166.29,197.04,0.779779,90.72,1
1967929,1,22318,1,46703,53912,46865.96,53710.37,-162.96,201.63,0.779993,90.71,1
1967969,1,22358,1,46702,53923,46865.64,53710.79,-163.64,212.21,0.780207,90.70,1
1968009,1,22398,1,46711,53942,46865.33,53711.26,-154.33,230.74,0.780420,90.70,1
1968049,1,22438,1,46711,53930,46865.02,53711.70,-154.02,218.30,0.780632,90.69,1
1968089,1,22478,1,46708,53913,46864.71,53712.10,-156.71,200.90,0.780843,90.68,1
1968129,1,22518,1,46699,53899,46864.37,53712.47,-165.37,186.53,0.781054,90.68,1
1968169,1,22558,1,46697,53900,46864.04,53712.85,-167.04,187.15,0.781265,90.67,1
1968209,1,22598,1,46694,53891,46863.70,53713.21,-169.70,177.79,0.781477,90.67,1
1968249,1,22638,1,46699,53888,46863.37,53713.56,-164.37,174.44,0.781688,90.66,1
1968289,1,22678,1,46684,53880,46863.02,53713.89,-179.02,166.11,0.781900,90.65,1
1968329,1,22718,1,46681,53888,46862.65,53714.24,-181.65,173.76,0.782112,90.65,1
1968370,1,22759,1,46676,53895,46862.28,53714.61,-186.28,180.39,0.782325,90.64,1
1968410,1,22799,1,46684,53889,46861.93,53714.96,-177.93,174.04,0.782538,90.63,1
1968450,1,22839,1,46675,53907,46861.55,53715.34,-186.55,191.66,0.782751,90.63,1
1968490,1,22879,1,46687,53913,46861.21,53715.74,-174.21,197.26,0.782965,90.62,1
1968530,1,22919,1,46688,53920,46860.86,53716.15,-172.86,203.85,0.783178,90.62,1
1968570,1,22959,1,46687,53937,46860.52,53716.59,-173.52,220.41,0.783390,90.61,1
1968610,1,22999,1,46691,53946,46860.18,53717.05,-169.18,228.95,0.783603,90.60,1
1968650,1,23039,1,46702,53953,46859.86,53717.53,-157.86,235.47,0.783814,90.60,1
1968690,1,23079,1,46696,53949,46859.54,53717.99,-163.54,231.01,0.784024,90.59,1
1968730,1,23119,1,46695,53959,46859.21,53718.48,-164.21,240.52,0.784233,90.59,1
1968770,1,23159,1,46699,53965,46858.89,53718.97,-159.89,246.03,0.784442,90.58,1
1968810,1,23199,1,46698,53969,46858.57,53719.47,-160.57,249.53,0.784649,90.57,1
1968850,1,23239,1,46701,53979,46858.25,53719.99,-157.25,259.01,0.784854,90.57,1
1968890,1,23279,1,46691,53960,46857.92,53720.47,-166.92,239.53,0.785059,90.56,1
1968930,1,23319,1,46681,53941,46857.57,53720.91,-176.57,220.09,0.785264,90.56,1
1968971,1,23360,1,46677,53923,46857.21,53721.32,-180.21,201.68,0.785468,90.55,1
1969011,1,23400,1,46670,53937,46856.84,53721.75,-186.84,215.25,0.785673,90.55,1
1969051,1,23440,1,46662,53933,46856.45,53722.18,-194.45,210.82,0.785878,90.54,1
1969091,1,23480,1,46659,53926,46856.05,53722.59,-197.05,203.41,0.786084,90.53,1
1969131,1,23520,1,46658,53936,46855.66,53723.02,-197.66,212.98,0.786290,90.53,1
1969171,1,23560,1,46662,53946,46855.27,53723.47,-193.27,222.53,0.786497,90.52,1
1969211,1,23600,1,46661,53950,46854.89,53723.92,-193.89,226.08,0.786703,90.52,1
1969251,1,23640,1,46666,53947,46854.51,53724.37,-188.51,222.63,0.786910,90.51,1
1969291,1,23680,1,46666,53947,46854.14,53724.82,-188.14,222.18,0.787116,90.51,1
1969331,1,23720,1,46664,53957,46853.76,53725.28,-189.76,231.72,0.787322,90.50,1
1969371,1,23760,1,46663,53955,46853.38,53725.74,-190.38,229.26,0.787529,90.49,1
1969411,1,23800,1,46662,53959,46853.00,53726.21,-191.00,232.79,0.787735,90.49,1
1969451,1,23840,1,46660,53964,46852.61,53726.69,-192.61,237.31,0.787941,90.48,1
1969491,1,23880,1,46660,53974,46852.23,53727.18,-192.23,246.82,0.788147,90.48,1
1969532,1,23921,1,46656,53966,46851.84,53727.66,-195.84,238.34,0.788353,90.47,1
1969572,1,23961,1,46649,53982,46851.43,53728.18,-202.43,253.82,0.788559,90.47,1
1969612,1,24001,1,46654,53984,46851.04,53728.69,-197.04,255.31,0.788764,90.46,1
1969652,1,24041,1,46649,53998,46850.63,53729.23,-201.63,268.77,0.788969,90.45,1
1969692,1,24081,1,46656,53999,46850.25,53729.77,-194.25,269.23,0.789172,90.45,1
1969732,1,24121,1,46653,53996,46849.85,53730.30,-196.85,265.70,0.789376,90.44,1
1969772,1,24161,1,46647,53975,46849.45,53730.79,-202.45,244.21,0.789579,90.44,1
1969812,1,24201,1,46649,53975,46849.05,53731.28,-200.05,243.72,0.789782,90.43,1
1969852,1,24241,1,46644,53961,46848.64,53731.74,-204.64,229.26,0.789986,90.43,1
1969892,1,24281,1,46645,53977,46848.23,53732.23,-203.23,244.77,0.790190,90.42,1
1969932,1,24321,1,46634,53955,46847.80,53732.68,-213.80,222.32,0.790395,90.42,1
1969972,1,24361,1,46631,53964,46847.37,53733.14,-216.37,230.86,0.790601,90.41,1
1970012,1,24401,1,46629,53952,46846.94,53733.58,-217.94,218.42,0.790808,90.41,1
1970052,1,24441,1,46618,53954,46846.48,53734.02,-228.48,219.98,0.791017,90.40,1
1970093,1,24482,1,46618,53948,46846.02,53734.45,-228.02,213.55,0.791228,90.39,1
1970133,1,24522,1,46612,53955,46845.55,53734.89,-233.55,220.11,0.791440,90.39,1
1970173,1,24562,1,46611,53966,46845.09,53735.36,-234.09,230.64,0.791654,90.38,1
1970213,1,24602,1,46611,53969,46844.62,53735.83,-233.62,233.17,0.791870,90.38,1
1970253,1,24642,1,46618,53970,46844.16,53736.30,-226.16,233.70,0.792087,90.37,1
1970293,1,24682,1,46613,53988,46843.70,53736.80,-230.70,251.20,0.792305,90.37,1
1970333,1,24722,1,46616,53993,46843.25,53737.32,-227.25,255.68,0.792523,90.36,1
1970373,1,24762,1,46619,54000,46842.80,53737.84,-223.80,262.16,0.792742,90.36,1
1970413,1,24802,1,46624,54001,46842.36,53738.37,-218.36,262.63,0.792962,90.35,1
1970453,1,24842,1,46622,54010,46841.92,53738.91,-219.92,271.09,0.793181,90.35,1
1970493,1,24882,1,46618,54013,46841.48,53739.46,-223.48,273.54,0.793400,90.34,1
1970533,1,24922,1,46621,54009,46841.04,53740.00,-220.04,269.00,0.793620,90.34,1
1970573,1,24962,1,46616,54011,46840.59,53740.55,-224.59,270.45,0.793840,90.33,1
1970613,1,25002,1,46606,53983,46840.12,53741.03,-234.12,241.97,0.794061,90.32,1
1970653,1,25042,1,46591,53966,46839.62,53741.48,-248.62,224.52,0.794285,90.32,1
1970694,1,25083,1,46587,53955,46839.12,53741.91,-252.12,213.09,0.794512,90.31,1
1970734,1,25123,1,46578,53949,46838.60,53742.33,-260.60,206.67,0.794742,90.31,1
1970774,1,25163,1,46573,53951,46838.07,53742.75,-265.07,208.25,0.794977,90.30,1
1970814,1,25203,1,46566,53947,46837.52,53743.16,-271.52,203.84,0.795215,90.30,1
1970854,1,25243,1,46565,53945,46836.98,53743.56,-271.98,201.44,0.795459,90.29,1
1970894,1,25283,1,46563,53955,46836.43,53743.99,-273.43,211.01,0.795706,90.29,1
1970934,1,25323,1,46571,53949,46835.90,53744.40,-264.90,204.60,0.795958,90.28,1
1970974,1,25363,1,46562,53941,46835.36,53744.79,-273.36,196.21,0.796214,90.27,1
1971014,1,25403,1,46563,53948,46834.81,53745.20,-271.81,202.80,0.796475,90.27,1
1971054,1,25443,1,46561,53945,46834.27,53745.60,-273.27,199.40,0.796740,90.26,1
1971094,1,25483,1,46558,53955,46833.71,53746.02,-275.71,208.98,0.797010,90.26,1
1971134,1,25523,1,46561,53953,46833.17,53746.44,-272.17,206.56,0.797285,90.25,1
1971174,1,25563,1,46551,53956,46832.61,53746.86,-281.61,209.14,0.797564,90.25,1
1971214,1,25603,1,46550,53956,46832.05,53747.28,-282.05,208.72,0.797848,90.24,1
1971255,1,25644,1,46548,53962,46831.48,53747.71,-283.48,214.29,0.798137,90.23,1
1971295,1,25684,1,46540,53959,46830.90,53748.13,-290.90,210.87,0.798431,90.23,1
1971335,1,25724,1,46536,53973,46830.31,53748.58,-294.31,224.42,0.798731,90.22,1
1971375,1,25764,1,46539,53973,46829.73,53749.03,-290.73,223.97,0.799036,90.22,1
1971415,1,25804,1,46541,53977,46829.15,53749.49,-288.15,227.51,0.799345,90.21,1
1971455,1,25844,1,46537,53977,46828.57,53749.95,-291.57,227.05,0.799660,90.21,1
1971495,1,25884,1,46525,53947,46827.96,53750.34,-302.96,196.66,0.799981,90.20,1
1971535,1,25924,1,46509,53900,46827.32,53750.64,-318.32,149.36,0.800312,90.19,1
1971575,1,25964,1,46493,53865,46826.66,53750.87,-333.66,114.13,0.800652,90.19,1
1971615,1,26004,1,46466,53854,46825.94,53751.08,-359.94,102.92,0.801006,90.18,1
1971655,1,26044,1,46460,53825,46825.21,53751.23,-365.21,73.77,0.801374,90.17,1
1971695,1,26084,1,46453,53829,46824.46,53751.38,-371.46,77.62,0.801755,90.17,1
1971735,1,26124,1,46448,53807,46823.71,53751.50,-375.71,55.50,0.802152,90.16,1
1971775,1,26164,1,46439,53817,46822.95,53751.63,-383.95,65.37,0.802564,90.15,1
1971815,1,26204,1,46437,53803,46822.18,53751.73,-385.18,51.27,0.802992,90.15,1
1971856,1,26245,1,46436,53812,46821.41,53751.86,-385.41,60.14,0.803436,90.14,1
1971896,1,26285,1,46424,53808,46820.61,53751.97,-396.61,56.03,0.803897,90.13,1
1971936,1,26325,1,46429,53821,46819.83,53752.11,-390.83,68.89,0.804374,90.13,1
1971976,1,26365,1,46426,53811,46819.05,53752.23,-393.05,58.77,0.804867,90.12,1
1972016,1,26405,1,46426,53828,46818.26,53752.38,-392.26,75.62,0.805376,90.11,1
1972056,1,26445,1,46428,53830,46817.48,53752.54,-389.48,77.46,0.805902,90.10,1
1972096,1,26485,1,46428,53837,46816.70,53752.71,-388.70,84.29,0.806443,90.09,1
1972136,1,26525,1,46431,53834,46815.93,53752.87,-384.93,81.12,0.807000,90.09,1
1972176,1,26565,1,46430,53843,46815.16,53753.05,-385.16,89.95,0.807572,90.08,1
1972216,1,26605,1,46429,53841,46814.39,53753.23,-385.39,87.77,0.808159,90.07,1
1972256,1,26645,1,46428,53849,46813.62,53753.42,-385.62,95.58,0.808762,90.06,1
1972296,1,26685,1,46429,53854,46812.85,53753.62,-383.85,100.37,0.809381,90.05,1
1972336,1,26725,1,46427,53853,46812.08,53753.82,-385.08,99.18,0.810014,90.04,1
1972376,1,26765,1,46427,53864,46811.31,53754.05,-384.31,109.95,0.810663,90.03,1
1972417,1,26806,1,46420,53839,46810.53,53754.22,-390.53,84.78,0.811327,90.02,1
1972457,1,26846,1,46414,53807,46809.74,53754.32,-395.74,52.68,0.812009,90.01,1
1972497,1,26886,1,46393,53796,46808.91,53754.41,-415.91,41.59,0.812710,90.00,1
1972537,1,26926,1,46398,53789,46808.09,53754.48,-410.09,34.52,0.813429,89.99,1
1972577,1,26966,1,46393,53783,46807.26,53754.54,-414.26,28.46,0.814168,89.98,1
1972617,1,27006,1,46385,53769,46806.41,53754.57,-421.41,14.43,0.814926,89.97,1
1972657,1,27046,1,46379,53768,46805.56,53754.60,-426.56,13.40,0.815705,89.96,1
1972697,1,27086,1,46383,53761,46804.71,53754.61,-421.71,6.39,0.816505,89.95,1
1972737,1,27126,1,46380,53751,46803.87,53754.61,-423.87,-3.61,0.817324,89.94,1
1972777,1,27166,1,46376,53752,46803.01,53754.61,-427.01,-2.61,0.818164,89.93,1
1972817,1,27206,1,46377,53754,46802.16,53754.61,-425.16,-0.61,0.819024,89.92,1
1972857,1,27246,1,46381,53743,46801.32,53754.58,-420.32,-11.58,0.819905,89.90,1
1972897,1,27286,1,46373,53757,46800.46,53754.59,-427.46,2.41,0.820806,89.89,1
1972937,1,27326,1,46382,53758,46799.63,53754.60,-417.63,3.40,0.821726,89.88,1
1972977,1,27366,1,46380,53762,46798.79,53754.61,-418.79,7.39,0.822667,89.86,1
1973018,1,27407,1,46380,53756,46797.95,53754.62,-417.95,1.38,0.823627,89.85,1
1973058,1,27447,1,46370,53773,46797.10,53754.66,-427.10,18.34,0.824608,89.84,1
1973098,1,27487,1,46374,53772,46796.25,53754.69,-422.25,17.31,0.825609,89.82,1
1973138,1,27527,1,46377,53779,46795.42,53754.74,-418.42,24.26,0.826630,89.81,1
1973178,1,27567,1,46379,53789,46794.59,53754.81,-415.59,34.19,0.827670,89.79,1
1973218,1,27607,1,46383,53801,46793.77,53754.91,-410.77,46.09,0.828729,89.78,1
1973258,1,27647,1,46390,53809,46792.96,53755.02,-402.96,53.98,0.829805,89.76,1
1973298,1,27687,1,46397,53810,46792.17,53755.13,-395.17,54.87,0.830899,89.75,1
1973338,1,27727,1,46394,53786,46791.37,53755.19,-397.37,30.81,0.832011,89.73,1
1973378,1,27767,1,46384,53755,46790.56,53755.19,-406.56,-0.19,0.833141,89.71,1
1973418,1,27807,1,46378,53737,46789.74,53755.16,-411.74,-18.16,0.834290,89.70,1
1973458,1,27847,1,46375,53728,46788.91,53755.10,-413.91,-27.10,0.835459,89.68,1
1973498,1,27887,1,46373,53726,46788.08,53755.04,-415.08,-29.04,0.836647,89.66,1
1973538,1,27927,1,46375,53704,46787.25,53754.94,-412.25,-50.94,0.837855,89.64,1
1973579,1,27968,1,46368,53710,46786.42,53754.85,-418.42,-44.85,0.839082,89.62,1
1973619,1,28008,1,46372,53698,46785.59,53754.74,-413.59,-56.74,0.840329,89.60,1
1973659,1,28048,1,46365,53701,46784.75,53754.63,-419.75,-53.63,0.841595,89.59,1
1973699,1,28088,1,46372,53698,46783.93,53754.52,-411.93,-56.52,0.842881,89.57,1
1973739,1,28128,1,46374,53714,46783.11,53754.44,-409.11,-40.44,0.844185,89.55,1
1973779,1,28168,1,46388,53739,46782.32,53754.41,-394.32,-15.41,0.845507,89.52,1
1973819,1,28208,1,46406,53766,46781.57,53754.43,-375.57,11.57,0.846845,89.50,1
1973859,1,28248,1,46427,53780,46780.86,53754.48,-353.86,25.52,0.848196,89.48,1
1973899,1,28288,1,46436,53780,46780.17,53754.54,-344.17,25.46,0.849559,89.46,1
1973939,1,28328,1,46443,53794,46779.50,53754.62,-336.50,39.38,0.850934,89.44,1
1973979,1,28368,1,46444,53801,46778.83,53754.71,-334.83,46.29,0.852321,89.42,1
1974019,1,28408,1,46450,53807,46778.18,53754.82,-328.18,52.18,0.853719,89.39,1
1974059,1,28448,1,46458,53819,46777.54,53754.95,-319.54,64.05,0.855126,89.37,1
1974099,1,28488,1,46465,53830,46776.91,53755.10,-311.91,74.90,0.856542,89.35,1
1974139,1,28528,1,46468,53843,46776.29,53755.27,-308.29,87.73,0.857967,89.32,1
1974180,1,28569,1,46478,53843,46775.70,53755.45,-297.70,87.55,0.859398,89.30,1
1974220,1,28609,1,46476,53849,46775.10,53755.64,-299.10,93.36,0.860837,89.27,1
1974260,1,28649,1,46464,53792,46774.48,53755.71,-310.48,36.29,0.862285,89.25,1
1974300,1,28689,1,46448,53768,46773.83,53755.74,-325.83,12.26,0.863746,89.22,1
1974340,1,28729,1,46455,53752,46773.19,53755.73,-318.19,-3.73,0.865217,89.20,1
1974380,1,28769,1,46453,53757,46772.55,53755.73,-319.55,1.27,0.866699,89.17,1
1974420,1,28809,1,46476,53773,46771.96,53755.77,-295.96,17.23,0.868190,89.15,1
1974460,1,28849,1,46485,53765,46771.38,53755.79,-286.38,9.21,0.869689,89.12,1
1974500,1,28889,1,46497,53779,46770.84,53755.84,-273.84,23.16,0.871195,89.09,1
1974540,1,28929,1,46504,53768,46770.30,53755.86,-266.30,12.14,0.872707,89.07,1
1974580,1,28969,1,46508,53763,46769.78,53755.88,-261.78,7.12,0.874226,89.04,1
1974620,1,29009,1,46510,53766,46769.26,53755.90,-259.26,10.10,0.875751,89.01,1
1974660,1,29049,1,46525,53771,46768.77,53755.93,-243.77,15.07,0.877281,88.98,1
1974700,1,29089,1,46525,53780,46768.29,53755.98,-243.29,24.02,0.878816,88.95,1
1974740,1,29129,1,46541,53801,46767.83,53756.07,-226.83,44.93,0.880354,88.92,1
1974781,1,29170,1,46558,53824,46767.41,53756.21,-209.41,67.79,0.881893,88.89,1
1974821,1,29210,1,46570,53836,46767.02,53756.37,-197.02,79.63,0.883433,88.87,1
1974861,1,29250,1,46576,53857,46766.64,53756.57,-190.64,100.43,0.884971,88.84,1
1974901,1,29290,1,46593,53869,46766.29,53756.80,-173.29,112.20,0.886507,88.81,1
1974941,1,29330,1,46595,53871,46765.95,53757.03,-170.95,113.97,0.888040,88.78,1
1974981,1,29370,1,46610,53903,46765.64,53757.32,-155.64,145.68,0.889568,88.75,1
1975021,1,29410,1,46619,53894,46765.35,53757.60,-146.35,136.40,0.891090,88.71,1
1975061,1,29450,1,46624,53913,46765.07,53757.91,-141.07,155.09,0.892604,88.68,1
1975101,1,29490,1,46639,53901,46764.82,53758.20,-125.82,142.80,0.894112,88.65,1
1975141,1,29530,1,46627,53858,46764.54,53758.40,-137.54,99.60,0.895616,88.62,1
1975181,1,29570,1,46617,53812,46764.25,53758.51,-147.25,53.49,0.897118,88.59,1
1975221,1,29610,1,46614,53795,46763.95,53758.58,-149.95,36.42,0.898620,88.56,1
1975261,1,29650,1,46621,53785,46763.66,53758.64,-142.66,26.36,0.900121,88.53,1
1975301,1,29690,1,46624,53787,46763.39,53758.70,-139.39,28.30,0.901620,88.49,1
1975342,1,29731,1,46636,53788,46763.13,53758.75,-127.13,29.25,0.903118,88.46,1
1975382,1,29771,1,46642,53793,46762.89,53758.82,-120.89,34.18,0.904614,88.43,1
1975422,1,29811,1,46652,53798,46762.67,53758.90,-110.67,39.10,0.906107,88.40,1
1975462,1,29851,1,46661,53793,46762.47,53758.97,-101.47,34.03,0.907597,88.36,1
1975502,1,29891,1,46666,53791,46762.28,53759.04,-96.28,31.96,0.909084,88.33,1
1975542,1,29931,1,46678,53806,46762.11,53759.13,-84.11,46.87,0.910568,88.30,1
1975582,1,29971,1,46685,53806,46761.96,53759.23,-76.96,46.77,0.912047,88.27,1
1975622,1,30011,1,46698,53813,46761.83,53759.34,-63.83,53.66,0.913523,88.23,1
1975662,1,30051,1,46705,53812,46761.72,53759.44,-56.72,52.56,0.914993,88.20,1
1975702,1,30091,1,46712,53820,46761.62,53759.56,-49.62,60.44,0.916459,88.17,1
1975742,1,30131,1,46716,53821,46761.53,53759.69,-45.53,61.31,0.917919,88.13,1
1975782,1,30171,1,46725,53825,46761.46,53759.82,-36.46,65.18,0.919375,88.10,1
1975822,1,30211,1,46728,53833,46761.39,53759.97,-33.39,73.03,0.920824,88.07,1
1975862,1,30251,1,46730,53832,46761.33,53760.11,-31.33,71.89,0.922268,88.03,1
1975903,1,30292,1,46738,53837,46761.29,53760.27,-23.29,76.73,0.923705,88.00,1
1975943,1,30332,1,46738,53842,46761.24,53760.43,-23.24,81.57,0.925137,87.96,1
1975983,1,30372,1,46738,53855,46761.19,53760.62,-23.19,94.37,0.926561,87.93,1
1976023,1,30412,1,46740,53806,46761.15,53760.72,-21.15,45.28,0.927981,87.90,1
1976063,1,30452,1,46731,53756,46761.09,53760.71,-30.09,-4.71,0.929396,87.86,1
1976103,1,30492,1,46724,53732,46761.02,53760.66,-37.02,-28.66,0.930807,87.83,1
1976143,1,30532,1,46730,53732,46760.95,53760.60,-30.95,-28.60,0.932214,87.79,1
1976183,1,30572,1,46747,53722,46760.93,53760.53,-13.93,-38.53,0.933617,87.76,1
1976223,1,30612,1,46750,53705,46760.91,53760.42,-10.91,-55.42,0.935014,87.73,1
1976263,1,30652,1,46758,53712,46760.90,53760.32,-2.90,-48.32,0.936406,87.69,1
1976303,1,30692,1,46760,53690,46760.90,53760.18,-0.90,-70.18,0.937792,87.66,1
1976343,1,30732,1,46763,53688,46760.91,53760.04,2.09,-72.04,0.939172,87.62,1
1976383,1,30772,1,46768,53662,46760.92,53759.84,7.08,-97.84,0.940545,87.59,1
1976423,1,30812,1,46767,53674,46760.93,53759.67,6.07,-85.67,0.941911,87.56,1
1976464,1,30853,1,46777,53656,46760.97,53759.46,16.03,-103.46,0.943270,87.52,1
1976504,1,30893,1,46779,53680,46761.01,53759.31,17.99,-79.31,0.944622,87.49,1
1976544,1,30933,1,46785,53672,46761.06,53759.14,23.94,-87.14,0.945967,87.45,1
1976584,1,30973,1,46791,53686,46761.12,53758.99,29.88,-72.99,0.947307,87.42,1
1976624,1,31013,1,46808,53689,46761.21,53758.86,46.79,-69.86,0.948641,87.39,1
1976664,1,31053,1,46810,53710,46761.31,53758.76,48.69,-48.76,0.949971,87.35,1
1976704,1,31093,1,46822,53709,46761.43,53758.66,60.57,-49.66,0.951297,87.32,1
1976744,1,31133,1,46837,53725,46761.59,53758.59,75.41,-33.59,0.952620,87.28,1
1976784,1,31173,1,46846,53718,46761.76,53758.52,84.24,-40.52,0.953940,87.25,1
1976824,1,31213,1,46850,53731,46761.93,53758.46,88.07,-27.46,0.955258,87.22,1
1976864,1,31253,1,46856,53733,46762.12,53758.41,93.88,-25.41,0.956574,87.18,1
1976904,1,31293,1,46856,53681,46762.31,53758.26,93.69,-77.26,0.957887,87.15,1
1976944,1,31333,1,46835,53623,46762.46,53757.99,72.54,-134.99,0.959189,87.11,1
1976984,1,31373,1,46827,53579,46762.59,53757.63,64.41,-178.63,0.960476,87.08,1
1977024,1,31413,1,46821,53564,46762.70,53757.25,58.30,-193.25,0.961745,87.05,1
1977065,1,31454,1,46830,53548,46762.84,53756.83,67.16,-208.83,0.962995,87.01,1
1977105,1,31494,1,46824,53545,46762.96,53756.41,61.04,-211.41,0.964224,86.98,1
1977145,1,31534,1,46833,53537,46763.11,53755.97,69.89,-218.97,0.965431,86.95,1
1977185,1,31574,1,46847,53535,46763.27,53755.53,83.73,-220.53,0.966618,86.91,1
1977225,1,31614,1,46848,53526,46763.45,53755.07,84.55,-229.07,0.967783,86.88,1
1977265,1,31654,1,46854,53534,46763.63,53754.63,90.37,-220.63,0.968928,86.85,1
1977305,1,31694,1,46865,53525,46763.83,53754.17,101.17,-229.17,0.970052,86.81,1
1977345,1,31734,1,46875,53528,46764.05,53753.72,110.95,-225.72,0.971156,86.78,1
1977385,1,31774,1,46887,53532,46764.30,53753.28,122.70,-221.28,0.972242,86.75,1
1977425,1,31814,1,46891,53540,46764.55,53752.86,126.45,-212.86,0.973312,86.72,1
1977465,1,31854,1,46905,53545,46764.84,53752.44,140.16,-207.44,0.974369,86.68,1
1977505,1,31894,1,46913,53547,46765.13,53752.03,147.87,-205.03,0.975412,86.65,1
1977545,1,31934,1,46915,53553,46765.43,53751.63,149.57,-198.63,0.976443,86.62,1
1977585,1,31974,1,46923,53556,46765.75,53751.24,157.25,-195.24,0.977464,86.59,1
1977626,1,32015,1,46928,53562,46766.07,53750.86,161.93,-188.86,0.978475,86.56,1
1977666,1,32055,1,46932,53573,46766.41,53750.51,165.59,-177.51,0.979480,86.52,1
1977706,1,32095,1,46941,53581,46766.76,53750.17,174.24,-169.17,0.980479,86.49,1
1977746,1,32135,1,46949,53567,46767.12,53749.81,181.87,-182.81,0.981472,86.46,1
1977786,1,32175,1,46936,53505,46767.46,53749.32,168.54,-244.32,0.982448,86.43,1
1977826,1,32215,1,46923,53470,46767.78,53748.76,155.22,-278.76,0.983398,86.40,1
1977866,1,32255,1,46925,53452,46768.09,53748.17,156.91,-296.17,0.984319,86.37,1
1977906,1,32295,1,46943,53446,46768.45,53747.57,174.55,-301.57,0.985213,86.34,1
1977946,1,32335,1,46942,53437,46768.79,53746.95,173.21,-309.95,0.986077,86.31,1
1977986,1,32375,1,46954,53437,46769.16,53746.33,184.84,-309.33,0.986914,86.28,1
1978026,1,32415,1,46957,53428,46769.54,53745.69,187.46,-317.69,0.987723,86.25,1
1978066,1,32455,1,46963,53422,46769.93,53745.05,193.07,-323.05,0.988504,86.22,1
1978106,1,32495,1,46964,53412,46770.32,53744.38,193.68,-332.38,0.989256,86.20,1
1978146,1,32535,1,46966,53413,46770.71,53743.72,195.29,-330.72,0.989979,86.17,1
1978186,1,32575,1,46977,53410,46771.12,53743.05,205.87,-333.05,0.990675,86.14,1
1978227,1,32616,1,46978,53420,46771.54,53742.41,206.46,-322.41,0.991348,86.11,1
1978267,1,32656,1,46991,53431,46771.98,53741.79,219.02,-310.79,0.992001,86.08,1
1978307,1,32696,1,46994,53441,46772.43,53741.19,221.57,-300.19,0.992638,86.06,1
1978347,1,32736,1,47013,53449,46772.91,53740.61,240.09,-291.61,0.993262,86.03,1
1978387,1,32776,1,47019,53462,46773.40,53740.05,245.60,-278.05,0.993877,86.00,1
1978427,1,32816,1,47029,53477,46773.91,53739.53,255.09,-262.53,0.994488,85.98,1
1978467,1,32856,1,47043,53482,46774.45,53739.02,268.55,-257.02,0.995096,85.95,1
1978507,1,32896,1,47049,53488,46775.00,53738.52,274.00,-250.52,0.995705,85.93,1
1978547,1,32936,1,47061,53498,46775.57,53738.04,285.43,-240.04,0.996318,85.90,1
1978587,1,32976,1,47066,53500,46776.16,53737.56,289.84,-237.56,0.996934,85.88,1
1978627,1,33016,1,47066,53430,46776.74,53736.95,289.26,-306.95,0.997544,85.85,1
1978667,1,33056,1,47040,53377,46777.27,53736.23,262.73,-359.23,0.998131,85.83,1
1978707,1,33096,1,47030,53352,46777.77,53735.46,252.23,-383.46,0.998690,85.80,1
1978747,1,33136,1,47036,53343,46778.29,53734.68,257.71,-391.68,0.999220,85.78,1
1978788,1,33177,1,47040,53330,46778.82,53733.87,261.18,-403.87,0.999721,85.76,1
1978828,1,33217,1,47034,53325,46779.33,53733.05,254.67,-408.05,1.000190,85.73,1
1978868,1,33257,1,47039,53332,46779.85,53732.25,259.15,-400.25,1.000633,85.71,1
1978908,1,33297,1,47049,53335,46780.39,53731.46,268.61,-396.46,1.001051,85.69,1
1978948,1,33337,1,47066,53336,46780.96,53730.67,285.04,-394.67,1.001449,85.67,1
1978988,1,33377,1,47069,53353,46781.54,53729.91,287.46,-376.91,1.001831,85.65,1
1979028,1,33417,1,47092,53363,46782.16,53729.18,309.84,-366.18,1.002203,85.63,1
1979068,1,33457,1,47103,53369,46782.80,53728.46,320.20,-359.46,1.002568,85.61,1
1979108,1,33497,1,47117,53377,46783.47,53727.76,333.53,-350.76,1.002930,85.58,1
1979148,1,33537,1,47127,53391,46784.16,53727.09,342.84,-336.09,1.003293,85.56,1
1979188,1,33577,1,47130,53391,46784.85,53726.41,345.15,-335.41,1.003658,85.55,1
1979228,1,33617,1,47143,53403,46785.57,53725.77,357.43,-322.77,1.004029,85.53,1
1979268,1,33657,1,47143,53402,46786.29,53725.12,356.71,-323.12,1.004406,85.51,1
1979308,1,33697,1,47150,53417,46787.02,53724.51,362.98,-307.51,1.004791,85.49,1
1979348,1,33737,1,47154,53407,46787.75,53723.88,366.25,-316.88,1.005184,85.47,1
1979389,1,33778,1,47160,53427,46788.50,53723.29,371.50,-296.29,1.005589,85.45,1
1979429,1,33818,1,47167,53426,46789.25,53722.69,377.75,-296.69,1.006006,85.43,1
1979469,1,33858,1,47161,53388,46790.00,53722.02,371.00,-334.02,1.006428,85.42,1
1979509,1,33898,1,47145,53320,46790.71,53721.22,354.29,-401.22,1.006841,85.40,1
1979549,1,33938,1,47137,53305,46791.41,53720.39,345.59,-415.39,1.007239,85.38,1
1979589,1,33978,1,47147,53302,46792.12,53719.55,354.88,-417.55,1.007626,85.36,1
1979629,1,34018,1,47152,53296,46792.84,53718.71,359.16,-422.71,1.008001,85.35,1
1979669,1,34058,1,47163,53287,46793.58,53717.84,369.42,-430.84,1.008364,85.33,1
1979709,1,34098,1,47170,53285,46794.34,53716.98,375.66,-431.98,1.008717,85.31,1
1979749,1,34138,1,47179,53283,46795.11,53716.11,383.89,-433.11,1.009062,85.30,1
1979789,1,34178,1,47177,53269,46795.87,53715.22,381.13,-446.22,1.009395,85.28,1
1979829,1,34218,1,47189,53271,46796.66,53714.33,392.34,-443.33,1.009720,85.27,1
1979869,1,34258,1,47191,53271,46797.45,53713.45,393.55,-442.45,1.010037,85.25,1
1979909,1,34298,1,47200,53283,46798.25,53712.59,401.75,-429.59,1.010351,85.23,1
1979949,1,34338,1,47202,53284,46799.06,53711.73,402.94,-427.73,1.010661,85.22,1
1979990,1,34379,1,47223,53297,46799.91,53710.90,423.09,-413.90,1.010974,85.20,1
1980030,1,34419,1,47218,53303,46800.75,53710.09,417.25,-407.09,1.011289,85.19,1
1980070,1,34459,1,47232,53319,46801.61,53709.31,430.39,-390.31,1.011612,85.18,1
1980110,1,34499,1,47235,53321,46802.48,53708.54,432.52,-387.54,1.011943,85.16,1
1980150,1,34539,1,47253,53340,46803.38,53707.80,449.62,-367.80,1.012287,85.15,1
1980190,1,34579,1,47250,53358,46804.27,53707.10,445.73,-349.10,1.012647,85.13,1
1980230,1,34619,1,47274,53371,46805.21,53706.43,468.79,-335.43,1.013027,85.12,1
1980270,1,34659,1,47275,53373,46806.16,53705.77,468.84,-332.77,1.013427,85.11,1
1980310,1,34699,1,47294,53354,46807.13,53705.06,486.87,-351.06,1.013848,85.09,1
1980350,1,34739,1,47270,53281,46808.06,53704.21,461.94,-423.21,1.014274,85.08,1
1980390,1,34779,1,47261,53256,46808.96,53703.32,452.04,-447.32,1.014699,85.07,1
1980430,1,34819,1,47261,53234,46809.87,53702.38,451.13,-468.38,1.015119,85.05,1
1980470,1,34859,1,47261,53230,46810.77,53701.44,450.23,-471.44,1.015533,85.04,1
1980510,1,34899,1,47268,53223,46811.69,53700.48,456.31,-477.48,1.015942,85.03,1
1980551,1,34940,1,47271,53219,46812.61,53699.52,458.39,-480.52,1.016346,85.01,1
1980591,1,34980,1,47284,53217,46813.55,53698.55,470.45,-481.55,1.016746,85.00,1
1980631,1,35020,1,47287,53225,46814.50,53697.61,472.50,-472.61,1.017145,84.99,1
1980671,1,35060,1,47294,53225,46815.46,53696.66,478.54,-471.66,1.017543,84.97,1
1980711,1,35100,1,47301,53232,46816.43,53695.73,484.57,-463.73,1.017943,84.96,1
1980751,1,35140,1,47312,53247,46817.43,53694.84,494.57,-447.84,1.018349,84.95,1
1980791,1,35180,1,47324,53260,46818.44,53693.97,505.56,-433.97,1.018764,84.94,1
1980831,1,35220,1,47339,53275,46819.48,53693.14,519.52,-418.14,1.019193,84.92,1
1980871,1,35260,1,47353,53283,46820.55,53692.32,532.45,-409.32,1.019639,84.91,1
1980911,1,35300,1,47364,53294,46821.64,53691.52,542.36,-397.52,1.020105,84.90,1
1980951,1,35340,1,47367,53316,46822.73,53690.77,544.27,-374.77,1.020592,84.89,1
1980991,1,35380,1,47374,53312,46823.84,53690.01,550.16,-378.01,1.021102,84.87,1
1981031,1,35420,1,47383,53332,46824.96,53689.30,558.04,-357.30,1.021637,84.86,1
1981071,1,35460,1,47388,53339,46826.09,53688.60,561.91,-349.60,1.022199,84.85,1
1981111,1,35500,1,47393,53324,46827.23,53687.87,565.77,-363.87,1.022785,84.84,1
1981152,1,35541,1,47378,53260,46828.33,53687.02,549.67,-427.02,1.023384,84.82,1
1981192,1,35581,1,47365,53229,46829.40,53686.10,535.60,-457.10,1.023989,84.81,1
1981232,1,35621,1,47366,53224,46830.48,53685.18,535.52,-461.18,1.024598,84.80,1
1981272,1,35661,1,47364,53209,46831.54,53684.23,532.46,-475.23,1.025209,84.79,1
1981312,1,35701,1,47377,53211,46832.64,53683.29,544.36,-472.29,1.025823,84.77,1
1981352,1,35741,1,47378,53214,46833.73,53682.35,544.27,-468.35,1.026442,84.76,1
1981392,1,35781,1,47391,53229,46834.85,53681.44,556.15,-452.44,1.027069,84.75,1
1981432,1,35821,1,47401,53227,46835.98,53680.54,565.02,-453.54,1.027705,84.73,1
1981472,1,35861,1,47415,53227,46837.14,53679.63,577.86,-452.63,1.028353,84.72,1
1981512,1,35901,1,47419,53230,46838.30,53678.73,580.70,-448.73,1.029011,84.71,1
1981552,1,35941,1,47426,53243,46839.48,53677.86,586.52,-434.86,1.029684,84.69,1
1981592,1,35981,1,47438,53248,46840.68,53677.00,597.32,-429.00,1.030373,84.68,1
1981632,1,36021,1,47438,53263,46841.87,53676.17,596.12,-413.17,1.031080,84.67,1
1981672,1,36061,1,47444,53275,46843.08,53675.37,600.92,-400.37,1.031806,84.65,1
1981712,1,36101,1,47450,53283,46844.30,53674.59,605.70,-391.59,1.032553,84.64,1
1981753,1,36142,1,47458,53294,46845.53,53673.82,612.47,-379.82,1.033322,84.62,1
1981793,1,36182,1,47465,53304,46846.77,53673.09,618.23,-369.09,1.034116,84.61,1
1981833,1,36222,1,47476,53331,46848.02,53672.40,627.98,-341.40,1.034938,84.60,1
1981873,1,36262,1,47483,53319,46849.29,53671.70,633.71,-352.70,1.035788,84.58,1
1981913,1,36302,1,47472,53269,46850.54,53670.89,621.46,-401.89,1.036657,84.57,1
1981953,1,36342,1,47461,53241,46851.76,53670.03,609.24,-429.03,1.037538,84.55,1
1981993,1,36382,1,47469,53231,46853.00,53669.16,616.00,-438.16,1.038432,84.54,1
1982033,1,36422,1,47473,53225,46854.24,53668.27,618.76,-443.27,1.039336,84.52,1
1982073,1,36462,1,47479,53217,46855.49,53667.37,623.51,-450.37,1.040251,84.50,1
1982113,1,36502,1,47477,53218,46856.73,53666.47,620.27,-448.47,1.041176,84.49,1
1982153,1,36542,1,47489,53222,46858.00,53665.58,631.00,-443.58,1.042112,84.47,1
1982193,1,36582,1,47488,53219,46859.26,53664.69,628.74,-445.69,1.043059,84.46,1
1982233,1,36622,1,47499,53232,46860.54,53663.83,638.46,-431.83,1.044020,84.44,1
1982273,1,36662,1,47497,53221,46861.82,53662.95,635.18,-441.95,1.044993,84.42,1
1982314,1,36703,1,47509,53238,46863.11,53662.10,645.89,-424.10,1.045980,84.40,1
1982354,1,36743,1,47510,53246,46864.41,53661.27,645.59,-415.27,1.046984,84.39,1
1982394,1,36783,1,47520,53272,46865.72,53660.49,654.28,-388.49,1.048007,84.37,1
1982434,1,36823,1,47523,53277,46867.04,53659.72,655.96,-382.72,1.049052,84.35,1
1982474,1,36863,1,47540,53307,46868.39,53659.02,671.61,-352.02,1.050122,84.33,1
1982514,1,36903,1,47552,53317,46869.75,53658.34,682.25,-341.34,1.051220,84.32,1
1982554,1,36943,1,47563,53347,46871.14,53657.71,691.86,-310.71,1.052351,84.30,1
1982594,1,36983,1,47581,53341,46872.56,53657.08,708.44,-316.08,1.053516,84.28,1
1982634,1,37023,1,47588,53374,46874.00,53656.52,714.00,-282.52,1.054719,84.26,1
1982674,1,37063,1,47597,53355,46875.44,53655.91,721.56,-300.91,1.055958,84.24,1
1982714,1,37103,1,47579,53300,46876.85,53655.20,702.15,-355.20,1.057223,84.22,1
1982754,1,37143,1,47571,53262,46878.24,53654.42,692.76,-392.42,1.058508,84.20,1
1982794,1,37183,1,47563,53254,46879.61,53653.62,683.39,-399.62,1.059809,84.18,1
1982834,1,37223,1,47564,53245,46880.98,53652.80,683.02,-407.80,1.061125,84.16,1
1982874,1,37263,1,47566,53238,46882.36,53651.97,683.64,-413.97,1.062455,84.13,1
1982915,1,37304,1,47573,53239,46883.74,53651.15,689.26,-412.15,1.063799,84.11,1
1982955,1,37344,1,47569,53256,46885.11,53650.36,683.89,-394.36,1.065159,84.09,1
1982995,1,37384,1,47582,53255,46886.50,53649.57,695.50,-394.57,1.066536,84.07,1
1983035,1,37424,1,47588,53262,46887.91,53648.80,700.09,-386.80,1.067931,84.04,1
1983075,1,37464,1,47599,53278,46889.33,53648.06,709.67,-370.06,1.069347,84.02,1
1983115,1,37504,1,47606,53297,46890.76,53647.36,715.24,-350.36,1.070788,84.00,1
1983155,1,37544,1,47620,53305,46892.22,53646.68,727.78,-341.68,1.072255,83.97,1
1983195,1,37584,1,47630,53317,46893.70,53646.02,736.30,-329.02,1.073750,83.95,1
1983235,1,37624,1,47639,53335,46895.19,53645.40,743.81,-310.40,1.075277,83.92,1
1983275,1,37664,1,47649,53356,46896.70,53644.82,752.30,-288.82,1.076839,83.90,1
1983315,1,37704,1,47654,53353,46898.21,53644.24,755.79,-291.24,1.078435,83.87,1
1983355,1,37744,1,47661,53367,46899.74,53643.68,761.26,-276.68,1.080067,83.85,1
1983395,1,37784,1,47657,53377,46901.26,53643.15,755.74,-266.15,1.081735,83.82,1
1983435,1,37824,1,47668,53393,46902.79,53642.65,765.21,-249.65,1.083442,83.79,1
1983476,1,37865,1,47668,53397,46904.32,53642.16,763.68,-245.16,1.085186,83.77,1
1983516,1,37905,1,47672,53383,46905.86,53641.65,766.14,-258.65,1.086968,83.74,1
1983556,1,37945,1,47658,53334,46907.36,53641.04,750.64,-307.04,1.088777,83.71,1
1983596,1,37985,1,47649,53318,46908.85,53640.39,740.15,-322.39,1.090611,83.68,1
1983636,1,38025,1,47650,53313,46910.33,53639.74,739.67,-326.74,1.092468,83.65,1
1983676,1,38065,1,47653,53321,46911.82,53639.10,741.18,-318.10,1.094350,83.62,1
1983716,1,38105,1,47661,53322,46913.32,53638.47,747.68,-316.47,1.096256,83.59,1
1983756,1,38145,1,47667,53321,46914.83,53637.84,752.17,-316.84,1.098187,83.56,1
1983796,1,38185,1,47676,53322,46916.35,53637.21,759.65,-315.21,1.100144,83.53,1
1983836,1,38225,1,47675,53327,46917.87,53636.59,757.13,-309.59,1.102127,83.49,1
1983876,1,38265,1,47683,53333,46919.40,53635.98,763.60,-302.98,1.104137,83.46,1
1983916,1,38305,1,47683,53329,46920.93,53635.37,762.07,-306.37,1.106173,83.43,1
1983956,1,38345,1,47690,53350,46922.47,53634.80,767.53,-284.80,1.108238,83.39,1
1983996,1,38385,1,47690,53354,46924.00,53634.24,766.00,-280.24,1.110332,83.36,1
1984037,1,38426,1,47694,53369,46925.55,53633.71,768.45,-264.71,1.112456,83.32,1
1984077,1,38466,1,47699,53380,46927.09,53633.21,771.91,-253.21,1.114613,83.29,1
1984117,1,38506,1,47705,53394,46928.65,53632.73,776.35,-238.73,1.116804,83.25,1
1984157,1,38546,1,47704,53406,46930.20,53632.28,773.80,-226.28,1.119030,83.21,1
1984197,1,38586,1,47718,53425,46931.78,53631.86,786.22,-206.86,1.121294,83.18,1
1984237,1,38626,1,47717,53438,46933.35,53631.48,783.65,-193.48,1.123597,83.14,1
1984277,1,38666,1,47730,53466,46934.95,53631.15,795.05,-165.15,1.125942,83.10,1
1984317,1,38706,1,47742,53469,46936.56,53630.82,805.44,-161.82,1.128331,83.06,1
1984357,1,38746,1,47747,53465,46938.18,53630.49,808.82,-165.49,1.130764,83.02,1
1984397,1,38786,1,47732,53409,46939.77,53630.05,792.23,-221.05,1.133232,82.98,1
1984437,1,38826,1,47717,53394,46941.33,53629.58,775.67,-235.58,1.135732,82.94,1
1984477,1,38866,1,47719,53379,46942.88,53629.08,776.12,-250.08,1.138261,82.90,1
1984517,1,38906,1,47714,53386,46944.43,53628.59,769.57,-242.59,1.140818,82.85,1
1984557,1,38946,1,47717,53376,46945.97,53628.09,771.03,-252.09,1.143403,82.81,1
1984597,1,38986,1,47710,53377,46947.50,53627.59,762.50,-250.59,1.146014,82.77,1
1984638,1,39027,1,47720,53385,46949.05,53627.11,770.95,-242.11,1.148654,82.72,1
1984678,1,39067,1,47717,53385,46950.59,53626.62,766.41,-241.62,1.151320,82.68,1
1984718,1,39107,1,47720,53402,46952.12,53626.17,767.87,-224.17,1.154016,82.63,1
1984758,1,39147,1,47725,53403,46953.67,53625.73,771.33,-222.73,1.156741,82.59,1
1984798,1,39187,1,47732,53431,46955.23,53625.34,776.77,-194.34,1.159500,82.54,1
1984838,1,39227,1,47738,53436,46956.80,53624.96,781.20,-188.96,1.162294,82.49,1
1984878,1,39267,1,47747,53459,46958.38,53624.63,788.62,-165.63,1.165125,82.44,1
1984918,1,39307,1,47763,53469,46959.99,53624.32,803.01,-155.32,1.167997,82.39,1
1984958,1,39347,1,47757,53480,46961.58,53624.03,795.42,-144.03,1.170909,82.34,1
1984998,1,39387,1,47763,53492,46963.19,53623.77,799.81,-131.77,1.173863,82.29,1
1985038,1,39427,1,47771,53507,46964.80,53623.54,806.20,-116.54,1.176861,82.24,1
1985078,1,39467,1,47775,53516,46966.43,53623.32,808.57,-107.32,1.179903,82.19,1
1985118,1,39507,1,47779,53527,46968.05,53623.13,810.95,-96.13,1.182990,82.14,1
1985158,1,39547,1,47781,53537,46969.68,53622.96,811.32,-85.96,1.186123,82.08,1
1985198,1,39587,1,47783,53544,46971.31,53622.80,811.69,-78.80,1.189303,82.03,1
1985239,1,39628,1,47776,53501,46972.92,53622.56,803.08,-121.56,1.192524,81.97,1
1985279,1,39668,1,47754,53475,46974.48,53622.27,779.52,-147.27,1.195782,81.92,1
1985319,1,39708,1,47753,53458,46976.04,53621.94,776.96,-163.94,1.199073,81.86,1
1985359,1,39748,1,47750,53468,46977.59,53621.64,772.41,-153.64,1.202399,81.80,1
1985399,1,39788,1,47758,53477,46979.15,53621.35,778.85,-144.35,1.205760,81.74,1
1985439,1,39828,1,47758,53493,46980.71,53621.09,777.29,-128.09,1.209158,81.68,1
1985479,1,39868,1,47781,53506,46982.31,53620.86,798.69,-114.86,1.212598,81.62,1
1985519,1,39908,1,47782,53504,46983.91,53620.63,798.09,-116.63,1.216078,81.56,1
1985559,1,39948,1,47792,53526,46985.53,53620.45,806.47,-94.45,1.219602,81.50,1
1985599,1,39988,1,47789,53520,46987.14,53620.25,801.86,-100.25,1.223169,81.44,1
1985639,1,40028,1,47790,53519,46988.75,53620.05,801.25,-101.05,1.226777,81.38,1
1985679,1,40068,1,47796,53535,46990.36,53619.88,805.64,-84.88,1.230430,81.31,1
1985719,1,40108,1,47797,53545,46991.98,53619.73,805.02,-74.73,1.234127,81.25,1
1985759,1,40148,1,47796,53556,46993.59,53619.61,802.41,-63.61,1.237869,81.18,1
1985800,1,40189,1,47800,53565,46995.20,53619.50,804.80,-54.50,1.241656,81.11,1
1985840,1,40229,1,47805,53576,46996.82,53619.41,808.18,-43.41,1.245490,81.05,1
1985880,1,40269,1,47802,53586,46998.43,53619.34,803.57,-33.34,1.249370,80.98,1
1985920,1,40309,1,47812,53603,47000.06,53619.31,811.94,-16.31,1.253297,80.91,1
1985960,1,40349,1,47814,53617,47001.69,53619.31,812.31,-2.31,1.257272,80.84,1
1986000,1,40389,1,47821,53643,47003.33,53619.36,817.67,23.64,1.261295,80.77,1
1986040,1,40429,1,47833,53650,47004.99,53619.42,828.01,30.58,1.261295,80.77,0
1986080,1,40469,1,47836,53641,47006.66,53619.46,829.34,21.54,1.261295,80.77,0
1986120,1,40509,1,47831,53600,47008.30,53619.42,822.70,-19.42,1.261295,80.77,0
1986160,1,40549,1,47812,53570,47009.91,53619.32,802.09,-49.32,1.261295,80.77,0
1986200,1,40589,1,47808,53567,47011.51,53619.22,796.49,-52.22,1.261295,80.77,0
1986240,1,40629,1,47809,53555,47013.11,53619.09,795.89,-64.09,1.261295,80.77,0
1986280,1,40669,1,47802,53559,47014.69,53618.98,787.31,-59.98,1.261295,80.77,0
1986320,1,40709,1,47803,53561,47016.27,53618.86,786.73,-57.86,1.261295,80.77,0
1986361,1,40750,1,47805,53558,47017.84,53618.74,787.16,-60.74,1.261295,80.77,0
1986401,1,40790,1,47804,53565,47019.42,53618.64,784.58,-53.64,1.261295,80.77,0
1986441,1,40830,1,47801,53569,47020.98,53618.54,780.02,-49.54,1.261295,80.77,0
1986481,1,40870,1,47805,53572,47022.55,53618.45,782.45,-46.45,1.261295,80.77,0
1986521,1,40910,1,47812,53591,47024.13,53618.39,787.87,-27.39,1.261295,80.77,0
1986561,1,40950,1,47819,53606,47025.72,53618.37,793.28,-12.37,1.261295,80.77,0
1986601,1,40990,1,47825,53624,47027.32,53618.38,797.68,5.62,1.261295,80.77,0
1986641,1,41030,1,47841,53639,47028.95,53618.43,812.05,20.57,1.261295,80.77,0
1986681,1,41070,1,47846,53639,47030.59,53618.47,815.41,20.53,1.261295,80.77,0
1986721,1,41110,1,47848,53657,47032.23,53618.55,815.77,38.45,1.261295,80.77,0
1986761,1,41150,1,47852,53665,47033.87,53618.64,818.13,46.36,1.261295,80.77,0
1986801,1,41190,1,47853,53674,47035.51,53618.75,817.49,55.25,1.261295,80.77,0
1986841,1,41230,1,47855,53686,47037.15,53618.89,817.85,67.11,1.261295,80.77,0
1986881,1,41270,1,47858,53697,47038.79,53619.05,819.21,77.95,1.261295,80.77,0
1986921,1,41310,1,47859,53704,47040.43,53619.22,818.57,84.78,1.261295,80.77,0
1986962,1,41351,1,47859,53670,47042.07,53619.32,816.93,50.68,1.261295,80.77,0
1987002,1,41391,1,47836,53629,47043.66,53619.34,792.34,9.66,1.261295,80.77,0
1987042,1,41431,1,47826,53617,47045.23,53619.34,780.77,-2.34,1.261295,80.77,0
1987082,1,41471,1,47831,53609,47046.80,53619.32,784.20,-10.32,1.261295,80.77,0
1987122,1,41511,1,47830,53621,47048.37,53619.32,781.63,1.68,1.261295,80.77,0
1987162,1,41551,1,47834,53612,47049.94,53619.31,784.06,-7.31,1.261295,80.77,0
1987202,1,41591,1,47837,53623,47051.52,53619.32,785.48,3.68,1.261295,80.77,0
1987242,1,41631,1,47844,53625,47053.10,53619.33,790.90,5.67,1.261295,80.77,0
1987282,1,41671,1,47843,53623,47054.68,53619.34,788.32,3.66,1.261295,80.77,0
1987322,1,41711,1,47836,53622,47056.25,53619.34,779.75,2.66,1.261295,80.77,0
1987362,1,41751,1,47843,53618,47057.82,53619.34,785.18,-1.34,1.261295,80.77,0
1987402,1,41791,1,47844,53626,47059.39,53619.36,784.61,6.64,1.261295,80.77,0
1987442,1,41831,1,47841,53624,47060.96,53619.37,780.04,4.63,1.261295,80.77,0
1987482,1,41871,1,47846,53635,47062.53,53619.40,783.47,15.60,1.261295,80.77,0
1987523,1,41912,1,47840,53632,47064.08,53619.43,775.92,12.57,1.261295,80.77,0
1987563,1,41952,1,47850,53657,47065.66,53619.51,784.34,37.49,1.261295,80.77,0
1987603,1,41992,1,47844,53655,47067.21,53619.58,776.79,35.42,1.261295,80.77,0
1987643,1,42032,1,47853,53680,47068.79,53619.70,784.21,60.30,1.261295,80.77,0
1987683,1,42072,1,47861,53681,47070.37,53619.83,790.62,61.17,1.261295,80.77,0
1987723,1,42112,1,47864,53709,47071.96,53620.01,792.04,88.99,1.261295,80.77,0
1987763,1,42152,1,47870,53713,47073.56,53620.20,796.44,92.80,1.261295,80.77,0
1987803,1,42192,1,47877,53703,47075.17,53620.36,801.83,82.64,1.261295,80.77,0
1987843,1,42232,1,47861,53644,47076.75,53620.41,784.25,23.59,1.261295,80.77,0
1987883,1,42272,1,47846,53618,47078.29,53620.41,767.71,-2.41,1.261295,80.77,0
1987923,1,42312,1,47838,53598,47079.80,53620.36,758.20,-22.36,1.261295,80.77,0
1987963,1,42352,1,47838,53604,47081.32,53620.33,756.68,-16.33,1.261295,80.77,0
1988003,1,42392,1,47838,53594,47082.84,53620.28,755.16,-26.28,1.261295,80.77,0
1988043,1,42432,1,47831,53591,47084.34,53620.22,746.66,-29.22,1.261295,80.77,0
1988083,1,42472,1,47834,53585,47085.84,53620.15,748.16,-35.15,1.261295,80.77,0
1988124,1,42513,1,47830,53587,47087.32,53620.09,742.68,-33.09,1.261295,80.77,0
1988164,1,42553,1,47832,53584,47088.82,53620.02,743.18,-36.02,1.261295,80.77,0
1988204,1,42593,1,47834,53599,47090.31,53619.98,743.69,-20.98,1.261295,80.77,0
1988244,1,42633,1,47840,53603,47091.81,53619.95,748.19,-16.95,1.261295,80.77,0
1988284,1,42673,1,47845,53620,47093.32,53619.95,751.68,0.05,1.261295,80.77,0
1988324,1,42713,1,47853,53638,47094.84,53619.98,758.16,18.02,1.261295,80.77,0
1988364,1,42753,1,47859,53639,47096.37,53620.02,762.63,18.98,1.261295,80.77,0
1988404,1,42793,1,47871,53656,47097.92,53620.10,773.08,35.90,1.261295,80.77,0
1988444,1,42833,1,47877,53659,47099.48,53620.18,777.52,38.82,1.261295,80.77,0
1988484,1,42873,1,47875,53672,47101.03,53620.28,773.97,51.72,1.261295,80.77,0
1988524,1,42913,1,47881,53673,47102.59,53620.39,778.41,52.61,1.261295,80.77,0
1988564,1,42953,1,47884,53688,47104.15,53620.52,779.85,67.48,1.261295,80.77,0
1988604,1,42993,1,47881,53688,47105.71,53620.66,775.29,67.34,1.261295,80.77,0
1988644,1,43033,1,47877,53636,47107.25,53620.69,769.75,15.31,1.261295,80.77,0
1988685,1,43074,1,47852,53588,47108.74,53620.63,743.26,-32.63,1.261295,80.77,0
1988725,1,43114,1,47839,53563,47110.20,53620.52,728.80,-57.52,1.261295,80.77,0
1988765,1,43154,1,47833,53562,47111.65,53620.40,721.35,-58.40,1.261295,80.77,0
1988805,1,43194,1,47835,53556,47113.10,53620.27,721.90,-64.27,1.261295,80.77,0
1988845,1,43234,1,47836,53553,47114.54,53620.14,721.46,-67.14,1.261295,80.77,0
1988885,1,43274,1,47841,53569,47116.00,53620.04,725.00,-51.04,1.261295,80.77,0
1988925,1,43314,1,47846,53557,47117.46,53619.91,728.54,-62.91,1.261295,80.77,0
1988965,1,43354,1,47851,53554,47118.93,53619.78,732.07,-65.78,1.261295,80.77,0
1989005,1,43394,1,47846,53553,47120.38,53619.65,725.62,-66.65,1.261295,80.77,0
1989045,1,43434,1,47851,53561,47121.84,53619.53,729.16,-58.53,1.261295,80.77,0
1989085,1,43474,1,47857,53568,47123.32,53619.43,733.68,-51.43,1.261295,80.77,0
1989125,1,43514,1,47859,53573,47124.79,53619.34,734.21,-46.34,1.261295,80.77,0
1989165,1,43554,1,47860,53584,47126.26,53619.27,733.74,-35.27,1.261295,80.77,0
1989205,1,43594,1,47865,53589,47127.74,53619.21,737.26,-30.21,1.261295,80.77,0
1989246,1,43635,1,47869,53602,47129.23,53619.18,739.77,-17.18,1.261295,80.77,0
1989286,1,43675,1,47873,53609,47130.71,53619.16,742.29,-10.16,1.261295,80.77,0
1989326,1,43715,1,47878,53619,47132.21,53619.16,745.79,-0.16,1.261295,80.77,0
1989366,1,43755,1,47878,53624,47133.70,53619.17,744.30,4.83,1.261295,80.77,0
1989406,1,43795,1,47881,53637,47135.20,53619.21,745.80,17.79,1.261295,80.77,0
1989446,1,43835,1,47883,53615,47136.70,53619.20,746.30,-4.20,1.261295,80.77,0
1989486,1,43875,1,47869,53548,47138.16,53619.06,730.84,-71.06,1.261295,80.77,0
1989526,1,43915,1,47855,53511,47139.59,53618.84,715.41,-107.84,1.261295,80.77,0
1989566,1,43955,1,47849,53500,47141.02,53618.61,707.98,-118.61,1.261295,80.77,0
1989606,1,43995,1,47846,53493,47142.43,53618.36,703.57,-125.36,1.261295,80.77,0
1989646,1,44035,1,47848,53486,47143.84,53618.10,704.16,-132.10,1.261295,80.77,0
1989686,1,44075,1,47851,53490,47145.25,53617.84,705.75,-127.84,1.261295,80.77,0
1989726,1,44115,1,47851,53482,47146.67,53617.57,704.33,-135.57,1.261295,80.77,0
1989766,1,44155,1,47846,53479,47148.07,53617.30,697.93,-138.30,1.261295,80.77,0
1989807,1,44196,1,47849,53481,47149.47,53617.03,699.53,-136.03,1.261295,80.77,0
1989847,1,44236,1,47852,53481,47150.87,53616.76,701.12,-135.76,1.261295,80.77,0
1989887,1,44276,1,47857,53504,47152.29,53616.54,704.71,-112.54,1.261295,80.77,0
1989927,1,44316,1,47857,53509,47153.70,53616.32,703.30,-107.32,1.261295,80.77,0
1989967,1,44356,1,47869,53522,47155.13,53616.13,713.87,-94.13,1.261295,80.77,0
1990007,1,44396,1,47873,53544,47156.57,53615.99,716.43,-71.99,1.261295,80.77,0
1990047,1,44436,1,47887,53560,47158.03,53615.88,728.97,-55.88,1.261295,80.77,0
1990087,1,44476,1,47895,53570,47159.51,53615.79,735.49,-45.79,1.261295,80.77,0
1990127,1,44516,1,47904,53584,47161.00,53615.73,743.00,-31.73,1.261295,80.77,0
1990167,1,44556,1,47910,53603,47162.50,53615.70,747.50,-12.70,1.261295,80.77,0
1990207,1,44596,1,47917,53609,47164.01,53615.69,752.99,-6.69,1.261295,80.77,0
1990247,1,44636,1,47918,53579,47165.52,53615.62,752.48,-36.62,1.261295,80.77,0
1990287,1,44676,1,47895,53514,47166.98,53615.42,728.02,-101.42,1.261295,80.77,0
1990327,1,44716,1,47871,53482,47168.39,53615.15,702.61,-133.15,1.261295,80.77,0
1990367,1,44756,1,47860,53466,47169.77,53614.86,690.23,-148.86,1.261295,80.77,0
1990408,1,44797,1,47860,53462,47171.15,53614.55,688.85,-152.55,1.261295,80.77,0
1990448,1,44837,1,47853,53459,47172.52,53614.24,680.48,-155.24,1.261295,80.77,0
1990488,1,44877,1,47860,53469,47173.89,53613.95,686.11,-144.95,1.261295,80.77,0
1990528,1,44917,1,47865,53466,47175.27,53613.66,689.73,-147.66,1.261295,80.77,0
1990568,1,44957,1,47862,53485,47176.65,53613.40,685.35,-128.40,1.261295,80.77,0
1990608,1,44997,1,47869,53489,47178.04,53613.16,690.96,-124.16,1.261295,80.77,0
1990648,1,45037,1,47877,53508,47179.43,53612.95,697.57,-104.95,1.261295,80.77,0
1990688,1,45077,1,47888,53509,47180.85,53612.74,707.15,-103.74,1.261295,80.77,0
1990728,1,45117,1,47891,53526,47182.27,53612.57,708.73,-86.57,1.261295,80.77,0
1990768,1,45157,1,47894,53543,47183.70,53612.43,710.30,-69.43,1.261295,80.77,0
1990808,1,45197,1,47898,53559,47185.13,53612.33,712.87,-53.33,1.261295,80.77,0
1990848,1,45237,1,47911,53563,47186.58,53612.23,724.42,-49.23,1.261295,80.77,0
1990888,1,45277,1,47910,53578,47188.03,53612.16,721.97,-34.16,1.261295,80.77,0
1990928,1,45317,1,47913,53600,47189.48,53612.14,723.52,-12.14,1.261295,80.77,0
1990968,1,45357,1,47915,53609,47190.93,53612.14,724.07,-3.14,1.261295,80.77,0
1991009,1,45398,1,47918,53612,47192.39,53612.14,725.61,-0.14,1.261295,80.77,0
1991049,1,45438,1,47905,53566,47193.82,53612.05,711.18,-46.05,1.261295,80.77,0
1991089,1,45478,1,47890,53550,47195.21,53611.93,694.79,-61.93,1.261295,80.77,0
1991129,1,45518,1,47886,53541,47196.59,53611.79,689.41,-70.79,1.261295,80.77,0
1991169,1,45558,1,47886,53547,47197.97,53611.66,688.03,-64.66,1.261295,80.77,0
1991209,1,45598,1,47883,53553,47199.34,53611.54,683.66,-58.54,1.261295,80.77,0
1991249,1,45638,1,47886,53554,47200.72,53611.43,685.28,-57.43,1.261295,80.77,0
1991289,1,45678,1,47895,53560,47202.11,53611.32,692.89,-51.32,1.261295,80.77,0
1991329,1,45718,1,47901,53566,47203.51,53611.23,697.49,-45.23,1.261295,80.77,0
1991369,1,45758,1,47897,53580,47204.89,53611.17,692.11,-31.17,1.261295,80.77,0
1991409,1,45798,1,47899,53577,47206.29,53611.11,692.71,-34.11,1.261295,80.77,0
1991449,1,45838,1,47903,53592,47207.68,53611.07,695.32,-19.07,1.261295,80.77,0
1991489,1,45878,1,47904,53607,47209.07,53611.06,694.93,-4.06,1.261295,80.77,0
1991529,1,45918,1,47903,53619,47210.46,53611.08,692.54,7.92,1.261295,80.77,0
1991569,1,45958,1,47911,53631,47211.87,53611.12,699.13,19.88,1.261295,80.77,0
1991610,1,45999,1,47905,53642,47213.25,53611.18,691.75,30.82,1.261295,80.77,0
1991650,1,46039,1,47912,53658,47214.65,53611.28,697.35,46.72,1.261295,80.77,0
1991690,1,46079,1,47912,53671,47216.05,53611.40,695.95,59.60,1.261295,80.77,0
1991730,1,46119,1,47919,53688,47217.45,53611.55,701.55,76.45,1.261295,80.77,0
1991770,1,46159,1,47919,53690,47218.86,53611.71,700.14,78.29,1.261295,80.77,0
1991810,1,46199,1,47911,53658,47220.25,53611.81,690.75,46.19,1.261295,80.77,0
1991850,1,46239,1,47906,53646,47221.62,53611.88,684.38,34.12,1.261295,80.77,0
1991890,1,46279,1,47903,53635,47222.98,53611.93,680.02,23.07,1.261295,80.77,0
1991930,1,46319,1,47901,53638,47224.34,53611.98,676.66,26.02,1.261295,80.77,0
1991970,1,46359,1,47891,53632,47225.67,53612.02,665.33,19.98,1.261295,80.77,0
1992010,1,46399,1,47895,53643,47227.01,53612.09,667.99,30.91,1.261295,80.77,0
1992050,1,46439,1,47893,53635,47228.34,53612.13,664.66,22.87,1.261295,80.77,0
1992090,1,46479,1,47885,53644,47229.66,53612.20,655.34,31.80,1.261295,80.77,0
1992130,1,46519,1,47891,53646,47230.98,53612.27,660.02,33.73,1.261295,80.77,0
1992171,1,46560,1,47887,53656,47232.30,53612.36,654.70,43.64,1.261295,80.77,0
1992211,1,46600,1,47893,53675,47233.62,53612.48,659.38,62.52,1.261295,80.77,0
1992251,1,46640,1,47893,53694,47234.94,53612.65,658.06,81.35,1.261295,80.77,0
1992291,1,46680,1,47898,53716,47236.27,53612.86,661.73,103.14,1.261295,80.77,0
1992331,1,46720,1,47909,53728,47237.62,53613.09,671.38,114.91,1.261295,80.77,0
1992371,1,46760,1,47913,53765,47238.97,53613.39,674.03,151.61,1.261295,80.77,0
1992411,1,46800,1,47917,53771,47240.32,53613.71,676.68,157.29,1.261295,80.77,0
1992451,1,46840,1,47924,53794,47241.69,53614.07,682.31,179.93,1.261295,80.77,0
1992491,1,46880,1,47936,53807,47243.08,53614.46,692.92,192.54,1.261295,80.77,0
1992531,1,46920,1,47934,53811,47244.46,53614.85,689.54,196.15,1.261295,80.77,0
1992571,1,46960,1,47931,53792,47245.84,53615.21,685.16,176.79,1.261295,80.77,0
1992611,1,47000,1,47922,53760,47247.20,53615.50,674.80,144.50,1.261295,80.77,0
1992651,1,47040,1,47913,53757,47248.53,53615.78,664.47,141.22,1.261295,80.77,0
1992691,1,47080,1,47906,53761,47249.84,53616.07,656.16,144.93,1.261295,80.77,0
1992731,1,47120,1,47905,53756,47251.16,53616.36,653.84,139.64,1.261295,80.77,0
1992772,1,47161,1,47899,53757,47252.45,53616.64,646.55,140.36,1.261295,80.77,0
1992812,1,47201,1,47896,53763,47253.74,53616.93,642.26,146.07,1.261295,80.77,0
1992852,1,47241,1,47896,53767,47255.03,53617.23,640.97,149.77,1.261295,80.77,0
1992892,1,47281,1,47885,53768,47256.29,53617.54,628.71,150.46,1.261295,80.77,0
1992932,1,47321,1,47893,53779,47257.56,53617.86,635.44,161.14,1.261295,80.77,0
1992972,1,47361,1,47896,53787,47258.84,53618.20,637.16,168.80,1.261295,80.77,0
1993012,1,47401,1,47897,53815,47260.12,53618.59,636.88,196.41,1.261295,80.77,0
1993052,1,47441,1,47911,53832,47261.42,53619.02,649.58,212.98,1.261295,80.77,0
1993092,1,47481,1,47920,53844,47262.74,53619.48,657.26,224.52,1.261295,80.77,0
1993132,1,47521,1,47927,53852,47264.07,53619.94,662.93,232.06,1.261295,80.77,0
1993172,1,47561,1,47925,53884,47265.39,53620.47,659.61,263.53,1.261295,80.77,0
1993212,1,47601,1,47933,53882,47266.73,53621.00,666.27,261.00,1.261295,80.77,0
1993252,1,47641,1,47927,53897,47268.05,53621.55,658.95,275.45,1.261295,80.77,0
1993292,1,47681,1,47935,53909,47269.39,53622.13,665.61,286.87,1.261295,80.77,0
1993332,1,47721,1,47929,53894,47270.71,53622.68,658.29,271.32,1.261295,80.77,0
1993373,1,47762,1,47914,53858,47272.00,53623.15,642.00,234.85,1.261295,80.77,0
1993413,1,47802,1,47901,53837,47273.25,53623.58,627.75,213.42,1.261295,80.77,0
1993453,1,47842,1,47894,53843,47274.50,53624.02,619.50,218.98,1.261295,80.77,0
1993493,1,47882,1,47890,53837,47275.73,53624.45,614.27,212.55,1.261295,80.77,0
1993533,1,47922,1,47890,53842,47276.96,53624.88,613.04,217.12,1.261295,80.77,0
1993573,1,47962,1,47890,53845,47278.18,53625.32,611.82,219.68,1.261295,80.77,0
1993613,1,48002,1,47891,53867,47279.41,53625.81,611.59,241.19,1.261295,80.77,0
1993653,1,48042,1,47897,53862,47280.65,53626.28,616.35,235.72,1.261295,80.77,0
1993693,1,48082,1,47903,53875,47281.89,53626.78,621.11,248.22,1.261295,80.77,0
1993733,1,48122,1,47901,53871,47283.13,53627.27,617.87,243.73,1.261295,80.77,0
1993773,1,48162,1,47896,53887,47284.36,53627.79,611.64,259.21,1.261295,80.77,0
1993813,1,48202,1,47905,53888,47285.60,53628.31,619.40,259.69,1.261295,80.77,0
1993853,1,48242,1,47909,53898,47286.85,53628.85,622.15,269.15,1.261295,80.77,0
1993893,1,48282,1,47905,53904,47288.09,53629.40,616.91,274.60,1.261295,80.77,0
1993933,1,48322,1,47899,53921,47289.31,53629.99,609.69,291.01,1.261295,80.77,0
1993974,1,48363,1,47907,53924,47290.55,53630.58,616.45,293.42,1.261295,80.77,0
1994014,1,48403,1,47904,53933,47291.77,53631.18,612.23,301.82,1.261295,80.77,0
1994054,1,48443,1,47910,53954,47293.01,53631.83,616.99,322.17,1.261295,80.77,0
1994094,1,48483,1,47909,53965,47294.25,53632.50,614.75,332.50,1.261295,80.77,0
1994134,1,48523,1,47914,53942,47295.49,53633.12,618.51,308.88,1.261295,80.77,0
1994174,1,48563,1,47898,53912,47296.70,53633.68,601.30,278.32,1.261295,80.77,0
1994214,1,48603,1,47887,53915,47297.88,53634.24,589.12,280.76,1.261295,80.77,0
1994254,1,48643,1,47890,53907,47299.06,53634.79,590.94,272.21,1.261295,80.77,0
1994294,1,48683,1,47892,53915,47300.25,53635.35,591.75,279.65,1.261295,80.77,0
1994334,1,48723,1,47890,53897,47301.43,53635.87,588.57,261.12,1.261295,80.77,0
1994374,1,48763,1,47886,53922,47302.60,53636.45,583.40,285.55,1.261295,80.77,0
1994414,1,48803,1,47896,53919,47303.79,53637.02,592.21,281.98,1.261295,80.77,0
1994454,1,48843,1,47891,53927,47304.96,53637.60,586.04,289.40,1.261295,80.77,0
1994494,1,48883,1,47890,53939,47306.14,53638.20,583.86,300.80,1.261295,80.77,0
1994534,1,48923,1,47896,53951,47307.32,53638.83,588.68,312.17,1.261295,80.77,0
1994575,1,48964,1,47902,53964,47308.51,53639.48,593.49,324.52,1.261295,80.77,0
1994615,1,49004,1,47903,53981,47309.70,53640.17,593.30,340.83,1.261295,80.77,0
1994655,1,49044,1,47907,53994,47310.89,53640.88,596.11,353.12,1.261295,80.77,0
1994695,1,49084,1,47912,54013,47312.10,53641.62,599.90,371.37,1.261295,80.77,0
1994735,1,49124,1,47920,54018,47313.32,53642.38,606.68,375.62,1.261295,80.77,0
1994775,1,49164,1,47917,54041,47314.52,53643.18,602.48,397.82,1.261295,80.77,0
1994815,1,49204,1,47929,54044,47315.75,53643.98,613.25,400.02,1.261295,80.77,0
1994855,1,49244,1,47926,54061,47316.98,53644.82,609.02,416.18,1.261295,80.77,0
1994895,1,49284,1,47944,54061,47318.23,53645.65,625.77,415.35,1.261295,80.77,0
1994935,1,49324,1,47933,54029,47319.46,53646.42,613.54,382.58,1.261295,80.77,0
1994975,1,49364,1,47918,54012,47320.66,53647.15,597.34,364.85,1.261295,80.77,0
1995015,1,49404,1,47916,54003,47321.85,53647.87,594.15,355.13,1.261295,80.77,0
1995055,1,49444,1,47910,54004,47323.03,53648.58,586.97,355.42,1.261295,80.77,0
1995095,1,49484,1,47906,53994,47324.20,53649.27,581.80,344.73,1.261295,80.77,0
1995135,1,49524,1,47900,54001,47325.35,53649.98,574.65,351.02,1.261295,80.77,0
1995176,1,49565,1,47912,54014,47326.52,53650.71,585.48,363.29,1.261295,80.77,0
1995216,1,49605,1,47907,54011,47327.69,53651.43,579.31,359.57,1.261295,80.77,0
1995256,1,49645,1,47908,54030,47328.85,53652.19,579.15,377.81,1.261295,80.77,0
1995296,1,49685,1,47912,54030,47330.02,53652.95,581.98,377.05,1.261295,80.77,0
1995336,1,49725,1,47904,54043,47331.16,53653.73,572.84,389.27,1.261295,80.77,0
1995376,1,49765,1,47912,54043,47332.33,53654.51,579.67,388.49,1.261295,80.77,0
1995416,1,49805,1,47913,54063,47333.49,53655.33,579.51,407.67,1.261295,80.77,0
1995456,1,49845,1,47925,54063,47334.68,53656.14,590.32,406.86,1.261295,80.77,0
1995496,1,49885,1,47924,54085,47335.86,53657.00,588.14,428.00,1.261295,80.77,0
1995536,1,49925,1,47924,54084,47337.03,53657.86,586.97,426.14,1.261295,80.77,0
1995576,1,49965,1,47925,54088,47338.21,53658.72,586.79,429.28,1.261295,80.77,0
1995616,1,50005,1,47918,54083,47339.37,53659.57,578.63,423.43,1.261295,80.77,0
1995656,1,50045,1,47913,54048,47340.52,53660.35,572.48,387.65,1.261295,80.77,0
1995696,1,50085,1,47876,53984,47341.59,53661.00,534.41,323.00,1.261295,80.77,0
1995737,1,50126,1,47865,53969,47342.63,53661.62,522.37,307.38,1.261295,80.77,0
1995777,1,50166,1,47855,53954,47343.66,53662.20,511.34,291.80,1.261295,80.77,0
1995817,1,50206,1,47845,53945,47344.66,53662.77,500.34,282.23,1.261295,80.77,0
1995857,1,50246,1,47839,53932,47345.65,53663.31,493.35,268.69,1.261295,80.77,0
1995897,1,50286,1,47830,53927,47346.62,53663.84,483.38,263.16,1.261295,80.77,0
1995937,1,50326,1,47825,53934,47347.58,53664.38,477.42,269.62,1.261295,80.77,0
1995977,1,50366,1,47828,53938,47348.54,53664.93,479.46,273.07,1.261295,80.77,0
1996017,1,50406,1,47842,53955,47349.53,53665.51,492.47,289.49,1.261295,80.77,0
1996057,1,50446,1,47835,53944,47350.50,53666.07,484.50,277.93,1.261295,80.77,0
1996097,1,50486,1,47841,53947,47351.48,53666.63,489.52,280.37,1.261295,80.77,0
1996137,1,50526,1,47832,53959,47352.44,53667.21,479.56,291.79,1.261295,80.77,0
1996177,1,50566,1,47842,53976,47353.42,53667.83,488.58,308.17,1.261295,80.77,0
1996217,1,50606,1,47850,53981,47354.42,53668.46,495.58,312.54,1.261295,80.77,0
1996257,1,50646,1,47842,53996,47355.39,53669.12,486.61,326.88,1.261295,80.77,0
1996297,1,50686,1,47850,54005,47356.39,53669.79,493.61,335.21,1.261295,80.77,0
1996338,1,50727,1,47847,54010,47357.37,53670.47,489.63,339.53,1.261295,80.77,0
1996378,1,50767,1,47845,53990,47358.35,53671.11,486.65,318.89,1.261295,80.77,0
1996418,1,50807,1,47827,53971,47359.29,53671.71,467.71,299.29,1.261295,80.77,0
1996458,1,50847,1,47830,53958,47360.23,53672.29,469.77,285.71,1.261295,80.77,0
1996498,1,50887,1,47829,53976,47361.16,53672.90,467.84,303.10,1.261295,80.77,0
1996538,1,50927,1,47828,53965,47362.10,53673.48,465.90,291.52,1.261295,80.77,0
1996578,1,50967,1,47828,53968,47363.03,53674.07,464.97,293.93,1.261295,80.77,0
1996618,1,51007,1,47828,53964,47363.96,53674.66,464.04,289.34,1.261295,80.77,0
1996658,1,51047,1,47826,53971,47364.89,53675.25,461.11,295.75,1.261295,80.77,0
1996698,1,51087,1,47828,53976,47365.81,53675.85,462.19,300.15,1.261295,80.77,0
1996738,1,51127,1,47828,53988,47366.74,53676.48,461.26,311.52,1.261295,80.77,0
1996778,1,51167,1,47834,53990,47367.68,53677.11,466.32,312.89,1.261295,80.77,0
1996818,1,51207,1,47827,53998,47368.59,53677.75,458.41,320.25,1.261295,80.77,0
1996858,1,51247,1,47829,53999,47369.52,53678.39,459.48,320.61,1.261295,80.77,0
1996899,1,51288,1,47826,54013,47370.43,53679.07,455.57,333.93,1.265293,80.70,1
1996939,1,51328,1,47833,54026,47371.36,53679.76,461.64,346.24,1.269236,80.62,1
1996979,1,51368,1,47826,54042,47372.27,53680.49,453.73,361.51,1.273119,80.55,1
1997019,1,51408,1,47836,54046,47373.20,53681.22,462.80,364.78,1.276942,80.48,1
1997059,1,51448,1,47834,54038,47374.12,53681.93,459.88,356.07,1.280710,80.40,1
1997099,1,51488,1,47819,54001,47375.01,53682.57,443.99,318.43,1.284435,80.33,1
1997139,1,51528,1,47807,53984,47375.87,53683.18,431.13,300.82,1.288121,80.25,1
1997179,1,51568,1,47811,53984,47376.74,53683.78,434.26,300.22,1.291771,80.17,1
1997219,1,51608,1,47810,53980,47377.61,53684.37,432.39,295.62,1.295384,80.10,1
1997259,1,51648,1,47810,53981,47378.48,53684.97,431.52,296.03,1.298962,80.02,1
1997299,1,51688,1,47807,53983,47379.34,53685.57,427.66,297.43,1.302505,79.94,1
1997339,1,51728,1,47809,53983,47380.20,53686.16,428.80,296.84,1.306011,79.86,1
1997379,1,51768,1,47804,53980,47381.04,53686.75,422.96,293.25,1.309484,79.79,1
1997419,1,51808,1,47804,53988,47381.89,53687.36,422.11,300.64,1.312920,79.71,1
1997459,1,51848,1,47796,53986,47382.72,53687.96,413.28,298.04,1.316320,79.63,1
1997500,1,51889,1,47800,54001,47383.55,53688.59,416.45,312.41,1.319681,79.55,1
1997540,1,51929,1,47804,54013,47384.40,53689.23,419.60,323.77,1.322999,79.47,1
1997580,1,51969,1,47803,54028,47385.24,53689.91,417.76,338.09,1.326271,79.39,1
1997620,1,52009,1,47813,54044,47386.09,53690.62,426.91,353.37,1.329493,79.31,1
1997660,1,52049,1,47813,54059,47386.95,53691.36,426.05,367.64,1.332662,79.24,1
1997700,1,52089,1,47818,54078,47387.81,53692.14,430.19,385.86,1.335771,79.16,1
1997740,1,52129,1,47827,54088,47388.69,53692.93,438.31,395.07,1.338821,79.08,1
1997780,1,52169,1,47822,54048,47389.56,53693.64,432.44,354.36,1.341825,79.00,1
1997820,1,52209,1,47809,54021,47390.40,53694.30,418.60,326.70,1.344791,78.92,1
1997860,1,52249,1,47797,54014,47391.21,53694.94,405.79,319.06,1.347721,78.84,1
1997900,1,52289,1,47791,54005,47392.01,53695.56,398.99,309.44,1.350617,78.76,1
1997940,1,52329,1,47791,53997,47392.81,53696.16,398.19,300.84,1.353481,78.69,1
1997980,1,52369,1,47779,53998,47393.59,53696.77,385.41,301.23,1.356313,78.61,1
1998020,1,52409,1,47781,54006,47394.36,53697.39,386.64,308.61,1.359111,78.53,1
1998060,1,52449,1,47777,53998,47395.13,53697.99,381.87,300.01,1.361877,78.45,1
1998101,1,52490,1,47778,54006,47395.89,53698.61,382.11,307.39,1.364611,78.38,1
1998141,1,52530,1,47773,54015,47396.65,53699.24,376.35,315.76,1.367308,78.30,1
1998181,1,52570,1,47777,54030,47397.41,53699.91,379.59,330.09,1.369968,78.22,1
1998221,1,52610,1,47778,54044,47398.17,53700.60,379.83,343.40,1.372585,78.15,1
1998261,1,52650,1,47789,54058,47398.95,53701.31,390.05,356.69,1.375159,78.07,1
1998301,1,52690,1,47792,54076,47399.74,53702.06,392.26,373.94,1.377683,78.00,1
1998341,1,52730,1,47799,54089,47400.54,53702.84,398.46,386.16,1.380157,77.92,1
1998381,1,52770,1,47804,54097,47401.35,53703.62,402.65,393.37,1.382580,77.85,1
1998421,1,52810,1,47811,54119,47402.17,53704.46,408.83,414.54,1.384946,77.77,1
1998461,1,52850,1,47809,54114,47402.99,53705.28,406.01,408.72,1.387258,77.70,1
1998501,1,52890,1,47808,54113,47403.80,53706.09,404.20,406.91,1.389518,77.63,1
1998541,1,52930,1,47794,54068,47404.58,53706.82,389.42,361.18,1.391739,77.55,1
1998581,1,52970,1,47782,54058,47405.34,53707.52,376.66,350.48,1.393923,77.48,1
1998621,1,53010,1,47776,54054,47406.08,53708.22,369.92,345.78,1.396071,77.41,1
1998661,1,53050,1,47772,54054,47406.82,53708.91,365.18,345.09,1.398183,77.34,1
1998702,1,53091,1,47769,54050,47407.54,53709.59,361.46,340.41,1.400262,77.27,1
1998742,1,53131,1,47771,54065,47408.27,53710.30,362.73,354.70,1.402303,77.20,1
1998782,1,53171,1,47766,54064,47408.98,53711.01,357.02,352.99,1.404307,77.13,1
1998822,1,53211,1,47768,54075,47409.70,53711.74,358.30,363.26,1.406273,77.06,1
1998862,1,53251,1,47774,54078,47410.43,53712.48,363.57,365.52,1.408200,76.99,1
1998902,1,53291,1,47767,54095,47411.15,53713.24,355.85,381.76,1.410085,76.93,1
1998942,1,53331,1,47786,54112,47411.90,53714.04,374.10,397.96,1.411926,76.86,1
1998982,1,53371,1,47783,54121,47412.64,53714.86,370.36,406.14,1.413721,76.79,1
1999022,1,53411,1,47794,54130,47413.41,53715.69,380.59,414.31,1.415470,76.73,1
1999062,1,53451,1,47786,54140,47414.15,53716.54,371.85,423.46,1.417170,76.66,1
1999102,1,53491,1,47794,54147,47414.91,53717.41,379.09,429.59,1.418821,76.60,1
1999142,1,53531,1,47789,54148,47415.66,53718.27,373.34,429.73,1.420424,76.54,1
1999182,1,53571,1,47791,54163,47416.41,53719.16,374.59,443.84,1.421977,76.47,1
1999222,1,53611,1,47791,54157,47417.16,53720.04,373.84,436.96,1.423482,76.41,1
1999263,1,53652,1,47780,54127,47417.89,53720.86,362.11,406.14,1.424947,76.35,1
1999303,1,53692,1,47766,54109,47418.59,53721.63,347.41,387.37,1.426377,76.29,1
1999343,1,53732,1,47755,54108,47419.27,53722.41,335.73,385.59,1.427770,76.23,1
1999383,1,53772,1,47756,54115,47419.94,53723.19,336.06,391.81,1.429128,76.17,1
1999423,1,53812,1,47756,54111,47420.61,53723.97,335.39,387.03,1.430450,76.11,1
1999463,1,53852,1,47753,54123,47421.28,53724.77,331.72,398.23,1.431735,76.06,1
1999503,1,53892,1,47758,54130,47421.95,53725.58,336.05,404.42,1.432983,76.00,1
1999543,1,53932,1,47761,54131,47422.63,53726.39,338.37,404.61,1.434194,75.94,1
1999583,1,53972,1,47761,54129,47423.31,53727.20,337.69,401.80,1.435370,75.89,1
1999623,1,54012,1,47763,54141,47423.99,53728.03,339.01,412.97,1.436509,75.84,1
1999663,1,54052,1,47760,54146,47424.66,53728.86,335.34,417.14,1.437610,75.78,1
1999703,1,54092,1,47761,54157,47425.34,53729.72,335.66,427.28,1.438671,75.73,1
1999743,1,54132,1,47761,54159,47426.01,53730.58,334.99,428.42,1.439695,75.68,1
1999783,1,54172,1,47762,54178,47426.68,53731.48,335.32,446.52,1.440676,75.63,1
1999823,1,54212,1,47765,54181,47427.36,53732.38,337.64,448.62,1.441616,75.58,1
1999864,1,54253,1,47766,54188,47428.04,53733.29,337.96,454.71,1.442514,75.53,1
1999904,1,54293,1,47771,54204,47428.73,53734.23,342.27,469.77,1.443369,75.48,1
1999944,1,54333,1,47769,54220,47429.41,53735.21,339.59,484.79,1.444178,75.43,1
1999984,1,54373,1,47767,54195,47430.09,53736.13,336.91,458.87,1.444947,75.39,1
2000024,1,54413,1,47753,54179,47430.74,53737.02,322.26,441.98,1.445680,75.34,1
2000064,1,54453,1,47747,54177,47431.37,53737.90,315.63,439.10,1.446378,75.29,1
2000104,1,54493,1,47749,54184,47432.01,53738.79,316.99,445.21,1.447039,75.25,1
2000144,1,54533,1,47751,54175,47432.65,53739.67,318.35,435.33,1.447668,75.21,1
2000184,1,54573,1,47751,54174,47433.29,53740.54,317.71,433.46,1.448264,75.16,1
2000224,1,54613,1,47745,54174,47433.91,53741.41,311.09,432.59,1.448829,75.12,1
2000264,1,54653,1,47747,54174,47434.54,53742.27,312.46,431.73,1.449362,75.08,1
2000304,1,54693,1,47742,54172,47435.16,53743.13,306.84,428.87,1.449865,75.04,1
2000344,1,54733,1,47740,54178,47435.77,53744.00,304.23,434.00,1.450338,75.00,1
2000384,1,54773,1,47738,54187,47436.37,53744.89,301.63,442.11,1.450778,74.97,1
2000425,1,54814,1,47737,54199,47436.97,53745.80,300.03,453.20,1.451185,74.93,1
2000465,1,54854,1,47741,54204,47437.58,53746.72,303.42,457.28,1.451559,74.89,1
2000505,1,54894,1,47734,54219,47438.18,53747.66,295.82,471.34,1.451897,74.86,1
2000545,1,54934,1,47743,54225,47438.79,53748.62,304.21,476.38,1.452201,74.82,1
2000585,1,54974,1,47742,54239,47439.39,53749.60,302.61,489.40,1.452467,74.79,1
2000625,1,55014,1,47748,54256,47440.01,53750.62,307.99,505.38,1.452695,74.75,1
2000665,1,55054,1,47753,54263,47440.64,53751.64,312.36,511.36,1.452884,74.72,1
2000705,1,55094,1,47756,54265,47441.27,53752.67,314.73,512.33,1.453036,74.69,1
2000745,1,55134,1,47759,54233,47441.91,53753.63,317.09,479.37,1.453158,74.66,1
2000785,1,55174,1,47737,54216,47442.50,53754.56,294.50,461.44,1.453250,74.63,1
2000825,1,55214,1,47733,54206,47443.08,53755.46,289.92,450.54,1.453317,74.60,1
2000865,1,55254,1,47727,54209,47443.65,53756.37,283.35,452.63,1.453356,74.57,1
2000905,1,55294,1,47725,54202,47444.21,53757.27,280.79,444.73,1.453371,74.55,1
2000945,1,55334,1,47717,54202,47444.76,53758.16,272.24,443.84,1.453360,74.52,1
2000985,1,55374,1,47717,54206,47445.31,53759.05,271.69,446.95,1.453324,74.49,1
2001026,1,55415,1,47712,54201,47445.84,53759.94,266.16,441.06,1.453263,74.47,1
2001066,1,55455,1,47709,54213,47446.37,53760.85,262.63,452.15,1.453177,74.45,1
2001106,1,55495,1,47707,54217,47446.89,53761.76,260.11,455.24,1.453066,74.42,1
2001146,1,55535,1,47711,54235,47447.43,53762.71,263.57,472.29,1.452927,74.40,1
2001186,1,55575,1,47720,54242,47447.97,53763.67,272.03,478.33,1.452760,74.38,1
2001226,1,55615,1,47719,54263,47448.52,53764.67,270.48,498.33,1.452564,74.36,1
2001266,1,55655,1,47730,54272,47449.08,53765.69,280.92,506.31,1.452337,74.34,1
2001306,1,55695,1,47737,54283,47449.66,53766.72,287.34,516.28,1.452081,74.32,1
2001346,1,55735,1,47742,54301,47450.24,53767.79,291.76,533.21,1.451792,74.30,1
2001386,1,55775,1,47745,54317,47450.83,53768.89,294.17,548.11,1.451470,74.28,1
2001426,1,55815,1,47743,54318,47451.42,53769.99,291.58,548.01,1.451116,74.27,1
2001466,1,55855,1,47746,54320,47452.01,53771.09,293.99,548.91,1.450731,74.25,1
2001506,1,55895,1,47735,54287,47452.57,53772.12,282.43,514.87,1.450319,74.23,1
2001546,1,55935,1,47724,54265,47453.12,53773.11,270.88,491.89,1.449883,74.22,1
2001587,1,55976,1,47715,54257,47453.64,53774.08,261.36,482.92,1.449425,74.21,1
2001627,1,56016,1,47712,54266,47454.16,53775.07,257.84,490.93,1.448944,74.19,1
2001667,1,56056,1,47707,54264,47454.67,53776.05,252.33,487.95,1.448440,74.18,1
2001707,1,56096,1,47710,54273,47455.18,53777.04,254.82,495.96,1.447912,74.17,1
2001747,1,56136,1,47714,54275,47455.70,53778.04,258.30,496.96,1.447363,74.16,1
2001787,1,56176,1,47710,54287,47456.21,53779.06,253.79,507.94,1.446789,74.15,1
2001827,1,56216,1,47716,54294,47456.73,53780.09,259.27,513.91,1.446192,74.14,1
2001867,1,56256,1,47719,54299,47457.26,53781.13,261.74,517.87,1.445572,74.13,1
2001907,1,56296,1,47726,54312,47457.80,53782.19,268.20,529.81,1.444927,74.12,1
2001947,1,56336,1,47724,54318,47458.33,53783.27,265.67,534.73,1.444258,74.12,1
2001987,1,56376,1,47726,54327,47458.87,53784.36,267.13,542.64,1.443565,74.11,1
2002027,1,56416,1,47725,54331,47459.40,53785.45,265.60,545.55,1.442846,74.11,1
2002067,1,56456,1,47723,54343,47459.93,53786.57,263.07,556.43,1.442103,74.10,1
2002107,1,56496,1,47726,54340,47460.46,53787.68,265.54,552.32,1.441336,74.10,1
2002148,1,56537,1,47724,54352,47460.99,53788.80,263.01,563.20,1.440543,74.09,1
2002188,1,56577,1,47726,54361,47461.52,53789.95,264.48,571.05,1.439726,74.09,1
2002228,1,56617,1,47724,54374,47462.05,53791.12,261.95,582.88,1.438882,74.09,1
2002268,1,56657,1,47721,54344,47462.57,53792.22,258.43,551.78,1.438017,74.09,1
2002308,1,56697,1,47710,54326,47463.07,53793.29,246.93,532.71,1.437131,74.09,1
2002348,1,56737,1,47703,54331,47463.55,53794.37,239.45,536.63,1.436226,74.09,1
2002388,1,56777,1,47703,54325,47464.03,53795.43,238.97,529.57,1.435301,74.09,1
2002428,1,56817,1,47700,54311,47464.50,53796.46,235.50,514.54,1.434359,74.09,1
2002468,1,56857,1,47690,54299,47464.95,53797.47,225.05,501.53,1.433400,74.09,1
2002508,1,56897,1,47689,54298,47465.40,53798.48,223.60,499.52,1.432426,74.10,1
2002548,1,56937,1,47673,54288,47465.82,53799.46,207.18,488.54,1.431436,74.10,1
2002588,1,56977,1,47676,54285,47466.24,53800.43,209.76,484.57,1.430432,74.10,1
2002628,1,57017,1,47673,54291,47466.66,53801.41,206.34,489.59,1.429413,74.11,1
2002668,1,57057,1,47672,54296,47467.07,53802.41,204.93,493.59,1.428379,74.11,1
2002709,1,57098,1,47665,54299,47467.46,53803.40,197.54,495.60,1.427330,74.12,1
2002749,1,57138,1,47672,54309,47467.87,53804.41,204.12,504.59,1.426265,74.13,1
2002789,1,57178,1,47669,54317,47468.28,53805.44,200.72,511.56,1.425185,74.13,1
2002829,1,57218,1,47675,54337,47468.69,53806.51,206.31,530.49,1.424087,74.14,1
2002869,1,57258,1,47676,54346,47469.11,53807.59,206.89,538.41,1.422971,74.15,1
2002909,1,57298,1,47683,54367,47469.54,53808.71,213.46,558.29,1.421837,74.16,1
2002949,1,57338,1,47686,54380,47469.97,53809.86,216.03,570.14,1.420683,74.17,1
2002989,1,57378,1,47692,54367,47470.41,53810.97,221.59,556.03,1.419512,74.18,1
2003029,1,57418,1,47687,54345,47470.85,53812.04,216.15,532.96,1.418326,74.19,1
2003069,1,57458,1,47674,54315,47471.25,53813.05,202.75,501.95,1.417127,74.20,1
2003109,1,57498,1,47667,54322,47471.65,53814.07,195.35,507.93,1.415914,74.21,1
2003149,1,57538,1,47663,54313,47472.03,53815.07,190.97,497.93,1.414689,74.23,1
2003189,1,57578,1,47660,54319,47472.41,53816.08,187.59,502.92,1.413452,74.24,1
2003229,1,57618,1,47656,54324,47472.78,53817.09,183.22,506.91,1.412201,74.25,1
2003269,1,57658,1,47654,54315,47473.14,53818.09,180.86,496.91,1.410938,74.27,1
2003310,1,57699,1,47654,54320,47473.50,53819.09,180.50,500.91,1.409663,74.28,1
2003350,1,57739,1,47651,54325,47473.86,53820.11,177.14,504.89,1.408375,74.30,1
2003390,1,57779,1,47648,54333,47474.21,53821.13,173.79,511.87,1.407074,74.31,1
2003430,1,57819,1,47660,54348,47474.58,53822.19,185.42,525.81,1.405760,74.33,1
2003470,1,57859,1,47656,54354,47474.94,53823.25,181.06,530.75,1.404433,74.35,1
2003510,1,57899,1,47664,54378,47475.32,53824.36,188.68,553.64,1.403090,74.36,1
2003550,1,57939,1,47671,54386,47475.71,53825.49,195.29,560.51,1.401733,74.38,1
2003590,1,57979,1,47675,54394,47476.11,53826.62,198.89,567.37,1.400360,74.40,1
2003630,1,58019,1,47677,54396,47476.52,53827.77,200.48,568.23,1.398973,74.42,1
2003670,1,58059,1,47677,54408,47476.92,53828.93,200.08,579.07,1.397571,74.44,1
2003710,1,58099,1,47681,54408,47477.33,53830.09,203.67,577.91,1.396155,74.46,1
2003750,1,58139,1,47679,54399,47477.73,53831.23,201.27,567.77,1.394724,74.48,1
2003790,1,58179,1,47660,54360,47478.10,53832.29,181.90,527.71,1.393283,74.50,1
2003830,1,58219,1,47652,54351,47478.45,53833.32,173.55,517.68,1.391831,74.52,1
2003871,1,58260,1,47643,54340,47478.78,53834.34,164.22,505.66,1.390370,74.54,1
2003911,1,58300,1,47646,54349,47479.12,53835.37,166.88,513.63,1.388898,74.56,1
2003951,1,58340,1,47637,54345,47479.43,53836.39,157.57,508.61,1.387417,74.59,1
2003991,1,58380,1,47642,54350,47479.76,53837.42,162.24,512.58,1.385926,74.61,1
2004031,1,58420,1,47641,54348,47480.09,53838.44,160.91,509.56,1.384425,74.63,1
2004071,1,58460,1,47641,54364,47480.41,53839.49,160.59,524.51,1.382914,74.66,1
2004111,1,58500,1,47644,54365,47480.74,53840.54,163.26,524.46,1.381393,74.68,1
2004151,1,58540,1,47649,54374,47481.07,53841.61,167.93,532.39,1.379862,74.70,1
2004191,1,58580,1,47656,54377,47481.43,53842.68,174.57,534.32,1.378321,74.73,1
2004231,1,58620,1,47651,54390,47481.77,53843.78,169.23,546.22,1.376769,74.76,1
2004271,1,58660,1,47657,54393,47482.12,53844.88,174.88,548.12,1.375207,74.78,1
2004311,1,58700,1,47655,54392,47482.46,53845.97,172.54,546.03,1.373635,74.81,1
2004351,1,58740,1,47657,54414,47482.82,53847.11,174.18,566.89,1.372052,74.83,1
2004391,1,58780,1,47663,54410,47483.18,53848.24,179.82,561.76,1.370458,74.86,1
2004432,1,58821,1,47662,54418,47483.54,53849.38,178.46,568.62,1.368854,74.89,1
2004472,1,58861,1,47659,54422,47483.89,53850.53,175.11,571.47,1.367239,74.92,1
2004512,1,58901,1,47652,54398,47484.23,53851.62,167.77,546.37,1.365614,74.95,1
2004552,1,58941,1,47638,54368,47484.54,53852.66,153.46,515.34,1.363982,74.97,1
2004592,1,58981,1,47637,54367,47484.84,53853.69,152.16,513.31,1.362343,75.00,1
2004632,1,59021,1,47637,54377,47485.14,53854.74,151.86,522.26,1.360696,75.03,1
2004672,1,59061,1,47638,54373,47485.45,53855.78,152.55,517.22,1.359042,75.06,1
2004712,1,59101,1,47649,54376,47485.78,53856.82,163.22,519.18,1.357381,75.09,1
2004752,1,59141,1,47649,54375,47486.11,53857.86,162.89,517.14,1.355713,75.12,1
2004792,1,59181,1,47650,54375,47486.44,53858.89,163.56,516.11,1.354038,75.15,1
2004832,1,59221,1,47644,54375,47486.75,53859.93,157.25,515.07,1.352357,75.18,1
2004872,1,59261,1,47651,54375,47487.08,53860.96,163.92,514.04,1.350670,75.22,1
2004912,1,59301,1,47648,54385,47487.41,53862.01,160.59,522.99,1.348976,75.25,1
2004952,1,59341,1,47655,54387,47487.74,53863.06,167.26,523.94,1.347276,75.28,1
2004992,1,59381,1,47647,54390,47488.06,53864.12,158.94,525.88,1.345569,75.31,1
2005033,1,59422,1,47653,54396,47488.39,53865.18,164.61,530.82,1.343856,75.35,1
2005073,1,59462,1,47651,54407,47488.72,53866.27,162.28,540.73,1.342136,75.38,1
2005113,1,59502,1,47651,54415,47489.05,53867.37,161.95,547.63,1.340409,75.41,1
2005153,1,59542,1,47659,54424,47489.39,53868.48,169.61,555.52,1.338674,75.45,1
2005193,1,59582,1,47664,54436,47489.74,53869.62,174.26,566.38,1.336932,75.48,1
2005233,1,59622,1,47664,54412,47490.09,53870.70,173.91,541.30,1.335184,75.51,1
2005273,1,59662,1,47650,54369,47490.41,53871.70,159.59,497.30,1.333432,75.55,1
2005313,1,59702,1,47646,54360,47490.72,53872.68,155.28,487.32,1.331676,75.58,1
2005353,1,59742,1,47650,54354,47491.04,53873.64,158.96,480.36,1.329917,75.62,1
2005393,1,59782,1,47640,54346,47491.34,53874.59,148.66,471.41,1.328155,75.65,1
2005433,1,59822,1,47646,54342,47491.65,53875.52,154.35,466.48,1.326390,75.69,1
2005473,1,59862,1,47640,54337,47491.95,53876.45,148.05,460.55,1.324623,75.72,1
2005513,1,59902,1,47639,54341,47492.25,53877.38,146.75,463.62,1.322853,75.76,1
2005553,1,59942,1,47638,54328,47492.54,53878.28,145.46,449.72,1.321081,75.80,1
2005594,1,59983,1,47641,54338,47492.84,53879.20,148.16,458.80,1.319307,75.83,1
2005634,1,60023,1,47640,54341,47493.13,53880.13,146.87,460.87,1.317531,75.87,1
2005674,1,60063,2,47647,54360,47493.44,53881.09,153.56,478.91,1.315751,75.91,1
2005714,1,60103,2,47648,54367,47493.75,53882.06,154.25,484.94,1.313969,75.94,1
2005754,1,60143,2,47658,54378,47494.08,53883.05,163.92,494.95,1.312184,75.98,1
2005794,1,60183,2,47664,54392,47494.42,53884.07,169.58,507.93,1.310395,76.02,1
2005834,1,60223,2,47668,54392,47494.77,53885.09,173.23,506.91,1.308603,76.06,1
2005874,1,60263,2,47675,54406,47495.13,53886.13,179.87,519.87,1.306808,76.10,1
2005914,1,60303,2,47678,54405,47495.50,53887.17,182.50,517.83,1.305009,76.13,1
2005954,1,60343,2,47677,54393,47495.86,53888.18,181.14,504.82,1.303208,76.17,1
2005994,1,60383,2,47662,54338,47496.19,53889.09,165.81,448.91,1.301407,76.21,1
2006034,1,60423,2,47646,54308,47496.49,53889.93,149.51,418.07,1.299605,76.25,1
2006074,1,60463,2,47638,54314,47496.78,53890.77,141.22,423.23,1.297803,76.29,1
2006114,1,60503,2,47638,54307,47497.06,53891.61,140.94,415.39,1.296001,76.33,1
2006155,1,60544,2,47641,54313,47497.35,53892.45,143.65,420.55,1.294199,76.37,1
2006195,1,60584,2,47643,54306,47497.64,53893.28,145.36,412.72,1.292397,76.41,1
2006235,1,60624,2,47640,54330,47497.93,53894.15,142.07,435.85,1.290594,76.45,1
2006275,1,60664,2,47651,54317,47498.24,53895.00,152.76,422.00,1.288792,76.49,1
2006315,1,60704,2,47642,54352,47498.53,53895.91,143.47,456.09,1.286987,76.53,1
