t_ms,phase,red_raw,ir_raw,red_dc,ir_dc,red_ac,ir_ac,OD_red,OD_ir,R,spo2,spo2_valid
14,0,44883,57354,45265.94,58051.54,-382.94,-697.54,-0.043474,-0.131546,0.745278,91.37,1
22,0,44893,57360,45265.2,58050.15,-372.2,-690.15,-0.043458,-0.131523,0.744546,91.39,1
32,0,44890,57349,45264.45,58048.75,-374.45,-699.75,-0.043441,-0.131498,0.743736,91.41,1
43,0,44892,57354,45263.7,58047.36,-371.7,-693.36,-0.043425,-0.131475,0.74297,91.43,1
53,0,44891,57348,45262.96,58045.96,-371.96,-697.96,-0.043408,-0.131451,0.742154,91.45,1
63,0,44887,57354,45262.21,58044.58,-375.21,-690.58,-0.043392,-0.131427,0.74154,91.46,1
71,0,44887,57348,45261.46,58043.19,-374.46,-695.19,-0.043375,-0.131403,0.74085,91.48,1
82,0,44894,57355,45260.72,58041.82,-366.72,-686.82,-0.043359,-0.131379,0.740112,91.5,1
92,0,44896,57366,45260,58040.46,-364,-674.46,-0.043343,-0.131356,0.7395,91.51,1
102,0,44895,57362,45259.27,58039.11,-364.27,-677.11,-0.043327,-0.131332,0.738866,91.53,1
113,0,44897,57364,45258.54,58037.76,-361.54,-673.76,-0.043311,-0.131309,0.738227,91.54,1
122,0,44905,57371,45257.84,58036.43,-352.84,-665.43,-0.043295,-0.131286,0.737517,91.56,1
132,0,44903,57372,45257.13,58035.1,-354.13,-663.1,-0.043279,-0.131263,0.736878,91.58,1
144,0,44904,57377,45256.42,58033.79,-352.42,-656.79,-0.043264,-0.131241,0.736297,91.59,1
152,0,44909,57369,45255.73,58032.46,-346.73,-663.46,-0.043248,-0.131218,0.735506,91.61,1
162,0,44908,57375,45255.03,58031.14,-347.03,-656.14,-0.043233,-0.131195,0.734833,91.63,1
174,0,44917,57382,45254.36,58029.85,-337.36,-647.85,-0.043218,-0.131173,0.734072,91.65,1
182,0,44931,57392,45253.71,58028.57,-322.71,-636.57,-0.043204,-0.131151,0.733165,91.67,1
191,0,44938,57393,45253.08,58027.3,-315.08,-634.3,-0.04319,-0.131129,0.732144,91.7,1
200,0,44934,57409,45252.45,58026.07,-318.45,-617.07,-0.043176,-0.131108,0.731424,91.71,1
210,0,44945,57407,45251.83,58024.83,-306.83,-617.83,-0.043162,-0.131086,0.730472,91.74,1
222,0,44947,57416,45251.22,58023.62,-304.22,-607.62,-0.043149,-0.131065,0.729608,91.76,1
232,0,44940,57420,45250.6,58022.41,-310.6,-602.41,-0.043135,-0.131045,0.728939,91.78,1
242,0,44954,57440,45250.01,58021.25,-296.01,-581.25,-0.043122,-0.131024,0.728253,91.79,1
252,0,44971,57459,45249.45,58020.12,-278.45,-561.12,-0.04311,-0.131005,0.727487,91.81,1
262,0,44989,57466,45248.93,58019.02,-259.93,-553.02,-0.043098,-0.130986,0.726502,91.84,1
273,0,44999,57483,45248.43,58017.95,-249.43,-534.95,-0.043087,-0.130968,0.725552,91.86,1
282,0,45001,57490,45247.94,58016.89,-246.94,-526.89,-0.043076,-0.13095,0.724655,91.88,1
293,0,45009,57500,45247.46,58015.86,-238.46,-515.86,-0.043066,-0.130932,0.723747,91.91,1
303,0,45022,57516,45247.01,58014.86,-225.01,-498.86,-0.043056,-0.130914,0.722819,91.93,1
312,0,45033,57529,45246.59,58013.89,-213.59,-484.89,-0.043046,-0.130898,0.721872,91.95,1
322,0,45042,57534,45246.18,58012.94,-204.18,-478.94,-0.043037,-0.130881,0.720858,91.98,1
333,0,45043,57531,45245.77,58011.98,-202.77,-480.98,-0.043028,-0.130865,0.719807,92,1
343,0,45048,57543,45245.38,58011.04,-197.38,-468.04,-0.04302,-0.130849,0.718813,92.03,1
355,0,45057,57538,45245,58010.09,-188,-472.09,-0.043011,-0.130832,0.717662,92.06,1
361,0,45061,57539,45244.64,58009.15,-183.64,-470.15,-0.043003,-0.130816,0.716477,92.09,1
373,0,45056,57538,45244.26,58008.21,-188.26,-470.21,-0.042995,-0.1308,0.715351,92.12,1
384,0,45056,57531,45243.89,58007.26,-187.89,-476.26,-0.042987,-0.130783,0.714162,92.15,1
392,0,45050,57521,45243.5,58006.29,-193.5,-485.29,-0.042978,-0.130767,0.712956,92.18,1
402,0,45043,57521,45243.1,58005.32,-200.1,-484.32,-0.042969,-0.13075,0.71185,92.2,1
413,0,45039,57524,45242.7,58004.36,-203.7,-480.36,-0.04296,-0.130733,0.710837,92.23,1
422,0,45041,57519,45242.29,58003.39,-201.29,-484.39,-0.042951,-0.130717,0.709752,92.26,1
433,0,45037,57525,45241.88,58002.43,-204.88,-477.43,-0.042942,-0.1307,0.70879,92.28,1
443,0,45050,57531,45241.5,58001.49,-191.5,-470.49,-0.042934,-0.130684,0.707716,92.31,1
452,0,45052,57534,45241.12,58000.55,-189.12,-466.55,-0.042926,-0.130668,0.706651,92.33,1
463,0,45044,57534,45240.73,57999.62,-196.73,-465.62,-0.042917,-0.130652,0.705699,92.36,1
473,0,45032,57525,45240.31,57998.68,-208.31,-473.68,-0.042908,-0.130635,0.704834,92.38,1
482,0,45027,57506,45239.88,57997.69,-212.88,-491.69,-0.042898,-0.130618,0.703853,92.4,1
493,0,45017,57490,45239.44,57996.68,-222.44,-506.68,-0.042888,-0.130601,0.702864,92.43,1
503,0,45000,57483,45238.96,57995.65,-238.96,-512.65,-0.042878,-0.130583,0.702084,92.45,1
512,0,44995,57472,45238.47,57994.6,-243.47,-522.6,-0.042867,-0.130565,0.701276,92.47,1
523,0,44988,57475,45237.97,57993.56,-249.97,-518.56,-0.042856,-0.130547,0.700632,92.48,1
532,0,44990,57484,45237.48,57992.54,-247.48,-508.54,-0.042845,-0.13053,0.700056,92.5,1
543,0,44994,57491,45236.99,57991.54,-242.99,-500.54,-0.042834,-0.130512,0.69949,92.51,1
553,0,45004,57500,45236.53,57990.56,-232.53,-490.56,-0.042824,-0.130496,0.698854,92.53,1
563,0,45015,57511,45236.09,57989.61,-221.09,-478.61,-0.042814,-0.130479,0.698157,92.55,1
575,0,45021,57508,45235.66,57988.64,-214.66,-480.64,-0.042805,-0.130462,0.697339,92.57,1
582,0,45010,57503,45235.21,57987.68,-225.21,-484.68,-0.042795,-0.130446,0.696651,92.58,1
592,0,45003,57500,45234.74,57986.7,-231.74,-486.7,-0.042785,-0.130429,0.696054,92.6,1
603,0,44999,57487,45234.27,57985.71,-235.27,-498.71,-0.042774,-0.130412,0.695391,92.62,1
612,0,44988,57480,45233.78,57984.7,-245.78,-504.7,-0.042763,-0.130394,0.694852,92.63,1
622,0,44973,57470,45233.26,57983.67,-260.26,-513.67,-0.042752,-0.130377,0.694488,92.64,1
632,0,44969,57469,45232.73,57982.64,-263.73,-513.64,-0.04274,-0.130359,0.694193,92.65,1
643,0,44975,57477,45232.22,57981.63,-257.22,-504.63,-0.042729,-0.130342,0.693874,92.65,1
654,0,44979,57496,45231.71,57980.66,-252.71,-484.66,-0.042718,-0.130325,0.693686,92.66,1
662,0,45001,57525,45231.25,57979.75,-230.25,-454.75,-0.042707,-0.130309,0.693401,92.66,1
672,0,45010,57530,45230.81,57978.85,-220.81,-448.85,-0.042698,-0.130294,0.693016,92.67,1
684,0,45037,57537,45230.43,57977.97,-193.43,-440.97,-0.042689,-0.130278,0.692282,92.69,1
692,0,45041,57582,45230.05,57977.18,-189.05,-395.18,-0.042681,-0.130265,0.691907,92.7,1
702,0,45061,57609,45229.71,57976.45,-168.71,-367.45,-0.042673,-0.130252,0.69149,92.71,1
715,0,45101,57619,45229.45,57975.73,-128.45,-356.73,-0.042668,-0.13024,0.6907,92.73,1
724,0,45105,57627,45229.21,57975.04,-124.21,-348.04,-0.042662,-0.130228,0.689934,92.75,1
734,0,45104,57622,45228.96,57974.33,-124.96,-352.33,-0.042657,-0.130216,0.689139,92.77,1
743,0,45099,57622,45228.7,57973.63,-129.7,-351.63,-0.042651,-0.130203,0.688395,92.79,1
753,0,45098,57610,45228.44,57972.9,-130.44,-362.9,-0.042645,-0.130191,0.687564,92.81,1
764,0,45090,57610,45228.16,57972.18,-138.16,-362.18,-0.042639,-0.130178,0.686821,92.83,1
773,0,45090,57604,45227.89,57971.45,-137.89,-367.45,-0.042633,-0.130166,0.686027,92.85,1
783,0,45076,57584,45227.59,57970.67,-151.59,-386.67,-0.042626,-0.130153,0.685226,92.87,1
795,0,45062,57590,45227.26,57969.91,-165.26,-379.91,-0.042619,-0.130139,0.684658,92.88,1
804,0,45054,57577,45226.91,57969.12,-172.91,-392.12,-0.042611,-0.130126,0.684087,92.9,1
814,0,45052,57570,45226.57,57968.33,-174.57,-398.33,-0.042604,-0.130112,0.683481,92.91,1
824,0,45037,57566,45226.19,57967.52,-189.19,-401.52,-0.042595,-0.130098,0.683064,92.92,1
835,0,45032,57564,45225.8,57966.72,-193.8,-402.72,-0.042587,-0.130084,0.68271,92.93,1
843,0,45034,57569,45225.42,57965.93,-191.42,-396.93,-0.042578,-0.130071,0.682372,92.94,1
854,0,45034,57575,45225.04,57965.14,-191.04,-390.14,-0.04257,-0.130057,0.682091,92.95,1
864,0,45042,57577,45224.67,57964.37,-182.67,-387.37,-0.042562,-0.130044,0.681704,92.96,1
875,0,45041,57583,45224.3,57963.61,-183.3,-380.61,-0.042554,-0.130031,0.68139,92.97,1
883,0,45054,57618,45223.96,57962.92,-169.96,-344.92,-0.042546,-0.130019,0.681186,92.97,1
894,0,45085,57644,45223.69,57962.28,-138.69,-318.28,-0.04254,-0.130008,0.680782,92.98,1
903,0,45106,57661,45223.45,57961.68,-117.45,-300.68,-0.042535,-0.129997,0.680274,92.99,1
914,0,45119,57677,45223.25,57961.11,-104.25,-284.11,-0.04253,-0.129988,0.679756,93.01,1
925,0,45136,57704,45223.07,57960.6,-87.07,-256.6,-0.042527,-0.129979,0.679274,93.02,1
933,0,45156,57757,45222.94,57960.2,-66.94,-203.2,-0.042524,-0.129972,0.678957,93.03,1
943,0,45214,57866,45222.93,57960.01,-8.93,-94.01,-0.042523,-0.129969,0.678848,93.03,1
955,0,45324,57983,45223.13,57960.05,100.87,22.95,-0.042528,-0.129969,0.679297,93.02,1
963,0,45430,58070,45223.54,57960.28,206.46,109.72,-0.042537,-0.129973,0.681074,92.97,1
974,0,45486,58104,45224.07,57960.57,261.93,143.43,-0.042549,-0.129978,0.683937,92.9,1
984,0,45503,58100,45224.63,57960.85,278.37,139.15,-0.042561,-0.129983,0.687233,92.82,1
993,0,45493,58076,45225.17,57961.08,267.83,114.92,-0.042573,-0.129987,0.69036,92.74,1
1004,0,45465,58040,45225.65,57961.24,239.35,78.76,-0.042583,-0.12999,0.692927,92.68,1
1013,0,45427,57985,45226.05,57961.29,200.95,23.71,-0.042592,-0.129991,0.694798,92.63,1
1023,0,45380,57929,45226.36,57961.23,153.64,-32.23,-0.042599,-0.12999,0.695889,92.6,1
1033,0,45328,57866,45226.56,57961.04,101.44,-95.04,-0.042604,-0.129986,0.696245,92.59,1
1043,0,45272,57810,45226.66,57960.74,45.34,-150.74,-0.042606,-0.129981,0.696018,92.6,1
1054,0,45235,57786,45226.68,57960.39,8.32,-174.39,-0.042606,-0.129975,0.695583,92.61,1
1064,0,45216,57772,45226.66,57960.02,-10.66,-188.02,-0.042606,-0.129969,0.695076,92.62,1
1073,0,45205,57768,45226.61,57959.63,-21.61,-191.63,-0.042605,-0.129962,0.694564,92.64,1
1084,0,45201,57775,45226.56,57959.27,-25.56,-184.27,-0.042604,-0.129956,0.694097,92.65,1
1094,0,45215,57792,45226.54,57958.93,-11.54,-166.93,-0.042603,-0.12995,0.69369,92.66,1
1103,0,45223,57820,45226.53,57958.66,-3.53,-138.66,-0.042603,-0.129945,0.693402,92.66,1
1115,0,45252,57857,45226.58,57958.45,25.42,-101.45,-0.042604,-0.129942,0.693278,92.67,1
1125,0,45290,57906,45226.71,57958.35,63.29,-52.35,-0.042607,-0.12994,0.69344,92.66,1
1133,0,45335,57951,45226.93,57958.34,108.07,-7.34,-0.042612,-0.12994,0.694045,92.65,1
1144,0,45370,58001,45227.22,57958.43,142.78,42.57,-0.042618,-0.129941,0.695086,92.62,1
1153,0,45411,58029,45227.59,57958.57,183.41,70.43,-0.042626,-0.129944,0.696789,92.58,1
1164,0,45436,58058,45228,57958.77,208,99.23,-0.042636,-0.129947,0.698939,92.53,1
1174,0,45455,58073,45228.46,57959,226.54,114,-0.042646,-0.129951,0.701484,92.46,1
1186,0,45467,58079,45228.94,57959.24,238.06,119.76,-0.042656,-0.129955,0.704309,92.39,1
1195,0,45474,58075,45229.43,57959.48,244.57,115.52,-0.042667,-0.129959,0.707334,92.32,1
1202,0,45461,58062,45229.89,57959.68,231.11,102.32,-0.042677,-0.129963,0.710071,92.25,1
1213,0,45439,58035,45230.31,57959.84,208.69,75.16,-0.042687,-0.129966,0.712364,92.19,1
1223,0,45419,58010,45230.69,57959.94,188.31,50.06,-0.042695,-0.129967,0.714279,92.14,1
1231,0,45391,57979,45231.01,57959.98,159.99,19.02,-0.042702,-0.129968,0.715695,92.11,1
1244,0,45364,57949,45231.28,57959.96,132.72,-10.96,-0.042708,-0.129968,0.716679,92.08,1
1253,0,45341,57927,45231.5,57959.89,109.5,-32.89,-0.042713,-0.129967,0.717335,92.07,1
1263,0,45321,57898,45231.68,57959.77,89.32,-61.77,-0.042717,-0.129965,0.717719,92.06,1
1274,0,45296,57878,45231.8,57959.61,64.2,-81.61,-0.04272,-0.129962,0.717833,92.05,1
1284,0,45278,57859,45231.9,57959.41,46.1,-100.41,-0.042722,-0.129958,0.717768,92.06,1
1294,0,45261,57845,45231.96,57959.19,29.04,-114.19,-0.042723,-0.129954,0.717573,92.06,1
1303,0,45257,57842,45232.01,57958.95,24.99,-116.95,-0.042724,-0.12995,0.717351,92.07,1
1314,0,45251,57835,45232.05,57958.71,18.95,-123.71,-0.042725,-0.129946,0.717081,92.07,1
1325,0,45239,57833,45232.06,57958.46,6.94,-125.46,-0.042725,-0.129942,0.716782,92.08,1
1334,0,45243,57827,45232.09,57958.2,10.91,-131.2,-0.042726,-0.129937,0.716456,92.09,1
1344,0,45235,57817,45232.09,57957.91,2.91,-140.91,-0.042726,-0.129932,0.71607,92.1,1
1353,0,45219,57813,45232.07,57957.62,-13.07,-144.62,-0.042725,-0.129927,0.71567,92.11,1
1362,0,45217,57807,45232.04,57957.32,-15.04,-150.32,-0.042725,-0.129922,0.715237,92.12,1
1371,0,45210,57808,45232,57957.03,-22,-149.03,-0.042724,-0.129917,0.714825,92.13,1
1381,0,45212,57801,45231.96,57956.71,-19.96,-155.71,-0.042723,-0.129912,0.714363,92.14,1
1392,0,45206,57793,45231.91,57956.39,-25.91,-163.39,-0.042722,-0.129906,0.713866,92.15,1
1400,0,45197,57790,45231.84,57956.06,-34.84,-166.06,-0.04272,-0.1299,0.713384,92.17,1
1411,0,45202,57803,45231.78,57955.75,-29.78,-152.75,-0.042719,-0.129895,0.712962,92.18,1
1421,0,45210,57797,45231.74,57955.44,-21.74,-158.44,-0.042718,-0.12989,0.712473,92.19,1
1432,0,45209,57801,45231.7,57955.13,-22.7,-154.13,-0.042717,-0.129884,0.712011,92.2,1
1442,0,45215,57812,45231.66,57954.84,-16.66,-142.84,-0.042717,-0.129879,0.7116,92.21,1
1452,0,45215,57808,45231.63,57954.55,-16.63,-146.55,-0.042716,-0.129874,0.711162,92.22,1
1466,0,45216,57810,45231.6,57954.26,-15.6,-144.26,-0.042715,-0.129869,0.710733,92.23,1
1474,0,45216,57801,45231.57,57953.96,-15.57,-152.96,-0.042714,-0.129864,0.710245,92.24,1
1484,0,45211,57805,45231.53,57953.66,-20.53,-148.66,-0.042714,-0.129859,0.709793,92.26,1
1494,0,45218,57809,45231.5,57953.37,-13.5,-144.37,-0.042713,-0.129854,0.709349,92.27,1
1504,0,45230,57816,45231.5,57953.1,-1.5,-137.1,-0.042713,-0.129849,0.708932,92.28,1
1515,0,45238,57826,45231.52,57952.84,6.48,-126.84,-0.042713,-0.129845,0.708575,92.29,1
1524,0,45241,57839,45231.54,57952.62,9.46,-113.62,-0.042714,-0.129841,0.70829,92.29,1
1534,0,45253,57859,45231.58,57952.43,21.42,-93.43,-0.042715,-0.129838,0.708124,92.3,1
1544,0,45259,57872,45231.64,57952.27,27.36,-80.27,-0.042716,-0.129835,0.70803,92.3,1
1555,0,45273,57879,45231.72,57952.12,41.28,-73.12,-0.042718,-0.129833,0.708032,92.3,1
1564,0,45281,57883,45231.82,57951.99,49.18,-68.99,-0.04272,-0.12983,0.708102,92.3,1
1575,0,45278,57889,45231.91,57951.86,46.09,-62.86,-0.042722,-0.129828,0.70817,92.3,1
1584,0,45281,57884,45232.01,57951.73,48.99,-67.73,-0.042724,-0.129826,0.708244,92.29,1
1594,0,45278,57865,45232.11,57951.56,45.89,-86.56,-0.042726,-0.129823,0.708226,92.29,1
1605,0,45265,57845,45232.17,57951.35,32.83,-106.35,-0.042728,-0.129819,0.708034,92.3,1
1614,0,45239,57825,45232.19,57951.1,6.81,-126.1,-0.042728,-0.129815,0.707648,92.31,1
1625,0,45218,57803,45232.16,57950.8,-14.16,-147.8,-0.042728,-0.12981,0.707124,92.32,1
1635,0,45196,57774,45232.09,57950.45,-36.09,-176.45,-0.042726,-0.129804,0.706457,92.34,1
1644,0,45189,57760,45232,57950.07,-43,-190.07,-0.042724,-0.129797,0.705705,92.36,1
1656,0,45169,57742,45231.88,57949.66,-62.88,-207.66,-0.042721,-0.12979,0.704949,92.38,1
1664,0,45148,57724,45231.71,57949.21,-83.71,-225.21,-0.042718,-0.129782,0.704251,92.39,1
1678,0,45145,57714,45231.54,57948.74,-86.54,-234.74,-0.042714,-0.129774,0.703481,92.41,1
1684,0,45130,57711,45231.34,57948.27,-101.34,-237.27,-0.042709,-0.129766,0.702913,92.43,1
1694,0,45123,57706,45231.12,57947.79,-108.12,-241.79,-0.042704,-0.129758,0.702409,92.44,1
1706,0,45123,57709,45230.91,57947.31,-107.91,-238.31,-0.0427,-0.129749,0.701943,92.45,1
1714,0,45123,57705,45230.69,57946.82,-107.69,-241.82,-0.042695,-0.129741,0.701428,92.46,1
1725,0,45119,57708,45230.47,57946.35,-111.47,-238.35,-0.04269,-0.129733,0.701027,92.47,1
1735,0,45110,57700,45230.23,57945.86,-120.23,-245.86,-0.042685,-0.129724,0.700707,92.48,1
1744,0,45121,57709,45230.01,57945.38,-109.01,-236.38,-0.04268,-0.129716,0.700282,92.49,1
1754,0,45118,57710,45229.79,57944.91,-111.79,-234.91,-0.042675,-0.129708,0.699927,92.5,1
1765,0,45121,57709,45229.57,57944.45,-108.57,-235.45,-0.04267,-0.1297,0.699503,92.51,1
1774,0,45125,57708,45229.37,57943.97,-104.37,-235.97,-0.042666,-0.129692,0.69899,92.53,1
1784,0,45124,57704,45229.16,57943.5,-105.16,-239.5,-0.042661,-0.129684,0.698446,92.54,1
1794,0,45109,57692,45228.92,57943,-119.92,-251,-0.042656,-0.129675,0.698051,92.55,1
1804,0,45108,57687,45228.68,57942.48,-120.68,-255.48,-0.04265,-0.129666,0.69761,92.56,1
1814,0,45107,57688,45228.43,57941.98,-121.43,-253.98,-0.042645,-0.129657,0.697207,92.57,1
1825,0,45113,57691,45228.2,57941.48,-115.2,-250.48,-0.04264,-0.129649,0.696716,92.58,1
1834,0,45116,57700,45227.98,57941,-111.98,-241,-0.042635,-0.12964,0.696285,92.59,1
1845,0,45119,57701,45227.77,57940.52,-108.77,-239.52,-0.04263,-0.129632,0.695806,92.6,1
1855,0,45127,57711,45227.57,57940.06,-100.57,-229.06,-0.042626,-0.129624,0.6953,92.62,1
1865,0,45123,57719,45227.36,57939.62,-104.36,-220.62,-0.042621,-0.129617,0.694973,92.63,1
1875,0,45142,57733,45227.19,57939.21,-85.19,-206.21,-0.042618,-0.12961,0.694471,92.64,1
1884,0,45160,57748,45227.06,57938.83,-67.06,-190.83,-0.042615,-0.129603,0.693874,92.65,1
1894,0,45159,57750,45226.92,57938.45,-67.92,-188.45,-0.042612,-0.129597,0.69331,92.67,1
1904,0,45164,57749,45226.8,57938.07,-62.8,-189.07,-0.042609,-0.12959,0.692672,92.68,1
1914,0,45166,57760,45226.68,57937.72,-60.68,-177.72,-0.042606,-0.129584,0.692125,92.7,1
1925,0,45169,57752,45226.56,57937.35,-57.56,-185.35,-0.042604,-0.129577,0.691458,92.71,1
1934,0,45165,57744,45226.44,57936.96,-61.44,-192.96,-0.042601,-0.129571,0.690749,92.73,1
1944,0,45170,57757,45226.33,57936.6,-56.33,-179.6,-0.042599,-0.129565,0.690122,92.75,1
1954,0,45164,57754,45226.2,57936.24,-62.2,-182.24,-0.042596,-0.129558,0.689535,92.76,1
1965,0,45167,57745,45226.09,57935.86,-59.09,-190.86,-0.042593,-0.129552,0.68881,92.78,1
1977,0,45166,57748,45225.97,57935.48,-59.97,-187.48,-0.042591,-0.129545,0.688131,92.8,1
1984,0,45159,57739,45225.84,57935.09,-66.84,-196.09,-0.042588,-0.129538,0.687441,92.81,1
1993,0,45147,57726,45225.68,57934.67,-78.68,-208.67,-0.042584,-0.129531,0.686774,92.83,1
2005,0,45132,57702,45225.49,57934.21,-93.49,-232.21,-0.04258,-0.129523,0.686061,92.85,1
2014,0,45116,57699,45225.27,57933.74,-109.27,-234.74,-0.042575,-0.129515,0.685649,92.86,1
2024,0,45111,57688,45225.05,57933.25,-114.05,-245.25,-0.04257,-0.129507,0.685197,92.87,1
2035,0,45109,57680,45224.82,57932.75,-115.82,-252.75,-0.042565,-0.129498,0.684675,92.88,1
2044,0,45119,57671,45224.61,57932.22,-105.61,-261.22,-0.04256,-0.129489,0.683775,92.91,1
2057,0,45086,57646,45224.33,57931.65,-138.33,-285.65,-0.042554,-0.129479,0.683329,92.92,1
2064,0,45074,57644,45224.03,57931.08,-150.03,-287.08,-0.042548,-0.129469,0.683224,92.92,1
2075,0,45065,57627,45223.71,57930.47,-158.71,-303.47,-0.042541,-0.129459,0.683112,92.92,1
2085,0,45051,57645,45223.37,57929.9,-172.37,-284.9,-0.042533,-0.129449,0.683831,92.9,1
2094,0,45085,57686,45223.09,57929.42,-138.09,-243.42,-0.042527,-0.129441,0.684068,92.9,1
2104,0,45125,57727,45222.89,57929.02,-97.89,-202.02,-0.042523,-0.129434,0.68384,92.9,1
2115,0,45167,57788,45222.79,57928.73,-55.79,-140.73,-0.04252,-0.129429,0.683558,92.91,1
2125,0,45223,57842,45222.79,57928.56,0.21,-86.56,-0.04252,-0.129426,0.683318,92.92,1
2135,0,45280,57901,45222.9,57928.51,57.1,-27.51,-0.042523,-0.129425,0.683659,92.91,1
2144,0,45323,57952,45223.11,57928.55,99.89,23.45,-0.042527,-0.129426,0.684775,92.88,1
2155,0,45375,57996,45223.41,57928.69,151.59,67.31,-0.042534,-0.129428,0.68726,92.82,1
2165,0,45414,58016,45223.79,57928.87,190.21,87.13,-0.042542,-0.129431,0.691174,92.72,1
2175,0,45442,58056,45224.23,57929.12,217.77,126.88,-0.042552,-0.129436,0.696106,92.6,1
2185,0,45477,58071,45224.74,57929.41,252.26,141.59,-0.042563,-0.12944,0.702766,92.43,1
2195,0,45484,58071,45225.26,57929.69,258.74,141.31,-0.042575,-0.129445,0.709785,92.26,1
2206,0,45488,58067,45225.79,57929.97,262.21,137.03,-0.042587,-0.12945,0.717028,92.07,1
2214,0,45483,58055,45226.3,57930.22,256.7,124.78,-0.042598,-0.129454,0.724032,91.9,1
2224,0,45471,58040,45226.79,57930.44,244.21,109.56,-0.042609,-0.129458,0.730435,91.74,1
2233,0,45456,58009,45227.25,57930.6,228.75,78.4,-0.042619,-0.129461,0.736215,91.59,1
2244,0,45435,57994,45227.67,57930.73,207.33,63.27,-0.042628,-0.129463,0.74101,91.47,1
2255,0,45429,57972,45228.07,57930.82,200.93,41.18,-0.042637,-0.129465,0.745608,91.36,1
2264,0,45398,57942,45228.41,57930.84,169.59,11.16,-0.042645,-0.129465,0.748939,91.28,1
2275,0,45364,57910,45228.69,57930.8,135.31,-20.8,-0.042651,-0.129464,0.751057,91.22,1
2285,0,45340,57885,45228.91,57930.71,111.09,-45.71,-0.042656,-0.129463,0.752422,91.19,1
2295,0,45316,57862,45229.09,57930.57,86.91,-68.57,-0.04266,-0.129461,0.753121,91.17,1
2305,0,45298,57844,45229.23,57930.4,68.77,-86.4,-0.042663,-0.129458,0.753374,91.17,1
2315,0,45282,57824,45229.33,57930.19,52.67,-106.19,-0.042665,-0.129454,0.753233,91.17,1
2326,0,45266,57814,45229.41,57929.96,36.59,-115.96,-0.042667,-0.12945,0.752825,91.18,1
2335,0,45255,57797,45229.46,57929.7,25.54,-132.7,-0.042668,-0.129445,0.752153,91.2,1
2345,0,45238,57787,45229.48,57929.41,8.52,-142.41,-0.042668,-0.12944,0.751291,91.22,1
2356,0,45228,57777,45229.48,57929.11,-1.48,-152.11,-0.042668,-0.129435,0.75029,91.24,1
2366,0,45221,57762,45229.46,57928.77,-8.46,-166.77,-0.042668,-0.129429,0.749091,91.27,1
2375,0,45207,57745,45229.42,57928.41,-22.42,-183.41,-0.042667,-0.129423,0.747687,91.31,1
2387,0,45204,57754,45229.37,57928.06,-25.37,-174.06,-0.042666,-0.129417,0.746442,91.34,1
2395,0,45203,57741,45229.32,57927.69,-26.32,-186.69,-0.042665,-0.129411,0.744998,91.38,1
2406,0,45197,57736,45229.25,57927.3,-32.25,-191.3,-0.042663,-0.129404,0.743517,91.41,1
2415,0,45189,57717,45229.18,57926.89,-40.18,-209.89,-0.042662,-0.129397,0.741777,91.46,1
2427,0,45171,57701,45229.06,57926.44,-58.06,-225.44,-0.042659,-0.129389,0.739968,91.5,1
2436,0,45163,57701,45228.93,57925.99,-65.93,-224.99,-0.042656,-0.129381,0.738298,91.54,1
2445,0,45152,57670,45228.78,57925.48,-76.78,-255.48,-0.042653,-0.129373,0.736186,91.6,1
2456,0,45130,57664,45228.58,57924.96,-98.58,-260.96,-0.042648,-0.129364,0.734469,91.64,1
2466,0,45119,57649,45228.36,57924.41,-109.36,-275.41,-0.042644,-0.129354,0.732719,91.68,1
2475,0,45102,57629,45228.11,57923.82,-126.11,-294.82,-0.042638,-0.129344,0.731026,91.72,1
2485,0,45096,57632,45227.85,57923.23,-131.85,-291.23,-0.042632,-0.129334,0.729639,91.76,1
2495,0,45090,57625,45227.58,57922.64,-137.58,-297.64,-0.042626,-0.129324,0.728308,91.79,1
2506,0,45085,57617,45227.29,57922.03,-142.29,-305.03,-0.04262,-0.129313,0.726974,91.83,1
2517,0,45083,57609,45227,57921.41,-144,-312.41,-0.042614,-0.129302,0.725522,91.86,1
2527,0,45080,57615,45226.71,57920.8,-146.71,-305.8,-0.042607,-0.129292,0.72437,91.89,1
2535,0,45087,57633,45226.43,57920.22,-139.43,-287.22,-0.042601,-0.129282,0.723425,91.91,1
2546,0,45097,57631,45226.18,57919.64,-129.18,-288.64,-0.042595,-0.129272,0.722078,91.95,1
2557,0,45094,57634,45225.91,57919.07,-131.91,-285.07,-0.042589,-0.129262,0.720928,91.98,1
2564,0,45108,57649,45225.68,57918.54,-117.68,-269.54,-0.042584,-0.129253,0.719673,92.01,1
2577,0,45115,57649,45225.46,57918,-110.46,-269,-0.042579,-0.129243,0.718212,92.04,1
2585,0,45119,57646,45225.25,57917.45,-106.25,-271.45,-0.042575,-0.129234,0.716577,92.09,1
2594,0,45120,57648,45225.04,57916.91,-105.04,-268.91,-0.04257,-0.129225,0.714973,92.13,1
2606,0,45133,57663,45224.86,57916.41,-91.86,-253.41,-0.042566,-0.129216,0.713367,92.17,1
2614,0,45136,57662,45224.68,57915.9,-88.68,-253.9,-0.042562,-0.129207,0.711675,92.21,1
2626,0,45136,57657,45224.5,57915.38,-88.5,-258.38,-0.042558,-0.129198,0.709886,92.25,1
2635,0,45141,57663,45224.34,57914.88,-83.34,-251.88,-0.042555,-0.12919,0.708121,92.3,1
2644,0,45151,57688,45224.2,57914.43,-73.2,-226.43,-0.042551,-0.129182,0.70666,92.33,1
2656,0,45169,57687,45224.09,57913.97,-55.09,-226.97,-0.042549,-0.129174,0.704859,92.38,1
2666,0,45160,57660,45223.96,57913.46,-63.96,-253.46,-0.042546,-0.129165,0.70266,92.43,1
2676,0,45133,57650,45223.78,57912.94,-90.78,-262.94,-0.042542,-0.129156,0.700853,92.48,1
2685,0,45130,57651,45223.59,57912.41,-93.59,-261.41,-0.042538,-0.129147,0.699164,92.52,1
2696,0,45130,57631,45223.4,57911.85,-93.4,-280.85,-0.042534,-0.129137,0.697024,92.57,1
2706,0,45109,57612,45223.18,57911.25,-114.18,-299.25,-0.042529,-0.129127,0.695067,92.62,1
2716,0,45086,57590,45222.9,57910.61,-136.9,-320.61,-0.042523,-0.129116,0.693394,92.67,1
2727,0,45071,57569,45222.6,57909.93,-151.6,-340.93,-0.042516,-0.129104,0.691787,92.71,1
2736,0,45057,57562,45222.27,57909.23,-165.27,-347.23,-0.042509,-0.129092,0.69065,92.73,1
2745,0,45051,57557,45221.93,57908.53,-170.93,-351.53,-0.042501,-0.12908,0.689681,92.76,1
2756,0,45053,57550,45221.6,57907.82,-168.6,-357.82,-0.042494,-0.129068,0.688432,92.79,1
2765,0,45046,57546,45221.25,57907.09,-175.25,-361.09,-0.042486,-0.129055,0.687435,92.81,1
2775,0,45041,57534,45220.89,57906.35,-179.89,-372.35,-0.042478,-0.129042,0.686356,92.84,1
2787,0,45027,57522,45220.5,57905.58,-193.5,-383.58,-0.04247,-0.129029,0.685672,92.86,1
2795,0,45031,57528,45220.12,57904.83,-189.12,-376.83,-0.042461,-0.129016,0.684977,92.88,1
2803,0,45031,57526,45219.74,57904.07,-188.74,-378.07,-0.042453,-0.129003,0.684239,92.89,1
2815,0,45019,57529,45219.34,57903.32,-200.34,-374.32,-0.042444,-0.12899,0.684254,92.89,1
2825,0,45030,57535,45218.96,57902.59,-188.96,-367.59,-0.042436,-0.128977,0.683855,92.9,1
2835,0,45031,57536,45218.59,57901.86,-187.59,-365.86,-0.042427,-0.128965,0.683443,92.91,1
2845,0,45038,57549,45218.23,57901.15,-180.23,-352.15,-0.042419,-0.128953,0.683051,92.92,1
2855,0,45043,57552,45217.88,57900.46,-174.88,-348.46,-0.042412,-0.128941,0.682508,92.94,1
2867,0,45049,57555,45217.55,57899.77,-168.55,-344.77,-0.042404,-0.128929,0.681777,92.96,1
2874,0,45057,57568,45217.23,57899.11,-160.23,-331.11,-0.042397,-0.128917,0.681041,92.97,1
2883,0,45058,57570,45216.91,57898.45,-158.91,-328.45,-0.04239,-0.128906,0.680325,92.99,1
2893,0,45060,57563,45216.6,57897.79,-156.6,-334.79,-0.042383,-0.128894,0.679359,93.02,1
2903,0,45059,57566,45216.29,57897.12,-157.29,-331.12,-0.042376,-0.128883,0.678528,93.04,1
2913,0,45054,57562,45215.96,57896.46,-161.96,-334.46,-0.042369,-0.128871,0.677826,93.05,1
2924,0,45049,57558,45215.63,57895.78,-166.63,-337.78,-0.042362,-0.12886,0.677257,93.07,1
2934,0,45048,57542,45215.29,57895.07,-167.29,-353.07,-0.042355,-0.128848,0.676328,93.09,1
2944,0,45036,57529,45214.94,57894.34,-178.94,-365.34,-0.042347,-0.128835,0.675626,93.11,1
2955,0,45029,57512,45214.57,57893.58,-185.57,-381.58,-0.042338,-0.128822,0.67481,93.13,1
2966,0,45011,57507,45214.16,57892.81,-203.16,-385.81,-0.042329,-0.128808,0.674798,93.13,1
2977,0,45010,57494,45213.75,57892.01,-203.75,-398.01,-0.04232,-0.128795,0.674468,93.14,1
2985,0,44999,57484,45213.32,57891.2,-214.32,-407.2,-0.042311,-0.128781,0.674455,93.14,1
2996,0,44992,57480,45212.88,57890.37,-220.88,-410.37,-0.042301,-0.128766,0.674719,93.13,1
3006,0,44986,57469,45212.43,57889.54,-226.43,-420.54,-0.042291,-0.128752,0.674993,93.13,1
3016,0,44972,57458,45211.95,57888.67,-239.95,-430.67,-0.042281,-0.128737,0.675755,93.11,1
3026,0,44971,57460,45211.47,57887.82,-240.47,-427.82,-0.04227,-0.128722,0.676612,93.08,1
3036,0,44961,57462,45210.97,57886.96,-249.97,-424.96,-0.042259,-0.128707,0.678108,93.05,1
3046,0,44963,57468,45210.47,57886.13,-247.47,-418.13,-0.042248,-0.128693,0.679608,93.01,1
3059,0,44958,57454,45209.97,57885.27,-251.97,-431.27,-0.042237,-0.128678,0.680955,92.98,1
3066,0,44966,57459,45209.48,57884.41,-243.48,-425.41,-0.042226,-0.128663,0.681927,92.95,1
3077,0,44961,57463,45208.98,57883.57,-247.98,-420.57,-0.042215,-0.128649,0.683276,92.92,1
3086,0,44966,57469,45208.5,57882.75,-242.5,-413.75,-0.042204,-0.128635,0.684463,92.89,1
3096,0,44965,57460,45208.02,57881.9,-243.02,-421.9,-0.042194,-0.12862,0.685421,92.86,1
3107,0,44967,57468,45207.54,57881.07,-240.54,-413.07,-0.042183,-0.128606,0.68646,92.84,1
3116,0,44966,57461,45207.05,57880.23,-241.05,-419.23,-0.042172,-0.128591,0.687332,92.82,1
3127,0,44970,57463,45206.58,57879.4,-236.58,-416.4,-0.042162,-0.128577,0.688016,92.8,1
3137,0,44965,57456,45206.1,57878.56,-241.1,-422.56,-0.042151,-0.128562,0.688758,92.78,1
3147,0,44966,57458,45205.62,57877.72,-239.62,-419.72,-0.042141,-0.128548,0.68948,92.76,1
3160,0,44958,57447,45205.13,57876.86,-247.13,-429.86,-0.04213,-0.128533,0.690313,92.74,1
3168,0,44952,57447,45204.62,57876,-252.62,-429,-0.042119,-0.128518,0.691453,92.71,1
3175,0,44954,57462,45204.12,57875.17,-250.12,-413.17,-0.042107,-0.128504,0.692853,92.68,1
3184,0,44961,57467,45203.64,57874.36,-242.64,-407.36,-0.042097,-0.12849,0.693971,92.65,1
3194,0,44971,57477,45203.18,57873.56,-232.18,-396.56,-0.042087,-0.128476,0.694803,92.63,1
3204,0,44979,57496,45202.73,57872.81,-223.73,-376.81,-0.042077,-0.128463,0.69569,92.61,1
3213,0,44994,57513,45202.31,57872.09,-208.31,-359.09,-0.042067,-0.128451,0.696261,92.59,1
3225,0,45008,57527,45201.93,57871.4,-193.93,-344.4,-0.042059,-0.128439,0.69653,92.59,1
3235,0,45019,57556,45201.56,57870.77,-182.56,-314.77,-0.042051,-0.128428,0.696958,92.58,1
3245,0,45048,57583,45201.26,57870.2,-153.26,-287.2,-0.042044,-0.128418,0.696853,92.58,1
3256,0,45067,57606,45200.99,57869.67,-133.99,-263.67,-0.042038,-0.128409,0.696565,92.59,1
3266,0,45085,57627,45200.76,57869.19,-115.76,-242.19,-0.042033,-0.1284,0.696132,92.6,1
3275,0,45113,57653,45200.59,57868.76,-87.59,-215.76,-0.042029,-0.128393,0.695463,92.61,1
3283,0,45134,57670,45200.45,57868.36,-66.45,-198.36,-0.042026,-0.128386,0.694667,92.63,1
3293,0,45143,57677,45200.34,57867.98,-57.34,-190.98,-0.042024,-0.128379,0.693836,92.65,1
3304,0,45144,57680,45200.23,57867.61,-56.23,-187.61,-0.042021,-0.128373,0.69303,92.67,1
3315,0,45150,57687,45200.13,57867.25,-50.13,-180.25,-0.042019,-0.128367,0.692236,92.69,1
3324,0,45156,57687,45200.04,57866.89,-44.04,-179.89,-0.042017,-0.128361,0.691377,92.72,1
3334,0,45161,57697,45199.96,57866.55,-38.96,-169.55,-0.042015,-0.128355,0.690586,92.74,1
3345,0,45166,57703,45199.9,57866.22,-33.9,-163.22,-0.042014,-0.128349,0.689819,92.75,1
3355,0,45181,57705,45199.86,57865.9,-18.86,-160.9,-0.042013,-0.128344,0.688979,92.78,1
3365,0,45175,57704,45199.82,57865.58,-24.82,-161.58,-0.042012,-0.128338,0.688158,92.8,1
3375,0,45170,57700,45199.76,57865.25,-29.76,-165.25,-0.042011,-0.128332,0.687323,92.82,1
3386,0,45171,57702,45199.7,57864.93,-28.7,-162.93,-0.04201,-0.128327,0.686502,92.84,1
3396,0,45172,57714,45199.65,57864.62,-27.65,-150.62,-0.042008,-0.128321,0.685803,92.85,1
3406,0,45185,57708,45199.62,57864.31,-14.62,-156.31,-0.042008,-0.128316,0.684971,92.88,1
3415,0,45188,57728,45199.6,57864.04,-11.6,-136.04,-0.042007,-0.128311,0.684332,92.89,1
3427,0,45193,57732,45199.59,57863.78,-6.59,-131.78,-0.042007,-0.128307,0.683718,92.91,1
3436,0,45208,57744,45199.61,57863.54,8.39,-119.54,-0.042008,-0.128303,0.683213,92.92,1
3446,0,45204,57756,45199.62,57863.33,4.38,-107.33,-0.042008,-0.128299,0.682797,92.93,1
3455,0,45226,57777,45199.67,57863.16,26.33,-86.16,-0.042009,-0.128296,0.682613,92.93,1
3466,0,45242,57790,45199.76,57863.01,42.24,-73.01,-0.042011,-0.128294,0.682645,92.93,1
3476,0,45252,57813,45199.86,57862.91,52.14,-49.91,-0.042013,-0.128292,0.682904,92.93,1
3485,0,45274,57832,45200.01,57862.86,73.99,-30.86,-0.042016,-0.128291,0.683585,92.91,1
3496,0,45290,57847,45200.19,57862.82,89.81,-15.82,-0.04202,-0.12829,0.684643,92.88,1
3507,0,45311,57871,45200.41,57862.84,110.59,8.16,-0.042025,-0.128291,0.686272,92.84,1
3515,0,45322,57894,45200.66,57862.91,121.34,31.09,-0.042031,-0.128292,0.688215,92.79,1
3525,0,45353,57909,45200.96,57863,152.04,46,-0.042038,-0.128293,0.691261,92.72,1
3534,0,45364,57922,45201.29,57863.12,162.71,58.88,-0.042045,-0.128296,0.694725,92.63,1
3543,0,45363,57928,45201.62,57863.25,161.38,64.75,-0.042052,-0.128298,0.698116,92.55,1
3553,0,45365,57915,45201.95,57863.36,163.05,51.64,-0.042059,-0.1283,0.701659,92.46,1
3564,0,45362,57900,45202.27,57863.43,159.73,36.57,-0.042066,-0.128301,0.705124,92.37,1
3576,0,45343,57888,45202.55,57863.48,140.45,24.52,-0.042073,-0.128302,0.707836,92.3,1
3585,0,45338,57883,45202.82,57863.52,135.18,19.48,-0.042079,-0.128302,0.71037,92.24,1
3596,0,45331,57874,45203.08,57863.55,127.92,10.45,-0.042084,-0.128303,0.712665,92.18,1
3606,0,45320,57871,45203.31,57863.56,116.69,7.44,-0.042089,-0.128303,0.714589,92.14,1
3616,0,45318,57857,45203.54,57863.55,114.46,-6.55,-0.042095,-0.128303,0.716453,92.09,1
3626,0,45311,57855,45203.76,57863.54,107.24,-8.54,-0.042099,-0.128303,0.718101,92.05,1
3636,0,45306,57851,45203.96,57863.51,102.04,-12.51,-0.042104,-0.128302,0.7196,92.01,1
3646,0,45297,57830,45204.15,57863.45,92.85,-33.45,-0.042108,-0.128301,0.720805,91.98,1
3656,0,45293,57823,45204.33,57863.37,88.67,-40.37,-0.042112,-0.1283,0.721883,91.95,1
3666,0,45281,57824,45204.49,57863.29,76.51,-39.29,-0.042116,-0.128298,0.722677,91.93,1
3677,0,45287,57830,45204.66,57863.22,82.34,-33.22,-0.042119,-0.128297,0.723637,91.91,1
3688,0,45288,57833,45204.82,57863.16,83.18,-30.16,-0.042123,-0.128296,0.724636,91.88,1
3700,0,45300,57834,45205.02,57863.11,94.98,-29.11,-0.042127,-0.128295,0.725967,91.85,1
3707,0,45299,57836,45205.2,57863.05,93.8,-27.05,-0.042131,-0.128294,0.727279,91.82,1
3718,0,45305,57842,45205.4,57863.02,99.6,-21.02,-0.042136,-0.128294,0.728791,91.78,1
3727,0,45306,57834,45205.61,57862.96,100.39,-28.96,-0.04214,-0.128293,0.730319,91.74,1
3738,0,45292,57825,45205.78,57862.89,86.22,-37.89,-0.042144,-0.128291,0.731412,91.71,1
3748,0,45289,57825,45205.95,57862.81,83.05,-37.81,-0.042148,-0.12829,0.732429,91.69,1
3758,0,45298,57846,45206.13,57862.78,91.87,-16.78,-0.042152,-0.12829,0.733763,91.66,1
3767,0,45302,57855,45206.32,57862.77,95.68,-7.77,-0.042156,-0.128289,0.735234,91.62,1
3777,0,45310,57854,45206.53,57862.75,103.47,-8.75,-0.042161,-0.128289,0.736968,91.58,1
3788,0,45323,57867,45206.77,57862.76,116.23,4.24,-0.042166,-0.128289,0.739178,91.52,1
3797,0,45330,57878,45207.01,57862.79,122.99,15.21,-0.042171,-0.12829,0.741657,91.46,1
3807,0,45343,57893,45207.29,57862.86,135.71,30.14,-0.042177,-0.128291,0.744661,91.38,1
3818,0,45334,57894,45207.54,57862.92,126.46,31.08,-0.042183,-0.128292,0.747275,91.32,1
3827,0,45341,57894,45207.81,57862.98,133.19,31.02,-0.042189,-0.128293,0.750199,91.25,1
3837,0,45340,57900,45208.07,57863.05,131.93,36.95,-0.042195,-0.128294,0.753059,91.17,1
3847,0,45352,57910,45208.36,57863.15,143.64,46.85,-0.042201,-0.128296,0.756435,91.09,1
3857,0,45360,57907,45208.67,57863.24,151.33,43.76,-0.042208,-0.128298,0.760231,90.99,1
3866,0,45355,57920,45208.96,57863.35,146.04,56.65,-0.042214,-0.1283,0.763695,90.91,1
3877,0,45363,57920,45209.27,57863.46,153.73,56.54,-0.042221,-0.128301,0.767573,90.81,1
3887,0,45367,57932,45209.59,57863.6,157.41,68.4,-0.042228,-0.128304,0.771571,90.71,1
3898,0,45375,57938,45209.92,57863.75,165.08,74.25,-0.042236,-0.128306,0.775958,90.6,1
3907,0,45387,57946,45210.27,57863.91,176.73,82.09,-0.042243,-0.128309,0.780969,90.48,1
3917,0,45398,57961,45210.65,57864.11,187.35,96.89,-0.042252,-0.128313,0.786487,90.34,1
3927,0,45409,57972,45211.05,57864.33,197.95,107.67,-0.042261,-0.128316,0.792568,90.19,1
3937,0,45425,57985,45211.48,57864.57,213.52,120.43,-0.04227,-0.128321,0.799557,90.01,1
3947,0,45425,57997,45211.91,57864.84,213.09,132.16,-0.04228,-0.128325,0.806285,89.84,1
3957,0,45435,58002,45212.36,57865.11,222.64,136.89,-0.042289,-0.12833,0.813617,89.66,1
3969,0,45450,58035,45212.83,57865.45,237.17,169.55,-0.0423,-0.128336,0.821351,89.47,1
3978,0,45487,58089,45213.38,57865.9,273.62,223.1,-0.042312,-0.128344,0.830688,89.23,1
3987,0,45499,58053,45213.96,57866.28,285.04,186.72,-0.042325,-0.12835,0.842023,88.95,1
3997,0,45484,58037,45214.5,57866.62,269.5,170.38,-0.042337,-0.128356,0.852172,88.7,1
4008,0,45456,58001,45214.98,57866.89,241.02,134.11,-0.042348,-0.128361,0.860604,88.48,1
4018,0,45439,58010,45215.43,57867.18,223.57,142.82,-0.042358,-0.128366,0.867445,88.31,1
4027,0,45468,58036,45215.94,57867.52,252.06,168.48,-0.042369,-0.128372,0.875888,88.1,1
4039,0,45473,58038,45216.46,57867.86,256.54,170.14,-0.04238,-0.128377,0.884583,87.89,1
4047,0,45472,58033,45216.97,57868.2,255.03,164.8,-0.042392,-0.128383,0.893206,87.67,1
4059,0,45477,58029,45217.49,57868.52,259.51,160.48,-0.042403,-0.128389,0.902241,87.44,1
4070,0,45467,58024,45217.99,57868.83,249.01,155.17,-0.042414,-0.128394,0.910459,87.24,1
4077,0,45477,58036,45218.51,57869.17,258.49,166.83,-0.042426,-0.1284,0.919081,87.02,1
4089,0,45484,58037,45219.04,57869.5,264.96,167.5,-0.042437,-0.128406,0.928151,86.8,1
4097,0,45482,58028,45219.57,57869.82,262.43,158.18,-0.042449,-0.128411,0.937178,86.57,1
4107,0,45477,58025,45220.08,57870.14,256.92,154.86,-0.04246,-0.128417,0.945756,86.36,1
4118,0,45471,58028,45220.59,57870.45,250.41,157.55,-0.042472,-0.128422,0.953663,86.16,1
4127,0,45484,58047,45221.11,57870.81,262.89,176.19,-0.042483,-0.128428,0.961972,85.95,1
4138,0,45496,58056,45221.66,57871.18,274.34,184.82,-0.042495,-0.128435,0.970888,85.73,1
4147,0,45501,58060,45222.22,57871.56,278.78,188.44,-0.042508,-0.128441,0.97996,85.5,1
4157,0,45520,58082,45222.82,57871.98,297.18,210.02,-0.042521,-0.128449,0.989773,85.26,1
4168,0,45523,58079,45223.42,57872.39,299.58,206.61,-0.042534,-0.128456,0.999782,85.01,1
4177,0,45516,58080,45224.01,57872.81,291.99,207.19,-0.042547,-0.128463,1.008916,84.78,1
4190,0,45515,58077,45224.59,57873.22,290.41,203.78,-0.04256,-0.12847,1.017906,84.55,1
4198,0,45508,58069,45225.16,57873.62,282.84,195.38,-0.042573,-0.128477,1.026433,84.34,1
4205,0,45500,58054,45225.71,57873.98,274.29,180.02,-0.042585,-0.128483,1.034701,84.13,1
4216,0,45490,58049,45226.24,57874.33,263.76,174.67,-0.042597,-0.128489,1.042218,83.94,1
4226,0,45484,58043,45226.75,57874.67,257.25,168.33,-0.042608,-0.128495,1.049378,83.77,1
4238,0,45479,58023,45227.26,57874.97,251.74,148.03,-0.042619,-0.1285,1.056719,83.58,1
4247,0,45452,58005,45227.71,57875.23,224.29,129.77,-0.042629,-0.128505,1.06258,83.44,1
4257,0,45444,57999,45228.14,57875.48,215.86,123.52,-0.042639,-0.128509,1.068036,83.3,1
4267,0,45438,57987,45228.56,57875.7,209.44,111.3,-0.042648,-0.128513,1.073378,83.17,1
4277,0,45423,57976,45228.95,57875.91,194.05,100.09,-0.042657,-0.128516,1.078033,83.05,1
4287,0,45415,57961,45229.33,57876.08,185.67,84.92,-0.042665,-0.128519,1.082517,82.94,1
4299,0,45402,57949,45229.68,57876.23,172.32,72.77,-0.042673,-0.128522,1.086494,82.84,1
4307,0,45398,57948,45230.01,57876.37,167.99,71.63,-0.04268,-0.128524,1.090279,82.74,1
4317,0,45399,57933,45230.35,57876.48,168.65,56.52,-0.042688,-0.128526,1.094333,82.64,1
4328,0,45378,57933,45230.65,57876.6,147.35,56.4,-0.042694,-0.128528,1.097361,82.57,1
4337,0,45380,57935,45230.95,57876.71,149.05,58.29,-0.042701,-0.12853,1.10046,82.49,1
4347,0,45383,57929,45231.25,57876.82,151.75,52.18,-0.042707,-0.128532,1.103784,82.41,1
4358,0,45381,57920,45231.55,57876.91,149.45,43.09,-0.042714,-0.128534,1.107121,82.32,1
4367,0,45378,57912,45231.85,57876.98,146.15,35.02,-0.042721,-0.128535,1.110398,82.24,1
4376,0,45366,57913,45232.12,57877.05,133.88,35.95,-0.042726,-0.128536,1.113135,82.17,1
4387,0,45367,57900,45232.39,57877.1,134.61,22.9,-0.042732,-0.128537,1.116017,82.1,1
4397,0,45359,57896,45232.64,57877.14,126.36,18.86,-0.042738,-0.128538,1.118588,82.04,1
4407,0,45351,57881,45232.88,57877.14,118.12,3.86,-0.042743,-0.128538,1.120889,81.98,1
4416,0,45339,57872,45233.09,57877.14,105.91,-5.14,-0.042748,-0.128538,1.122752,81.93,1
4427,0,45334,57879,45233.3,57877.14,100.7,1.86,-0.042753,-0.128538,1.124452,81.89,1
4436,0,45342,57879,45233.52,57877.14,108.48,1.86,-0.042757,-0.128538,1.126443,81.84,1
4446,0,45341,57890,45233.73,57877.17,107.27,12.83,-0.042762,-0.128538,1.128385,81.79,1
4459,0,45361,57926,45233.98,57877.27,127.02,48.73,-0.042768,-0.12854,1.130843,81.73,1
4469,0,45414,58006,45234.34,57877.53,179.66,128.47,-0.042776,-0.128544,1.134192,81.65,1
4478,0,45505,58126,45234.89,57878.03,270.11,247.97,-0.042788,-0.128553,1.138417,81.54,1
4489,0,45626,58238,45235.67,57878.75,390.33,359.25,-0.042805,-0.128566,1.146801,81.33,1
4498,0,45729,58314,45236.66,57879.62,492.34,434.38,-0.042827,-0.128581,1.16133,80.97,1
4508,0,45803,58373,45237.79,57880.61,565.21,492.39,-0.042852,-0.128598,1.179407,80.51,1
4519,0,45874,58382,45239.07,57881.61,634.93,500.39,-0.04288,-0.128615,1.206421,79.84,1
4528,0,45913,58406,45240.41,57882.66,672.59,523.34,-0.04291,-0.128633,1.2341,79.15,1
4538,0,45954,58420,45241.84,57883.74,712.16,536.26,-0.042942,-0.128652,1.263734,78.41,1
4548,0,45975,58435,45243.31,57884.84,731.69,550.16,-0.042974,-0.128671,1.29145,77.71,1
4559,0,45996,58450,45244.82,57885.98,751.18,564.02,-0.043007,-0.12869,1.317371,77.07,1
4570,0,46007,58461,45246.35,57887.13,760.65,573.87,-0.043041,-0.12871,1.340592,76.49,1
4578,0,46020,58469,45247.89,57888.29,772.11,580.71,-0.043075,-0.12873,1.362095,75.95,1
4588,0,46048,58496,45249.5,57889.51,798.5,606.49,-0.043111,-0.128751,1.381838,75.45,1
4599,0,46065,58505,45251.13,57890.75,813.87,614.25,-0.043147,-0.128773,1.400567,74.99,1
4609,0,46085,58515,45252.8,57892,832.2,623,-0.043184,-0.128794,1.418653,74.53,1
4617,0,46080,58511,45254.45,57893.23,825.55,617.77,-0.04322,-0.128816,1.434652,74.13,1
4627,0,46079,58490,45256.1,57894.43,822.9,595.57,-0.043257,-0.128836,1.451264,73.72,1
4638,0,46056,58466,45257.7,57895.57,798.3,570.43,-0.043292,-0.128856,1.466329,73.34,1
4648,0,46030,58444,45259.25,57896.67,770.75,547.33,-0.043326,-0.128875,1.479655,73.01,1
4657,0,46001,58426,45260.73,57897.73,740.27,528.27,-0.043359,-0.128893,1.4909,72.73,1
4668,0,45980,58400,45262.18,57898.74,717.82,501.26,-0.043391,-0.128911,1.501808,72.45,1
4678,0,45964,58389,45263.58,57899.72,700.42,489.28,-0.043422,-0.128928,1.511634,72.21,1
4689,0,45942,58371,45264.94,57900.66,677.06,470.34,-0.043452,-0.128944,1.520588,71.99,1
4698,0,45928,58362,45266.27,57901.59,661.73,460.41,-0.043481,-0.12896,1.528715,71.78,1
4709,0,45911,58353,45267.56,57902.5,643.44,450.5,-0.04351,-0.128976,1.535882,71.6,1
4717,0,45896,58344,45268.82,57903.38,627.18,440.62,-0.043537,-0.128991,1.542329,71.44,1
4727,0,45888,58343,45270.05,57904.26,617.95,438.74,-0.043565,-0.129006,1.54804,71.3,1
4740,0,45891,58342,45271.3,57905.14,619.7,436.86,-0.043592,-0.129021,1.553809,71.15,1
4749,0,45891,58333,45272.54,57905.99,618.46,427.01,-0.04362,-0.129036,1.559992,71,1
4761,0,45891,58342,45273.78,57906.87,617.22,435.13,-0.043647,-0.129051,1.565332,70.87,1
4767,0,45891,58336,45275.01,57907.73,615.99,428.27,-0.043674,-0.129066,1.570894,70.73,1
4782,0,45899,58342,45276.26,57908.6,622.74,433.4,-0.043702,-0.129081,1.576371,70.59,1
4785,0,45888,58339,45277.49,57909.46,610.51,429.54,-0.043729,-0.129096,1.581159,70.47,1
4795,0,45895,58338,45278.72,57910.32,616.28,427.68,-0.043756,-0.129111,1.586293,70.34,1
4806,0,45882,58316,45279.93,57911.13,602.07,404.87,-0.043783,-0.129125,1.59189,70.2,1
4816,0,45873,58304,45281.12,57911.92,591.88,392.08,-0.043809,-0.129139,1.597531,70.06,1
4827,0,45857,58308,45282.27,57912.71,574.73,395.29,-0.043835,-0.129152,1.601842,69.95,1
4840,0,45847,58290,45283.4,57913.47,563.6,376.53,-0.04386,-0.129165,1.606557,69.84,1
4849,0,45832,58277,45284.5,57914.2,547.5,362.8,-0.043884,-0.129178,1.611088,69.72,1
4858,0,45826,58269,45285.58,57914.91,540.42,354.09,-0.043908,-0.12919,1.615647,69.61,1
4866,0,45815,58253,45286.64,57915.59,528.36,337.41,-0.043931,-0.129202,1.620402,69.49,1
4876,0,45783,58214,45287.63,57916.19,495.37,297.81,-0.043953,-0.129212,1.62542,69.36,1
4890,0,45723,58152,45288.5,57916.66,434.5,235.34,-0.043972,-0.12922,1.630266,69.24,1
4897,0,45668,58114,45289.27,57917.05,378.73,196.95,-0.043989,-0.129227,1.634201,69.14,1
4906,0,45642,58067,45289.97,57917.36,352.03,149.64,-0.044005,-0.129232,1.6385,69.04,1
4915,0,45583,58004,45290.56,57917.53,292.44,86.47,-0.044018,-0.129235,1.642129,68.95,1
4925,0,45516,57942,45291.01,57917.58,224.99,24.42,-0.044028,-0.129236,1.644603,68.88,1
4935,0,45451,57905,45291.33,57917.56,159.67,-12.56,-0.044035,-0.129236,1.645868,68.85,1
4945,0,45415,57886,45291.58,57917.5,123.42,-31.5,-0.04404,-0.129235,1.646551,68.84,1
4955,0,45401,57876,45291.8,57917.41,109.2,-41.41,-0.044045,-0.129233,1.647009,68.82,1
4967,0,45388,57867,45292,57917.32,96,-50.32,-0.044049,-0.129232,1.64726,68.82,1
4976,0,45390,57866,45292.19,57917.21,97.81,-51.21,-0.044054,-0.12923,1.647524,68.81,1
4985,0,45389,57871,45292.39,57917.12,96.61,-46.13,-0.044058,-0.129228,1.647822,68.8,1
4997,0,45389,57884,45292.58,57917.06,96.42,-33.06,-0.044062,-0.129227,1.648214,68.79,1
5009,0,45397,57891,45292.79,57917.01,104.21,-26.01,-0.044067,-0.129226,1.648732,68.78,1
5018,0,45412,57897,45293.03,57916.97,118.97,-19.97,-0.044072,-0.129226,1.649459,68.76,1
5029,0,45421,57892,45293.29,57916.92,127.71,-24.92,-0.044078,-0.129225,1.650291,68.74,1
5039,0,45415,57898,45293.54,57916.89,121.46,-18.89,-0.044083,-0.129224,1.65107,68.72,1
5048,0,45421,57907,45293.79,57916.87,127.21,-9.87,-0.044089,-0.129224,1.65196,68.7,1
5058,0,45430,57909,45294.07,57916.85,135.93,-7.85,-0.044095,-0.129224,1.652993,68.68,1
5070,0,45437,57900,45294.35,57916.82,142.65,-16.82,-0.044101,-0.129223,1.65412,68.65,1
5078,0,45435,57905,45294.63,57916.8,140.37,-11.8,-0.044108,-0.129223,1.655235,68.62,1
5089,0,45431,57897,45294.91,57916.76,136.09,-19.76,-0.044114,-0.129222,1.656267,68.59,1
5098,0,45429,57891,45295.18,57916.71,133.82,-25.71,-0.04412,-0.129221,1.657245,68.57,1
5109,0,45425,57885,45295.44,57916.64,129.56,-31.64,-0.044125,-0.12922,1.658132,68.55,1
5118,0,45428,57910,45295.7,57916.63,132.3,-6.63,-0.044131,-0.12922,1.659168,68.52,1
5126,0,45433,57914,45295.98,57916.63,137.02,-2.63,-0.044137,-0.12922,1.660295,68.49,1
5136,0,45447,57916,45296.29,57916.63,150.71,-0.63,-0.044144,-0.12922,1.661673,68.46,1
5146,0,45452,57927,45296.6,57916.65,155.4,10.35,-0.044151,-0.12922,1.663142,68.42,1
5155,0,45457,57931,45296.92,57916.68,160.08,14.32,-0.044158,-0.129221,1.664705,68.38,1
5166,0,45469,57944,45297.26,57916.74,171.74,27.26,-0.044166,-0.129222,1.666469,68.34,1
5176,0,45484,57944,45297.64,57916.79,186.36,27.21,-0.044174,-0.129223,1.668579,68.29,1
5189,0,45491,57953,45298.02,57916.87,192.98,36.13,-0.044183,-0.129224,1.670806,68.23,1
5201,0,45492,57949,45298.41,57916.93,193.59,32.07,-0.044191,-0.129225,1.673098,68.17,1
5208,0,45496,57959,45298.81,57917.02,197.19,41.98,-0.0442,-0.129227,1.675419,68.11,1
5219,0,45492,57955,45299.2,57917.1,192.8,37.9,-0.044208,-0.129228,1.677683,68.06,1
5229,0,45489,57959,45299.57,57917.18,189.43,41.82,-0.044217,-0.129229,1.679846,68,1
5240,0,45496,57959,45299.97,57917.27,196.03,41.73,-0.044225,-0.129231,1.682197,67.95,1
5249,0,45487,57933,45300.34,57917.3,186.66,15.7,-0.044234,-0.129231,1.6845,67.89,1
5259,0,45470,57918,45300.68,57917.3,169.32,0.7,-0.044241,-0.129231,1.686434,67.84,1
5270,0,45464,57903,45301.01,57917.28,162.99,-14.28,-0.044249,-0.129231,1.688216,67.79,1
5279,0,45448,57896,45301.31,57917.23,146.69,-21.23,-0.044255,-0.12923,1.689637,67.76,1
5290,0,45435,57879,45301.58,57917.16,133.42,-38.16,-0.044261,-0.129229,1.690689,67.73,1
5300,0,45424,57875,45301.82,57917.08,122.18,-42.08,-0.044266,-0.129228,1.69151,67.71,1
5309,0,45424,57868,45302.07,57916.98,121.93,-48.98,-0.044272,-0.129226,1.692256,67.69,1
5320,0,45423,57875,45302.31,57916.9,120.69,-41.9,-0.044277,-0.129224,1.693068,67.67,1
5330,0,45419,57872,45302.55,57916.81,116.45,-44.81,-0.044282,-0.129223,1.693783,67.66,1
5339,0,45423,57878,45302.79,57916.73,120.21,-38.73,-0.044288,-0.129222,1.694636,67.63,1
5349,0,45425,57880,45303.04,57916.66,121.96,-36.66,-0.044293,-0.12922,1.695547,67.61,1
5359,0,45421,57878,45303.27,57916.59,117.73,-38.59,-0.044298,-0.129219,1.696373,67.59,1
5369,0,45428,57888,45303.52,57916.54,124.48,-28.54,-0.044304,-0.129218,1.697418,67.56,1
5377,0,45431,57897,45303.78,57916.5,127.22,-19.5,-0.04431,-0.129218,1.698584,67.54,1
5386,0,45448,57911,45304.07,57916.49,143.93,-5.49,-0.044316,-0.129217,1.700154,67.5,1
5397,0,45463,57931,45304.39,57916.52,158.61,14.48,-0.044323,-0.129218,1.702058,67.45,1
5408,0,45477,57954,45304.74,57916.6,172.26,37.4,-0.044331,-0.129219,1.704165,67.4,1
5417,0,45486,57952,45305.1,57916.67,180.9,35.33,-0.044339,-0.129221,1.706551,67.34,1
5427,0,45500,57946,45305.49,57916.73,194.51,29.27,-0.044347,-0.129222,1.709414,67.26,1
5437,0,45497,57944,45305.87,57916.79,191.12,27.21,-0.044356,-0.129222,1.712213,67.19,1
5449,0,45503,57945,45306.27,57916.84,196.73,28.16,-0.044365,-0.129224,1.715203,67.12,1
5460,0,45497,57938,45306.65,57916.89,190.35,21.11,-0.044373,-0.129224,1.718067,67.05,1
5469,0,45488,57923,45307.02,57916.9,180.98,6.1,-0.044381,-0.129225,1.72073,66.98,1
5479,0,45478,57911,45307.36,57916.89,170.64,-5.89,-0.044389,-0.129224,1.723117,66.92,1
5490,0,45459,57895,45307.66,57916.85,151.34,-21.85,-0.044395,-0.129224,1.72494,66.88,1
5499,0,45436,57878,45307.92,57916.77,128.08,-38.77,-0.044401,-0.129222,1.726077,66.85,1
5510,0,45415,57839,45308.14,57916.62,106.86,-77.62,-0.044406,-0.12922,1.726101,66.85,1
5519,0,45381,57806,45308.29,57916.4,72.71,-110.4,-0.044409,-0.129216,1.724641,66.88,1
5529,0,45343,57781,45308.36,57916.13,34.64,-135.13,-0.044411,-0.129211,1.721869,66.95,1
5541,0,45309,57754,45308.36,57915.8,0.64,-161.8,-0.044411,-0.129206,1.717735,67.06,1
5549,0,45279,57714,45308.3,57915.4,-29.3,-201.4,-0.044409,-0.129199,1.711406,67.21,1
5561,0,45237,57664,45308.16,57914.9,-71.16,-250.9,-0.044406,-0.12919,1.701959,67.45,1
5570,0,45200,57617,45307.95,57914.31,-107.95,-297.31,-0.044402,-0.12918,1.689244,67.77,1
5579,0,45152,57569,45307.63,57913.62,-155.63,-344.62,-0.044395,-0.129168,1.673237,68.17,1
5587,0,45119,57530,45307.26,57912.86,-188.26,-382.86,-0.044386,-0.129155,1.654499,68.64,1
5597,0,45080,57512,45306.8,57912.05,-226.8,-400.05,-0.044376,-0.129141,1.635806,69.1,1
5607,0,45072,57498,45306.34,57911.23,-234.34,-413.23,-0.044366,-0.129127,1.616572,69.59,1
5616,0,45063,57500,45305.85,57910.41,-242.85,-410.41,-0.044355,-0.129112,1.598689,70.03,1
5626,0,45058,57498,45305.36,57909.58,-247.36,-411.58,-0.044344,-0.129098,1.581494,70.46,1
5636,0,45061,57497,45304.87,57908.76,-243.87,-411.76,-0.044334,-0.129084,1.56473,70.88,1
5647,0,45077,57510,45304.41,57907.96,-227.41,-397.96,-0.044324,-0.12907,1.549256,71.27,1
5657,0,45078,57514,45303.96,57907.18,-225.96,-393.18,-0.044314,-0.129057,1.53465,71.63,1
5668,0,45089,57539,45303.53,57906.44,-214.53,-367.44,-0.044304,-0.129044,1.522348,71.94,1
5679,0,45113,57562,45303.15,57905.75,-190.15,-343.75,-0.044296,-0.129032,1.511472,72.21,1
5689,0,45138,57585,45302.82,57905.11,-164.82,-320.11,-0.044289,-0.129021,1.501854,72.45,1
5699,0,45158,57608,45302.54,57904.52,-144.54,-296.52,-0.044282,-0.129011,1.493508,72.66,1
5710,0,45177,57619,45302.29,57903.95,-125.29,-284.95,-0.044277,-0.129001,1.485579,72.86,1
5719,0,45186,57620,45302.05,57903.38,-116.05,-283.38,-0.044272,-0.128991,1.477638,73.06,1
5729,0,45187,57622,45301.82,57902.82,-114.82,-280.82,-0.044266,-0.128981,1.469905,73.25,1
5740,0,45187,57625,45301.6,57902.27,-114.6,-277.27,-0.044261,-0.128972,1.462453,73.44,1
5749,0,45192,57612,45301.38,57901.69,-109.38,-289.69,-0.044257,-0.128962,1.454191,73.65,1
5759,0,45181,57598,45301.14,57901.08,-120.14,-303.08,-0.044251,-0.128951,1.445357,73.87,1
5769,0,45169,57596,45300.88,57900.47,-131.88,-304.47,-0.044246,-0.128941,1.436786,74.08,1
5779,0,45158,57590,45300.59,57899.85,-142.59,-309.85,-0.044239,-0.12893,1.428216,74.29,1
5789,0,45145,57579,45300.29,57899.21,-155.29,-320.21,-0.044232,-0.128919,1.41939,74.52,1
5799,0,45133,57571,45299.95,57898.55,-166.95,-327.55,-0.044225,-0.128908,1.410516,74.74,1
5810,0,45136,57574,45299.62,57897.91,-163.62,-323.91,-0.044218,-0.128897,1.401928,74.95,1
5819,0,45141,57571,45299.31,57897.25,-158.31,-326.25,-0.044211,-0.128885,1.393164,75.17,1
5830,0,45150,57580,45299.01,57896.62,-149.01,-316.62,-0.044204,-0.128874,1.384906,75.38,1
5841,0,45152,57578,45298.72,57895.98,-146.72,-317.98,-0.044198,-0.128863,1.376613,75.58,1
5850,0,45152,57589,45298.43,57895.37,-146.43,-306.37,-0.044191,-0.128853,1.369134,75.77,1
5860,0,45165,57602,45298.16,57894.79,-133.16,-292.79,-0.044186,-0.128843,1.362216,75.94,1
5869,0,45175,57600,45297.91,57894.2,-122.91,-294.2,-0.04418,-0.128832,1.355058,76.12,1
5878,0,45178,57603,45297.68,57893.61,-119.68,-290.61,-0.044175,-0.128822,1.348102,76.3,1
5891,0,45182,57608,45297.45,57893.04,-115.45,-285.04,-0.04417,-0.128812,1.341428,76.46,1
5898,0,45180,57612,45297.21,57892.48,-117.21,-280.48,-0.044165,-0.128803,1.33509,76.62,1
5908,0,45187,57626,45296.99,57891.95,-109.99,-265.95,-0.04416,-0.128794,1.329409,76.76,1
5920,0,45193,57616,45296.79,57891.4,-103.79,-275.4,-0.044155,-0.128784,1.323162,76.92,1
5929,0,45187,57605,45296.57,57890.83,-109.57,-285.83,-0.04415,-0.128774,1.316519,77.09,1
5940,0,45181,57599,45296.34,57890.25,-115.34,-291.25,-0.044145,-0.128764,1.309756,77.26,1
5949,0,45175,57590,45296.09,57889.65,-121.09,-299.65,-0.04414,-0.128754,1.302717,77.43,1
5960,0,45170,57588,45295.84,57889.05,-125.84,-301.05,-0.044134,-0.128744,1.295775,77.61,1
5970,0,45161,57580,45295.57,57888.43,-134.57,-308.43,-0.044129,-0.128733,1.288701,77.78,1
5979,0,45156,57568,45295.3,57887.79,-139.3,-319.79,-0.044122,-0.128722,1.281181,77.97,1
5989,0,45148,57570,45295,57887.16,-147,-317.16,-0.044116,-0.128711,1.274104,78.15,1
5999,0,45148,57573,45294.71,57886.53,-146.71,-313.53,-0.044109,-0.1287,1.267308,78.32,1
6009,0,45147,57579,45294.42,57885.92,-147.42,-306.92,-0.044103,-0.128689,1.26097,78.48,1
6020,0,45159,57585,45294.15,57885.32,-135.15,-300.32,-0.044097,-0.128679,1.254738,78.63,1
6030,0,45168,57600,45293.9,57884.75,-125.9,-284.75,-0.044091,-0.128669,1.249133,78.77,1
6040,0,45176,57609,45293.66,57884.2,-117.66,-275.2,-0.044086,-0.12866,1.24385,78.9,1
6051,0,45189,57617,45293.46,57883.66,-104.46,-266.66,-0.044082,-0.12865,1.238729,79.03,1
6059,0,45189,57625,45293.25,57883.15,-104.25,-258.15,-0.044077,-0.128642,1.234013,79.15,1
6070,0,45194,57622,45293.05,57882.63,-99.05,-260.63,-0.044073,-0.128633,1.229112,79.27,1
6078,0,45195,57629,45292.86,57882.12,-97.86,-253.12,-0.044068,-0.128624,1.224539,79.39,1
6088,0,45198,57630,45292.67,57881.62,-94.67,-251.62,-0.044064,-0.128615,1.219992,79.5,1
6099,0,45192,57626,45292.47,57881.11,-100.47,-255.11,-0.04406,-0.128606,1.215418,79.61,1
6110,0,45199,57627,45292.28,57880.61,-93.28,-253.61,-0.044056,-0.128598,1.210798,79.73,1
6118,0,45196,57622,45292.09,57880.09,-96.09,-258.09,-0.044052,-0.128589,1.206055,79.85,1
6127,0,45193,57612,45291.89,57879.55,-98.89,-267.55,-0.044047,-0.128579,1.20097,79.98,1
6138,0,45186,57615,45291.68,57879.03,-105.68,-264.03,-0.044043,-0.12857,1.196202,80.09,1
6148,0,45180,57612,45291.46,57878.5,-111.46,-266.5,-0.044038,-0.128561,1.191471,80.21,1
6159,0,45184,57613,45291.25,57877.96,-107.25,-264.96,-0.044033,-0.128552,1.186745,80.33,1
6169,0,45182,57619,45291.03,57877.45,-109.03,-258.45,-0.044028,-0.128543,1.182364,80.44,1
6179,0,45181,57620,45290.81,57876.94,-109.81,-256.94,-0.044023,-0.128534,1.178084,80.55,1
6192,0,45185,57632,45290.6,57876.45,-105.6,-244.45,-0.044019,-0.128526,1.174249,80.64,1
6200,0,45202,57647,45290.42,57875.99,-88.42,-228.99,-0.044015,-0.128518,1.170699,80.73,1
6210,0,45218,57653,45290.28,57875.55,-72.28,-222.55,-0.044011,-0.12851,1.167139,80.82,1
6219,0,45216,57663,45290.13,57875.12,-74.13,-212.12,-0.044008,-0.128503,1.16398,80.9,1
6228,0,45235,57684,45290.02,57874.75,-55.02,-190.75,-0.044006,-0.128496,1.161281,80.97,1
6240,0,45249,57697,45289.94,57874.39,-40.94,-177.39,-0.044004,-0.12849,1.158845,81.03,1
6250,0,45265,57720,45289.89,57874.08,-24.89,-154.08,-0.044003,-0.128485,1.156934,81.08,1
6260,0,45284,57738,45289.88,57873.81,-5.88,-135.81,-0.044003,-0.12848,1.155395,81.12,1
6269,0,45296,57745,45289.89,57873.55,6.11,-128.55,-0.044003,-0.128476,1.154006,81.15,1
6280,0,45301,57751,45289.91,57873.31,11.09,-122.31,-0.044003,-0.128472,1.15275,81.18,1
6290,0,45305,57750,45289.95,57873.07,15.05,-123.07,-0.044004,-0.128467,1.15148,81.21,1
6300,0,45310,57758,45289.99,57872.84,20.01,-114.84,-0.044005,-0.128463,1.150388,81.24,1
6310,0,45313,57747,45290.04,57872.59,22.96,-125.59,-0.044006,-0.128459,1.149078,81.27,1
6320,0,45300,57766,45290.05,57872.37,9.95,-106.37,-0.044007,-0.128455,1.148102,81.3,1
6330,0,45314,57752,45290.11,57872.14,23.89,-120.14,-0.044008,-0.128451,1.146896,81.33,1
6340,0,45303,57739,45290.13,57871.87,12.87,-132.87,-0.044008,-0.128447,1.145354,81.37,1
6350,0,45297,57742,45290.15,57871.61,6.85,-129.61,-0.044009,-0.128442,1.143866,81.4,1
6360,0,45292,57743,45290.15,57871.36,1.85,-128.36,-0.044009,-0.128438,1.142394,81.44,1
6370,0,45292,57739,45290.16,57871.1,1.84,-132.1,-0.044009,-0.128433,1.140825,81.48,1
6381,0,45289,57742,45290.16,57870.84,-1.16,-128.84,-0.044009,-0.128429,1.139323,81.52,1
6390,0,45298,57746,45290.17,57870.59,7.83,-124.59,-0.044009,-0.128425,1.137916,81.55,1
6402,0,45294,57750,45290.18,57870.35,3.82,-120.35,-0.044009,-0.12842,1.13659,81.59,1
6411,0,45312,57770,45290.22,57870.15,21.78,-100.15,-0.04401,-0.128417,1.135718,81.61,1
6420,0,45325,57781,45290.29,57869.98,34.71,-88.98,-0.044012,-0.128414,1.13512,81.62,1
6432,0,45335,57785,45290.38,57869.81,44.62,-84.81,-0.044014,-0.128411,1.134678,81.63,1
6440,0,45343,57793,45290.49,57869.66,52.51,-76.66,-0.044016,-0.128408,1.134448,81.64,1
6449,0,45343,57794,45290.59,57869.51,52.41,-75.51,-0.044019,-0.128406,1.134232,81.64,1
6460,0,45357,57804,45290.73,57869.38,66.27,-65.38,-0.044021,-0.128404,1.134351,81.64,1
6469,0,45356,57799,45290.86,57869.24,65.14,-70.24,-0.044024,-0.128401,1.134388,81.64,1
6478,0,45360,57793,45291,57869.09,69,-76.09,-0.044027,-0.128399,1.134406,81.64,1
6488,0,45348,57785,45291.11,57868.92,56.89,-83.92,-0.04403,-0.128396,1.134111,81.65,1
6499,0,45350,57784,45291.23,57868.75,58.77,-84.75,-0.044033,-0.128393,1.133826,81.65,1
6510,0,45354,57782,45291.36,57868.58,62.64,-86.58,-0.044035,-0.12839,1.133567,81.66,1
6520,0,45356,57781,45291.48,57868.41,64.52,-87.41,-0.044038,-0.128387,1.133323,81.67,1
6529,0,45353,57796,45291.61,57868.26,61.39,-72.26,-0.044041,-0.128384,1.133273,81.67,1
6540,0,45366,57804,45291.76,57868.13,74.24,-64.13,-0.044044,-0.128382,1.133565,81.66,1
6550,0,45371,57808,45291.92,57868.02,79.08,-60.02,-0.044048,-0.12838,1.13401,81.65,1
6561,0,45383,57821,45292.1,57867.92,90.9,-46.92,-0.044052,-0.128379,1.134874,81.63,1
6570,0,45391,57832,45292.3,57867.85,98.7,-35.85,-0.044056,-0.128377,1.136042,81.6,1
6580,0,45398,57843,45292.51,57867.8,105.49,-24.8,-0.044061,-0.128377,1.13748,81.56,1
6591,0,45408,57842,45292.74,57867.75,115.26,-25.75,-0.044066,-0.128376,1.139219,81.52,1
6600,0,45409,57846,45292.98,57867.71,116.02,-21.71,-0.044071,-0.128375,1.141018,81.47,1
6610,0,45416,57850,45293.22,57867.68,122.78,-17.68,-0.044077,-0.128374,1.143075,81.42,1
6620,0,45414,57861,45293.46,57867.66,120.54,-6.66,-0.044082,-0.128374,1.145102,81.37,1
6630,0,45431,57855,45293.74,57867.64,137.26,-12.64,-0.044088,-0.128374,1.147741,81.31,1
6641,0,45427,57861,45294.01,57867.63,132.99,-6.63,-0.044094,-0.128373,1.15025,81.24,1
6650,0,45433,57871,45294.29,57867.64,138.71,3.36,-0.0441,-0.128374,1.153006,81.17,1
6662,0,45450,57879,45294.6,57867.66,155.4,11.34,-0.044107,-0.128374,1.156478,81.09,1
6672,0,45457,57895,45294.93,57867.71,162.07,27.29,-0.044114,-0.128375,1.160208,80.99,1
6680,0,45472,57900,45295.28,57867.78,176.72,32.22,-0.044122,-0.128376,1.164654,80.88,1
6690,0,45468,57899,45295.63,57867.84,172.37,31.16,-0.04413,-0.128377,1.16891,80.78,1
6701,0,45469,57887,45295.98,57867.88,173.02,19.12,-0.044137,-0.128378,1.1733,80.67,1
6710,0,45471,57919,45296.33,57867.99,174.67,51.01,-0.044145,-0.12838,1.17752,80.56,1
6720,0,45493,57930,45296.72,57868.11,196.28,61.89,-0.044154,-0.128382,1.182806,80.43,1
6730,0,45500,57927,45297.13,57868.23,202.87,58.77,-0.044163,-0.128384,1.188557,80.29,1
6740,0,45508,57944,45297.55,57868.39,210.45,75.61,-0.044172,-0.128386,1.194503,80.14,1
6751,0,45522,57969,45298,57868.59,224,100.41,-0.044182,-0.12839,1.200772,79.98,1
6760,0,45534,57979,45298.47,57868.81,235.53,110.19,-0.044193,-0.128394,1.207567,79.81,1
6770,0,45536,57984,45298.95,57869.04,237.05,114.96,-0.044203,-0.128398,1.214317,79.64,1
6781,0,45560,58014,45299.47,57869.34,260.53,144.66,-0.044215,-0.128403,1.221761,79.46,1
6790,0,45579,57998,45300.03,57869.59,278.97,128.41,-0.044227,-0.128407,1.231292,79.22,1
6800,0,45560,57990,45300.55,57869.84,259.45,120.16,-0.044238,-0.128412,1.239475,79.01,1
6811,0,45551,57966,45301.05,57870.03,249.95,95.97,-0.044249,-0.128415,1.247654,78.81,1
6822,0,45533,57957,45301.52,57870.21,231.48,86.79,-0.04426,-0.128418,1.254721,78.63,1
6831,0,45518,57946,45301.95,57870.36,216.05,75.64,-0.044269,-0.128421,1.261011,78.47,1
6841,0,45506,57922,45302.36,57870.46,203.64,51.54,-0.044278,-0.128422,1.266979,78.33,1
6851,0,45492,57913,45302.74,57870.55,189.26,42.45,-0.044287,-0.128424,1.272231,78.19,1
6862,0,45483,57893,45303.11,57870.6,179.89,22.4,-0.044295,-0.128425,1.277175,78.07,1
6871,0,45458,57875,45303.42,57870.61,154.58,4.39,-0.044302,-0.128425,1.280903,77.98,1
6881,0,45442,57853,45303.7,57870.57,138.3,-17.57,-0.044308,-0.128424,1.28386,77.9,1
6892,0,45436,57828,45303.96,57870.49,132.04,-42.49,-0.044314,-0.128423,1.28633,77.84,1
6901,0,45399,57794,45304.15,57870.34,94.85,-76.34,-0.044318,-0.12842,1.286815,77.83,1
6911,0,45365,57759,45304.27,57870.12,60.73,-111.12,-0.04432,-0.128416,1.285382,77.87,1
6922,0,45340,57722,45304.35,57869.82,35.65,-147.82,-0.044322,-0.128411,1.28199,77.95,1
6931,0,45300,57675,45304.34,57869.44,-4.34,-194.44,-0.044322,-0.128405,1.275784,78.11,1
6942,0,45253,57636,45304.24,57868.97,-51.24,-232.97,-0.04432,-0.128397,1.267371,78.32,1
6951,0,45217,57597,45304.07,57868.43,-87.07,-271.43,-0.044316,-0.128387,1.25678,78.58,1
6962,0,45181,57558,45303.82,57867.81,-122.82,-309.81,-0.044311,-0.128377,1.244152,78.9,1
6973,0,45149,57512,45303.51,57867.1,-154.51,-355.1,-0.044304,-0.128364,1.228769,79.28,1
6980,0,45116,57485,45303.14,57866.34,-187.14,-381.34,-0.044295,-0.128351,1.212975,79.68,1
6991,0,45081,57447,45302.7,57865.5,-221.7,-418.5,-0.044286,-0.128337,1.196016,80.1,1
7000,0,45053,57421,45302.2,57864.61,-249.2,-443.61,-0.044275,-0.128321,1.17915,80.52,1
7009,0,45019,57386,45301.63,57863.66,-282.63,-477.66,-0.044262,-0.128305,1.162098,80.95,1
7022,0,44996,57359,45301.02,57862.65,-305.02,-503.65,-0.044249,-0.128287,1.145183,81.37,1
7030,0,44974,57333,45300.37,57861.59,-326.37,-528.59,-0.044234,-0.128269,1.128631,81.78,1
7041,0,44957,57317,45299.68,57860.5,-342.68,-543.5,-0.044219,-0.12825,1.113268,82.17,1
7050,0,44942,57299,45298.96,57859.38,-356.96,-560.38,-0.044203,-0.128231,1.098691,82.53,1
7059,0,44934,57289,45298.23,57858.24,-364.23,-569.24,-0.044187,-0.128211,1.08511,82.87,1
7069,0,44915,57286,45297.47,57857.1,-382.47,-571.1,-0.04417,-0.128191,1.074176,83.15,1
7078,0,44913,57284,45296.7,57855.95,-383.7,-571.95,-0.044153,-0.128172,1.064182,83.4,1
7088,0,44918,57288,45295.94,57854.82,-377.94,-566.82,-0.044137,-0.128152,1.05494,83.63,1
7098,0,44911,57283,45295.17,57853.68,-384.17,-570.68,-0.04412,-0.128132,1.046596,83.84,1
7109,0,44913,57295,45294.41,57852.56,-381.41,-557.56,-0.044103,-0.128113,1.039707,84.01,1
7119,0,44917,57289,45293.66,57851.44,-376.66,-562.44,-0.044086,-0.128094,1.032523,84.19,1
7129,0,44908,57283,45292.89,57850.3,-384.89,-567.3,-0.044069,-0.128074,1.0261,84.35,1
7139,0,44906,57276,45292.11,57849.15,-386.11,-573.15,-0.044052,-0.128054,1.019766,84.51,1
7148,0,44898,57269,45291.33,57847.99,-393.33,-578.99,-0.044035,-0.128034,1.013981,84.65,1
7158,0,44898,57267,45290.54,57846.83,-392.54,-579.83,-0.044017,-0.128014,1.008451,84.79,1
7168,0,44894,57263,45289.75,57845.66,-395.75,-582.66,-0.044,-0.127994,1.003315,84.92,1
7178,0,44884,57257,45288.94,57844.49,-404.94,-587.49,-0.043982,-0.127973,0.998852,85.03,1
7188,0,44881,57247,45288.12,57843.29,-407.12,-596.29,-0.043964,-0.127953,0.994257,85.14,1
7198,0,44878,57259,45287.3,57842.12,-409.3,-583.12,-0.043946,-0.127933,0.99091,85.23,1
7208,0,44885,57270,45286.5,57840.98,-401.5,-570.98,-0.043928,-0.127913,0.987929,85.3,1
7219,0,44891,57275,45285.71,57839.85,-394.71,-564.85,-0.043911,-0.127893,0.985001,85.37,1
7228,0,44896,57275,45284.93,57838.72,-388.93,-563.72,-0.043894,-0.127874,0.981911,85.45,1
7238,0,44898,57273,45284.16,57837.59,-386.16,-564.59,-0.043876,-0.127854,0.978752,85.53,1
7248,0,44902,57272,45283.4,57836.46,-381.4,-564.46,-0.04386,-0.127835,0.97546,85.61,1
7258,0,44894,57272,45282.62,57835.34,-388.62,-563.34,-0.043842,-0.127815,0.972811,85.68,1
7268,0,44893,57263,45281.84,57834.19,-388.84,-571.19,-0.043825,-0.127795,0.969901,85.75,1
7278,0,44882,57253,45281.05,57833.03,-399.05,-580.03,-0.043808,-0.127775,0.96729,85.82,1
7288,0,44879,57241,45280.24,57831.85,-401.24,-590.85,-0.04379,-0.127755,0.964396,85.89,1
7298,0,44875,57236,45279.43,57830.66,-404.43,-594.66,-0.043772,-0.127734,0.96164,85.96,1
7308,0,44867,57221,45278.61,57829.44,-411.61,-608.44,-0.043754,-0.127713,0.958763,86.03,1
7318,0,44856,57216,45277.77,57828.21,-421.77,-612.21,-0.043735,-0.127692,0.956436,86.09,1
7328,0,44848,57219,45276.91,57826.99,-428.91,-607.99,-0.043716,-0.127671,0.954835,86.13,1
7338,0,44854,57210,45276.06,57825.76,-422.06,-615.76,-0.043698,-0.12765,0.95256,86.19,1
7348,0,44850,57221,45275.21,57824.55,-425.21,-603.55,-0.043679,-0.127629,0.951113,86.22,1
7358,0,44853,57224,45274.37,57823.35,-421.37,-599.35,-0.04366,-0.127608,0.949701,86.26,1
7368,0,44862,57238,45273.54,57822.18,-411.54,-584.18,-0.043642,-0.127588,0.948458,86.29,1
7378,0,44871,57255,45272.74,57821.05,-401.74,-566.05,-0.043624,-0.127568,0.947486,86.31,1
7388,0,44879,57265,45271.95,57819.94,-392.95,-554.94,-0.043607,-0.127549,0.946539,86.34,1
7398,0,44891,57281,45271.19,57818.86,-380.19,-537.86,-0.04359,-0.12753,0.945647,86.36,1
7408,0,44903,57286,45270.46,57817.8,-367.46,-531.8,-0.043574,-0.127512,0.944415,86.39,1
7418,0,44909,57298,45269.73,57816.76,-360.73,-518.76,-0.043558,-0.127494,0.943375,86.42,1
7428,0,44914,57296,45269.02,57815.72,-355.02,-519.72,-0.043542,-0.127476,0.942082,86.45,1
7438,0,44909,57294,45268.3,57814.68,-359.3,-520.68,-0.043526,-0.127458,0.940975,86.48,1
7448,0,44911,57286,45267.59,57813.62,-356.59,-527.62,-0.04351,-0.12744,0.939545,86.51,1
7458,0,44905,57275,45266.87,57812.55,-361.87,-537.55,-0.043494,-0.127421,0.93804,86.55,1
7468,0,44904,57284,45266.14,57811.5,-362.14,-527.5,-0.043478,-0.127403,0.936926,86.58,1
7478,0,44905,57285,45265.42,57810.45,-360.42,-525.45,-0.043463,-0.127385,0.935837,86.6,1
7488,0,44906,57288,45264.7,57809.4,-358.7,-521.4,-0.043447,-0.127367,0.934835,86.63,1
7498,0,44911,57291,45264,57808.37,-353,-517.37,-0.043431,-0.127349,0.933753,86.66,1
7508,0,44916,57303,45263.3,57807.36,-347.3,-504.36,-0.043416,-0.127331,0.932874,86.68,1
7519,0,44922,57319,45262.62,57806.38,-340.62,-487.38,-0.043401,-0.127314,0.932263,86.69,1
7528,0,44937,57344,45261.97,57805.46,-324.97,-461.46,-0.043386,-0.127299,0.931816,86.7,1
7538,0,44949,57358,45261.35,57804.57,-312.35,-446.57,-0.043373,-0.127283,0.931329,86.72,1
7548,0,44965,57369,45260.76,57803.7,-295.76,-434.7,-0.04336,-0.127268,0.930593,86.74,1
7558,0,44974,57370,45260.18,57802.83,-286.18,-432.83,-0.043347,-0.127253,0.929601,86.76,1
7568,0,44976,57384,45259.62,57801.99,-283.62,-417.99,-0.043334,-0.127238,0.928916,86.78,1
7578,0,44974,57379,45259.05,57801.15,-285.05,-422.15,-0.043322,-0.127224,0.928181,86.8,1
7589,0,44971,57370,45258.47,57800.29,-287.47,-430.29,-0.043309,-0.127209,0.927326,86.82,1
7599,0,44964,57365,45257.89,57799.42,-293.89,-434.42,-0.043296,-0.127194,0.926587,86.84,1
7609,0,44962,57358,45257.3,57798.54,-295.3,-440.54,-0.043283,-0.127179,0.925745,86.86,1
7619,0,44960,57342,45256.7,57797.63,-296.7,-455.63,-0.04327,-0.127163,0.924565,86.89,1
7629,0,44946,57333,45256.08,57796.7,-310.08,-463.7,-0.043256,-0.127147,0.92364,86.91,1
7639,0,44937,57340,45255.45,57795.79,-318.45,-455.79,-0.043242,-0.127131,0.923234,86.92,1
7651,0,44936,57342,45254.81,57794.88,-318.81,-452.88,-0.043228,-0.127116,0.922924,86.93,1
7661,0,44940,57350,45254.18,57794,-314.18,-444,-0.043214,-0.1271,0.922688,86.93,1
7672,0,44948,57362,45253.57,57793.13,-305.57,-431.13,-0.043201,-0.127085,0.922484,86.94,1
7679,0,44963,57374,45252.99,57792.3,-289.99,-418.3,-0.043188,-0.127071,0.922084,86.95,1
7692,0,44954,57386,45252.39,57791.48,-298.39,-405.48,-0.043175,-0.127057,0.922268,86.94,1
7700,0,44975,57401,45251.84,57790.7,-276.84,-389.7,-0.043163,-0.127043,0.922125,86.95,1
7713,0,44991,57419,45251.32,57789.96,-260.32,-370.96,-0.043151,-0.12703,0.921903,86.95,1
7722,0,45006,57439,45250.83,57789.26,-244.83,-350.26,-0.04314,-0.127018,0.92168,86.96,1
7731,0,45018,57448,45250.37,57788.58,-232.37,-340.58,-0.04313,-0.127006,0.921321,86.97,1
7740,0,45022,57462,45249.91,57787.93,-227.91,-325.93,-0.04312,-0.126995,0.921133,86.97,1
7749,0,45026,57461,45249.46,57787.28,-223.46,-326.28,-0.04311,-0.126984,0.920825,86.98,1
7759,0,45026,57468,45249.02,57786.64,-223.02,-318.64,-0.0431,-0.126973,0.920653,86.98,1
7769,0,45029,57468,45248.58,57786,-219.58,-318,-0.04309,-0.126962,0.920406,86.99,1
7779,0,45033,57476,45248.15,57785.39,-215.15,-309.39,-0.043081,-0.126951,0.92021,86.99,1
7789,0,45040,57477,45247.74,57784.77,-207.74,-307.77,-0.043072,-0.126941,0.919865,87,1
7800,0,45037,57477,45247.32,57784.16,-210.32,-307.16,-0.043062,-0.12693,0.919594,87.01,1
7810,0,45037,57482,45246.9,57783.55,-209.9,-301.55,-0.043053,-0.12692,0.919415,87.01,1
7820,0,45045,57482,45246.5,57782.95,-201.5,-300.95,-0.043044,-0.126909,0.919047,87.02,1
7830,0,45039,57467,45246.08,57782.32,-207.08,-315.32,-0.043035,-0.126898,0.918546,87.04,1
7839,0,45034,57457,45245.66,57781.68,-211.66,-324.68,-0.043026,-0.126887,0.917977,87.05,1
7849,0,45021,57456,45245.21,57781.03,-224.21,-325.03,-0.043016,-0.126876,0.917724,87.06,1
7859,0,45021,57445,45244.77,57780.36,-223.77,-335.36,-0.043006,-0.126864,0.917253,87.07,1
7869,0,45011,57431,45244.3,57779.66,-233.3,-348.66,-0.042996,-0.126852,0.916764,87.08,1
7879,0,44993,57424,45243.8,57778.95,-250.8,-354.95,-0.042985,-0.12684,0.916644,87.08,1
7889,0,44988,57414,45243.29,57778.22,-255.29,-364.22,-0.042974,-0.126827,0.916456,87.09,1
7899,0,44983,57420,45242.77,57777.51,-259.77,-357.51,-0.042962,-0.126815,0.916553,87.09,1
7909,0,44989,57435,45242.26,57776.82,-253.26,-341.82,-0.042951,-0.126803,0.916786,87.08,1
7919,0,45003,57447,45241.79,57776.17,-238.79,-329.17,-0.04294,-0.126792,0.916855,87.08,1
7929,0,45007,57456,45241.32,57775.53,-234.32,-319.53,-0.04293,-0.126781,0.91699,87.08,1
7939,0,45025,57473,45240.89,57774.92,-215.89,-301.92,-0.04292,-0.12677,0.916966,87.08,1
7949,0,45032,57477,45240.47,57774.33,-208.47,-297.33,-0.042911,-0.12676,0.916838,87.08,1
7959,0,45028,57482,45240.05,57773.75,-212.05,-291.75,-0.042902,-0.12675,0.916903,87.08,1
7969,0,45042,57475,45239.65,57773.15,-197.65,-298.15,-0.042893,-0.126739,0.916493,87.09,1
7979,0,45036,57486,45239.25,57772.57,-203.25,-286.57,-0.042884,-0.126729,0.916432,87.09,1
7989,0,45036,57479,45238.84,57771.99,-202.84,-292.99,-0.042875,-0.126719,0.916244,87.09,1
7999,0,45044,57482,45238.45,57771.41,-194.45,-289.41,-0.042867,-0.126709,0.915917,87.1,1
8009,0,45043,57489,45238.06,57770.85,-195.06,-281.85,-0.042858,-0.1267,0.915743,87.11,1
8019,0,45055,57493,45237.7,57770.29,-182.7,-277.29,-0.04285,-0.12669,0.91536,87.12,1
8029,0,45052,57486,45237.33,57769.73,-185.33,-283.73,-0.042842,-0.12668,0.914922,87.13,1
8039,0,45054,57485,45236.96,57769.16,-182.96,-284.16,-0.042834,-0.12667,0.914422,87.14,1
8049,0,45050,57488,45236.59,57768.6,-186.59,-280.6,-0.042825,-0.126661,0.914071,87.15,1
8060,0,45055,57495,45236.23,57768.05,-181.23,-273.05,-0.042817,-0.126651,0.913732,87.16,1
8069,0,45064,57507,45235.88,57767.53,-171.88,-260.53,-0.04281,-0.126642,0.9134,87.17,1
8079,0,45074,57517,45235.56,57767.03,-161.56,-250.03,-0.042803,-0.126633,0.913023,87.17,1
8089,0,45091,57536,45235.27,57766.57,-144.27,-230.57,-0.042796,-0.126626,0.912612,87.18,1
8099,0,45103,57551,45235.01,57766.14,-132.01,-215.14,-0.04279,-0.126618,0.912208,87.19,1
8109,0,45119,57580,45234.78,57765.77,-115.78,-185.77,-0.042785,-0.126612,0.911932,87.2,1
8119,0,45146,57601,45234.6,57765.44,-88.6,-164.44,-0.042781,-0.126606,0.911539,87.21,1
8129,0,45158,57610,45234.45,57765.13,-76.45,-155.13,-0.042778,-0.126601,0.911111,87.22,1
8139,0,45169,57624,45234.32,57764.85,-65.32,-140.85,-0.042775,-0.126596,0.910719,87.23,1
8150,0,45169,57634,45234.19,57764.59,-65.19,-130.59,-0.042772,-0.126591,0.910418,87.24,1
8159,0,45176,57635,45234.08,57764.33,-58.08,-129.33,-0.04277,-0.126587,0.910066,87.25,1
8169,0,45178,57633,45233.97,57764.07,-55.97,-131.07,-0.042768,-0.126582,0.909679,87.26,1
8179,0,45169,57618,45233.84,57763.78,-64.84,-145.78,-0.042765,-0.126577,0.90922,87.27,1
8189,0,45155,57605,45233.68,57763.46,-78.68,-158.46,-0.042761,-0.126572,0.908759,87.28,1
8199,0,45153,57598,45233.52,57763.14,-80.52,-165.14,-0.042758,-0.126566,0.908239,87.29,1
8209,0,45145,57589,45233.35,57762.79,-88.35,-173.79,-0.042754,-0.12656,0.907705,87.31,1
8219,0,45132,57577,45233.14,57762.42,-101.14,-185.42,-0.042749,-0.126554,0.90719,87.32,1
8230,0,45126,57566,45232.93,57762.03,-106.93,-196.03,-0.042745,-0.126547,0.906612,87.33,1
8240,0,45112,57558,45232.69,57761.62,-120.69,-203.62,-0.042739,-0.12654,0.906149,87.35,1
8249,0,45109,57550,45232.44,57761.2,-123.44,-211.2,-0.042734,-0.126533,0.905617,87.36,1
8260,0,45098,57540,45232.17,57760.76,-134.17,-220.76,-0.042728,-0.126525,0.905134,87.37,1
8271,0,45091,57534,45231.89,57760.3,-140.89,-226.3,-0.042721,-0.126517,0.904695,87.38,1
8281,0,45085,57522,45231.6,57759.83,-146.6,-237.83,-0.042715,-0.126509,0.904178,87.4,1
8289,0,45074,57511,45231.29,57759.33,-157.29,-248.33,-0.042708,-0.1265,0.903711,87.41,1
8299,0,45057,57494,45230.94,57758.8,-173.94,-264.8,-0.0427,-0.126491,0.903342,87.42,1
8309,0,45053,57485,45230.58,57758.26,-177.58,-273.26,-0.042693,-0.126482,0.902898,87.43,1
8319,0,45041,57484,45230.2,57757.71,-189.2,-273.71,-0.042684,-0.126472,0.902771,87.43,1
8331,0,45033,57473,45229.81,57757.14,-196.81,-284.14,-0.042675,-0.126462,0.902646,87.43,1
8340,0,45026,57462,45229.4,57756.55,-203.4,-294.55,-0.042667,-0.126452,0.902494,87.44,1
8350,0,45024,57463,45228.99,57755.97,-204.99,-292.97,-0.042657,-0.126442,0.902427,87.44,1
8360,0,45028,57468,45228.59,57755.39,-200.59,-287.39,-0.042649,-0.126432,0.902348,87.44,1
8370,0,45033,57471,45228.2,57754.83,-195.2,-283.83,-0.04264,-0.126422,0.902183,87.45,1
8379,0,45021,57476,45227.79,57754.27,-206.79,-278.27,-0.042631,-0.126413,0.902501,87.44,1
8389,0,45032,57475,45227.39,57753.71,-195.39,-278.71,-0.042622,-0.126403,0.902452,87.44,1
8400,0,45031,57474,45227,57753.16,-196,-279.16,-0.042614,-0.126393,0.902412,87.44,1
8410,0,45033,57472,45226.62,57752.59,-193.62,-280.59,-0.042605,-0.126384,0.902267,87.44,1
8421,0,45029,57457,45226.22,57752,-197.22,-295,-0.042596,-0.126373,0.901908,87.45,1
8430,0,45012,57448,45225.8,57751.4,-213.8,-303.4,-0.042587,-0.126363,0.90189,87.45,1
8441,0,44996,57432,45225.34,57750.76,-229.34,-318.76,-0.042577,-0.126352,0.90204,87.45,1
8450,0,44993,57420,45224.87,57750.1,-231.87,-330.1,-0.042566,-0.12634,0.901991,87.45,1
8462,0,44974,57396,45224.37,57749.39,-250.37,-353.39,-0.042555,-0.126328,0.902019,87.45,1
8471,0,44961,57376,45223.85,57748.65,-262.85,-372.65,-0.042544,-0.126315,0.902002,87.45,1
8481,0,44946,57369,45223.29,57747.89,-277.29,-378.89,-0.042531,-0.126302,0.902415,87.44,1
8493,0,44934,57370,45222.71,57747.14,-288.71,-377.14,-0.042519,-0.126289,0.903378,87.42,1
8500,0,44940,57383,45222.15,57746.41,-282.15,-363.41,-0.042506,-0.126276,0.904432,87.39,1
8511,0,44957,57407,45221.62,57745.73,-264.62,-338.73,-0.042494,-0.126265,0.905403,87.36,1
8521,0,44975,57425,45221.13,57745.09,-246.13,-320.09,-0.042484,-0.126254,0.90611,87.35,1
8531,0,44990,57446,45220.67,57744.5,-230.67,-298.5,-0.042473,-0.126243,0.906761,87.33,1
8541,0,45014,57479,45220.26,57743.96,-206.26,-264.96,-0.042464,-0.126234,0.907321,87.32,1
8550,0,45034,57507,45219.89,57743.49,-185.89,-236.49,-0.042456,-0.126226,0.907818,87.3,1
8560,0,45062,57533,45219.57,57743.07,-157.57,-210.07,-0.042449,-0.126219,0.908017,87.3,1
8570,0,45088,57558,45219.31,57742.71,-131.31,-184.71,-0.042443,-0.126212,0.908016,87.3,1
8581,0,45102,57587,45219.07,57742.4,-117.07,-155.4,-0.042438,-0.126207,0.908136,87.3,1
8590,0,45126,57609,45218.89,57742.13,-92.89,-133.13,-0.042434,-0.126202,0.908108,87.3,1
8600,0,45148,57623,45218.75,57741.89,-70.75,-118.89,-0.042431,-0.126198,0.907932,87.3,1
8610,0,45166,57624,45218.64,57741.66,-52.64,-117.66,-0.042429,-0.126194,0.907582,87.31,1
8620,0,45169,57634,45218.55,57741.45,-49.55,-107.45,-0.042427,-0.12619,0.9073,87.32,1
8630,0,45171,57634,45218.45,57741.23,-47.45,-107.23,-0.042424,-0.126187,0.907,87.33,1
8640,0,45176,57628,45218.37,57741,-42.37,-113,-0.042423,-0.126183,0.906604,87.33,1
8650,0,45180,57634,45218.3,57740.79,-38.3,-106.79,-0.042421,-0.126179,0.906236,87.34,1
8660,0,45186,57648,45218.23,57740.61,-32.23,-92.61,-0.04242,-0.126176,0.90595,87.35,1
8670,0,45202,57661,45218.2,57740.45,-16.2,-79.45,-0.042419,-0.126173,0.905694,87.36,1
8680,0,45216,57686,45218.2,57740.35,-2.2,-54.35,-0.042419,-0.126171,0.905562,87.36,1
8690,0,45233,57698,45218.23,57740.27,14.77,-42.27,-0.042419,-0.12617,0.9055,87.36,1
8700,0,45249,57718,45218.29,57740.22,30.71,-22.22,-0.042421,-0.126169,0.90556,87.36,1
8710,0,45257,57728,45218.37,57740.2,38.63,-12.2,-0.042423,-0.126169,0.905687,87.36,1
8720,0,45270,57739,45218.48,57740.2,51.52,-1.2,-0.042425,-0.126169,0.905928,87.35,1
8730,0,45278,57751,45218.6,57740.22,59.4,10.78,-0.042428,-0.126169,0.906247,87.34,1
8740,0,45288,57749,45218.74,57740.24,69.26,8.76,-0.042431,-0.12617,0.90669,87.33,1
8750,0,45283,57736,45218.87,57740.23,64.13,-4.23,-0.042434,-0.12617,0.907075,87.32,1
8760,0,45276,57726,45218.98,57740.21,57.02,-14.21,-0.042436,-0.126169,0.907372,87.32,1
8770,0,45267,57719,45219.08,57740.17,47.92,-21.17,-0.042438,-0.126168,0.907568,87.31,1
8780,0,45253,57697,45219.15,57740.08,33.85,-43.08,-0.04244,-0.126167,0.907586,87.31,1
8790,0,45235,57679,45219.18,57739.96,15.82,-60.96,-0.042441,-0.126165,0.907424,87.31,1
8800,0,45215,57656,45219.18,57739.79,-4.18,-83.79,-0.04244,-0.126162,0.907072,87.32,1
8811,0,45202,57641,45219.14,57739.6,-17.14,-98.6,-0.04244,-0.126159,0.906608,87.33,1
8820,0,45185,57628,45219.08,57739.37,-34.08,-111.37,-0.042438,-0.126155,0.906092,87.35,1
8832,0,45175,57614,45218.99,57739.12,-43.99,-125.12,-0.042436,-0.12615,0.905484,87.36,1
8840,0,45162,57602,45218.88,57738.85,-56.88,-136.85,-0.042434,-0.126146,0.904847,87.38,1
8850,0,45149,57595,45218.74,57738.57,-69.74,-143.57,-0.042431,-0.126141,0.904277,87.39,1
8860,0,45154,57586,45218.61,57738.26,-64.61,-152.26,-0.042428,-0.126135,0.903497,87.41,1
8870,0,45146,57582,45218.47,57737.95,-72.47,-155.95,-0.042425,-0.12613,0.902766,87.43,1
8880,0,45141,57576,45218.32,57737.62,-77.32,-161.62,-0.042421,-0.126124,0.902013,87.45,1
8890,0,45137,57581,45218.16,57737.31,-81.16,-156.31,-0.042418,-0.126119,0.901412,87.46,1
8900,0,45140,57587,45218,57737.01,-78,-150.01,-0.042414,-0.126114,0.900857,87.48,1
8910,0,45139,57590,45217.84,57736.72,-78.84,-146.72,-0.042411,-0.126109,0.900367,87.49,1
8920,0,45135,57578,45217.68,57736.4,-82.68,-158.4,-0.042407,-0.126103,0.899748,87.51,1
8930,0,45135,57578,45217.52,57736.09,-82.52,-158.09,-0.042404,-0.126098,0.899129,87.52,1
8940,0,45137,57576,45217.36,57735.77,-80.36,-159.77,-0.0424,-0.126092,0.898438,87.54,1
8950,0,45141,57591,45217.2,57735.48,-76.2,-144.48,-0.042397,-0.126087,0.897929,87.55,1
8960,0,45143,57604,45217.05,57735.21,-74.05,-131.21,-0.042393,-0.126083,0.897585,87.56,1
8970,0,45154,57607,45216.93,57734.96,-62.93,-127.96,-0.042391,-0.126078,0.897113,87.57,1
8980,0,45164,57625,45216.82,57734.74,-52.82,-109.74,-0.042388,-0.126074,0.896749,87.58,1
8990,0,45164,57621,45216.72,57734.52,-52.72,-113.52,-0.042386,-0.12607,0.896332,87.59,1
9000,0,45167,57619,45216.62,57734.29,-49.62,-115.29,-0.042384,-0.126066,0.895852,87.6,1
9010,0,45168,57616,45216.52,57734.05,-48.52,-118.05,-0.042382,-0.126062,0.895318,87.62,1
9020,0,45168,57617,45216.43,57733.82,-48.43,-116.82,-0.04238,-0.126058,0.894797,87.63,1
9030,0,45165,57619,45216.32,57733.59,-51.32,-114.59,-0.042377,-0.126054,0.894337,87.64,1
9040,0,45170,57632,45216.23,57733.39,-46.23,-101.39,-0.042375,-0.126051,0.893983,87.65,1
9051,0,45173,57632,45216.15,57733.18,-43.15,-101.18,-0.042373,-0.126047,0.893595,87.66,1
9060,0,45180,57640,45216.08,57733,-36.08,-93,-0.042372,-0.126044,0.893231,87.67,1
9070,0,45183,57646,45216.01,57732.83,-33.01,-86.83,-0.04237,-0.126041,0.892906,87.68,1
9081,0,45180,57632,45215.94,57732.63,-35.94,-100.63,-0.042369,-0.126038,0.892443,87.69,1
9090,0,45169,57617,45215.85,57732.4,-46.85,-115.4,-0.042367,-0.126034,0.891894,87.7,1
9100,0,45165,57612,45215.75,57732.16,-50.75,-120.16,-0.042365,-0.12603,0.89132,87.72,1
9110,0,45155,57607,45215.62,57731.91,-60.63,-124.91,-0.042362,-0.126025,0.890811,87.73,1
9120,0,45155,57616,45215.5,57731.68,-60.5,-115.68,-0.042359,-0.126021,0.890438,87.74,1
9130,0,45165,57622,45215.4,57731.46,-50.4,-109.46,-0.042357,-0.126018,0.890005,87.75,1
9143,0,45165,57623,45215.3,57731.25,-50.3,-108.25,-0.042355,-0.126014,0.889584,87.76,1
9152,0,45159,57616,45215.19,57731.02,-56.19,-115.02,-0.042352,-0.12601,0.889146,87.77,1
9163,0,45154,57604,45215.07,57730.76,-61.07,-126.76,-0.042349,-0.126005,0.888597,87.79,1
9173,0,45146,57600,45214.93,57730.5,-68.93,-130.5,-0.042347,-0.126001,0.88812,87.8,1
9182,0,45142,57601,45214.79,57730.24,-72.79,-129.24,-0.042343,-0.125996,0.887738,87.81,1
9193,0,45135,57578,45214.62,57729.94,-79.62,-151.94,-0.04234,-0.125991,0.887071,87.82,1
9201,0,45119,57553,45214.43,57729.59,-95.43,-176.59,-0.042336,-0.125985,0.886244,87.84,1
9212,0,45100,57535,45214.21,57729.2,-114.21,-194.2,-0.042331,-0.125978,0.885527,87.86,1
9222,0,45079,57523,45213.94,57728.79,-134.94,-205.79,-0.042325,-0.125971,0.885223,87.87,1
9233,0,45073,57507,45213.66,57728.35,-140.66,-221.35,-0.042318,-0.125964,0.884692,87.88,1
9241,0,45057,57505,45213.34,57727.9,-156.34,-222.9,-0.042311,-0.125956,0.884774,87.88,1
9253,0,45051,57495,45213.02,57727.44,-162.02,-232.44,-0.042304,-0.125948,0.884817,87.88,1
9263,0,45056,57494,45212.71,57726.97,-156.71,-232.97,-0.042297,-0.12594,0.884602,87.88,1
9273,0,45054,57504,45212.39,57726.53,-158.39,-222.53,-0.04229,-0.125932,0.884788,87.88,1
9283,0,45057,57503,45212.08,57726.08,-155.08,-223.08,-0.042283,-0.125924,0.884809,87.88,1
9293,0,45062,57509,45211.78,57725.65,-149.78,-216.65,-0.042277,-0.125917,0.884793,87.88,1
9303,0,45068,57519,45211.5,57725.24,-143.5,-206.24,-0.042271,-0.12591,0.884816,87.88,1
9313,0,45076,57522,45211.23,57724.83,-135.23,-202.83,-0.042265,-0.125903,0.884604,87.88,1
9323,0,45085,57536,45210.98,57724.46,-125.98,-188.46,-0.042259,-0.125896,0.884433,87.89,1
9334,0,45096,57541,45210.75,57724.09,-114.75,-183.09,-0.042254,-0.12589,0.884009,87.9,1
9344,0,45095,57540,45210.52,57723.72,-115.52,-183.72,-0.042249,-0.125883,0.883594,87.91,1
9351,0,45094,57542,45210.29,57723.36,-116.29,-181.36,-0.042244,-0.125877,0.883267,87.92,1
9363,0,45090,57541,45210.05,57723,-120.05,-182,-0.042238,-0.125871,0.883054,87.92,1
9374,0,45091,57539,45209.81,57722.63,-118.81,-183.63,-0.042233,-0.125865,0.882755,87.93,1
9384,0,45093,57548,45209.57,57722.28,-116.57,-174.28,-0.042228,-0.125859,0.882616,87.93,1
9394,0,45097,57548,45209.35,57721.93,-112.35,-173.93,-0.042223,-0.125852,0.88234,87.94,1
9402,0,45100,57550,45209.13,57721.59,-109.13,-171.59,-0.042218,-0.125847,0.882016,87.95,1
9412,0,45106,57554,45208.93,57721.26,-102.93,-167.26,-0.042214,-0.125841,0.881598,87.96,1
9422,0,45113,57568,45208.73,57720.95,-95.73,-152.95,-0.042209,-0.125836,0.881294,87.97,1
9431,0,45124,57581,45208.57,57720.68,-84.57,-139.68,-0.042206,-0.125831,0.880964,87.98,1
9442,0,45141,57610,45208.43,57720.46,-67.43,-110.46,-0.042203,-0.125827,0.880769,87.98,1
9451,0,45169,57641,45208.36,57720.3,-39.36,-79.3,-0.042201,-0.125824,0.880542,87.99,1
9462,0,45193,57676,45208.32,57720.21,-15.32,-44.21,-0.0422,-0.125823,0.880432,87.99,1
9474,0,45224,57709,45208.36,57720.2,15.64,-11.2,-0.042201,-0.125822,0.880461,87.99,1
9481,0,45257,57743,45208.45,57720.24,48.55,22.76,-0.042203,-0.125823,0.880799,87.98,1
9493,0,45286,57768,45208.61,57720.34,77.39,47.66,-0.042207,-0.125825,0.881594,87.96,1
9501,0,45306,57774,45208.8,57720.45,97.2,53.55,-0.042211,-0.125827,0.882913,87.93,1
9511,0,45312,57783,45209.01,57720.57,102.99,62.43,-0.042216,-0.125829,0.884352,87.89,1
9521,0,45310,57781,45209.21,57720.7,100.79,60.3,-0.04222,-0.125831,0.885748,87.86,1
9531,0,45312,57776,45209.42,57720.81,102.58,55.19,-0.042225,-0.125833,0.887262,87.82,1
9541,0,45307,57775,45209.62,57720.92,97.38,54.08,-0.042229,-0.125835,0.888622,87.78,1
9551,0,45304,57777,45209.81,57721.03,94.19,55.97,-0.042233,-0.125837,0.889872,87.75,1
9561,0,45307,57774,45210,57721.14,97,52.86,-0.042238,-0.125839,0.89125,87.72,1
9572,0,45313,57776,45210.21,57721.25,102.79,54.75,-0.042242,-0.125841,0.892822,87.68,1
9581,0,45316,57781,45210.42,57721.37,105.58,59.63,-0.042247,-0.125843,0.894458,87.64,1
9591,0,45317,57781,45210.64,57721.49,106.36,59.51,-0.042252,-0.125845,0.896136,87.6,1
9602,0,45329,57792,45210.87,57721.63,118.12,70.37,-0.042257,-0.125847,0.898168,87.55,1
9611,0,45338,57807,45211.13,57721.8,126.87,85.2,-0.042262,-0.12585,0.900389,87.49,1
9621,0,45345,57811,45211.4,57721.98,133.6,89.02,-0.042268,-0.125853,0.902875,87.43,1
9640,0,45351,57819,45211.68,57722.18,139.32,96.82,-0.042275,-0.125857,0.905519,87.36,1
9657,0,45352,57820,45211.96,57722.37,140.04,97.62,-0.042281,-0.12586,0.908195,87.3,1
9691,0,45362,57829,45212.26,57722.59,149.74,106.41,-0.042287,-0.125864,0.911224,87.22,1
9723,0,45364,57830,45212.57,57722.8,151.43,107.2,-0.042294,-0.125868,0.914336,87.14,1
9730,0,45368,57824,45212.88,57723.01,155.12,100.99,-0.042301,-0.125871,0.917782,87.06,1
9738,0,45363,57814,45213.18,57723.19,149.82,90.81,-0.042308,-0.125874,0.921126,86.97,1
9745,0,45358,57817,45213.47,57723.38,144.53,93.62,-0.042314,-0.125877,0.924142,86.9,1
9750,0,45360,57805,45213.76,57723.54,146.24,81.46,-0.042321,-0.12588,0.927467,86.81,1
9768,0,45345,57808,45214.02,57723.71,130.98,84.29,-0.042326,-0.125883,0.92997,86.75,1
9786,0,45342,57806,45214.28,57723.88,127.72,82.12,-0.042332,-0.125886,0.932361,86.69,1
9829,0,45344,57802,45214.54,57724.04,129.46,77.96,-0.042338,-0.125889,0.934915,86.63,1
9847,0,45338,57805,45214.79,57724.2,123.21,80.8,-0.042343,-0.125892,0.937135,86.57,1
9864,0,45335,57801,45215.04,57724.36,119.96,76.64,-0.042349,-0.125895,0.939283,86.52,1
9870,0,45337,57805,45215.28,57724.52,121.72,80.48,-0.042354,-0.125897,0.94146,86.46,1
9876,0,45335,57810,45215.52,57724.7,119.48,85.3,-0.04236,-0.1259,0.943459,86.41,1
9957,0,45333,57809,45215.76,57724.87,117.24,84.13,-0.042365,-0.125903,0.945385,86.37,1
9960,0,45331,57796,45215.99,57725.01,115.01,70.99,-0.04237,-0.125906,0.947439,86.31,1
9978,0,45337,57811,45216.23,57725.18,120.77,85.82,-0.042375,-0.125909,0.949518,86.26,1
9993,0,45342,57817,45216.48,57725.37,125.52,91.63,-0.042381,-0.125912,0.951725,86.21,1
10010,0,45350,57828,45216.75,57725.57,133.25,102.43,-0.042387,-0.125916,0.954107,86.15,1
10017,0,45364,57835,45217.05,57725.79,146.95,109.21,-0.042393,-0.125919,0.957102,86.07,1
10024,0,45364,57840,45217.35,57726.02,146.65,113.98,-0.0424,-0.125923,0.959963,86,1
10029,0,45371,57836,45217.66,57726.25,153.34,109.75,-0.042407,-0.125927,0.96334,85.92,1
10036,0,45361,57837,45217.95,57726.47,143.05,110.53,-0.042413,-0.125931,0.966082,85.85,1
10042,0,45357,57838,45218.22,57726.69,138.78,111.31,-0.042419,-0.125935,0.968562,85.79,1
10048,0,45356,57834,45218.5,57726.91,137.5,107.09,-0.042425,-0.125939,0.971082,85.72,1
10054,0,45352,57818,45218.77,57727.09,133.23,90.91,-0.042431,-0.125942,0.973752,85.66,1
10058,0,45337,57799,45219.01,57727.23,117.99,71.77,-0.042437,-0.125944,0.976015,85.6,1
10062,0,45321,57776,45219.21,57727.33,101.79,48.67,-0.042441,-0.125946,0.977888,85.55,1
10065,0,45301,57759,45219.38,57727.4,81.62,31.6,-0.042445,-0.125947,0.979165,85.52,1
10068,0,45284,57743,45219.51,57727.43,64.49,15.57,-0.042448,-0.125948,0.980016,85.5,1
10071,0,45275,57736,45219.62,57727.45,55.38,8.55,-0.04245,-0.125948,0.980662,85.48,1
10073,0,45270,57737,45219.72,57727.47,50.28,9.53,-0.042452,-0.125948,0.981196,85.47,1
10075,0,45271,57738,45219.83,57727.49,51.17,10.51,-0.042455,-0.125949,0.981753,85.46,1
10077,0,45274,57742,45219.94,57727.52,54.06,14.48,-0.042457,-0.125949,0.982368,85.44,1
10080,0,45278,57746,45220.05,57727.56,57.95,18.44,-0.04246,-0.12595,0.983069,85.42,1
10082,0,45282,57750,45220.18,57727.61,61.82,22.39,-0.042463,-0.125951,0.983859,85.4,1
10088,0,45287,57767,45220.32,57727.69,66.68,39.31,-0.042466,-0.125952,0.984658,85.38,1
10094,0,45297,57763,45220.47,57727.76,76.53,35.24,-0.042469,-0.125953,0.985826,85.35,1
10102,0,45299,57765,45220.63,57727.84,78.37,37.16,-0.042473,-0.125955,0.98705,85.32,1
10108,0,45297,57765,45220.79,57727.91,76.21,37.09,-0.042476,-0.125956,0.988208,85.29,1
10115,0,45298,57749,45220.94,57727.95,77.06,21.05,-0.042479,-0.125957,0.989537,85.26,1
10124,0,45285,57738,45221.07,57727.98,63.93,10.02,-0.042482,-0.125957,0.990487,85.24,1
10133,0,45270,57717,45221.17,57727.96,48.83,-10.96,-0.042484,-0.125957,0.991037,85.22,1
10142,0,45246,57689,45221.22,57727.88,24.78,-38.88,-0.042486,-0.125955,0.990963,85.23,1
10147,0,45236,57665,45221.25,57727.75,14.75,-62.75,-0.042486,-0.125953,0.990436,85.24,1
10152,0,45214,57648,45221.24,57727.6,-7.24,-79.6,-0.042486,-0.125951,0.98951,85.26,1
10155,0,45202,57643,45221.2,57727.43,-19.2,-84.43,-0.042485,-0.125948,0.988538,85.29,1
10159,0,45195,57633,45221.15,57727.24,-26.15,-94.24,-0.042484,-0.125944,0.987376,85.32,1
10162,0,45196,57637,45221.1,57727.06,-25.1,-90.06,-0.042483,-0.125941,0.98631,85.34,1
10165,0,45193,57646,45221.04,57726.9,-28.04,-80.9,-0.042482,-0.125939,0.985515,85.36,1
10168,0,45199,57663,45221,57726.78,-22,-63.78,-0.042481,-0.125936,0.985015,85.37,1
10170,0,45219,57684,45221,57726.69,-2,-42.69,-0.042481,-0.125935,0.984734,85.38,1
10172,0,45232,57702,45221.02,57726.64,10.98,-24.64,-0.042481,-0.125934,0.984669,85.38,1
10174,0,45245,57721,45221.07,57726.63,23.93,-5.63,-0.042482,-0.125934,0.984814,85.38,1
10183,0,45255,57721,45221.14,57726.62,33.86,-5.62,-0.042484,-0.125934,0.985114,85.37,1
10195,0,45271,57729,45221.24,57726.63,49.76,2.37,-0.042486,-0.125934,0.985779,85.36,1
10204,0,45266,57728,45221.33,57726.63,44.67,1.37,-0.042488,-0.125934,0.986319,85.34,1
10216,0,45263,57723,45221.42,57726.63,41.58,-3.63,-0.04249,-0.125934,0.986791,85.33,1
10227,0,45254,57705,45221.48,57726.59,32.52,-21.59,-0.042491,-0.125933,0.987005,85.32,1
10235,0,45251,57700,45221.54,57726.54,29.46,-26.54,-0.042493,-0.125932,0.987128,85.32,1
10246,0,45238,57681,45221.58,57726.45,16.42,-45.45,-0.042493,-0.125931,0.986852,85.33,1
10255,0,45227,57661,45221.59,57726.32,5.41,-65.32,-0.042494,-0.125928,0.98613,85.35,1
10265,0,45214,57652,45221.57,57726.17,-7.57,-74.17,-0.042493,-0.125926,0.9852,85.37,1
10277,0,45203,57640,45221.54,57726,-18.54,-86,-0.042493,-0.125923,0.984018,85.4,1
10286,0,45191,57628,45221.48,57725.8,-30.48,-97.8,-0.042491,-0.12592,0.982624,85.43,1
10295,0,45187,57631,45221.41,57725.61,-34.41,-94.61,-0.04249,-0.125916,0.981406,85.46,1
10306,0,45190,57640,45221.35,57725.45,-31.35,-85.45,-0.042489,-0.125913,0.980412,85.49,1
10315,0,45187,57651,45221.29,57725.3,-34.29,-74.3,-0.042487,-0.125911,0.979787,85.51,1
10326,0,45199,57664,45221.24,57725.18,-22.24,-61.18,-0.042486,-0.125909,0.979267,85.52,1
10335,0,45210,57681,45221.22,57725.09,-11.22,-44.09,-0.042486,-0.125907,0.978954,85.53,1
10345,0,45233,57703,45221.25,57725.05,11.75,-22.05,-0.042486,-0.125906,0.978907,85.53,1
10355,0,45245,57713,45221.29,57725.02,23.71,-12.02,-0.042487,-0.125906,0.979055,85.52,1
10365,0,45249,57724,45221.35,57725.02,27.65,-1.02,-0.042488,-0.125906,0.979295,85.52,1
10375,0,45266,57739,45221.44,57725.05,44.56,13.95,-0.04249,-0.125907,0.979889,85.5,1
10387,0,45283,57758,45221.56,57725.12,61.44,32.88,-0.042493,-0.125908,0.980895,85.48,1
10395,0,45289,57760,45221.7,57725.19,67.3,34.81,-0.042496,-0.125909,0.982129,85.45,1
10409,0,45304,57764,45221.86,57725.27,82.14,38.73,-0.0425,-0.12591,0.98404,85.4,1
10415,0,45302,57768,45222.02,57725.36,79.98,42.64,-0.042503,-0.125912,0.985786,85.36,1
10425,0,45304,57765,45222.19,57725.44,81.81,39.56,-0.042507,-0.125913,0.987693,85.31,1
10436,0,45304,57770,45222.35,57725.53,81.65,44.47,-0.042511,-0.125915,0.989522,85.26,1
10446,0,45307,57765,45222.52,57725.61,84.48,39.39,-0.042514,-0.125916,0.991606,85.21,1
10454,0,45310,57766,45222.7,57725.69,87.3,40.31,-0.042518,-0.125918,0.993854,85.15,1
10466,0,45316,57775,45222.89,57725.79,93.11,49.21,-0.042522,-0.125919,0.996308,85.09,1
10476,0,45318,57783,45223.08,57725.91,94.92,57.09,-0.042527,-0.125921,0.998717,85.03,1
10485,0,45326,57793,45223.29,57726.05,102.71,66.95,-0.042531,-0.125924,1.001409,84.96,1
10494,0,45331,57801,45223.5,57726.2,107.5,74.8,-0.042536,-0.125926,1.004221,84.89,1
10507,0,45337,57807,45223.73,57726.36,113.27,80.64,-0.042541,-0.125929,1.007286,84.82,1
10516,0,45343,57811,45223.96,57726.54,119.04,84.46,-0.042546,-0.125932,1.010685,84.73,1
10525,0,45352,57820,45224.22,57726.72,127.78,93.28,-0.042552,-0.125936,1.014494,84.64,1
10535,0,45352,57823,45224.48,57726.92,127.52,96.08,-0.042558,-0.125939,1.018157,84.55,1
10546,0,45362,57836,45224.76,57727.14,137.24,108.86,-0.042564,-0.125943,1.022128,84.45,1
10555,0,45368,57843,45225.05,57727.37,142.95,115.63,-0.04257,-0.125947,1.026299,84.34,1
10566,0,45367,57837,45225.33,57727.59,141.67,109.41,-0.042577,-0.125951,1.030637,84.23,1
10576,0,45360,57830,45225.6,57727.8,134.4,102.2,-0.042582,-0.125954,1.034602,84.13,1
10585,0,45356,57820,45225.86,57727.99,130.14,92.01,-0.042588,-0.125957,1.038618,84.03,1
10596,0,45360,57823,45226.13,57728.18,133.87,94.82,-0.042594,-0.125961,1.042852,83.93,1
10606,0,45350,57812,45226.38,57728.35,123.62,83.65,-0.0426,-0.125964,1.046617,83.83,1
10615,0,45345,57803,45226.62,57728.5,118.38,74.5,-0.042605,-0.125966,1.05028,83.74,1
10628,0,45331,57797,45226.83,57728.64,104.17,68.36,-0.04261,-0.125969,1.053031,83.67,1
10634,0,45327,57778,45227.04,57728.74,99.96,49.26,-0.042614,-0.12597,1.056035,83.6,1
10644,0,45305,57752,45227.19,57728.79,77.81,23.21,-0.042618,-0.125971,1.058096,83.55,1
10655,0,45281,57732,45227.3,57728.79,53.7,3.21,-0.04262,-0.125971,1.059147,83.52,1
10666,0,45275,57717,45227.4,57728.77,47.6,-11.77,-0.042622,-0.125971,1.059947,83.5,1
10675,0,45272,57714,45227.49,57728.74,44.51,-14.74,-0.042624,-0.12597,1.060628,83.48,1
10685,0,45259,57705,45227.55,57728.7,31.45,-23.7,-0.042626,-0.12597,1.060852,83.48,1
10694,0,45256,57699,45227.61,57728.64,28.39,-29.64,-0.042627,-0.125969,1.060925,83.48,1
10706,0,45256,57703,45227.67,57728.59,28.33,-25.59,-0.042628,-0.125968,1.061057,83.47,1
10715,0,45248,57691,45227.71,57728.51,20.29,-37.51,-0.042629,-0.125966,1.060838,83.48,1
10727,0,45244,57690,45227.75,57728.44,16.25,-38.44,-0.04263,-0.125965,1.060539,83.49,1
10735,0,45236,57680,45227.77,57728.34,8.23,-48.34,-0.04263,-0.125964,1.059927,83.5,1
10745,0,45241,57674,45227.79,57728.24,13.21,-54.24,-0.042631,-0.125962,1.059186,83.52,1
10755,0,45225,57662,45227.79,57728.11,-2.79,-66.11,-0.042631,-0.125959,1.057977,83.55,1
10765,0,45223,57655,45227.78,57727.96,-4.78,-72.96,-0.042631,-0.125957,1.056502,83.59,1
10775,0,45213,57647,45227.75,57727.8,-14.75,-80.8,-0.04263,-0.125954,1.054761,83.63,1
10786,0,45207,57639,45227.71,57727.62,-20.71,-88.62,-0.042629,-0.125951,1.052727,83.68,1
10795,0,45200,57636,45227.66,57727.44,-27.66,-91.44,-0.042628,-0.125948,1.050683,83.73,1
10806,0,45193,57618,45227.59,57727.22,-34.59,-109.22,-0.042627,-0.125944,1.047806,83.8,1
10817,0,45178,57604,45227.5,57726.98,-49.5,-122.98,-0.042624,-0.12594,1.044557,83.89,1
10827,0,45181,57596,45227.4,57726.71,-46.4,-130.71,-0.042622,-0.125935,1.040643,83.98,1
10837,0,45174,57598,45227.3,57726.46,-53.3,-128.46,-0.04262,-0.125931,1.037202,84.07,1
10846,0,45175,57599,45227.2,57726.2,-52.2,-127.2,-0.042618,-0.125926,1.033816,84.15,1
10856,0,45178,57596,45227.1,57725.95,-49.1,-129.95,-0.042616,-0.125922,1.030114,84.25,1
10867,0,45169,57586,45226.98,57725.67,-57.98,-139.67,-0.042613,-0.125917,1.026111,84.35,1
10877,0,45168,57585,45226.87,57725.39,-58.87,-140.39,-0.04261,-0.125912,1.022126,84.45,1
10887,0,45175,57593,45226.77,57725.12,-51.77,-132.12,-0.042608,-0.125908,1.018449,84.54,1
10896,0,45177,57593,45226.67,57724.86,-49.67,-131.86,-0.042606,-0.125903,1.014719,84.63,1
10906,0,45177,57598,45226.57,57724.61,-49.57,-126.61,-0.042604,-0.125899,1.011376,84.72,1
10917,0,45175,57611,45226.47,57724.38,-51.47,-113.38,-0.042602,-0.125895,1.008999,84.78,1
10926,0,45177,57604,45226.37,57724.14,-49.37,-120.14,-0.042599,-0.125891,1.006101,84.85,1
10936,0,45181,57607,45226.28,57723.91,-45.28,-116.91,-0.042598,-0.125887,1.003249,84.92,1
10946,0,45185,57614,45226.2,57723.69,-41.2,-109.69,-0.042596,-0.125883,1.000693,84.98,1
10956,0,45188,57622,45226.12,57723.49,-38.13,-101.49,-0.042594,-0.125879,0.998505,85.04,1
10968,0,45188,57615,45226.05,57723.27,-38.05,-108.27,-0.042592,-0.125876,0.995921,85.1,1
10976,0,45184,57620,45225.97,57723.07,-41.97,-103.07,-0.042591,-0.125872,0.993784,85.16,1
10987,0,45190,57620,45225.9,57722.87,-35.9,-102.87,-0.042589,-0.125869,0.991441,85.21,1
10996,0,45194,57625,45225.84,57722.67,-31.84,-97.67,-0.042588,-0.125865,0.989258,85.27,1
11007,0,45202,57629,45225.79,57722.48,-23.79,-93.48,-0.042587,-0.125862,0.987086,85.32,1
11016,0,45202,57630,45225.74,57722.3,-23.74,-92.3,-0.042586,-0.125859,0.984969,85.38,1
11027,0,45206,57641,45225.7,57722.14,-19.7,-81.14,-0.042585,-0.125856,0.983305,85.42,1
11036,0,45219,57647,45225.69,57721.99,-6.69,-74.99,-0.042585,-0.125854,0.98174,85.46,1
11047,0,45229,57663,45225.7,57721.87,3.3,-58.88,-0.042585,-0.125852,0.98076,85.48,1
11057,0,45248,57673,45225.75,57721.78,22.25,-48.78,-0.042586,-0.12585,0.980318,85.49,1
11066,0,45256,57688,45225.81,57721.71,30.19,-33.71,-0.042587,-0.125849,0.980433,85.49,1
11078,0,45275,57707,45225.91,57721.68,49.09,-14.68,-0.042589,-0.125848,0.981555,85.46,1
11087,0,45285,57728,45226.03,57721.7,58.97,6.3,-0.042592,-0.125849,0.983269,85.42,1
11095,0,45309,57757,45226.2,57721.77,82.8,35.23,-0.042596,-0.12585,0.986329,85.34,1
11107,0,45335,57786,45226.41,57721.9,108.59,64.1,-0.0426,-0.125852,0.991015,85.22,1
11116,0,45356,57807,45226.68,57722.07,129.32,84.93,-0.042606,-0.125855,0.997228,85.07,1
11126,0,45376,57834,45226.98,57722.3,149.02,111.7,-0.042613,-0.125859,1.00452,84.89,1
11136,0,45397,57854,45227.32,57722.56,169.68,131.44,-0.04262,-0.125863,1.013484,84.66,1
11146,0,45407,57856,45227.68,57722.83,179.32,133.17,-0.042628,-0.125868,1.023769,84.41,1
11157,0,45404,57858,45228.03,57723.11,175.97,134.89,-0.042636,-0.125873,1.033111,84.17,1
11166,0,45400,57842,45228.37,57723.34,171.62,118.66,-0.042644,-0.125877,1.042848,83.93,1
11176,0,45407,57856,45228.73,57723.61,178.27,132.39,-0.042652,-0.125881,1.052414,83.69,1
11187,0,45416,57865,45229.11,57723.89,186.89,141.11,-0.04266,-0.125886,1.06249,83.44,1
11196,0,45416,57873,45229.48,57724.2,186.52,148.8,-0.042668,-0.125892,1.071533,83.21,1
11206,0,45430,57890,45229.89,57724.53,200.11,165.47,-0.042677,-0.125897,1.081036,82.97,1
11216,0,45443,57902,45230.31,57724.88,212.69,177.12,-0.042687,-0.125904,1.091261,82.72,1
11229,0,45461,57923,45230.77,57725.28,230.23,197.72,-0.042697,-0.125911,1.101999,82.45,1
11235,0,45483,57946,45231.28,57725.72,251.72,220.28,-0.042708,-0.125918,1.113614,82.16,1
11246,0,45505,57973,45231.82,57726.22,273.18,246.78,-0.04272,-0.125927,1.125265,81.87,1
11257,0,45521,57994,45232.4,57726.75,288.6,267.25,-0.042733,-0.125936,1.136262,81.59,1
11267,0,45546,58030,45233.03,57727.36,312.97,302.64,-0.042747,-0.125947,1.145825,81.35,1
11276,0,45586,58038,45233.74,57727.98,352.26,310.02,-0.042762,-0.125957,1.16253,80.94,1
11287,0,45600,58051,45234.47,57728.63,365.53,322.37,-0.042779,-0.125969,1.178584,80.54,1
11296,0,45598,58038,45235.2,57729.25,362.8,308.75,-0.042795,-0.125979,1.194813,80.13,1
11306,0,45608,58013,45235.95,57729.82,372.05,283.18,-0.042811,-0.125989,1.215862,79.6,1
11317,0,45578,57983,45236.63,57730.33,341.37,252.67,-0.042826,-0.125998,1.233339,79.17,1
11326,0,45540,57943,45237.24,57730.76,302.76,212.24,-0.04284,-0.126005,1.247793,78.81,1
11336,0,45501,57893,45237.77,57731.08,263.23,161.92,-0.042851,-0.126011,1.260522,78.49,1
11347,0,45459,57878,45238.21,57731.38,220.79,146.62,-0.042861,-0.126016,1.268453,78.29,1
11357,0,45432,57849,45238.6,57731.62,193.4,117.38,-0.04287,-0.12602,1.275233,78.12,1
11366,0,45403,57821,45238.93,57731.8,164.07,89.2,-0.042877,-0.126023,1.280648,77.98,1
11377,0,45377,57798,45239.21,57731.93,137.79,66.07,-0.042883,-0.126026,1.284829,77.88,1
11386,0,45370,57801,45239.47,57732.07,130.53,68.93,-0.042889,-0.126028,1.288349,77.79,1
11396,0,45366,57805,45239.72,57732.22,126.28,72.78,-0.042895,-0.126031,1.291402,77.71,1
11407,0,45377,57825,45240,57732.41,137,92.59,-0.042901,-0.126034,1.294304,77.64,1
11415,0,45395,57846,45240.31,57732.64,154.69,113.36,-0.042908,-0.126038,1.29742,77.56,1
11427,0,45423,57872,45240.68,57732.92,182.32,139.08,-0.042916,-0.126043,1.30127,77.47,1
11436,0,45456,57912,45241.11,57733.28,214.89,178.72,-0.042925,-0.126049,1.305007,77.37,1
11446,0,45509,57945,45241.65,57733.7,267.35,211.3,-0.042937,-0.126056,1.312052,77.2,1
11456,0,45546,57962,45242.26,57734.16,303.74,227.84,-0.042951,-0.126064,1.322465,76.94,1
11466,0,45562,57975,45242.9,57734.64,319.1,240.36,-0.042965,-0.126073,1.333284,76.67,1
11477,0,45581,57985,45243.57,57735.15,337.43,249.85,-0.04298,-0.126081,1.345394,76.37,1
11486,0,45590,57993,45244.27,57735.66,345.73,257.34,-0.042995,-0.12609,1.357228,76.07,1
11496,0,45590,57984,45244.96,57736.16,345.04,247.84,-0.04301,-0.126099,1.369685,75.76,1
11507,0,45591,57980,45245.65,57736.65,345.35,243.35,-0.043026,-0.126107,1.382209,75.44,1
11516,0,45588,57974,45246.34,57737.13,341.66,236.87,-0.043041,-0.126116,1.394423,75.14,1
11526,0,45579,57962,45247.01,57737.58,331.99,224.42,-0.043056,-0.126124,1.406212,74.84,1
11536,0,45569,57959,45247.65,57738.03,321.35,220.97,-0.04307,-0.126131,1.416381,74.59,1
11546,0,45562,57949,45248.28,57738.45,313.72,210.55,-0.043084,-0.126139,1.426361,74.34,1
11556,0,45568,57958,45248.92,57738.89,319.08,219.11,-0.043098,-0.126146,1.435741,74.11,1
11566,0,45569,57961,45249.56,57739.34,319.44,221.66,-0.043112,-0.126154,1.444534,73.89,1
11576,0,45581,57961,45250.23,57739.78,330.77,221.22,-0.043127,-0.126162,1.454683,73.63,1
11587,0,45581,57956,45250.89,57740.21,330.11,215.79,-0.043141,-0.126169,1.465056,73.37,1
11596,0,45577,57947,45251.54,57740.63,325.46,206.37,-0.043156,-0.126176,1.47557,73.11,1
11607,0,45576,57950,45252.19,57741.05,323.81,208.95,-0.04317,-0.126184,1.485252,72.87,1
11617,0,45583,57952,45252.86,57741.47,330.14,210.53,-0.043185,-0.126191,1.495314,72.62,1
11627,0,45584,57957,45253.52,57741.91,330.48,215.09,-0.0432,-0.126198,1.504575,72.39,1
11637,0,45585,57953,45254.18,57742.33,330.82,210.67,-0.043214,-0.126206,1.514127,72.15,1
11648,0,45584,57935,45254.84,57742.71,329.16,192.29,-0.043229,-0.126212,1.525274,71.87,1
11658,0,45568,57932,45255.47,57743.09,312.53,188.91,-0.043243,-0.126219,1.534427,71.64,1
11670,0,45569,57921,45256.1,57743.45,312.9,177.55,-0.043257,-0.126225,1.544604,71.38,1
11677,0,45562,57918,45256.71,57743.8,305.29,174.2,-0.04327,-0.126231,1.554012,71.15,1
11685,0,45560,57913,45257.32,57744.14,302.68,168.86,-0.043284,-0.126237,1.56347,70.91,1
11697,0,45563,57912,45257.94,57744.48,305.06,167.52,-0.043297,-0.126243,1.573174,70.67,1
11707,0,45559,57900,45258.54,57744.79,300.46,155.21,-0.04331,-0.126248,1.583346,70.42,1
11717,0,45543,57903,45259.11,57745.11,283.89,157.89,-0.043323,-0.126254,1.591305,70.22,1
11727,0,45555,57903,45259.7,57745.42,295.3,157.58,-0.043336,-0.126259,1.600427,69.99,1
11737,0,45549,57904,45260.28,57745.74,288.72,158.26,-0.043349,-0.126265,1.608641,69.78,1
11748,0,45551,57902,45260.86,57746.05,290.14,155.95,-0.043362,-0.12627,1.617113,69.57,1
11759,0,45555,57910,45261.45,57746.38,293.55,163.62,-0.043375,-0.126276,1.625105,69.37,1
11767,0,45558,57906,45262.05,57746.7,295.95,159.3,-0.043388,-0.126282,1.633662,69.16,1
11777,0,45563,57900,45262.65,57747.01,300.35,152.99,-0.043401,-0.126287,1.643179,68.92,1
11787,0,45559,57915,45263.24,57747.35,295.76,167.65,-0.043414,-0.126293,1.650635,68.73,1
11800,0,45575,57913,45263.87,57747.68,311.13,165.32,-0.043428,-0.126298,1.659907,68.5,1
11807,0,45578,57919,45264.5,57748.02,313.5,170.98,-0.043442,-0.126304,1.668714,68.28,1
11817,0,45582,57916,45265.13,57748.36,316.87,167.64,-0.043456,-0.12631,1.678102,68.05,1
11828,0,45584,57922,45265.77,57748.71,318.23,173.29,-0.04347,-0.126316,1.686891,67.83,1
11837,0,45594,57914,45266.43,57749.04,327.57,164.96,-0.043485,-0.126322,1.697476,67.56,1
11847,0,45590,57925,45267.08,57749.39,322.92,175.61,-0.043499,-0.126328,1.706217,67.34,1
11858,0,45602,57926,45267.75,57749.75,334.25,176.25,-0.043514,-0.126334,1.716031,67.1,1
11867,0,45594,57929,45268.4,57750.11,325.6,178.89,-0.043528,-0.12634,1.724377,66.89,1
11877,0,45601,57933,45269.07,57750.47,331.93,182.53,-0.043543,-0.126347,1.73287,66.68,1
11885,0,45601,57929,45269.73,57750.83,331.27,178.17,-0.043558,-0.126353,1.741625,66.46,1
11895,0,45596,57921,45270.39,57751.18,325.61,169.82,-0.043572,-0.126359,1.750519,66.24,1
11907,0,45588,57916,45271.02,57751.51,316.98,164.49,-0.043586,-0.126365,1.758905,66.03,1
11917,0,45582,57896,45271.65,57751.8,310.35,144.2,-0.0436,-0.12637,1.768495,65.79,1
11924,0,45570,57888,45272.25,57752.07,297.75,135.93,-0.043613,-0.126374,1.777451,65.56,1
11934,0,45563,57876,45272.83,57752.32,290.17,123.68,-0.043626,-0.126379,1.78663,65.33,1
11945,0,45539,57864,45273.36,57752.55,265.64,111.45,-0.043638,-0.126383,1.794414,65.14,1
11955,0,45537,57865,45273.89,57752.77,263.11,112.23,-0.04365,-0.126387,1.801886,64.95,1
11967,0,45532,57853,45274.41,57752.98,257.59,100.02,-0.043661,-0.12639,1.809727,64.76,1
11977,0,45517,57831,45274.89,57753.13,242.11,77.87,-0.043672,-0.126393,1.817598,64.56,1
11987,0,45505,57836,45275.36,57753.3,229.64,82.7,-0.043682,-0.126396,1.824208,64.39,1
11997,0,45503,57825,45275.81,57753.45,227.19,71.55,-0.043692,-0.126398,1.831239,64.22,1
12007,0,45500,57824,45276.26,57753.59,223.74,70.41,-0.043702,-0.126401,1.838076,64.05,1
12017,0,45497,57828,45276.7,57753.74,220.3,74.26,-0.043712,-0.126403,1.844467,63.89,1
12027,0,45510,57835,45277.17,57753.9,232.83,81.1,-0.043722,-0.126406,1.851466,63.71,1
12037,0,45512,57842,45277.64,57754.08,234.36,87.92,-0.043733,-0.126409,1.858172,63.55,1
12048,0,45519,57836,45278.13,57754.24,240.87,81.76,-0.043743,-0.126412,1.865808,63.35,1
12058,0,45513,57831,45278.6,57754.4,234.4,76.6,-0.043754,-0.126415,1.873219,63.17,1
12069,0,45515,57820,45279.07,57754.53,235.93,65.47,-0.043764,-0.126417,1.881368,62.97,1
12079,0,45508,57825,45279.54,57754.67,228.46,70.33,-0.043774,-0.12642,1.888671,62.78,1
12086,0,45509,57810,45280,57754.79,229,55.21,-0.043784,-0.126422,1.896774,62.58,1
12098,0,45505,57815,45280.45,57754.91,224.55,60.09,-0.043794,-0.126424,1.904321,62.39,1
12107,0,45501,57805,45280.89,57755.01,220.11,49.99,-0.043804,-0.126425,1.911984,62.2,1
12118,0,45490,57789,45281.31,57755.08,208.69,33.92,-0.043813,-0.126427,1.919347,62.02,1
12129,0,45470,57772,45281.69,57755.11,188.31,16.89,-0.043822,-0.126427,1.925642,61.86,1
12137,0,45468,57775,45282.06,57755.16,185.94,19.84,-0.04383,-0.126428,1.931772,61.71,1
12147,0,45463,57762,45282.43,57755.17,180.57,6.83,-0.043838,-0.126428,1.937728,61.56,1
12158,0,45459,57761,45282.78,57755.18,176.22,5.82,-0.043846,-0.126428,1.943444,61.41,1
12167,0,45451,57761,45283.12,57755.2,167.88,5.8,-0.043853,-0.126429,1.948667,61.28,1
12177,0,45465,57773,45283.48,57755.23,181.52,17.77,-0.043861,-0.126429,1.954698,61.13,1
12186,0,45469,57765,45283.85,57755.25,185.15,9.75,-0.04387,-0.126429,1.961117,60.97,1
12198,0,45465,57762,45284.21,57755.27,180.79,6.73,-0.043878,-0.12643,1.967298,60.82,1
12208,0,45464,57749,45284.57,57755.25,179.43,-6.25,-0.043886,-0.12643,1.973431,60.66,1
12216,0,45457,57741,45284.92,57755.23,172.08,-14.23,-0.043893,-0.126429,1.979033,60.52,1
12229,0,45444,57729,45285.24,57755.18,158.76,-26.18,-0.0439,-0.126428,1.983593,60.41,1
12236,0,45441,57719,45285.55,57755.11,155.45,-36.11,-0.043907,-0.126427,1.987688,60.31,1
12247,0,45446,57721,45285.87,57755.04,160.12,-34.04,-0.043914,-0.126426,1.992171,60.2,1
12257,0,45434,57719,45286.17,57754.97,147.83,-35.97,-0.043921,-0.126425,1.995868,60.1,1
12267,0,45439,57716,45286.48,57754.89,152.52,-38.89,-0.043928,-0.126423,1.999763,60.01,1
12276,0,45450,57723,45286.81,57754.83,163.19,-31.83,-0.043935,-0.126422,nan,nan,0
12287,0,45457,57743,45287.15,57754.8,169.85,-11.8,-0.043942,-0.126422,nan,nan,0
12296,0,45474,57755,45287.52,57754.8,186.48,0.2,-0.043951,-0.126422,nan,nan,0
12306,0,45498,57788,45287.95,57754.87,210.05,33.13,-0.04396,-0.126423,nan,nan,0
12317,0,45524,57819,45288.42,57755,235.58,64,-0.04397,-0.126425,nan,nan,0
12326,0,45565,57855,45288.97,57755.2,276.03,99.8,-0.043983,-0.126429,nan,nan,0
12336,0,45601,57893,45289.6,57755.48,311.4,137.52,-0.043997,-0.126433,nan,nan,0
12346,0,45632,57930,45290.29,57755.83,341.71,174.17,-0.044012,-0.12644,nan,nan,0
12356,0,45680,57947,45291.07,57756.21,388.93,190.79,-0.044029,-0.126446,nan,nan,0
12365,0,45706,57957,45291.9,57756.62,414.1,200.38,-0.044047,-0.126453,nan,nan,0
12376,0,45721,57968,45292.76,57757.04,428.24,210.96,-0.044066,-0.126461,nan,nan,0
12384,0,45729,57987,45293.63,57757.5,435.37,229.5,-0.044086,-0.126469,nan,nan,0
12396,0,45746,57987,45294.54,57757.96,451.46,229.04,-0.044106,-0.126477,nan,nan,0
12403,0,45745,57985,45295.44,57758.42,449.56,226.58,-0.044126,-0.126484,nan,nan,0
12416,0,45751,57990,45296.36,57758.89,454.64,231.11,-0.044146,-0.126493,nan,nan,0
12426,0,45755,58001,45297.27,57759.37,457.73,241.63,-0.044166,-0.126501,nan,nan,0
12437,0,45780,58010,45298.24,57759.87,481.76,250.12,-0.044187,-0.12651,nan,nan,0
12445,0,45783,58016,45299.21,57760.39,483.79,255.61,-0.044209,-0.126519,nan,nan,0
12455,0,45801,58021,45300.21,57760.91,500.79,260.09,-0.044231,-0.126528,nan,nan,0
12465,0,45807,58023,45301.23,57761.44,505.77,261.56,-0.044253,-0.126537,nan,nan,0
12475,0,45814,58027,45302.25,57761.97,511.75,265.03,-0.044276,-0.126546,nan,nan,0
12485,0,45820,58021,45303.29,57762.49,516.71,258.51,-0.044299,-0.126555,nan,nan,0
12496,0,45813,58016,45304.31,57763,508.69,253,-0.044321,-0.126564,nan,nan,0
12508,0,45813,58018,45305.33,57763.51,507.67,254.49,-0.044344,-0.126573,nan,nan,0
12518,0,45800,58006,45306.32,57764,493.68,242,-0.044366,-0.126581,nan,nan,0
12527,0,45806,57996,45307.32,57764.46,498.68,231.54,-0.044388,-0.126589,nan,nan,0
12538,0,45787,57982,45308.28,57764.9,478.72,217.1,-0.044409,-0.126597,nan,nan,0
12548,0,45765,57964,45309.2,57765.3,455.8,198.7,-0.044429,-0.126604,nan,nan,0
12559,0,45747,57947,45310.07,57765.66,436.93,181.34,-0.044448,-0.12661,nan,nan,0
12568,0,45725,57923,45310.9,57765.98,414.1,157.02,-0.044467,-0.126615,nan,nan,0
12577,0,45704,57912,45311.69,57766.27,392.31,145.73,-0.044484,-0.12662,nan,nan,0
12588,0,45692,57913,45312.45,57766.57,379.55,146.43,-0.044501,-0.126626,nan,nan,0
12597,0,45701,57923,45313.23,57766.88,387.77,156.12,-0.044518,-0.126631,nan,nan,0
12608,0,45725,57950,45314.05,57767.25,410.95,182.75,-0.044536,-0.126637,nan,nan,0
12618,0,45754,57981,45314.94,57767.68,439.06,213.32,-0.044556,-0.126645,nan,nan,0
12627,0,45782,57996,45315.87,57768.14,466.13,227.86,-0.044576,-0.126653,nan,nan,0
12639,0,45809,58014,45316.86,57768.63,492.14,245.37,-0.044598,-0.126661,nan,nan,0
12647,0,45827,58020,45317.88,57769.13,509.12,250.87,-0.044621,-0.12667,nan,nan,0
12659,0,45821,58003,45318.89,57769.6,502.11,233.4,-0.044643,-0.126678,nan,nan,0
12668,0,45807,57976,45319.86,57770.02,487.14,205.98,-0.044665,-0.126685,nan,nan,0
12677,0,45770,57948,45320.77,57770.37,449.23,177.62,-0.044684,-0.126691,nan,nan,0
12689,0,45727,57898,45321.58,57770.63,405.42,127.37,-0.044702,-0.126696,nan,nan,0
12698,0,45679,57855,45322.29,57770.8,356.71,84.2,-0.044718,-0.126699,nan,nan,0
12708,0,45631,57805,45322.91,57770.87,308.09,34.13,-0.044732,-0.1267,nan,nan,0
12718,0,45576,57751,45323.42,57770.84,252.58,-19.84,-0.044743,-0.126699,nan,nan,0
12727,0,45525,57712,45323.82,57770.72,201.18,-58.72,-0.044752,-0.126697,nan,nan,0
12736,0,45484,57669,45324.14,57770.52,159.86,-101.52,-0.044759,-0.126694,nan,nan,0
12748,0,45450,57642,45324.4,57770.26,125.6,-128.26,-0.044765,-0.126689,nan,nan,0
12758,0,45430,57612,45324.61,57769.95,105.39,-157.95,-0.044769,-0.126684,nan,nan,0
12768,0,45413,57594,45324.79,57769.59,88.21,-175.59,-0.044773,-0.126678,nan,nan,0
12777,0,45397,57603,45324.93,57769.26,72.07,-166.26,-0.044776,-0.126672,nan,nan,0
12787,0,45401,57606,45325.09,57768.94,75.91,-162.94,-0.04478,-0.126666,nan,nan,0
12799,0,45416,57627,45325.27,57768.66,90.73,-141.66,-0.044784,-0.126662,nan,nan,0
12808,0,45420,57633,45325.46,57768.39,94.54,-135.39,-0.044788,-0.126657,nan,nan,0
12818,0,45435,57656,45325.68,57768.16,109.32,-112.16,-0.044793,-0.126653,nan,nan,0
12828,0,45456,57677,45325.94,57767.98,130.06,-90.98,-0.044799,-0.12665,nan,nan,0
12838,0,45472,57693,45326.23,57767.84,145.77,-74.84,-0.044805,-0.126647,nan,nan,0
12848,0,45489,57715,45326.56,57767.73,162.44,-52.73,-0.044812,-0.126646,nan,nan,0
12859,0,45503,57726,45326.92,57767.65,176.08,-41.65,-0.04482,-0.126644,nan,nan,0
12867,0,45529,57745,45327.32,57767.61,201.68,-22.61,-0.044829,-0.126643,nan,nan,0
12878,0,45545,57761,45327.76,57767.59,217.24,-6.59,-0.044839,-0.126643,nan,nan,0
12887,0,45552,57770,45328.21,57767.6,223.79,2.4,-0.044849,-0.126643,nan,nan,0
12897,0,45560,57770,45328.68,57767.61,231.32,2.39,-0.044859,-0.126643,nan,nan,0
12908,0,45562,57763,45329.14,57767.6,232.86,-4.6,-0.044869,-0.126643,nan,nan,0
12917,0,45566,57767,45329.62,57767.6,236.38,-0.6,-0.04488,-0.126643,nan,nan,0
12927,0,45566,57764,45330.09,57767.6,235.91,-3.6,-0.04489,-0.126643,nan,nan,0
12937,0,45560,57758,45330.55,57767.58,229.45,-9.58,-0.0449,-0.126643,nan,nan,0
12948,0,45558,57753,45331.01,57767.55,226.99,-14.55,-0.044911,-0.126643,nan,nan,0
12958,0,45562,57752,45331.48,57767.52,230.52,-15.52,-0.044921,-0.126642,nan,nan,0
12967,0,45554,57734,45331.92,57767.45,222.08,-33.45,-0.044931,-0.126641,nan,nan,0
12977,0,45540,57721,45332.34,57767.36,207.66,-46.36,-0.04494,-0.126639,nan,nan,0
12989,0,45531,57711,45332.74,57767.25,198.26,-56.25,-0.044949,-0.126637,nan,nan,0
12998,0,45520,57698,45333.11,57767.12,186.89,-69.12,-0.044957,-0.126635,nan,nan,0
13008,0,45516,57691,45333.48,57766.96,182.52,-75.96,-0.044965,-0.126632,nan,nan,0
13018,0,45510,57699,45333.84,57766.83,176.16,-67.83,-0.044973,-0.12663,nan,nan,0
13027,0,45520,57707,45334.21,57766.71,185.79,-59.71,-0.044981,-0.126628,nan,nan,0
13038,0,45535,57726,45334.61,57766.64,200.39,-40.64,-0.04499,-0.126627,nan,nan,0
13048,0,45554,57750,45335.05,57766.61,218.95,-16.61,-0.045,-0.126626,nan,nan,0
13058,0,45579,57764,45335.54,57766.6,243.46,-2.6,-0.045011,-0.126626,nan,nan,0
13068,0,45599,57781,45336.07,57766.63,262.93,14.37,-0.045022,-0.126627,nan,nan,0
13077,0,45608,57793,45336.62,57766.69,271.38,26.31,-0.045034,-0.126628,nan,nan,0
13088,0,45618,57796,45337.18,57766.75,280.82,29.25,-0.045047,-0.126629,nan,nan,0
13095,0,45618,57801,45337.74,57766.82,280.26,34.18,-0.045059,-0.12663,nan,nan,0
13107,0,45622,57804,45338.31,57766.89,283.69,37.11,-0.045072,-0.126631,nan,nan,0
13117,0,45625,57787,45338.89,57766.93,286.11,20.07,-0.045084,-0.126632,nan,nan,0
13128,0,45626,57772,45339.46,57766.95,286.54,5.05,-0.045097,-0.126632,nan,nan,0
13136,0,45603,57760,45339.99,57766.93,263.01,-6.93,-0.045109,-0.126632,nan,nan,0
13147,0,45597,57764,45340.5,57766.93,256.5,-2.93,-0.04512,-0.126632,nan,nan,0
13158,0,45599,57763,45341.02,57766.92,257.98,-3.92,-0.045131,-0.126632,nan,nan,0
13167,0,45602,57758,45341.55,57766.91,260.45,-8.91,-0.045143,-0.126631,nan,nan,0
13178,0,45597,57764,45342.06,57766.9,254.94,-2.9,-0.045154,-0.126631,nan,nan,0
13187,0,45596,57768,45342.57,57766.91,253.43,1.09,-0.045165,-0.126631,nan,nan,0
13198,0,45603,57779,45343.09,57766.93,259.91,12.07,-0.045177,-0.126632,nan,nan,0
13210,0,45612,57789,45343.63,57766.98,268.37,22.02,-0.045189,-0.126633,nan,nan,0
13218,0,45622,57796,45344.19,57767.04,277.81,28.96,-0.045201,-0.126634,nan,nan,0
13228,0,45639,57817,45344.78,57767.14,294.22,49.86,-0.045214,-0.126635,nan,nan,0
13237,0,45650,57829,45345.39,57767.27,304.61,61.73,-0.045228,-0.126638,nan,nan,0
13248,0,45657,57837,45346.02,57767.41,310.98,69.59,-0.045241,-0.12664,nan,nan,0
13257,0,45665,57836,45346.66,57767.55,318.34,68.45,-0.045256,-0.126642,nan,nan,0
13268,0,45671,57838,45347.3,57767.69,323.7,70.31,-0.04527,-0.126645,nan,nan,0
13278,0,45666,57829,45347.94,57767.81,318.06,61.19,-0.045284,-0.126647,nan,nan,0
13289,0,45664,57824,45348.57,57767.93,315.43,56.07,-0.045298,-0.126649,nan,nan,0
13298,0,45665,57818,45349.21,57768.03,315.79,49.97,-0.045312,-0.126651,nan,nan,0
13308,0,45657,57814,45349.82,57768.12,307.18,45.88,-0.045325,-0.126652,nan,nan,0
13319,0,45649,57813,45350.42,57768.21,298.58,44.79,-0.045339,-0.126654,nan,nan,0
13328,0,45652,57812,45351.03,57768.3,300.97,43.7,-0.045352,-0.126655,nan,nan,0
13339,0,45653,57812,45351.63,57768.39,301.37,43.61,-0.045365,-0.126657,nan,nan,0
13348,0,45648,57807,45352.23,57768.47,295.77,38.53,-0.045378,-0.126658,nan,nan,0
13359,0,45640,57800,45352.8,57768.54,287.2,31.46,-0.045391,-0.12666,nan,nan,0
13370,0,45639,57804,45353.38,57768.61,285.62,35.39,-0.045404,-0.126661,nan,nan,0
13378,0,45633,57799,45353.94,57768.67,279.06,30.33,-0.045416,-0.126662,nan,nan,0
13389,0,45633,57794,45354.5,57768.72,278.5,25.28,-0.045428,-0.126663,nan,nan,0
13399,0,45633,57781,45355.05,57768.75,277.95,12.25,-0.045441,-0.126663,nan,nan,0
13409,0,45624,57780,45355.59,57768.77,268.41,11.23,-0.045453,-0.126664,nan,nan,0
13419,0,45620,57776,45356.12,57768.79,263.87,7.21,-0.045464,-0.126664,nan,nan,0
13429,0,45620,57777,45356.65,57768.81,263.35,8.19,-0.045476,-0.126664,nan,nan,0
13441,0,45627,57783,45357.2,57768.84,269.8,14.16,-0.045488,-0.126665,nan,nan,0
13449,0,45627,57770,45357.73,57768.84,269.27,1.16,-0.0455,-0.126665,nan,nan,0
13459,0,45616,57763,45358.25,57768.83,257.75,-5.83,-0.045511,-0.126665,nan,nan,0
13468,0,45607,57763,45358.75,57768.82,248.25,-5.82,-0.045522,-0.126664,nan,nan,0
13479,0,45609,57756,45359.25,57768.8,249.75,-12.8,-0.045533,-0.126664,nan,nan,0
13488,0,45603,57753,45359.74,57768.77,243.26,-15.77,-0.045544,-0.126664,nan,nan,0
13499,0,45597,57742,45360.22,57768.71,236.78,-26.71,-0.045555,-0.126663,nan,nan,0
13508,0,45581,57727,45360.66,57768.63,220.34,-41.63,-0.045564,-0.126661,nan,nan,0
13519,0,45561,57707,45361.06,57768.51,199.94,-61.51,-0.045573,-0.126659,nan,nan,0
13529,0,45544,57682,45361.43,57768.34,182.57,-86.34,-0.045581,-0.126656,nan,nan,0
13539,0,45529,57670,45361.77,57768.14,167.23,-98.14,-0.045589,-0.126653,nan,nan,0
13549,0,45518,57660,45362.08,57767.93,155.92,-107.93,-0.045596,-0.126649,nan,nan,0
13559,0,45502,57648,45362.36,57767.69,139.64,-119.69,-0.045602,-0.126645,nan,nan,0
13569,0,45503,57642,45362.64,57767.44,140.36,-125.44,-0.045608,-0.126641,nan,nan,0
13578,0,45495,57640,45362.91,57767.19,132.09,-127.19,-0.045614,-0.126636,nan,nan,0
13590,0,45491,57632,45363.16,57766.92,127.84,-134.92,-0.04562,-0.126631,nan,nan,0
13599,0,45490,57640,45363.42,57766.66,126.58,-126.66,-0.045625,-0.126627,nan,nan,0
13609,0,45498,57641,45363.69,57766.41,134.31,-125.41,-0.045631,-0.126623,nan,nan,0
13619,0,45507,57652,45363.98,57766.19,143.02,-114.19,-0.045637,-0.126619,nan,nan,0
13629,0,45510,57650,45364.27,57765.96,145.73,-115.96,-0.045644,-0.126615,nan,nan,0
13639,0,45512,57651,45364.57,57765.73,147.43,-114.73,-0.04565,-0.126611,nan,nan,0
13649,0,45530,57657,45364.9,57765.52,165.1,-108.52,-0.045658,-0.126607,nan,nan,0
13658,0,45530,57663,45365.23,57765.31,164.77,-102.31,-0.045665,-0.126604,nan,nan,0
13669,0,45529,57667,45365.56,57765.12,163.44,-98.12,-0.045672,-0.1266,nan,nan,0
13679,0,45535,57668,45365.9,57764.93,169.1,-96.93,-0.04568,-0.126597,nan,nan,0
13690,0,45540,57663,45366.25,57764.72,173.75,-101.72,-0.045687,-0.126594,nan,nan,0
13699,0,45535,57651,45366.59,57764.5,168.41,-113.5,-0.045695,-0.12659,nan,nan,0
13709,0,45524,57631,45366.9,57764.23,157.1,-133.23,-0.045702,-0.126585,nan,nan,0
13720,0,45510,57619,45367.19,57763.94,142.81,-144.94,-0.045708,-0.12658,nan,nan,0
13731,0,45504,57598,45367.46,57763.61,136.54,-165.61,-0.045714,-0.126574,nan,nan,0
13745,0,45495,57603,45367.72,57763.29,127.28,-160.29,-0.04572,-0.126569,nan,nan,0
13749,0,45501,57598,45367.99,57762.96,133.01,-164.96,-0.045726,-0.126563,nan,nan,0
13759,0,45487,57600,45368.23,57762.64,118.77,-162.64,-0.045731,-0.126557,nan,nan,0
13768,0,45491,57594,45368.48,57762.3,122.52,-168.3,-0.045737,-0.126552,nan,nan,0
13781,0,45499,57596,45368.74,57761.97,130.26,-165.97,-0.045742,-0.126546,nan,nan,0
13789,0,45505,57611,45369.01,57761.67,135.99,-150.67,-0.045748,-0.126541,nan,nan,0
13799,0,45501,57609,45369.28,57761.36,131.72,-152.36,-0.045754,-0.126535,nan,nan,0
13809,0,45507,57615,45369.55,57761.07,137.45,-146.07,-0.04576,-0.12653,nan,nan,0
13818,0,45512,57617,45369.84,57760.79,142.16,-143.79,-0.045767,-0.126525,nan,nan,0
