t_ms,phase,red_raw,ir_raw,red_dc,ir_dc,red_ac,ir_ac,OD_red,OD_ir,R,spo2,spo2_valid
43737,0,221477,257986,221124.53,257769.56,352.47,216.44,-0.165617,-0.15468,1.095408,82.61,1
43778,0,221482,257991,221131.68,257773.98,350.31,217.02,-0.16565,-0.154697,1.096135,82.6,1
43816,0,221487,257981,221138.79,257778.14,348.2,202.86,-0.165682,-0.154713,1.096903,82.58,1
43857,0,221478,257983,221145.59,257782.23,332.41,200.77,-0.165712,-0.154729,1.097584,82.56,1
43896,0,221490,257986,221152.48,257786.31,337.52,199.69,-0.165744,-0.154745,1.098307,82.54,1
43937,0,221482,257975,221159.07,257790.09,322.92,184.91,-0.165773,-0.15476,1.098993,82.53,1
43976,0,221490,257995,221165.7,257794.2,324.3,200.8,-0.165803,-0.154776,1.09964,82.51,1
44017,0,221499,257986,221172.37,257798.04,326.63,187.95,-0.165834,-0.15479,1.100351,82.49,1
44057,0,221500,257974,221178.93,257801.57,321.06,172.42,-0.165863,-0.154804,1.10108,82.47,1
44097,0,221472,257945,221184.79,257804.45,287.2,140.55,-0.16589,-0.154815,1.101702,82.46,1
44137,0,221464,257928,221190.39,257806.93,273.61,121.06,-0.165915,-0.154825,1.102299,82.44,1
44177,0,221435,257873,221195.29,257808.25,239.7,64.75,-0.165937,-0.15483,1.10282,82.43,1
44217,0,221405,257848,221199.48,257809.04,205.52,38.95,-0.165956,-0.154833,1.103218,82.42,1
44256,0,221372,257816,221202.93,257809.18,169.06,6.81,-0.165972,-0.154834,1.103495,82.41,1
44297,0,221334,257783,221205.56,257808.67,128.44,-25.67,-0.165984,-0.154832,1.103644,82.41,1
44336,0,221331,257782,221208.07,257808.14,122.92,-26.14,-0.165995,-0.15483,1.103781,82.41,1
44377,0,221315,257781,221210.21,257807.6,104.78,-26.61,-0.166005,-0.154828,1.103875,82.4,1
44417,0,221315,257776,221212.31,257806.98,102.69,-30.98,-0.166014,-0.154825,1.103964,82.4,1
44456,0,221297,257755,221214.01,257805.93,82.98,-50.94,-0.166022,-0.154821,1.103999,82.4,1
44496,0,221276,257759,221215.25,257805,60.75,-46,-0.166027,-0.154817,1.104005,82.4,1
44535,0,221273,257764,221216.4,257804.18,56.59,-40.19,-0.166033,-0.154814,1.104011,82.4,1
44576,0,221246,257758,221217,257803.26,29,-45.27,-0.166035,-0.154811,1.103986,82.4,1
44616,0,221211,257740,221216.89,257802,-5.89,-62,-0.166035,-0.154806,1.103935,82.4,1
44655,0,221189,257703,221216.34,257800.03,-27.34,-97.03,-0.166032,-0.154798,1.103835,82.4,1
44696,0,221147,257675,221214.95,257797.53,-67.95,-122.53,-0.166026,-0.154788,1.103722,82.41,1
44735,0,221121,257678,221213.07,257795.14,-92.08,-117.14,-0.166018,-0.154779,1.103665,82.41,1
44776,0,221112,257668,221211.06,257792.6,-99.06,-124.61,-0.166008,-0.154769,1.103605,82.41,1
44816,0,221129,257664,221209.42,257790.04,-80.42,-126.05,-0.166001,-0.154759,1.103502,82.41,1
44856,0,221117,257649,221207.57,257787.23,-90.58,-138.23,-0.165993,-0.154749,1.103384,82.42,1
44896,0,221100,257648,221205.43,257784.45,-105.44,-136.45,-0.165983,-0.154738,1.103306,82.42,1
44935,0,221094,257634,221203.2,257781.43,-109.2,-147.44,-0.165973,-0.154726,1.103203,82.42,1
44976,0,221101,257651,221201.15,257778.82,-100.16,-127.83,-0.165964,-0.154716,1.103135,82.42,1
45015,0,221135,257657,221199.84,257776.39,-64.84,-119.39,-0.165958,-0.154706,1.103018,82.42,1
45056,0,221121,257623,221198.26,257773.32,-77.27,-150.33,-0.165951,-0.154695,1.102829,82.43,1
45094,0,221118,257625,221196.65,257770.35,-78.66,-145.36,-0.165943,-0.154683,1.102658,82.43,1
45135,0,221108,257620,221194.89,257767.35,-86.89,-147.36,-0.165935,-0.154671,1.102496,82.44,1
45174,0,221117,257614,221193.34,257764.29,-76.34,-150.3,-0.165928,-0.15466,1.102302,82.44,1
45215,0,221114,257624,221191.76,257761.5,-77.77,-137.5,-0.165921,-0.154649,1.10215,82.45,1
45254,0,221125,257630,221190.43,257758.87,-65.44,-128.88,-0.165915,-0.154639,1.102001,82.45,1
45295,0,221143,257647,221189.5,257756.64,-46.5,-109.64,-0.165911,-0.15463,1.101877,82.45,1
45335,0,221154,257659,221188.79,257754.68,-34.8,-95.69,-0.165908,-0.154622,1.101773,82.46,1
45374,0,221177,257661,221188.57,257752.81,-11.58,-91.81,-0.165907,-0.154615,1.101662,82.46,1
45415,0,221183,257664,221188.46,257751.04,-5.47,-87.05,-0.165906,-0.154608,1.10156,82.46,1
45454,0,221203,257678,221188.76,257749.59,14.23,-71.59,-0.165908,-0.154602,1.101488,82.46,1
45495,0,221214,257703,221189.28,257748.67,24.72,-45.67,-0.16591,-0.154599,1.10146,82.46,1
45535,0,221250,257738,221190.5,257748.46,59.5,-10.47,-0.165915,-0.154598,1.101496,82.46,1
45574,0,221295,257789,221192.59,257749.28,102.41,39.72,-0.165925,-0.154601,1.101613,82.46,1
45615,0,221335,257815,221195.45,257750.59,139.55,64.41,-0.165938,-0.154606,1.101825,82.45,1
45654,0,221371,257820,221198.96,257752,172.03,68,-0.165954,-0.154612,1.102179,82.45,1
45694,0,221360,257824,221202.2,257753.45,157.8,70.55,-0.165968,-0.154618,1.102464,82.44,1
45733,0,221389,257825,221205.93,257754.89,183.06,70.11,-0.165985,-0.154623,1.102879,82.43,1
45774,0,221390,257833,221209.62,257756.45,180.38,76.55,-0.166002,-0.154629,1.103271,82.42,1
45814,0,221399,257839,221213.42,257758.1,185.58,80.89,-0.166019,-0.154636,1.103685,82.41,1
45854,0,221400,257829,221217.15,257759.53,182.84,69.47,-0.166036,-0.154641,1.104112,82.4,1
45894,0,221391,257830,221220.62,257760.93,170.38,69.06,-0.166052,-0.154646,1.104477,82.39,1
45933,0,221398,257837,221224.17,257762.45,173.83,74.55,-0.166068,-0.154652,1.104853,82.38,1
45974,0,221400,257843,221227.68,257764.06,172.31,78.94,-0.166084,-0.154659,1.105214,82.37,1
46013,0,221407,257850,221231.28,257765.78,175.72,84.22,-0.1661,-0.154665,1.105586,82.36,1
46054,0,221402,257838,221234.7,257767.23,167.3,70.77,-0.166115,-0.154671,1.105946,82.35,1
46093,0,221404,257831,221238.09,257768.51,165.91,62.48,-0.166131,-0.154676,1.106317,82.34,1
46134,0,221399,257828,221241.32,257769.71,157.67,58.28,-0.166145,-0.154681,1.106657,82.33,1
46173,0,221415,257839,221244.79,257771.1,170.2,67.89,-0.166161,-0.154686,1.107049,82.32,1
46214,0,221405,257842,221248,257772.53,157,69.47,-0.166175,-0.154692,1.10737,82.32,1
46254,0,221423,257843,221251.5,257773.93,171.5,69.06,-0.166191,-0.154697,1.107775,82.31,1
46292,0,221430,257866,221255.06,257775.78,174.94,90.22,-0.166207,-0.154704,1.108152,82.3,1
46333,0,221434,257858,221258.65,257777.42,175.34,80.58,-0.166224,-0.15471,1.108561,82.29,1
46372,0,221442,257867,221262.32,257779.21,179.67,87.78,-0.16624,-0.154717,1.108981,82.28,1
46413,0,221447,257876,221266.01,257781.15,180.98,94.84,-0.166257,-0.154725,1.109393,82.27,1
46452,0,221472,257886,221270.14,257783.25,201.86,102.75,-0.166276,-0.154733,1.109923,82.25,1
46493,0,221466,257897,221274.04,257785.53,191.95,111.47,-0.166293,-0.154742,1.11036,82.24,1
46533,0,221480,257902,221278.15,257787.87,201.84,114.12,-0.166312,-0.154751,1.110861,82.23,1
46573,0,221475,257921,221282.09,257790.54,192.91,130.45,-0.16633,-0.154761,1.111238,82.22,1
46613,0,221516,257944,221286.76,257793.6,229.23,150.39,-0.166351,-0.154773,1.111803,82.2,1
46653,0,221533,257985,221291.68,257797.43,241.31,187.56,-0.166373,-0.154788,1.112269,82.19,1
46693,0,221585,258025,221297.56,257802,287.44,223,-0.166399,-0.154806,1.112942,82.18,1
46732,0,221622,258056,221304.04,257807.09,317.95,248.91,-0.166429,-0.154826,1.113754,82.16,1
46773,0,221634,258054,221310.65,257812.03,323.34,241.97,-0.166459,-0.154845,1.114693,82.13,1
46812,0,221641,258052,221317.26,257816.84,323.73,235.16,-0.166488,-0.154863,1.115698,82.11,1
46853,0,221627,258037,221323.46,257821.25,303.53,215.75,-0.166516,-0.15488,1.116622,82.08,1
46892,0,221625,258028,221329.5,257825.39,295.5,202.61,-0.166544,-0.154897,1.117555,82.06,1
46932,0,221617,258012,221335.26,257829.12,281.73,182.88,-0.16657,-0.154911,1.118477,82.04,1
46971,0,221620,258016,221340.96,257832.85,279.03,183.14,-0.166596,-0.154925,1.119374,82.02,1
47012,0,221618,258015,221346.51,257836.5,271.48,178.5,-0.166621,-0.15494,1.120227,81.99,1
47052,0,221625,258014,221352.09,257840.06,272.91,173.94,-0.166646,-0.154953,1.12113,81.97,1
47092,0,221621,258021,221357.48,257843.68,263.52,177.31,-0.16667,-0.154968,1.121919,81.95,1
47132,0,221628,258029,221362.9,257847.39,265.09,181.61,-0.166695,-0.154982,1.122702,81.93,1
47172,0,221642,258042,221368.5,257851.29,273.5,190.7,-0.16672,-0.154997,1.123518,81.91,1
47212,0,221639,258038,221373.92,257855.04,265.08,182.95,-0.166744,-0.155012,1.124302,81.89,1
47251,0,221614,258049,221378.73,257858.93,235.27,190.06,-0.166766,-0.155027,1.124736,81.88,1
47292,0,221588,258043,221382.92,257862.62,205.08,180.38,-0.166785,-0.155041,1.124968,81.88,1
47331,0,221604,258061,221387.34,257866.59,216.66,194.41,-0.166805,-0.155056,1.125202,81.87,1
47372,0,221597,258063,221391.53,257870.53,205.47,192.47,-0.166824,-0.155072,1.125353,81.87,1
47411,0,221605,258068,221395.79,257874.48,209.2,193.52,-0.166843,-0.155087,1.12553,81.86,1
47452,0,221582,258056,221399.53,257878.12,182.47,177.88,-0.16686,-0.155101,1.1256,81.86,1
47491,0,221599,258072,221403.53,257882,195.47,190,-0.166878,-0.155116,1.125687,81.86,1
47532,0,221601,258086,221407.48,257886.07,193.52,199.92,-0.166896,-0.155132,1.12568,81.86,1
47571,0,221616,258098,221411.65,257890.31,204.34,207.69,-0.166915,-0.155148,1.125703,81.86,1
47611,0,221602,258095,221415.46,257894.42,186.53,200.58,-0.166932,-0.155164,1.125632,81.86,1
47651,0,221609,258118,221419.34,257898.89,189.66,219.11,-0.16695,-0.155182,1.125426,81.86,1
47691,0,221609,258113,221423.15,257903.18,185.84,209.81,-0.166967,-0.155198,1.125269,81.87,1
47731,0,221615,258122,221427,257907.56,188,214.44,-0.166984,-0.155215,1.125088,81.87,1
47770,0,221623,258137,221430.92,257912.15,192.08,224.84,-0.167002,-0.155233,1.124845,81.88,1
47811,0,221633,258142,221434.96,257916.76,198.03,225.23,-0.16702,-0.155251,1.124649,81.88,1
47850,0,221639,258143,221439.06,257921.29,199.94,221.7,-0.167039,-0.155268,1.124505,81.89,1
47891,0,221630,258136,221442.87,257925.59,187.13,210.41,-0.167056,-0.155285,1.12435,81.89,1
47930,0,221632,258134,221446.65,257929.78,185.34,204.22,-0.167073,-0.155301,1.124235,81.89,1
47971,0,221631,258144,221450.35,257934.06,180.64,209.94,-0.16709,-0.155318,1.124025,81.9,1
48011,0,221638,258132,221454.12,257938.03,183.88,193.97,-0.167107,-0.155333,1.123988,81.9,1
48051,0,221646,258145,221457.96,257942.18,188.03,202.81,-0.167124,-0.155349,1.123908,81.9,1
48091,0,221661,258143,221462.03,257946.2,198.97,196.8,-0.167142,-0.155365,1.123986,81.9,1
48131,0,221658,258145,221465.95,257950.18,192.05,194.81,-0.16716,-0.15538,1.124016,81.9,1
48171,0,221656,258150,221469.76,257954.18,186.23,195.81,-0.167177,-0.155396,1.123982,81.9,1
48210,0,221658,258142,221473.53,257957.95,184.47,184.05,-0.167194,-0.155411,1.124037,81.9,1
48250,0,221667,258149,221477.4,257961.78,189.59,187.22,-0.167212,-0.155425,1.124112,81.9,1
48289,0,221679,258149,221481.43,257965.53,197.56,183.47,-0.16723,-0.15544,1.1243,81.89,1
48330,0,221671,258167,221485.23,257969.56,185.77,197.44,-0.167247,-0.155456,1.124246,81.89,1
48369,0,221682,258165,221489.17,257973.46,192.83,191.53,-0.167265,-0.155471,1.124316,81.89,1
48410,0,221684,258169,221493.06,257977.37,190.94,191.63,-0.167282,-0.155486,1.124367,81.89,1
48449,0,221702,258164,221497.25,257981.1,204.75,182.89,-0.167301,-0.1555,1.124643,81.88,1
48490,0,221728,258171,221501.87,257984.9,226.13,186.09,-0.167322,-0.155515,1.125138,81.87,1
48530,0,221761,258181,221507.06,257988.84,253.94,192.16,-0.167346,-0.15553,1.125936,81.85,1
48570,0,221770,258190,221512.32,257992.87,257.67,197.13,-0.167369,-0.155546,1.126742,81.83,1
48610,0,221811,258220,221518.29,257997.42,292.7,222.58,-0.167396,-0.155564,1.127805,81.8,1
48650,0,221820,258231,221524.34,258002.1,295.66,228.89,-0.167424,-0.155582,1.128848,81.78,1
48690,0,221836,258257,221530.57,258007.21,305.42,249.78,-0.167452,-0.155602,1.129798,81.76,1
48730,0,221848,258241,221536.92,258011.89,311.08,229.11,-0.167481,-0.15562,1.131107,81.72,1
48770,0,221842,258209,221543.03,258015.84,298.97,193.16,-0.167508,-0.155635,1.132615,81.68,1
48808,0,221801,258108,221548.18,258017.68,252.81,90.31,-0.167531,-0.155642,1.134191,81.65,1
48849,0,221790,258113,221553.03,258019.6,236.97,93.39,-0.167553,-0.15565,1.135544,81.61,1
48888,0,221861,258130,221559.18,258021.81,301.81,108.19,-0.167581,-0.155658,1.137827,81.55,1
48929,0,221857,258133,221565.15,258024.03,291.84,108.97,-0.167608,-0.155667,1.139951,81.5,1
48969,0,221856,258130,221570.98,258026.15,285.02,103.84,-0.167634,-0.155675,1.142005,81.45,1
49009,0,221843,258128,221576.42,258028.2,266.58,99.8,-0.167659,-0.155683,1.143799,81.41,1
49049,0,221844,258136,221581.76,258030.35,262.23,105.64,-0.167683,-0.155691,1.145505,81.36,1
49089,0,221837,258136,221586.87,258032.46,250.13,103.53,-0.167706,-0.155699,1.147051,81.32,1
49129,0,221845,258150,221592.04,258034.82,252.95,115.17,-0.167729,-0.155709,1.148577,81.29,1
49169,0,221848,258150,221597.15,258037.14,250.84,112.86,-0.167752,-0.155717,1.150098,81.25,1
49209,0,221849,258163,221602.2,258039.67,246.8,123.33,-0.167775,-0.155727,1.151495,81.21,1
49248,0,221864,258165,221607.43,258042.18,256.56,122.81,-0.167799,-0.155737,1.153058,81.17,1
49289,0,221867,258176,221612.64,258044.85,254.36,131.14,-0.167822,-0.155747,1.154532,81.14,1
49328,0,221887,258184,221618.12,258047.65,268.88,136.34,-0.167847,-0.155758,1.156211,81.09,1
49369,0,221889,258189,221623.54,258050.48,265.45,138.52,-0.167871,-0.155769,1.157825,81.05,1
49410,0,221895,258182,221628.98,258053.12,266.02,128.88,-0.167896,-0.155779,1.15954,81.01,1
49448,0,221899,258179,221634.39,258055.64,264.61,123.36,-0.16792,-0.155789,1.161287,80.97,1
49488,0,221905,258181,221639.79,258058.15,265.2,122.84,-0.167945,-0.155799,1.16306,80.92,1
49528,0,221894,258176,221644.87,258060.51,249.13,115.48,-0.167968,-0.155808,1.164633,80.88,1
49568,0,221906,258184,221650.1,258063,255.89,121,-0.167991,-0.155818,1.166288,80.84,1
49608,0,221904,258183,221655.18,258065.4,248.81,117.59,-0.168014,-0.155827,1.167862,80.8,1
49648,0,221909,258199,221660.28,258068.09,248.72,130.91,-0.168037,-0.155837,1.169336,80.77,1
49688,0,221928,258218,221665.64,258071.09,262.36,146.91,-0.168061,-0.155849,1.170903,80.73,1
49728,0,221939,258219,221671.1,258074.04,267.89,144.95,-0.168086,-0.15586,1.172598,80.69,1
49767,0,221969,258236,221677.06,258077.29,291.94,158.7,-0.168113,-0.155873,1.174617,80.63,1
49808,0,221974,258253,221683.01,258080.81,290.98,172.19,-0.16814,-0.155887,1.176472,80.59,1
49847,0,222000,258245,221689.35,258084.1,310.64,160.89,-0.168168,-0.1559,1.178876,80.53,1
49888,0,221989,258252,221695.35,258087.48,293.64,164.52,-0.168195,-0.155913,1.180894,80.48,1
49927,0,222015,258259,221701.75,258090.9,313.25,168.09,-0.168224,-0.155926,1.183293,80.42,1
49968,0,222016,258263,221708.03,258094.35,307.97,168.64,-0.168253,-0.155939,1.185582,80.36,1
50009,0,222042,258263,221714.71,258097.75,327.28,165.25,-0.168283,-0.155952,1.188356,80.29,1
50048,0,222029,258254,221721,258100.87,308,153.13,-0.168311,-0.155964,1.190851,80.23,1
50087,0,222045,258272,221727.48,258104.29,317.52,167.7,-0.16834,-0.155978,1.193395,80.17,1
50127,0,222046,258261,221733.85,258107.43,312.14,153.56,-0.168369,-0.15599,1.196,80.1,1
50167,0,222054,258269,221740.26,258110.67,313.73,158.33,-0.168398,-0.156002,1.198598,80.04,1
50207,0,222065,258262,221746.76,258113.7,318.23,148.3,-0.168427,-0.156014,1.20143,79.96,1
50247,0,222066,258281,221753.14,258117.06,312.86,163.94,-0.168456,-0.156027,1.20396,79.9,1
50286,0,222091,258298,221759.89,258120.67,331.11,177.33,-0.168486,-0.156041,1.206754,79.83,1
50327,0,222088,258299,221766.46,258124.25,321.53,174.75,-0.168516,-0.156055,1.209362,79.77,1
50366,0,222110,258310,221773.34,258127.96,336.66,182.03,-0.168547,-0.156069,1.212247,79.69,1
50407,0,222116,258306,221780.18,258131.54,335.81,174.45,-0.168578,-0.156083,1.215229,79.62,1
50446,0,222113,258289,221786.85,258134.7,326.14,154.3,-0.168608,-0.156095,1.218254,79.54,1
50487,0,222078,258266,221792.68,258137.32,285.31,128.67,-0.168634,-0.156106,1.220646,79.48,1
50528,0,222077,258272,221798.39,258140.03,278.61,131.97,-0.16866,-0.156116,1.222872,79.43,1
50567,0,222067,258269,221803.76,258142.6,263.23,126.39,-0.168684,-0.156126,1.224852,79.38,1
50607,0,222088,258317,221809.45,258146.1,278.55,170.89,-0.16871,-0.15614,1.226596,79.34,1
50647,0,222115,258346,221815.56,258150.1,299.44,195.89,-0.168737,-0.156155,1.228422,79.29,1
50686,0,222170,258416,221822.65,258155.42,347.34,260.58,-0.168769,-0.156176,1.230177,79.25,1
50726,0,222269,258526,221831.57,258162.82,437.42,363.17,-0.16881,-0.156204,1.231897,79.2,1
50766,0,222357,258614,221842.09,258171.85,514.91,442.14,-0.168857,-0.156239,1.233696,79.16,1
50806,0,222560,258951,221856.45,258187.43,703.55,763.56,-0.168922,-0.1563,1.227677,79.31,1
50846,0,223040,259437,221880.12,258212.42,1159.88,1224.58,-0.169028,-0.156397,1.216514,79.59,1
50886,0,223545,259760,221913.43,258243.37,1631.56,1516.63,-0.169179,-0.156516,1.221239,79.47,1
50926,0,223727,259807,221949.71,258274.65,1777.28,1532.34,-0.169342,-0.156638,1.236997,79.08,1
50966,0,223723,259773,221985.18,258304.62,1737.81,1468.38,-0.169502,-0.156754,1.251453,78.71,1
51007,0,223673,259700,222018.93,258332.53,1654.06,1367.47,-0.169654,-0.156862,1.26451,78.39,1
51046,0,223601,259640,222050.57,258358.68,1550.42,1281.31,-0.169796,-0.156963,1.27443,78.14,1
51085,0,223504,259532,222079.65,258382.15,1424.34,1149.84,-0.169927,-0.157054,1.283412,77.91,1
51126,0,223381,259423,222105.68,258402.96,1275.31,1020.03,-0.170045,-0.157134,1.290468,77.74,1
51166,0,223282,259313,222129.21,258421.18,1152.78,891.81,-0.17015,-0.157205,1.29715,77.57,1
51206,0,223182,259248,222150.28,258437.71,1031.72,810.28,-0.170245,-0.157269,1.3018,77.45,1
51246,0,223130,259186,222169.87,258452.68,960.13,733.31,-0.170333,-0.157327,1.306389,77.34,1
51286,0,223076,259145,222188,258466.54,888,678.45,-0.170415,-0.15738,1.310194,77.25,1
51324,0,223017,259119,222204.59,258479.59,812.41,639.41,-0.17049,-0.157431,1.312761,77.18,1
51365,0,222981,259090,222220.12,258491.79,760.88,598.2,-0.17056,-0.157478,1.314986,77.13,1
51404,0,222942,258985,222234.57,258501.67,707.42,483.33,-0.170625,-0.157516,1.318622,77.03,1
51445,0,222833,258941,222246.54,258510.45,586.45,430.55,-0.170679,-0.15755,1.320524,76.99,1
51486,0,222833,258916,222258.28,258518.56,574.72,397.44,-0.170731,-0.157581,1.322809,76.93,1
51525,0,222805,258905,222269.21,258526.29,535.78,378.7,-0.170781,-0.157611,1.324645,76.88,1
51566,0,222806,258915,222279.96,258534.07,526.03,380.92,-0.170829,-0.157642,1.326249,76.84,1
51605,0,222792,258891,222290.21,258541.21,501.78,349.78,-0.170875,-0.157669,1.327936,76.8,1
51645,0,222794,258920,222300.29,258548.81,493.7,371.19,-0.17092,-0.157698,1.329105,76.77,1
51685,0,222823,258948,222310.75,258556.79,512.25,391.2,-0.170967,-0.157729,1.33025,76.74,1
51725,0,222822,258923,222320.98,258564.12,501.02,358.88,-0.171013,-0.157758,1.331769,76.71,1
51765,0,222817,258921,222330.9,258571.26,486.09,349.73,-0.171058,-0.157785,1.333171,76.67,1
51805,0,222827,258955,222340.84,258578.93,486.16,376.06,-0.171103,-0.157815,1.334105,76.65,1
51845,0,222856,258940,222351.15,258586.15,504.84,353.84,-0.171149,-0.157843,1.335786,76.61,1
51885,0,222826,258924,222360.65,258592.92,465.34,331.08,-0.171192,-0.157869,1.337131,76.57,1
51923,0,222830,258924,222370.04,258599.54,459.95,324.45,-0.171234,-0.157895,1.338491,76.54,1
51964,0,222823,258943,222379.1,258606.42,443.89,336.58,-0.171275,-0.157921,1.339374,76.52,1
52003,0,222848,258935,222388.48,258613,459.52,322,-0.171317,-0.157947,1.340772,76.48,1
52044,0,222844,258945,222397.59,258619.65,446.41,325.34,-0.171358,-0.157972,1.341887,76.45,1
52085,0,222866,258947,222406.95,258626.2,459.05,320.8,-0.1714,-0.157998,1.343301,76.42,1
52124,0,222856,258958,222415.93,258632.84,440.06,325.16,-0.17144,-0.158023,1.344311,76.39,1
52164,0,222873,258960,222425.07,258639.39,447.92,320.61,-0.171482,-0.158049,1.345535,76.36,1
52204,0,222883,258979,222434.23,258646.18,448.77,332.81,-0.171523,-0.158075,1.346567,76.34,1
52244,0,222889,259007,222443.32,258653.4,445.67,353.59,-0.171564,-0.158103,1.347167,76.32,1
52284,0,222905,259029,222452.56,258660.92,452.44,368.08,-0.171605,-0.158132,1.34761,76.31,1
52324,0,222906,259013,222461.64,258667.96,444.36,345.03,-0.171646,-0.158159,1.348347,76.29,1
52364,0,222905,259022,222470.5,258675.04,434.5,346.95,-0.171686,-0.158187,1.348876,76.28,1
52404,0,222905,259016,222479.18,258681.85,425.81,334.14,-0.171725,-0.158213,1.349489,76.26,1
52444,0,222918,259008,222487.96,258688.39,430.03,319.61,-0.171764,-0.158238,1.350434,76.24,1
52484,0,222921,259031,222496.64,258695.25,424.36,335.75,-0.171803,-0.158265,1.350993,76.23,1
52523,0,222930,259043,222505.31,258702.2,424.69,340.8,-0.171842,-0.158292,1.351463,76.21,1
52563,0,222935,259059,222513.9,258709.34,421.09,349.66,-0.171881,-0.158319,1.351702,76.21,1
52604,0,222942,259077,222522.46,258716.7,419.53,360.3,-0.171919,-0.158348,1.351704,76.21,1
52643,0,222943,259078,222530.89,258723.93,412.11,354.06,-0.171957,-0.158376,1.351703,76.21,1
52684,0,222949,259096,222539.26,258731.39,409.73,364.61,-0.171995,-0.158404,1.351449,76.21,1
52723,0,222962,259110,222547.71,258738.96,414.28,371.03,-0.172033,-0.158434,1.35114,76.22,1
52763,0,222981,259124,222556.39,258746.67,424.61,377.33,-0.172072,-0.158463,1.350881,76.23,1
52803,0,222993,259153,222565.12,258754.81,427.88,398.19,-0.172111,-0.158495,1.350222,76.24,1
52843,0,223007,259150,222573.96,258762.71,433.03,387.28,-0.172151,-0.158525,1.349903,76.25,1
52883,0,223005,259156,222582.59,258770.59,422.41,385.41,-0.172189,-0.158556,1.349432,76.26,1
52923,0,223013,259157,222591.21,258778.32,421.78,378.67,-0.172228,-0.158586,1.349099,76.27,1
52963,0,223017,259149,222599.75,258785.75,417.25,363.25,-0.172267,-0.158614,1.349014,76.27,1
53003,0,223010,259151,222607.96,258793.06,402.03,357.94,-0.172303,-0.158643,1.348772,76.28,1
53044,0,223018,259170,222616.17,258800.6,401.83,369.39,-0.17234,-0.158672,1.348284,76.29,1
53083,0,223027,259186,222624.4,258808.32,402.59,377.67,-0.172377,-0.158702,1.347631,76.31,1
53124,0,223044,259206,222632.79,258816.29,411.2,389.7,-0.172415,-0.158732,1.346863,76.33,1
53163,0,223050,259212,222641.14,258824.2,408.86,387.8,-0.172452,-0.158763,1.346097,76.35,1
53202,0,223048,259219,222649.28,258832.09,398.72,386.91,-0.172489,-0.158793,1.345175,76.37,1
53242,0,223057,259223,222657.43,258839.9,399.56,383.09,-0.172526,-0.158824,1.344355,76.39,1
53282,0,223055,259235,222665.39,258847.81,389.61,387.19,-0.172561,-0.158854,1.343271,76.42,1
53322,0,223074,259228,222673.57,258855.42,400.42,372.58,-0.172598,-0.158884,1.342708,76.43,1
53362,0,223080,259259,222681.7,258863.5,398.3,395.5,-0.172635,-0.158915,1.341585,76.46,1
53401,0,223119,259289,222690.45,258872.01,428.55,416.98,-0.172674,-0.158948,1.340507,76.49,1
53442,0,223136,259321,222699.35,258881,436.64,440,-0.172714,-0.158982,1.339006,76.52,1
53483,0,223172,259348,222708.81,258890.34,463.19,457.66,-0.172756,-0.159019,1.337579,76.56,1
53522,0,223175,259365,222718.14,258899.84,456.86,465.16,-0.172798,-0.159055,1.335827,76.6,1
53563,0,223192,259367,222727.62,258909.2,464.38,457.8,-0.172841,-0.159091,1.334447,76.64,1
53602,0,223190,259368,222736.87,258918.39,453.13,449.61,-0.172882,-0.159127,1.333064,76.67,1
53642,0,223195,259361,222746.04,258927.25,448.95,433.75,-0.172923,-0.159161,1.332022,76.7,1
53682,0,223181,259363,222754.75,258935.96,426.25,427.03,-0.172963,-0.159195,1.330706,76.73,1
53722,0,223173,259370,222763.1,258944.65,409.89,425.34,-0.173,-0.159228,1.329127,76.77,1
53762,0,223184,259342,222771.53,258952.6,412.47,389.39,-0.173038,-0.159259,1.328479,76.79,1
53801,0,223166,259337,222779.42,258960.29,386.58,376.7,-0.173073,-0.159289,1.327648,76.81,1
53841,0,223171,259319,222787.26,258967.46,383.73,351.53,-0.173108,-0.159316,1.327318,76.82,1
53881,0,223151,259320,222794.54,258974.53,356.45,345.47,-0.173141,-0.159344,1.326648,76.83,1
53922,0,223157,259309,222801.79,258981.21,355.2,327.78,-0.173174,-0.15937,1.326318,76.84,1
53961,0,223143,259303,222808.62,258987.65,334.38,315.34,-0.173204,-0.159394,1.325894,76.85,1
54002,0,223143,259309,222815.31,258994.09,327.69,314.91,-0.173234,-0.159419,1.325375,76.87,1
54041,0,223140,259306,222821.81,259000.34,318.19,305.66,-0.173264,-0.159443,1.324885,76.88,1
54082,0,223131,259312,222828,259006.57,303,305.42,-0.173291,-0.159467,1.324174,76.9,1
54121,0,223138,259313,222834.2,259012.71,303.8,300.28,-0.173319,-0.159491,1.32357,76.91,1
54161,0,223136,259326,222840.23,259018.98,295.77,307.02,-0.173346,-0.159515,1.322721,76.93,1
54201,0,223146,259339,222846.35,259025.39,299.64,313.61,-0.173374,-0.15954,1.321798,76.96,1
54241,0,223141,259343,222852.25,259031.75,288.75,311.25,-0.1734,-0.159565,1.320763,76.98,1
54281,0,223150,259369,222858.2,259038.5,291.8,330.5,-0.173427,-0.159591,1.31938,77.02,1
54321,0,223148,259366,222864,259045.04,284,320.95,-0.173453,-0.159616,1.318082,77.05,1
54360,0,223154,259384,222869.79,259051.84,284.2,332.16,-0.173479,-0.159642,1.316552,77.09,1
54401,0,223162,259395,222875.64,259058.71,286.36,336.28,-0.173505,-0.159669,1.314965,77.13,1
54441,0,223172,259411,222881.56,259065.76,290.44,345.23,-0.173532,-0.159696,1.31324,77.17,1
54480,0,223191,259453,222887.75,259073.51,303.25,379.48,-0.173559,-0.159726,1.31091,77.23,1
54521,0,223210,259476,222894.2,259081.56,315.8,394.44,-0.173588,-0.159757,1.308411,77.29,1
54560,0,223222,259482,222900.76,259089.57,321.23,392.42,-0.173618,-0.159788,1.30606,77.35,1
54601,0,223230,259482,222907.34,259097.43,322.66,384.56,-0.173647,-0.159818,1.303938,77.4,1
54640,0,223230,259496,222913.79,259105.42,316.2,390.58,-0.173676,-0.159849,1.301566,77.46,1
54680,0,223236,259491,222920.25,259113.12,315.75,377.88,-0.173705,-0.159879,1.299509,77.51,1
54720,0,223240,259489,222926.64,259120.65,313.36,368.34,-0.173734,-0.159908,1.297649,77.56,1
54760,0,223231,259494,222932.73,259128.12,298.27,365.88,-0.173761,-0.159937,1.295611,77.61,1
54800,0,223237,259496,222938.81,259135.48,298.19,360.52,-0.173789,-0.159965,1.293702,77.66,1
54840,0,223240,259505,222944.84,259142.87,295.16,362.13,-0.173816,-0.159994,1.29171,77.71,1
54880,0,223251,259519,222950.96,259150.39,300.03,368.61,-0.173843,-0.160022,1.289645,77.76,1
54920,0,223250,259507,222956.95,259157.53,293.05,349.47,-0.17387,-0.16005,1.287922,77.8,1
54960,0,223246,259521,222962.73,259164.81,283.27,356.19,-0.173896,-0.160078,1.285896,77.85,1
55000,0,223250,259509,222968.48,259171.68,281.52,337.31,-0.173922,-0.160105,1.284275,77.89,1
55041,0,223258,259513,222974.28,259178.53,283.72,334.47,-0.173948,-0.160131,1.282752,77.93,1
55079,0,223251,259490,222979.81,259184.76,271.19,305.23,-0.173972,-0.160155,1.281658,77.96,1
55120,0,223260,259508,222985.42,259191.23,274.58,316.77,-0.173998,-0.16018,1.280375,77.99,1
55159,0,223268,259523,222991.07,259197.87,276.92,325.13,-0.174023,-0.160206,1.278949,78.03,1
55200,0,223286,259523,222996.98,259204.37,289.02,318.63,-0.174049,-0.160231,1.277853,78.05,1
55239,0,223291,259518,223002.85,259210.65,288.14,307.34,-0.174076,-0.160255,1.276979,78.08,1
55279,0,223291,259523,223008.62,259216.9,282.38,306.09,-0.174102,-0.160279,1.276038,78.1,1
55319,0,223294,259524,223014.32,259223.06,279.67,300.94,-0.174127,-0.160303,1.27516,78.12,1
55359,0,223288,259522,223019.81,259229.04,268.19,292.95,-0.174152,-0.160326,1.274265,78.14,1
55399,0,223300,259509,223025.42,259234.65,274.58,274.34,-0.174177,-0.160348,1.273828,78.15,1
55439,0,223294,259511,223030.79,259240.18,263.2,270.81,-0.174201,-0.160369,1.273281,78.17,1
55479,0,223301,259501,223036.2,259245.4,264.8,255.59,-0.174225,-0.160389,1.273034,78.17,1
55519,0,223286,259499,223041.2,259250.48,244.8,248.52,-0.174248,-0.160409,1.272615,78.18,1
55560,0,223295,259496,223046.29,259255.4,248.7,240.59,-0.174271,-0.160428,1.272386,78.19,1
55599,0,223294,259480,223051.25,259259.89,242.75,220.11,-0.174293,-0.160445,1.272405,78.19,1
55640,0,223297,259470,223056.17,259264.1,240.83,205.89,-0.174315,-0.160461,1.272611,78.18,1
55678,0,223281,259457,223060.67,259267.96,220.33,189.03,-0.174335,-0.160476,1.272774,78.18,1
55719,0,223265,259439,223064.76,259271.39,200.23,167.61,-0.174353,-0.160489,1.272959,78.18,1
55758,0,223242,259414,223068.31,259274.25,173.69,139.75,-0.174369,-0.1605,1.273156,78.17,1
55798,0,223204,259392,223071.03,259276.6,132.97,115.39,-0.174381,-0.160509,1.273199,78.17,1
55838,0,223202,259403,223073.65,259279.14,128.34,123.86,-0.174393,-0.160519,1.273129,78.17,1
55878,0,223202,259388,223076.23,259281.32,125.77,106.67,-0.174405,-0.160528,1.273187,78.17,1
55918,0,223215,259388,223079.01,259283.46,135.98,104.53,-0.174417,-0.160536,1.273349,78.17,1
55958,0,223223,259371,223081.89,259285.21,141.11,85.78,-0.17443,-0.160543,1.273694,78.16,1
55999,0,223229,259355,223084.82,259286.6,144.17,68.39,-0.174443,-0.160548,1.274174,78.15,1
56038,0,223225,259356,223087.64,259288,137.36,68,-0.174456,-0.160553,1.274598,78.14,1
56079,0,223221,259354,223090.31,259289.32,130.69,64.67,-0.174468,-0.160558,1.274984,78.13,1
56118,0,223235,259356,223093.21,259290.67,141.78,65.33,-0.174481,-0.160564,1.275472,78.11,1
56158,0,223234,259354,223096.03,259291.93,137.97,62.06,-0.174494,-0.160569,1.275945,78.1,1
56198,0,223251,259353,223099.12,259293.17,151.88,59.83,-0.174507,-0.160573,1.27657,78.09,1
56238,0,223232,259346,223101.78,259294.23,130.22,51.77,-0.174519,-0.160577,1.277029,78.07,1
56278,0,223244,259338,223104.62,259295.12,139.38,42.88,-0.174532,-0.160581,1.277612,78.06,1
56317,0,223248,259337,223107.48,259295.96,140.52,41.03,-0.174545,-0.160584,1.278219,78.04,1
56358,0,223249,259342,223110.32,259296.89,138.67,45.11,-0.174558,-0.160588,1.278798,78.03,1
56397,0,223251,259340,223113.14,259297.75,137.86,42.25,-0.17457,-0.160591,1.279386,78.02,1
56438,0,223249,259336,223115.85,259298.51,133.14,37.48,-0.174582,-0.160594,1.27995,78,1
56477,0,223249,259340,223118.53,259299.34,130.47,40.66,-0.174594,-0.160597,1.280483,77.99,1
56517,0,223250,259333,223121.17,259300.01,128.83,32.98,-0.174606,-0.1606,1.281031,77.97,1
56557,0,223267,259349,223124.09,259301,142.91,48,-0.174619,-0.160604,1.281671,77.96,1
56597,0,223278,259339,223127.17,259301.76,150.83,37.23,-0.174633,-0.160606,1.282444,77.94,1
56638,0,223280,259350,223130.21,259302.73,149.78,47.27,-0.174647,-0.16061,1.283174,77.92,1
56677,0,223281,259345,223133.25,259303.59,147.75,41.41,-0.17466,-0.160614,1.283913,77.9,1
56718,0,223289,259351,223136.37,259304.54,152.63,46.45,-0.174674,-0.160617,1.284693,77.88,1
56757,0,223291,259372,223139.46,259305.89,151.53,66.11,-0.174688,-0.160622,1.285363,77.87,1
56798,0,223297,259363,223142.62,259307.04,154.38,55.95,-0.174702,-0.160627,1.286133,77.85,1
56837,0,223308,259368,223145.93,259308.26,162.06,59.73,-0.174717,-0.160632,1.286984,77.83,1
56877,0,223305,259350,223149.1,259309.1,155.89,40.89,-0.174731,-0.160635,1.287857,77.8,1
56916,0,223311,259340,223152.34,259309.73,158.66,30.27,-0.174746,-0.160637,1.28881,77.78,1
56956,0,223304,259334,223155.37,259310.21,148.63,23.78,-0.174759,-0.160639,1.289664,77.76,1
56997,0,223320,259343,223158.67,259310.87,161.33,32.13,-0.174774,-0.160642,1.290664,77.73,1
57036,0,223328,259353,223162.06,259311.71,165.94,41.28,-0.174789,-0.160645,1.291701,77.71,1
57077,0,223340,259354,223165.62,259312.56,174.38,41.44,-0.174805,-0.160648,1.292866,77.68,1
57116,0,223350,259367,223169.31,259313.65,180.69,53.34,-0.174822,-0.160652,1.294077,77.65,1
57157,0,223363,259390,223173.2,259315.18,189.8,74.81,-0.174839,-0.160658,1.295297,77.62,1
57196,0,223389,259398,223177.53,259316.84,211.47,81.16,-0.174859,-0.160665,1.296845,77.58,1
57236,0,223402,259420,223182.03,259318.92,219.97,101.08,-0.174879,-0.160673,1.298368,77.54,1
57276,0,223416,259418,223186.7,259320.9,229.3,97.09,-0.1749,-0.16068,1.300127,77.5,1
57316,0,223429,259434,223191.54,259323.18,237.45,110.81,-0.174922,-0.160689,1.301908,77.45,1
57357,0,223427,259421,223196.26,259325.15,230.73,95.84,-0.174943,-0.160697,1.303733,77.41,1
57396,0,223420,259423,223200.75,259327.1,219.25,95.89,-0.174963,-0.160704,1.305342,77.37,1
57437,0,223408,259404,223204.89,259328.65,203.11,75.34,-0.174981,-0.16071,1.306856,77.33,1
57476,0,223405,259399,223208.89,259330.07,196.11,68.92,-0.174999,-0.160716,1.30831,77.29,1
57517,0,223385,259389,223212.42,259331.26,172.58,57.73,-0.175015,-0.16072,1.309462,77.26,1
57555,0,223380,259376,223215.76,259332.15,164.23,43.84,-0.17503,-0.160724,1.310578,77.24,1
57595,0,223359,259362,223218.62,259332.75,140.38,29.25,-0.175043,-0.160726,1.311429,77.21,1
57635,0,223355,259360,223221.34,259333.29,133.66,26.7,-0.175055,-0.160728,1.312211,77.19,1
57675,0,223350,259352,223223.92,259333.68,126.08,18.31,-0.175067,-0.16073,1.31293,77.18,1
57716,0,223353,259354,223226.51,259334.09,126.48,19.91,-0.175078,-0.160731,1.313657,77.16,1
57755,0,223337,259344,223228.71,259334.29,108.28,9.7,-0.175088,-0.160732,1.314204,77.14,1
57796,0,223346,259346,223231.07,259334.53,114.92,11.47,-0.175099,-0.160733,1.314826,77.13,1
57835,0,223344,259347,223233.32,259334.78,110.67,12.22,-0.175109,-0.160734,1.315406,77.11,1
57875,0,223349,259362,223235.65,259335.32,113.34,26.67,-0.175119,-0.160736,1.315986,77.1,1
57915,0,223357,259354,223238.09,259335.7,118.91,18.3,-0.17513,-0.160737,1.31666,77.08,1
57955,0,223348,259345,223240.29,259335.9,107.7,9.09,-0.17514,-0.160738,1.317229,77.07,1
57996,0,223350,259346,223242.5,259336.1,107.5,9.89,-0.17515,-0.160739,1.3178,77.06,1
58035,0,223345,259340,223244.56,259336.18,100.44,3.81,-0.175159,-0.160739,1.318306,77.04,1
58076,0,223333,259329,223246.32,259336.04,86.67,-7.05,-0.175167,-0.160739,1.318682,77.03,1
58115,0,223344,259327,223248.28,259335.87,95.72,-8.88,-0.175176,-0.160738,1.319145,77.02,1
58155,0,223317,259306,223249.65,259335.28,67.34,-29.28,-0.175182,-0.160736,1.319315,77.02,1
58195,0,223325,259312,223251.17,259334.81,73.83,-22.81,-0.175189,-0.160734,1.319559,77.01,1
58234,0,223319,259305,223252.53,259334.21,66.47,-29.22,-0.175195,-0.160732,1.319727,77.01,1
58275,0,223299,259293,223253.46,259333.4,45.53,-40.41,-0.175199,-0.160729,1.319714,77.01,1
58314,0,223312,259298,223254.64,259332.7,57.36,-34.7,-0.175204,-0.160726,1.319798,77.01,1
58354,0,223295,259294,223255.45,259331.92,39.55,-37.92,-0.175208,-0.160723,1.31977,77.01,1
58395,0,223301,259292,223256.35,259331.12,44.64,-39.13,-0.175212,-0.16072,1.319759,77.01,1
58434,0,223311,259286,223257.45,259330.21,53.55,-44.22,-0.175217,-0.160716,1.319767,77.01,1
58475,0,223302,259293,223258.35,259329.48,43.64,-36.48,-0.175221,-0.160713,1.319767,77.01,1
58514,0,223307,259298,223259.34,259328.85,47.66,-30.86,-0.175225,-0.160711,1.319815,77,1
58554,0,223313,259306,223260.42,259328.4,52.58,-22.41,-0.17523,-0.160709,1.319928,77,1
58595,0,223319,259302,223261.59,259327.89,57.41,-25.89,-0.175235,-0.160707,1.32006,77,1
58634,0,223307,259311,223262.5,259327.56,44.5,-16.56,-0.175239,-0.160706,1.320145,77,1
58674,0,223317,259310,223263.59,259327.21,53.41,-17.22,-0.175244,-0.160705,1.320283,76.99,1
58714,0,223318,259317,223264.68,259327.01,53.31,-10.02,-0.175249,-0.160704,1.320436,76.99,1
58754,0,223323,259310,223265.84,259326.68,57.16,-16.69,-0.175254,-0.160703,1.320603,76.98,1
58795,0,223323,259308,223266.98,259326.31,56.02,-18.31,-0.175259,-0.160701,1.32076,76.98,1
58833,0,223334,259313,223268.34,259326.06,65.66,-13.06,-0.175266,-0.1607,1.321005,76.97,1
58873,0,223322,259296,223269.42,259325.46,52.58,-29.47,-0.17527,-0.160698,1.321098,76.97,1
58914,0,223315,259302,223270.32,259325.01,44.67,-23.02,-0.175274,-0.160696,1.32117,76.97,1
58953,0,223311,259297,223271.14,259324.45,39.86,-27.45,-0.175278,-0.160694,1.321198,76.97,1
58994,0,223301,259296,223271.73,259323.89,29.27,-27.89,-0.175281,-0.160692,1.321178,76.97,1
59033,0,223310,259292,223272.5,259323.26,37.5,-31.27,-0.175284,-0.160689,1.321176,76.97,1
59073,0,223305,259306,223273.14,259322.93,31.86,-16.94,-0.175287,-0.160688,1.321208,76.97,1
59114,0,223324,259312,223274.17,259322.71,49.83,-10.72,-0.175292,-0.160687,1.321353,76.97,1
59153,0,223334,259311,223275.37,259322.48,58.63,-11.48,-0.175297,-0.160686,1.321564,76.96,1
59194,0,223335,259316,223276.57,259322.35,58.42,-6.36,-0.175302,-0.160686,1.321783,76.96,1
59233,0,223336,259304,223277.76,259322,58.23,-18,-0.175308,-0.160684,1.321978,76.95,1
59273,0,223329,259309,223278.79,259321.75,50.2,-12.75,-0.175312,-0.160684,1.322129,76.95,1
59314,0,223325,259305,223279.71,259321.4,45.28,-16.41,-0.175317,-0.160682,1.322237,76.94,1
59353,0,223341,259312,223280.93,259321.21,60.06,-9.22,-0.175322,-0.160682,1.322476,76.94,1
59393,0,223331,259304,223281.95,259320.87,49.05,-16.87,-0.175327,-0.16068,1.322612,76.93,1
59432,0,223332,259307,223282.95,259320.6,49.05,-13.61,-0.175331,-0.160679,1.322758,76.93,1
59472,0,223327,259297,223283.84,259320.14,43.16,-23.14,-0.175335,-0.160677,1.322833,76.93,1
59513,0,223331,259302,223284.79,259319.79,46.2,-17.8,-0.175339,-0.160676,1.32295,76.93,1
59552,0,223329,259286,223285.68,259319.12,43.31,-33.13,-0.175343,-0.160673,1.322974,76.93,1
59593,0,223316,259288,223286.29,259318.51,29.7,-30.52,-0.175346,-0.160671,1.322938,76.93,1
59632,0,223322,259282,223287.01,259317.79,34.98,-35.8,-0.175349,-0.160668,1.322894,76.93,1
59672,0,223313,259289,223287.54,259317.23,25.45,-28.23,-0.175352,-0.160666,1.322854,76.93,1
59713,0,223313,259288,223288.06,259316.65,24.94,-28.66,-0.175354,-0.160664,1.322809,76.93,1
59752,0,223317,259303,223288.65,259316.39,28.34,-13.39,-0.175357,-0.160663,1.322843,76.93,1
59792,0,223332,259299,223289.53,259316.04,42.47,-17.05,-0.175361,-0.160662,1.322946,76.93,1
59832,0,223336,259302,223290.46,259315.78,45.53,-13.78,-0.175365,-0.16066,1.323083,76.92,1
59872,0,223330,259300,223291.25,259315.46,38.75,-15.47,-0.175368,-0.160659,1.323169,76.92,1
59913,0,223343,259297,223292.28,259315.1,50.72,-18.11,-0.175373,-0.160658,1.323334,76.92,1
59952,0,223337,259309,223293.17,259315,43.83,-6,-0.175377,-0.160657,1.323479,76.91,1
59992,0,223334,259301,223294,259314.71,40,-13.72,-0.175381,-0.160656,1.323582,76.91,1
60032,0,223353,259297,223295.18,259314.35,57.81,-17.36,-0.175386,-0.160655,1.32382,76.9,1
60071,0,223333,259290,223295.93,259313.87,37.06,-23.87,-0.175389,-0.160653,1.323864,76.9,1
60112,0,223344,259298,223296.89,259313.56,47.11,-15.56,-0.175393,-0.160652,1.324018,76.9,1
60151,0,223355,259282,223298.04,259312.93,56.95,-30.94,-0.175399,-0.16065,1.324181,76.9,1
60191,0,223347,259294,223299.03,259312.56,47.97,-18.56,-0.175403,-0.160648,1.324334,76.89,1
60231,0,223340,259290,223299.85,259312.1,40.14,-22.11,-0.175407,-0.160646,1.32441,76.89,1
60271,0,223342,259285,223300.7,259311.57,41.3,-26.58,-0.175411,-0.160644,1.32447,76.89,1
60312,0,223349,259293,223301.67,259311.2,47.33,-18.2,-0.175415,-0.160643,1.324624,76.88,1
60351,0,223346,259294,223302.56,259310.85,43.44,-16.86,-0.175419,-0.160642,1.324752,76.88,1
60391,0,223355,259317,223303.6,259310.98,51.39,6.02,-0.175424,-0.160642,1.324981,76.88,1
60432,0,223376,259308,223305.06,259310.92,70.94,-2.92,-0.17543,-0.160642,1.325438,76.86,1
60471,0,223389,259316,223306.75,259311.01,82.25,4.98,-0.175438,-0.160642,1.326061,76.85,1
60511,0,223396,259330,223308.54,259311.39,87.45,18.61,-0.175446,-0.160644,1.326734,76.83,1
60551,0,223408,259349,223310.53,259312.15,97.47,36.84,-0.175455,-0.160646,1.327464,76.81,1
60591,0,223433,259350,223312.98,259312.92,120.02,37.08,-0.175465,-0.160649,1.328673,76.78,1
60632,0,223442,259362,223315.57,259313.9,126.42,48.09,-0.175477,-0.160653,1.329926,76.75,1
60670,0,223451,259364,223318.28,259314.92,132.72,49.08,-0.175489,-0.160657,1.331337,76.72,1
60710,0,223450,259353,223320.92,259315.68,129.08,37.31,-0.175501,-0.16066,1.332798,76.68,1
60750,0,223453,259350,223323.56,259316.37,129.44,33.63,-0.175513,-0.160663,1.334316,76.64,1
60790,0,223450,259351,223326.09,259317.06,123.91,33.94,-0.175524,-0.160665,1.335701,76.61,1
60831,0,223444,259352,223328.45,259317.76,115.55,34.23,-0.175535,-0.160668,1.336893,76.58,1
60870,0,223435,259355,223330.59,259318.51,104.41,36.48,-0.175544,-0.160671,1.337821,76.55,1
60911,0,223452,259348,223333.03,259319.1,118.97,28.89,-0.175555,-0.160673,1.339164,76.52,1
60950,0,223453,259365,223335.43,259320.03,117.56,44.97,-0.175566,-0.160677,1.340318,76.49,1
60991,0,223451,259368,223337.75,259321,113.25,47,-0.175576,-0.160681,1.34135,76.47,1
61030,0,223461,259387,223340.21,259322.31,120.78,64.69,-0.175587,-0.160686,1.342298,76.44,1
61070,0,223460,259377,223342.62,259323.42,117.37,53.58,-0.175598,-0.16069,1.343356,76.42,1
61110,0,223465,259367,223345.07,259324.29,119.92,42.7,-0.175609,-0.160693,1.344638,76.38,1
61150,0,223453,259368,223347.25,259325.17,105.75,42.83,-0.175619,-0.160697,1.345581,76.36,1
61191,0,223450,259364,223349.31,259325.95,100.69,38.05,-0.175628,-0.1607,1.346474,76.34,1
61230,0,223453,259357,223351.39,259326.57,101.61,30.42,-0.175637,-0.160702,1.347474,76.31,1
61271,0,223443,259361,223353.21,259327.26,89.78,33.73,-0.175646,-0.160705,1.348196,76.3,1
61309,0,223443,259361,223355.01,259327.93,87.98,33.06,-0.175654,-0.160707,1.348896,76.28,1
61349,0,223435,259356,223356.62,259328.51,78.37,27.48,-0.175661,-0.16071,1.349472,76.26,1
61390,0,223442,259346,223358.34,259328.87,83.66,17.12,-0.175669,-0.160711,1.350224,76.24,1
61429,0,223430,259342,223359.78,259329.14,70.22,12.86,-0.175675,-0.160712,1.350763,76.23,1
61470,0,223419,259321,223360.96,259328.98,58.03,-7.98,-0.17568,-0.160711,1.351139,76.22,1
61509,0,223409,259327,223361.93,259328.95,47.06,-1.95,-0.175685,-0.160711,1.351392,76.22,1
61549,0,223405,259317,223362.79,259328.71,42.2,-11.72,-0.175689,-0.16071,1.351573,76.21,1
61590,0,223404,259316,223363.62,259328.46,40.38,-12.47,-0.175692,-0.160709,1.351735,76.21,1
61629,0,223406,259320,223364.48,259328.31,41.52,-8.31,-0.175696,-0.160709,1.351925,76.2,1
61669,0,223397,259323,223365.14,259328.2,31.86,-5.2,-0.175699,-0.160708,1.352036,76.2,1
61709,0,223400,259327,223365.84,259328.18,34.16,-1.19,-0.175702,-0.160708,1.352171,76.2,1
61749,0,223400,259320,223366.53,259328.03,33.47,-8.03,-0.175705,-0.160708,1.352292,76.19,1
61790,0,223395,259300,223367.1,259327.46,27.89,-27.47,-0.175708,-0.160706,1.352251,76.19,1
61829,0,223400,259298,223367.76,259326.87,32.23,-28.87,-0.175711,-0.160703,1.35223,76.19,1
61869,0,223389,259295,223368.2,259326.25,20.8,-31.25,-0.175713,-0.160701,1.352105,76.2,1
61910,0,223388,259296,223368.6,259325.65,19.39,-29.66,-0.175715,-0.160699,1.351988,76.2,1
61948,0,223397,259295,223369.17,259325.04,27.83,-30.05,-0.175717,-0.160696,1.351919,76.2,1
61988,0,223395,259300,223369.7,259324.54,25.3,-24.55,-0.175719,-0.160694,1.351886,76.2,1
62028,0,223391,259293,223370.12,259323.92,20.87,-30.92,-0.175721,-0.160692,1.35176,76.21,1
62068,0,223388,259293,223370.5,259323.31,17.5,-30.31,-0.175723,-0.16069,1.351623,76.21,1
62109,0,223378,259287,223370.65,259322.57,7.34,-35.58,-0.175724,-0.160687,1.351385,76.22,1
62148,0,223385,259275,223370.95,259321.62,14.05,-46.63,-0.175725,-0.160683,1.350994,76.23,1
62188,0,223372,259271,223370.96,259320.62,1.03,-49.63,-0.175725,-0.160679,1.350517,76.24,1
62228,0,223382,259268,223371.18,259319.57,10.81,-51.58,-0.175726,-0.160675,1.350014,76.25,1
62268,0,223372,259261,223371.2,259318.4,0.8,-57.41,-0.175726,-0.160671,1.349368,76.27,1
62309,0,223380,259265,223371.37,259317.34,8.63,-52.34,-0.175727,-0.160666,1.348835,76.28,1
62348,0,223393,259281,223371.81,259316.62,21.19,-35.63,-0.175729,-0.160664,1.348641,76.28,1
62388,0,223387,259282,223372.1,259315.93,14.89,-33.94,-0.17573,-0.160661,1.348436,76.29,1
62429,0,223401,259277,223372.68,259315.17,28.31,-38.17,-0.175733,-0.160658,1.348254,76.29,1
62468,0,223398,259295,223373.18,259314.78,24.81,-19.78,-0.175735,-0.160657,1.348258,76.29,1
62509,0,223396,259284,223373.65,259314.15,22.34,-30.16,-0.175737,-0.160654,1.348139,76.3,1
62547,0,223400,259283,223374.18,259313.53,25.81,-30.53,-0.17574,-0.160652,1.348039,76.3,1
62587,0,223406,259301,223374.82,259313.28,31.17,-12.28,-0.175742,-0.160651,1.34815,76.3,1
62627,0,223410,259294,223375.53,259312.89,34.47,-18.89,-0.175746,-0.160649,1.348251,76.29,1
62667,0,223404,259287,223376.1,259312.37,27.89,-25.37,-0.175748,-0.160647,1.348228,76.29,1
62708,0,223402,259279,223376.64,259311.7,25.36,-32.7,-0.17575,-0.160645,1.348092,76.3,1
62747,0,223404,259298,223377.18,259311.42,26.81,-13.42,-0.175753,-0.160644,1.34816,76.3,1
62787,0,223393,259274,223377.5,259310.68,15.5,-36.69,-0.175754,-0.160641,1.347895,76.3,1
62828,0,223398,259266,223377.9,259309.79,20.09,-43.8,-0.175756,-0.160637,1.347528,76.31,1
62867,0,223383,259256,223378.01,259308.73,4.98,-52.73,-0.175757,-0.160633,1.346903,76.33,1
62908,0,223375,259260,223377.95,259307.76,-2.95,-47.77,-0.175756,-0.16063,1.346382,76.34,1
62947,0,223381,259261,223378.01,259306.82,2.98,-45.83,-0.175757,-0.160626,1.345897,76.35,1
62987,0,223388,259272,223378.21,259306.14,9.78,-34.14,-0.175758,-0.160623,1.345638,76.36,1
63028,0,223393,259266,223378.51,259305.32,14.48,-39.33,-0.175759,-0.16062,1.345307,76.37,1
63067,0,223404,259268,223379.03,259304.57,24.97,-36.58,-0.175761,-0.160617,1.345094,76.37,1
63108,0,223406,259285,223379.57,259304.18,26.42,-19.19,-0.175764,-0.160616,1.345122,76.37,1
63147,0,223413,259277,223380.25,259303.65,32.75,-26.66,-0.175767,-0.160614,1.345134,76.37,1
63186,0,223398,259276,223380.6,259303.1,17.39,-27.11,-0.175768,-0.160612,1.345003,76.37,1
63227,0,223392,259286,223380.84,259302.76,11.16,-16.77,-0.175769,-0.16061,1.344949,76.38,1
63266,0,223413,259285,223381.5,259302.42,31.5,-17.42,-0.175772,-0.160609,1.345048,76.37,1
63306,0,223403,259289,223381.93,259302.15,21.06,-13.16,-0.175774,-0.160608,1.345079,76.37,1
63347,0,223413,259286,223382.56,259301.84,30.44,-15.84,-0.175777,-0.160607,1.34518,76.37,1
63386,0,223405,259280,223383.01,259301.4,21.98,-21.41,-0.175779,-0.160605,1.345147,76.37,1
63427,0,223401,259272,223383.37,259300.82,17.62,-28.83,-0.175781,-0.160603,1.344986,76.38,1
63466,0,223405,259261,223383.81,259300.03,21.19,-39.03,-0.175783,-0.1606,1.344671,76.38,1
63506,0,223377,259255,223383.68,259299.12,-6.69,-44.13,-0.175782,-0.160596,1.344165,76.4,1
63547,0,223379,259263,223383.59,259298.4,-4.59,-35.41,-0.175782,-0.160593,1.343832,76.4,1
63586,0,223374,259253,223383.4,259297.5,-9.41,-44.5,-0.175781,-0.16059,1.343317,76.42,1
63627,0,223364,259259,223383.03,259296.75,-19.03,-37.75,-0.175779,-0.160587,1.343,76.42,1
63666,0,223376,259264,223382.89,259296.09,-6.89,-32.09,-0.175778,-0.160585,1.342724,76.43,1
63706,0,223392,259277,223383.07,259295.71,8.92,-18.72,-0.175779,-0.160583,1.342637,76.43,1
63747,0,223389,259267,223383.2,259295.15,5.8,-28.16,-0.17578,-0.160581,1.342418,76.44,1
63785,0,223400,259279,223383.54,259294.84,16.45,-15.84,-0.175781,-0.16058,1.342396,76.44,1
63825,0,223391,259267,223383.68,259294.29,7.31,-27.3,-0.175782,-0.160578,1.34219,76.45,1
63866,0,223383,259271,223383.67,259293.84,-0.67,-22.84,-0.175782,-0.160576,1.342035,76.45,1
63905,0,223385,259273,223383.7,259293.42,1.3,-20.42,-0.175782,-0.160574,1.341908,76.45,1
63945,0,223374,259272,223383.51,259293,-9.52,-21,-0.175781,-0.160573,1.341793,76.46,1
63986,0,223381,259280,223383.46,259292.73,-2.47,-12.73,-0.175781,-0.160572,1.341739,76.46,1
64025,0,223382,259264,223383.43,259292.17,-1.44,-28.17,-0.175781,-0.160569,1.341499,76.46,1
64066,0,223367,259267,223383.1,259291.67,-16.11,-24.67,-0.175779,-0.160567,1.341368,76.47,1
64105,0,223369,259258,223382.82,259291,-13.83,-33,-0.175778,-0.160565,1.341077,76.47,1
64145,0,223368,259262,223382.53,259290.42,-14.53,-28.42,-0.175777,-0.160563,1.340873,76.48,1
64186,0,223378,259263,223382.45,259289.89,-4.45,-26.89,-0.175777,-0.160561,1.340649,76.48,1
64225,0,223381,259259,223382.43,259289.28,-1.44,-30.28,-0.175776,-0.160558,1.340359,76.49,1
64266,0,223371,259246,223382.21,259288.42,-11.22,-42.42,-0.175775,-0.160555,1.33982,76.5,1
64305,0,223376,259270,223382.09,259288.06,-6.09,-18.06,-0.175775,-0.160554,1.339719,76.51,1
64345,0,223385,259304,223382.15,259288.39,2.84,15.61,-0.175775,-0.160555,1.339636,76.51,1
64386,0,223399,259318,223382.5,259288.98,16.5,29.02,-0.175777,-0.160557,1.339425,76.51,1
64424,0,223425,259322,223383.35,259289.64,41.64,32.36,-0.175781,-0.16056,1.339501,76.51,1
64464,0,223442,259331,223384.54,259290.48,57.45,40.52,-0.175786,-0.160563,1.339768,76.51,1
64505,0,223438,259326,223385.62,259291.18,52.38,34.81,-0.175791,-0.160566,1.340042,76.5,1
64544,0,223451,259317,223386.93,259291.71,64.06,25.28,-0.175797,-0.160568,1.340849,76.48,1
64585,0,223464,259290,223388.48,259291.68,75.52,-1.69,-0.175804,-0.160568,1.342281,76.44,1
64624,0,223525,259285,223391.21,259291.56,133.78,-6.56,-0.175816,-0.160567,1.346815,76.33,1
64664,0,223542,259268,223394.25,259291.09,147.75,-23.09,-0.175829,-0.160565,1.352215,76.19,1
64705,0,223548,259273,223397.32,259290.73,150.67,-17.73,-0.175843,-0.160564,1.357945,76.05,1
64744,0,223554,259263,223400.46,259290.18,153.53,-27.19,-0.175857,-0.160562,1.36378,75.91,1
64785,0,223566,259252,223403.78,259289.43,162.22,-37.44,-0.175872,-0.160559,1.370117,75.75,1
64824,0,223554,259234,223406.78,259288.34,147.22,-54.34,-0.175885,-0.160555,1.374699,75.63,1
64865,0,223533,259234,223409.31,259287.25,123.69,-53.25,-0.175897,-0.16055,1.377668,75.56,1
64904,0,223535,259241,223411.82,259286.32,123.17,-45.33,-0.175908,-0.160547,1.38091,75.48,1
64945,0,223534,259242,223414.28,259285.45,119.72,-43.45,-0.175919,-0.160544,1.384009,75.4,1
64984,0,223516,259248,223416.31,259284.7,99.69,-36.7,-0.175928,-0.160541,1.386155,75.35,1
65024,0,223508,259248,223418.14,259283.96,89.86,-35.97,-0.175936,-0.160538,1.387832,75.3,1
65064,0,223504,259249,223419.85,259283.28,84.14,-34.28,-0.175944,-0.160535,1.389297,75.27,1
65103,0,223503,259264,223421.53,259282.9,81.47,-18.91,-0.175951,-0.160534,1.390974,75.23,1
65144,0,223494,259260,223422.98,259282.45,71.02,-22.45,-0.175958,-0.160532,1.392164,75.2,1
65183,0,223494,259246,223424.4,259281.73,69.59,-35.73,-0.175964,-0.160529,1.392997,75.18,1
65223,0,223482,259249,223425.56,259281.09,56.44,-32.09,-0.17597,-0.160527,1.39347,75.16,1
65264,0,223478,259261,223426.62,259280.7,51.38,-19.7,-0.175974,-0.160525,1.394054,75.15,1
65303,0,223485,259255,223427.79,259280.18,57.2,-25.19,-0.17598,-0.160523,1.394724,75.13,1
65344,0,223479,259248,223428.82,259279.54,50.17,-31.55,-0.175984,-0.160521,1.39503,75.12,1
65384,0,223485,259243,223429.95,259278.81,55.05,-35.81,-0.175989,-0.160518,1.395366,75.12,1
65423,0,223479,259253,223430.93,259278.29,48.06,-25.3,-0.175994,-0.160516,1.395768,75.11,1
65464,0,223484,259246,223432,259277.65,52,-31.66,-0.175998,-0.160513,1.396134,75.1,1
65503,0,223463,259243,223432.62,259276.96,30.37,-33.97,-0.176001,-0.160511,1.3959,75.1,1
65543,0,223454,259247,223433.06,259276.37,20.94,-29.37,-0.176003,-0.160509,1.395645,75.11,1
65584,0,223452,259229,223433.45,259275.43,18.55,-46.44,-0.176005,-0.160505,1.394786,75.13,1
65623,0,223438,259230,223433.54,259274.53,4.45,-44.53,-0.176005,-0.160501,1.393897,75.15,1
65664,0,223444,259236,223433.75,259273.76,10.25,-37.77,-0.176006,-0.160498,1.393277,75.17,1
65702,0,223451,259243,223434.09,259273.15,16.91,-30.16,-0.176008,-0.160496,1.392945,75.18,1
65742,0,223456,259245,223434.54,259272.6,21.45,-27.61,-0.17601,-0.160494,1.392733,75.18,1
65783,0,223459,259248,223435.03,259272.1,23.97,-24.11,-0.176012,-0.160492,1.39264,75.18,1
65822,0,223466,259242,223435.64,259271.51,30.36,-29.52,-0.176015,-0.16049,1.392524,75.19,1
65863,0,223444,259245,223435.81,259271,8.19,-26,-0.176015,-0.160488,1.392218,75.19,1
65903,0,223436,259240,223435.81,259270.37,0.19,-30.37,-0.176015,-0.160485,1.391769,75.21,1
65942,0,223449,259231,223436.07,259269.59,12.92,-38.59,-0.176017,-0.160482,1.3911,75.22,1
65983,0,223440,259228,223436.15,259268.76,3.84,-40.77,-0.176017,-0.160479,1.390291,75.24,1
66022,0,223440,259227,223436.23,259267.93,3.77,-40.94,-0.176017,-0.160476,1.389467,75.26,1
66062,0,223439,259237,223436.29,259267.31,2.7,-30.31,-0.176018,-0.160474,1.389008,75.27,1
66103,0,223429,259226,223436.15,259266.48,-7.16,-40.48,-0.176017,-0.16047,1.388201,75.29,1
66142,0,223421,259222,223435.85,259265.59,-14.86,-43.59,-0.176016,-0.160467,1.387317,75.32,1
66182,0,223406,259219,223435.26,259264.65,-29.27,-45.66,-0.176013,-0.160463,1.386558,75.34,1
66223,0,223399,259248,223434.54,259264.32,-35.55,-16.33,-0.17601,-0.160462,1.386866,75.33,1
66262,0,223415,259248,223434.15,259264,-19.16,-16,-0.176008,-0.160461,1.386859,75.33,1
66302,0,223402,259260,223433.53,259263.92,-31.53,-3.92,-0.176005,-0.16046,1.387206,75.32,1
66341,0,223419,259274,223433.23,259264.12,-14.23,9.88,-0.176004,-0.160461,1.387221,75.32,1
66381,0,223435,259291,223433.28,259264.65,1.72,26.34,-0.176004,-0.160463,1.386846,75.33,1
66422,0,223434,259279,223433.31,259264.95,0.69,14.05,-0.176004,-0.160464,1.386733,75.33,1
66461,0,223434,259285,223433.34,259265.35,0.66,19.64,-0.176004,-0.160466,1.386517,75.34,1
66501,0,223423,259275,223433.14,259265.56,-10.14,9.44,-0.176003,-0.160467,1.386501,75.34,1
66542,0,223419,259278,223432.85,259265.81,-13.86,12.19,-0.176002,-0.160468,1.386486,75.34,1
66581,0,223424,259267,223432.68,259265.84,-8.69,1.16,-0.176001,-0.160468,1.386507,75.34,1
66622,0,223414,259274,223432.31,259266.01,-18.31,7.98,-0.176,-0.160469,1.386597,75.34,1
66662,0,223423,259259,223432.12,259265.87,-9.13,-6.88,-0.175999,-0.160468,1.386596,75.34,1
66701,0,223416,259242,223431.79,259265.4,-15.8,-23.41,-0.175997,-0.160466,1.386375,75.34,1
66742,0,223400,259249,223431.17,259265.09,-31.17,-16.09,-0.175995,-0.160465,1.386613,75.33,1
66782,0,223415,259245,223430.84,259264.7,-15.84,-19.7,-0.175993,-0.160464,1.386482,75.34,1
66821,0,223401,259238,223430.25,259264.17,-29.25,-26.17,-0.17599,-0.160462,1.386425,75.34,1
66862,0,223394,259236,223429.53,259263.6,-35.53,-27.61,-0.175987,-0.160459,1.386492,75.34,1
66900,0,223400,259225,223428.93,259262.84,-28.94,-37.84,-0.175985,-0.160456,1.385976,75.35,1
66941,0,223376,259222,223427.87,259262.03,-51.88,-40.03,-0.17598,-0.160453,1.386143,75.35,1
66981,0,223386,259227,223427.04,259261.34,-41.05,-34.34,-0.175976,-0.160451,1.386138,75.35,1
67020,0,223404,259242,223426.59,259260.96,-22.59,-18.97,-0.175974,-0.160449,1.386131,75.35,1
67061,0,223402,259243,223426.1,259260.6,-24.11,-17.61,-0.175972,-0.160448,1.386186,75.35,1
67100,0,223412,259230,223425.82,259260,-13.83,-30,-0.175971,-0.160445,1.385696,75.36,1
67141,0,223408,259227,223425.46,259259.35,-17.47,-32.36,-0.175969,-0.160443,1.38516,75.37,1
67181,0,223403,259234,223425.03,259258.84,-22.03,-24.84,-0.175967,-0.160441,1.384976,75.38,1
67220,0,223410,259225,223424.73,259258.17,-14.73,-33.17,-0.175966,-0.160438,1.384356,75.39,1
67261,0,223405,259228,223424.34,259257.57,-19.34,-29.58,-0.175964,-0.160436,1.38395,75.4,1
67300,0,223418,259215,223424.21,259256.73,-6.22,-41.73,-0.175963,-0.160433,1.382814,75.43,1
67341,0,223415,259218,223424.03,259255.96,-9.03,-37.97,-0.175963,-0.16043,1.381889,75.45,1
67381,0,223415,259214,223423.85,259255.14,-8.86,-41.14,-0.175962,-0.160427,1.380786,75.48,1
67420,0,223417,259225,223423.73,259254.54,-6.73,-29.55,-0.175961,-0.160424,1.380213,75.49,1
67461,0,223406,259207,223423.39,259253.59,-17.39,-46.59,-0.17596,-0.160421,1.378875,75.53,1
67500,0,223414,259213,223423.2,259252.79,-9.2,-39.8,-0.175959,-0.160418,1.377825,75.55,1
67539,0,223414,259204,223423.03,259251.82,-9.03,-47.83,-0.175958,-0.160414,1.37628,75.59,1
67580,0,223404,259202,223422.65,259250.84,-18.66,-48.84,-0.175956,-0.16041,1.374788,75.63,1
67619,0,223418,259199,223422.56,259249.81,-4.56,-50.81,-0.175956,-0.160406,1.372987,75.68,1
67660,0,223405,259217,223422.2,259249.17,-17.2,-32.17,-0.175954,-0.160404,1.372402,75.69,1
67700,0,223423,259218,223422.21,259248.54,0.78,-30.55,-0.175955,-0.160401,1.371733,75.71,1
67739,0,223441,259220,223422.59,259247.98,18.41,-27.98,-0.175956,-0.160399,1.37134,75.72,1
67780,0,223421,259232,223422.56,259247.67,-1.56,-15.67,-0.175956,-0.160398,1.371158,75.72,1
67819,0,223423,259227,223422.56,259247.26,0.44,-20.27,-0.175956,-0.160396,1.370853,75.73,1
67859,0,223446,259219,223423.03,259246.7,22.97,-27.7,-0.175958,-0.160394,1.370561,75.74,1
67900,0,223443,259236,223423.43,259246.5,19.56,-10.5,-0.17596,-0.160393,1.370678,75.73,1
67939,0,223456,259223,223424.09,259246.03,31.91,-23.03,-0.175963,-0.160392,1.370822,75.73,1
67980,0,223460,259230,223424.81,259245.7,35.19,-15.7,-0.175966,-0.16039,1.371303,75.72,1
68020,0,223469,259240,223425.7,259245.59,43.3,-5.59,-0.17597,-0.16039,1.372303,75.69,1
68059,0,223470,259251,223426.59,259245.7,43.41,5.3,-0.175974,-0.16039,1.37332,75.67,1
68100,0,223472,259249,223427.5,259245.78,44.5,3.22,-0.175978,-0.160391,1.374414,75.64,1
68139,0,223478,259253,223428.51,259245.93,49.48,7.06,-0.175983,-0.160391,1.375752,75.61,1
68178,0,223482,259241,223429.59,259245.84,52.41,-4.84,-0.175988,-0.160391,1.377292,75.57,1
68219,0,223479,259234,223430.57,259245.62,48.42,-11.63,-0.175992,-0.16039,1.378525,75.54,1
68258,0,223487,259241,223431.7,259245.53,55.3,-4.53,-0.175997,-0.16039,1.380275,75.49,1
68298,0,223514,259269,223433.35,259246,80.64,23,-0.176004,-0.160391,1.383633,75.41,1
68339,0,223518,259276,223435.06,259246.59,82.94,29.41,-0.176012,-0.160394,1.38695,75.33,1
68378,0,223534,259283,223437.03,259247.32,96.97,35.67,-0.176021,-0.160397,1.391432,75.21,1
68419,0,223546,259292,223439.21,259248.23,106.78,43.77,-0.176031,-0.1604,1.396564,75.09,1
68459,0,223553,259295,223441.5,259249.18,111.5,45.81,-0.176041,-0.160404,1.402159,74.95,1
68498,0,223567,259298,223444.01,259250.15,122.98,47.84,-0.176052,-0.160407,1.409197,74.77,1
68539,0,223557,259317,223446.28,259251.5,110.72,65.5,-0.176062,-0.160413,1.412742,74.68,1
68578,0,223590,259318,223449.15,259252.82,140.84,65.17,-0.176075,-0.160418,1.420845,74.48,1
68619,0,223573,259309,223451.62,259253.96,121.37,55.03,-0.176086,-0.160422,1.426949,74.33,1
68659,0,223580,259302,223454.18,259254.93,125.81,47.06,-0.176098,-0.160426,1.434441,74.14,1
68699,0,223566,259288,223456.42,259255.6,109.58,32.39,-0.176108,-0.160428,1.440711,73.98,1
68739,0,223555,259276,223458.39,259256.01,96.61,19.98,-0.176116,-0.16043,1.445992,73.85,1
68777,0,223542,259262,223460.07,259256.14,81.92,5.86,-0.176124,-0.160431,1.450052,73.75,1
68818,0,223526,259255,223461.39,259256.1,64.61,-1.11,-0.17613,-0.16043,1.452613,73.68,1
68858,0,223511,259235,223462.39,259255.68,48.61,-20.69,-0.176134,-0.160429,1.453657,73.66,1
68897,0,223513,259240,223463.4,259255.37,49.59,-15.38,-0.176139,-0.160427,1.454958,73.63,1
68938,0,223496,259234,223464.06,259254.93,31.94,-20.94,-0.176142,-0.160426,1.45516,73.62,1
68977,0,223507,259257,223464.92,259254.98,42.08,2.02,-0.176146,-0.160426,1.456279,73.59,1
69018,0,223526,259254,223466.14,259254.96,59.86,-0.97,-0.176151,-0.160426,1.458577,73.54,1
69058,0,223537,259262,223467.56,259255.1,69.44,6.89,-0.176157,-0.160426,1.461649,73.46,1
69097,0,223537,259256,223468.95,259255.14,68.05,0.86,-0.176164,-0.160427,1.46467,73.38,1
69138,0,223537,259250,223470.31,259255.04,66.69,-5.05,-0.17617,-0.160426,1.467567,73.31,1
69178,0,223521,259261,223471.32,259255.17,49.67,5.83,-0.176174,-0.160427,1.469164,73.27,1
69217,0,223538,259263,223472.67,259255.34,65.33,7.66,-0.17618,-0.160427,1.471956,73.2,1
69258,0,223515,259253,223473.51,259255.29,41.48,-2.3,-0.176184,-0.160427,1.473107,73.17,1
69298,0,223521,259247,223474.46,259255.14,46.53,-8.14,-0.176188,-0.160427,1.474505,73.14,1
69337,0,223504,259246,223475.06,259254.96,28.94,-8.97,-0.176191,-0.160426,1.474986,73.13,1
69378,0,223508,259240,223475.71,259254.67,32.28,-14.67,-0.176194,-0.160425,1.475462,73.11,1
69416,0,223502,259227,223476.25,259254.12,25.75,-27.12,-0.176196,-0.160423,1.475086,73.12,1
69457,0,223481,259221,223476.35,259253.46,4.64,-32.47,-0.176197,-0.16042,1.47389,73.15,1
69497,0,223476,259208,223476.35,259252.56,-0.36,-44.56,-0.176197,-0.160417,1.471598,73.21,1
69536,0,223479,259217,223476.42,259251.85,2.58,-34.86,-0.176197,-0.160414,1.47019,73.25,1
69577,0,223459,259212,223476.06,259251.06,-17.06,-39.06,-0.176195,-0.160411,1.468616,73.28,1
69617,0,223472,259214,223475.98,259250.32,-3.98,-36.33,-0.176195,-0.160408,1.467072,73.32,1
69656,0,223481,259210,223476.09,259249.53,4.91,-39.53,-0.176196,-0.160405,1.465238,73.37,1
69697,0,223476,259226,223476.09,259249.06,-0.09,-23.06,-0.176196,-0.160403,1.464598,73.39,1
69736,0,223483,259222,223476.23,259248.53,6.77,-26.53,-0.176196,-0.160401,1.463781,73.41,1
69776,0,223484,259223,223476.4,259248.01,7.59,-25.02,-0.176197,-0.160399,1.463061,73.42,1
69817,0,223470,259218,223476.28,259247.42,-6.28,-29.42,-0.176196,-0.160397,1.462028,73.45,1
69856,0,223494,259233,223476.64,259247.14,17.36,-14.14,-0.176198,-0.160396,1.46201,73.45,1
69897,0,223485,259236,223476.81,259246.92,8.19,-10.92,-0.176199,-0.160395,1.461908,73.45,1
69937,0,223480,259218,223476.87,259246.34,3.13,-28.34,-0.176199,-0.160393,1.460901,73.48,1
69976,0,223490,259217,223477.14,259245.76,12.86,-28.77,-0.1762,-0.16039,1.459981,73.5,1
70017,0,223471,259220,223477.03,259245.26,-6.03,-25.27,-0.1762,-0.160389,1.45919,73.52,1
70056,0,223472,259220,223476.93,259244.76,-4.94,-24.77,-0.176199,-0.160387,1.458415,73.54,1
70095,0,223467,259209,223476.75,259244.06,-9.75,-35.06,-0.176199,-0.160384,1.456894,73.58,1
70136,0,223454,259203,223476.29,259243.25,-22.3,-40.25,-0.176197,-0.160381,1.455187,73.62,1
70175,0,223457,259208,223475.92,259242.54,-18.92,-34.55,-0.176195,-0.160378,1.453914,73.65,1
70216,0,223464,259209,223475.68,259241.87,-11.69,-32.88,-0.176194,-0.160376,1.452595,73.69,1
70256,0,223467,259217,223475.51,259241.39,-8.52,-24.39,-0.176193,-0.160374,1.451858,73.7,1
70295,0,223467,259225,223475.35,259241.06,-8.36,-16.06,-0.176192,-0.160372,1.451565,73.71,1
70336,0,223475,259224,223475.35,259240.73,-0.36,-16.73,-0.176192,-0.160371,1.45118,73.72,1
70375,0,223477,259225,223475.4,259240.42,1.59,-15.42,-0.176193,-0.16037,1.45085,73.73,1
70416,0,223478,259232,223475.46,259240.26,2.53,-8.27,-0.176193,-0.160369,1.450756,73.73,1
70456,0,223476,259233,223475.48,259240.12,0.52,-7.13,-0.176193,-0.160369,1.45068,73.73,1
70495,0,223493,259243,223475.84,259240.18,17.16,2.81,-0.176195,-0.160369,1.450929,73.73,1
70536,0,223495,259246,223476.23,259240.31,18.77,5.69,-0.176196,-0.160369,1.451198,73.72,1
70576,0,223498,259241,223476.67,259240.32,21.33,0.67,-0.176198,-0.16037,1.451611,73.71,1
70615,0,223502,259231,223477.18,259240.15,24.81,-9.16,-0.176201,-0.160369,1.452056,73.7,1
70656,0,223488,259226,223477.4,259239.87,10.59,-13.88,-0.176202,-0.160368,1.451873,73.7,1
70695,0,223488,259229,223477.62,259239.65,10.38,-10.66,-0.176202,-0.160367,1.451801,73.7,1
70734,0,223475,259225,223477.57,259239.37,-2.58,-14.38,-0.176202,-0.160366,1.451492,73.71,1
70775,0,223471,259221,223477.45,259239.01,-6.45,-18.02,-0.176202,-0.160364,1.451036,73.72,1
70814,0,223468,259218,223477.26,259238.59,-9.27,-20.59,-0.176201,-0.160363,1.450468,73.74,1
70855,0,223466,259228,223477.03,259238.39,-11.03,-10.39,-0.1762,-0.160362,1.450417,73.74,1
70895,0,223468,259232,223476.85,259238.26,-8.86,-6.27,-0.176199,-0.160362,1.450428,73.74,1
70934,0,223477,259242,223476.87,259238.34,0.12,3.66,-0.176199,-0.160362,1.450402,73.74,1
70975,0,223493,259240,223477.2,259238.37,15.8,1.63,-0.176201,-0.160362,1.450646,73.73,1
71015,0,223494,259244,223477.53,259238.48,16.47,5.52,-0.176202,-0.160362,1.450871,73.73,1
71054,0,223499,259268,223477.96,259239.07,21.03,28.92,-0.176204,-0.160365,1.449971,73.75,1
71095,0,223488,259246,223478.17,259239.21,9.83,6.78,-0.176205,-0.160365,1.449992,73.75,1
71135,0,223507,259257,223478.75,259239.57,28.25,17.42,-0.176208,-0.160367,1.450329,73.74,1
71174,0,223515,259267,223479.46,259240.14,35.53,26.86,-0.176211,-0.160369,1.450468,73.74,1
71215,0,223515,259276,223480.18,259240.85,34.81,35.14,-0.176214,-0.160372,1.449695,73.76,1
71254,0,223514,259243,223480.87,259240.9,33.13,2.09,-0.176217,-0.160372,1.450869,73.73,1
71294,0,223508,259248,223481.42,259241.04,26.58,6.95,-0.176219,-0.160372,1.451553,73.71,1
71334,0,223492,259237,223481.64,259240.96,10.36,-3.97,-0.17622,-0.160372,1.451639,73.71,1
71373,0,223506,259251,223482.14,259241.17,23.86,9.83,-0.176223,-0.160373,1.452099,73.7,1
71414,0,223499,259252,223482.48,259241.4,16.52,10.59,-0.176224,-0.160374,1.452203,73.69,1
71454,0,223498,259256,223482.79,259241.7,15.2,14.3,-0.176226,-0.160375,1.452098,73.7,1
71493,0,223510,259258,223483.34,259242.03,26.66,15.97,-0.176228,-0.160376,1.45245,73.69,1
71534,0,223514,259265,223483.96,259242.5,30.03,22.5,-0.176231,-0.160378,1.45257,73.69,1
71573,0,223532,259284,223484.93,259243.34,47.06,40.66,-0.176235,-0.160381,1.45213,73.7,1
71614,0,223552,259298,223486.29,259244.43,65.7,53.56,-0.176241,-0.160385,1.45192,73.7,1
71654,0,223555,259296,223487.67,259245.46,67.33,50.53,-0.176247,-0.160389,1.452541,73.69,1
71693,0,223562,259315,223489.15,259246.85,72.84,68.14,-0.176254,-0.160395,1.450236,73.74,1
71734,0,223570,259314,223490.78,259248.2,79.22,65.8,-0.176261,-0.1604,1.449663,73.76,1
71773,0,223579,259325,223492.54,259249.75,86.45,75.25,-0.176269,-0.160406,1.448071,73.8,1
71814,0,223602,259338,223494.75,259251.53,107.25,86.47,-0.176279,-0.160413,1.447902,73.8,1
71854,0,223602,259337,223496.9,259253.23,105.09,83.77,-0.176289,-0.160419,1.448035,73.8,1
71894,0,223615,259344,223499.26,259255.04,115.73,88.95,-0.176299,-0.160426,1.449246,73.77,1
71933,0,223612,259346,223501.51,259256.87,110.48,89.12,-0.176309,-0.160433,1.449034,73.77,1
71972,0,223609,259338,223503.65,259258.51,105.34,79.48,-0.176319,-0.16044,1.45042,73.74,1
72013,0,223596,259332,223505.51,259259.98,90.48,72.02,-0.176327,-0.160445,1.45051,73.74,1
72053,0,223611,259342,223507.62,259261.64,103.37,80.36,-0.176337,-0.160452,1.451164,73.72,1
72093,0,223610,259340,223509.68,259263.2,100.31,76.8,-0.176346,-0.160458,1.452083,73.7,1
72133,0,223613,259360,223511.76,259265.14,101.23,94.86,-0.176355,-0.160465,1.447883,73.8,1
72172,0,223634,259374,223514.21,259267.32,119.78,106.67,-0.176366,-0.160474,1.444251,73.89,1
72213,0,223636,259373,223516.65,259269.43,119.34,103.56,-0.176377,-0.160482,1.441724,73.96,1
72252,0,223645,259382,223519.23,259271.68,125.77,110.31,-0.176389,-0.16049,1.438611,74.03,1
72293,0,223639,259374,223521.64,259273.75,117.36,100.25,-0.176399,-0.160498,1.436872,74.08,1
72334,0,223640,259363,223524.01,259275.54,115.98,87.45,-0.17641,-0.160505,1.43864,74.03,1
72373,0,223630,259350,223526.14,259277.04,103.86,72.95,-0.17642,-0.160511,1.441304,73.97,1
72413,0,223621,259350,223528.04,259278.51,92.95,71.48,-0.176428,-0.160517,1.442072,73.95,1
72453,0,223636,259356,223530.2,259280.07,105.8,75.92,-0.176438,-0.160523,1.4444,73.89,1
72493,0,223616,259336,223531.92,259281.2,84.08,54.8,-0.176445,-0.160527,1.44686,73.83,1
72531,0,223618,259327,223533.64,259282.12,84.36,44.88,-0.176453,-0.160531,1.450936,73.73,1
72572,0,223612,259339,223535.2,259283.26,76.8,55.73,-0.17646,-0.160535,1.451998,73.7,1
72612,0,223604,259321,223536.57,259284.03,67.42,36.97,-0.176466,-0.160538,1.454474,73.64,1
72651,0,223601,259323,223537.85,259284.81,63.14,38.19,-0.176472,-0.160541,1.456226,73.59,1
72692,0,223587,259318,223538.84,259285.48,48.16,32.52,-0.176476,-0.160544,1.456904,73.58,1
72732,0,223594,259320,223539.95,259286.18,54.05,33.81,-0.176481,-0.160546,1.458075,73.55,1
72772,0,223589,259319,223540.93,259286.84,48.06,32.16,-0.176486,-0.160549,1.458787,73.53,1
72812,0,223584,259321,223541.81,259287.53,42.19,33.47,-0.17649,-0.160552,1.458792,73.53,1
72851,0,223588,259317,223542.75,259288.12,45.25,28.87,-0.176494,-0.160554,1.459571,73.51,1
72892,0,223587,259334,223543.64,259289.06,43.36,44.94,-0.176498,-0.160557,1.458145,73.55,1
72932,0,223600,259331,223544.76,259289.9,55.23,41.09,-0.176503,-0.160561,1.458558,73.54,1
72972,0,223604,259331,223545.95,259290.73,58.05,40.27,-0.176508,-0.160564,1.459437,73.51,1
73012,0,223597,259313,223546.96,259291.18,50.03,21.81,-0.176513,-0.160566,1.461361,73.47,1
73051,0,223587,259328,223547.76,259291.93,39.23,36.06,-0.176516,-0.160569,1.460776,73.48,1
73092,0,223596,259328,223548.73,259292.67,47.27,35.33,-0.176521,-0.160571,1.461057,73.47,1
73132,0,223590,259323,223549.56,259293.28,40.44,29.72,-0.176524,-0.160574,1.461317,73.47,1
73171,0,223592,259313,223550.42,259293.68,41.58,19.31,-0.176528,-0.160575,1.462604,73.43,1
73211,0,223573,259309,223550.87,259294,22.12,15,-0.17653,-0.160577,1.462751,73.43,1
73250,0,223574,259303,223551.34,259294.18,22.66,8.81,-0.176532,-0.160577,1.463198,73.42,1
73291,0,223570,259293,223551.73,259294.17,18.27,-1.17,-0.176534,-0.160577,1.463581,73.41,1
73331,0,223570,259297,223552.1,259294.23,17.89,2.77,-0.176536,-0.160577,1.46394,73.4,1
73370,0,223573,259292,223552.53,259294.2,20.47,-2.2,-0.176538,-0.160577,1.464426,73.39,1
73411,0,223567,259295,223552.82,259294.23,14.17,0.77,-0.176539,-0.160577,1.464662,73.38,1
73451,0,223583,259304,223553.43,259294.43,29.56,9.56,-0.176542,-0.160578,1.465542,73.36,1
73491,0,223587,259316,223554.1,259294.85,32.89,21.14,-0.176545,-0.16058,1.465989,73.35,1
73531,0,223587,259316,223554.76,259295.28,32.23,20.72,-0.176548,-0.160581,1.466422,73.34,1
73570,0,223599,259310,223555.65,259295.57,43.34,14.42,-0.176552,-0.160583,1.468345,73.29,1
73611,0,223597,259314,223556.48,259295.95,40.52,18.05,-0.176555,-0.160584,1.469747,73.26,1
73651,0,223580,259302,223556.95,259296.07,23.05,5.92,-0.176557,-0.160585,1.470345,73.24,1
73690,0,223579,259299,223557.39,259296.14,21.61,2.86,-0.176559,-0.160585,1.470922,73.23,1
73731,0,223592,259298,223558.09,259296.17,33.91,1.83,-0.176563,-0.160585,1.472396,73.19,1
73771,0,223585,259300,223558.64,259296.25,26.36,3.75,-0.176565,-0.160585,1.473269,73.17,1
73809,0,223595,259287,223559.37,259296.06,35.63,-9.06,-0.176568,-0.160584,1.47476,73.13,1
73850,0,223568,259288,223559.54,259295.9,8.45,-7.91,-0.176569,-0.160584,1.474717,73.13,1
73890,0,223572,259296,223559.79,259295.92,12.2,0.08,-0.17657,-0.160584,1.474913,73.13,1
73929,0,223569,259273,223559.98,259295.46,9.02,-22.47,-0.176571,-0.160582,1.473915,73.15,1
73970,0,223562,259271,223560.01,259294.98,1.98,-23.98,-0.176571,-0.16058,1.472648,73.18,1
74009,0,223548,259264,223559.76,259294.37,-11.77,-30.37,-0.17657,-0.160578,1.470787,73.23,1
74050,0,223541,259270,223559.39,259293.9,-18.39,-23.91,-0.176568,-0.160576,1.469977,73.25,1
74090,0,223562,259268,223559.43,259293.39,2.56,-25.39,-0.176569,-0.160574,1.468531,73.29,1
74129,0,223560,259279,223559.45,259293.1,0.55,-14.11,-0.176569,-0.160573,1.468076,73.3,1
74170,0,223572,259295,223559.7,259293.15,12.3,1.84,-0.17657,-0.160573,1.468281,73.29,1
74210,0,223569,259282,223559.89,259292.93,9.11,-10.94,-0.176571,-0.160572,1.46812,73.3,1
74249,0,223578,259279,223560.26,259292.65,17.73,-13.66,-0.176572,-0.160571,1.468139,73.3,1
74290,0,223557,259283,223560.2,259292.46,-3.2,-9.47,-0.176572,-0.160571,1.467938,73.3,1
74330,0,223568,259275,223560.35,259292.12,7.64,-17.12,-0.176573,-0.160569,1.467323,73.32,1
74369,0,223580,259286,223560.75,259292,19.25,-6,-0.176574,-0.160569,1.467789,73.31,1
74409,0,223558,259286,223560.7,259291.89,-2.7,-5.89,-0.176574,-0.160568,1.467712,73.31,1
74449,0,223556,259270,223560.62,259291.46,-4.63,-21.47,-0.176574,-0.160567,1.466613,73.33,1
74489,0,223565,259275,223560.71,259291.14,4.28,-16.14,-0.176574,-0.160565,1.465994,73.35,1
74529,0,223548,259267,223560.46,259290.67,-12.47,-23.67,-0.176573,-0.160564,1.464838,73.38,1
74568,0,223560,259255,223560.46,259289.95,-0.47,-34.95,-0.176573,-0.160561,1.461776,73.46,1
74609,0,223548,259253,223560.21,259289.21,-12.22,-36.22,-0.176572,-0.160558,1.458714,73.53,1
74649,0,223548,259253,223559.96,259288.5,-11.97,-35.5,-0.176571,-0.160555,1.455762,73.61,1
74689,0,223554,259260,223559.85,259287.93,-5.86,-27.94,-0.17657,-0.160553,1.453836,73.65,1
74729,0,223546,259267,223559.59,259287.53,-13.59,-20.53,-0.176569,-0.160552,1.453057,73.67,1
74769,0,223580,259282,223560,259287.42,20,-5.42,-0.176571,-0.160551,1.453634,73.66,1
74809,0,223585,259302,223560.5,259287.71,24.5,14.28,-0.176573,-0.160552,1.454094,73.65,1
74849,0,223603,259317,223561.35,259288.31,41.64,28.69,-0.176577,-0.160555,1.454825,73.63,1
74888,0,223615,259321,223562.43,259288.96,52.56,32.03,-0.176582,-0.160557,1.456747,73.58,1
74929,0,223620,259328,223563.59,259289.75,56.41,38.25,-0.176587,-0.16056,1.458214,73.54,1
74969,0,223632,259321,223564.96,259290.37,67.03,30.62,-0.176593,-0.160563,1.463295,73.42,1
75009,0,223642,259346,223566.51,259291.5,75.48,54.5,-0.1766,-0.160567,1.464928,73.38,1
75048,0,223660,259348,223568.39,259292.62,91.61,55.38,-0.176609,-0.160571,1.470797,73.23,1
75087,0,223666,259339,223570.34,259293.56,95.66,45.44,-0.176617,-0.160575,1.480544,72.99,1
75128,0,223662,259339,223572.17,259294.48,89.83,44.52,-0.176625,-0.160578,1.488609,72.78,1
75168,0,223658,259340,223573.89,259295.39,84.11,44.61,-0.176633,-0.160582,1.494921,72.63,1
75208,0,223658,259332,223575.57,259296.12,82.42,35.88,-0.176641,-0.160585,1.502665,72.43,1
75248,0,223644,259336,223576.95,259296.92,67.05,39.08,-0.176647,-0.160588,1.50588,72.35,1
75287,0,223659,259339,223578.59,259297.76,80.41,41.23,-0.176654,-0.160591,1.511874,72.2,1
75328,0,223660,259338,223580.23,259298.57,79.77,39.42,-0.176662,-0.160594,1.518074,72.05,1
75368,0,223665,259338,223581.93,259299.37,83.06,38.63,-0.176669,-0.160597,1.52531,71.87,1
75407,0,223665,259329,223583.59,259299.96,81.41,29.03,-0.176677,-0.160599,1.533935,71.65,1
75448,0,223652,259338,223584.96,259300.73,67.03,37.27,-0.176683,-0.160603,1.537381,71.57,1
75488,0,223658,259337,223586.43,259301.45,71.56,35.55,-0.176689,-0.160605,1.542236,71.44,1
75528,0,223668,259326,223588.07,259301.93,79.92,24.06,-0.176697,-0.160607,1.551245,71.22,1
75568,0,223649,259319,223589.31,259302.28,59.69,16.72,-0.176702,-0.160608,1.556409,71.09,1
75607,0,223646,259301,223590.45,259302.25,55.55,-1.25,-0.176707,-0.160608,1.561642,70.96,1
75648,0,223635,259296,223591.34,259302.12,43.66,-6.13,-0.176711,-0.160608,1.564782,70.88,1
75687,0,223628,259297,223592.07,259302.03,35.92,-5.03,-0.176714,-0.160608,1.566925,70.83,1
75727,0,223622,259292,223592.67,259301.84,29.33,-9.84,-0.176717,-0.160607,1.56811,70.8,1
75767,0,223617,259285,223593.17,259301.51,23.83,-16.52,-0.176719,-0.160605,1.568227,70.79,1
75807,0,223613,259276,223593.57,259301,19.42,-25,-0.176721,-0.160604,1.566869,70.83,1
75847,0,223597,259261,223593.64,259300.2,3.36,-39.2,-0.176721,-0.1606,1.561896,70.95,1
75887,0,223583,259253,223593.42,259299.26,-10.42,-46.27,-0.17672,-0.160597,1.555148,71.12,1
75926,0,223594,259261,223593.43,259298.5,0.56,-37.5,-0.176721,-0.160594,1.550591,71.24,1
75967,0,223596,259256,223593.5,259297.65,2.5,-41.66,-0.176721,-0.160591,1.544977,71.38,1
76007,0,223584,259261,223593.31,259296.92,-9.31,-35.92,-0.17672,-0.160588,1.540949,71.48,1
76046,0,223593,259257,223593.31,259296.12,-0.31,-39.13,-0.17672,-0.160585,1.535978,71.6,1
76087,0,223593,259267,223593.31,259295.54,-0.31,-28.55,-0.17672,-0.160582,1.533322,71.67,1
76127,0,223606,259272,223593.57,259295.07,12.42,-23.08,-0.176721,-0.160581,1.531865,71.7,1
76167,0,223613,259270,223593.96,259294.59,19.03,-24.59,-0.176723,-0.160579,1.530552,71.74,1
76207,0,223596,259270,223594.01,259294.1,1.98,-24.11,-0.176723,-0.160577,1.528628,71.78,1
76246,0,223595,259272,223594.04,259293.67,0.95,-21.67,-0.176723,-0.160575,1.527058,71.82,1
76286,0,223597,259265,223594.1,259293.09,2.89,-28.09,-0.176724,-0.160573,1.52442,71.89,1
76326,0,223585,259266,223593.93,259292.54,-8.94,-26.55,-0.176723,-0.160571,1.522194,71.95,1
76365,0,223574,259248,223593.54,259291.65,-19.55,-43.66,-0.176721,-0.160567,1.5165,72.09,1
76406,0,223549,259242,223592.67,259290.67,-43.67,-48.67,-0.176717,-0.160564,1.512282,72.19,1
76446,0,223547,259234,223591.76,259289.53,-44.77,-55.53,-0.176713,-0.160559,1.505909,72.35,1
76486,0,223540,259227,223590.73,259288.29,-50.73,-61.3,-0.176708,-0.160555,1.498525,72.54,1
76526,0,223526,259222,223589.43,259286.96,-63.44,-64.97,-0.176703,-0.160549,1.492616,72.68,1
76565,0,223517,259215,223588,259285.53,-71,-70.53,-0.176696,-0.160544,1.486409,72.84,1
76606,0,223510,259193,223586.45,259283.68,-76.45,-90.69,-0.176689,-0.160537,1.471805,73.2,1
76646,0,223502,259196,223584.78,259281.93,-82.78,-85.94,-0.176682,-0.16053,1.46232,73.44,1
76686,0,223509,259204,223583.28,259280.37,-74.28,-76.37,-0.176675,-0.160524,1.45531,73.62,1
76726,0,223502,259209,223581.67,259278.93,-79.67,-69.94,-0.176668,-0.160518,1.452799,73.68,1
76765,0,223517,259201,223580.39,259277.37,-63.39,-76.37,-0.176662,-0.160512,1.443364,73.92,1
76806,0,223503,259214,223578.84,259276.1,-75.84,-62.11,-0.176655,-0.160508,1.442955,73.93,1
76846,0,223512,259201,223577.5,259274.6,-65.5,-73.61,-0.176649,-0.160502,1.435504,74.11,1
76886,0,223509,259207,223576.12,259273.26,-67.12,-66.27,-0.176643,-0.160497,1.431476,74.21,1
76925,0,223510,259213,223574.81,259272.07,-64.81,-59.08,-0.176637,-0.160492,1.429454,74.26,1
76964,0,223509,259215,223573.5,259270.93,-64.5,-55.94,-0.176631,-0.160488,1.42838,74.29,1
77005,0,223515,259210,223572.32,259269.73,-57.33,-59.73,-0.176626,-0.160483,1.424541,74.39,1
77045,0,223500,259192,223570.89,259268.18,-70.89,-76.19,-0.17662,-0.160477,1.417861,74.55,1
77085,0,223508,259197,223569.64,259266.76,-61.64,-69.77,-0.176614,-0.160471,1.411664,74.71,1
77125,0,223495,259194,223568.15,259265.31,-73.16,-71.31,-0.176607,-0.160466,1.407793,74.81,1
77166,0,223504,259180,223566.87,259263.6,-62.88,-83.61,-0.176602,-0.160459,1.396655,75.08,1
77205,0,223489,259168,223565.32,259261.7,-76.33,-93.7,-0.176595,-0.160452,1.384698,75.38,1
77245,0,223483,259181,223563.68,259260.09,-80.69,-79.09,-0.176588,-0.160446,1.380559,75.49,1
77284,0,223498,259181,223562.37,259258.51,-64.37,-77.52,-0.176582,-0.16044,1.373094,75.67,1
77325,0,223481,259181,223560.75,259256.96,-79.75,-75.97,-0.176574,-0.160434,1.370159,75.75,1
77366,0,223501,259198,223559.56,259255.78,-58.56,-57.78,-0.176569,-0.160429,1.36807,75.8,1
77405,0,223510,259197,223558.57,259254.6,-48.58,-57.61,-0.176565,-0.160425,1.364232,75.89,1
77445,0,223496,259193,223557.32,259253.37,-61.33,-60.38,-0.176559,-0.16042,1.362053,75.95,1
77484,0,223506,259192,223556.31,259252.15,-50.31,-60.16,-0.176555,-0.160415,1.357875,76.05,1
77524,0,223488,259188,223554.95,259250.89,-66.95,-62.89,-0.176548,-0.16041,1.356282,76.09,1
77565,0,223505,259189,223553.95,259249.65,-48.95,-60.66,-0.176544,-0.160405,1.351814,76.2,1
77604,0,223503,259194,223552.93,259248.54,-49.94,-54.55,-0.176539,-0.160401,1.349182,76.27,1
77644,0,223503,259188,223551.95,259247.34,-48.95,-59.34,-0.176535,-0.160397,1.345152,76.37,1
77683,0,223502,259182,223550.96,259246.04,-48.97,-64.05,-0.176531,-0.160392,1.33985,76.5,1
77724,0,223491,259185,223549.76,259244.82,-58.77,-59.83,-0.176525,-0.160387,1.337598,76.56,1
77765,0,223494,259174,223548.65,259243.42,-54.66,-69.42,-0.17652,-0.160381,1.331796,76.71,1
77804,0,223482,259170,223547.32,259241.96,-65.33,-71.97,-0.176514,-0.160376,1.327469,76.81,1
77844,0,223478,259158,223545.95,259240.29,-67.95,-82.3,-0.176508,-0.160369,1.320341,76.99,1
77883,0,223471,259146,223544.45,259238.42,-73.45,-92.42,-0.176501,-0.160362,1.310948,77.23,1
77924,0,223466,259157,223542.87,259236.79,-76.87,-79.8,-0.176494,-0.160356,1.307284,77.32,1
77964,0,223482,259161,223541.65,259235.28,-59.66,-74.28,-0.176489,-0.16035,1.301625,77.46,1
78004,0,223491,259169,223540.64,259233.95,-49.64,-64.95,-0.176484,-0.160345,1.296949,77.58,1
78044,0,223484,259174,223539.5,259232.76,-55.5,-58.77,-0.176479,-0.16034,1.294913,77.63,1
78083,0,223496,259172,223538.64,259231.54,-42.64,-59.55,-0.176475,-0.160336,1.290632,77.73,1
78124,0,223509,259180,223538.06,259230.51,-29.06,-50.52,-0.176473,-0.160332,1.286802,77.83,1
78163,0,223505,259188,223537.4,259229.67,-32.41,-41.67,-0.17647,-0.160328,1.28499,77.88,1
78203,0,223522,259187,223537.09,259228.81,-15.09,-41.81,-0.176469,-0.160325,1.281775,77.96,1
78243,0,223519,259198,223536.73,259228.18,-17.73,-30.19,-0.176467,-0.160323,1.280423,77.99,1
78282,0,223527,259187,223536.54,259227.35,-9.55,-40.36,-0.176466,-0.160319,1.277199,78.07,1
78323,0,223520,259194,223536.21,259226.68,-16.22,-32.69,-0.176465,-0.160317,1.275425,78.11,1
78363,0,223534,259194,223536.18,259226.03,-2.19,-32.03,-0.176464,-0.160314,1.273285,78.17,1
78403,0,223529,259189,223536.04,259225.29,-7.05,-36.3,-0.176464,-0.160312,1.270602,78.23,1
78443,0,223535,259198,223536.03,259224.75,-1.03,-26.75,-0.176464,-0.160309,1.269091,78.27,1
78482,0,223542,259209,223536.15,259224.43,5.84,-15.44,-0.176464,-0.160308,1.268642,78.28,1
78523,0,223559,259199,223536.62,259223.93,22.37,-24.94,-0.176466,-0.160306,1.268204,78.29,1
78563,0,223556,259215,223537.01,259223.76,18.98,-8.77,-0.176468,-0.160306,1.268688,78.28,1
78602,0,223585,259247,223537.98,259224.23,47.02,22.77,-0.176473,-0.160307,1.271584,78.21,1
78643,0,223605,259266,223539.32,259225.06,65.67,40.94,-0.176479,-0.160311,1.275776,78.11,1
78683,0,223630,259270,223541.14,259225.96,88.86,44.03,-0.176487,-0.160314,1.285879,77.85,1
78723,0,223640,259278,223543.12,259227.01,96.87,50.98,-0.176496,-0.160318,1.297064,77.57,1
78763,0,223633,259285,223544.92,259228.18,88.08,56.81,-0.176504,-0.160323,1.303733,77.41,1
78803,0,223651,259286,223547.04,259229.34,103.95,56.66,-0.176513,-0.160327,1.315733,77.11,1
78842,0,223657,259301,223549.25,259230.78,107.75,70.22,-0.176523,-0.160333,1.324951,76.88,1
78882,0,223661,259287,223551.48,259231.9,109.52,55.09,-0.176533,-0.160337,1.338888,76.53,1
78922,0,223653,259287,223553.51,259233,99.48,54,-0.176542,-0.160341,1.349223,76.27,1
78962,0,223647,259283,223555.39,259234,91.61,49,-0.17655,-0.160345,1.358018,76.05,1
79001,0,223641,259268,223557.09,259234.68,83.91,33.31,-0.176558,-0.160348,1.36745,75.81,1
79042,0,223623,259255,223558.4,259235.09,64.59,19.91,-0.176564,-0.160349,1.373657,75.66,1
79082,0,223611,259246,223559.46,259235.31,51.53,10.69,-0.176569,-0.16035,1.377958,75.55,1
79121,0,223601,259239,223560.29,259235.39,40.7,3.61,-0.176572,-0.16035,1.380801,75.48,1
79162,0,223581,259239,223560.71,259235.46,20.28,3.53,-0.176574,-0.160351,1.381489,75.46,1
79202,0,223580,259247,223561.1,259235.7,18.89,11.3,-0.176576,-0.160352,1.381797,75.46,1
79242,0,223592,259256,223561.73,259236.12,30.27,19.87,-0.176579,-0.160353,1.382428,75.44,1
79282,0,223593,259251,223562.35,259236.42,30.64,14.58,-0.176582,-0.160354,1.383571,75.41,1
79321,0,223599,259263,223563.09,259236.96,35.91,26.03,-0.176585,-0.160357,1.384157,75.4,1
79362,0,223603,259256,223563.9,259237.35,39.09,18.64,-0.176589,-0.160358,1.386041,75.35,1
79401,0,223597,259260,223564.56,259237.81,32.44,22.19,-0.176591,-0.16036,1.38668,75.33,1
79441,0,223579,259236,223564.85,259237.78,14.14,-1.78,-0.176593,-0.16036,1.38704,75.32,1
79481,0,223584,259255,223565.25,259238.12,18.75,16.87,-0.176594,-0.160361,1.386933,75.33,1
79521,0,223587,259236,223565.68,259238.09,21.31,-2.09,-0.176596,-0.160361,1.387778,75.31,1
79561,0,223570,259227,223565.78,259237.89,4.22,-10.89,-0.176597,-0.16036,1.387484,75.31,1
79601,0,223560,259215,223565.67,259237.43,-5.67,-22.44,-0.176596,-0.160358,1.386156,75.35,1
79640,0,223558,259217,223565.51,259237.03,-7.52,-20.03,-0.176596,-0.160357,1.385148,75.37,1
79681,0,223543,259202,223565.06,259236.34,-22.06,-34.34,-0.176594,-0.160354,1.382806,75.43,1
79721,0,223531,259201,223564.39,259235.64,-33.39,-34.64,-0.176591,-0.160351,1.381639,75.46,1
79761,0,223531,259196,223563.73,259234.85,-32.73,-38.86,-0.176588,-0.160348,1.379516,75.51,1
79801,0,223512,259192,223562.7,259234.01,-50.7,-42.02,-0.176583,-0.160345,1.379659,75.51,1
79840,0,223514,259195,223561.73,259233.25,-47.73,-38.25,-0.176579,-0.160342,1.380071,75.5,1
79881,0,223517,259207,223560.84,259232.73,-43.84,-25.73,-0.176575,-0.16034,1.382045,75.45,1
79921,0,223520,259215,223560.03,259232.37,-40.03,-17.37,-0.176571,-0.160339,1.384415,75.39,1
79961,0,223540,259213,223559.62,259232,-19.62,-19,-0.176569,-0.160337,1.38415,75.4,1
80001,0,223536,259228,223559.15,259231.92,-23.16,-3.92,-0.176567,-0.160337,1.385205,75.37,1
80041,0,223551,259216,223559,259231.59,-8,-15.59,-0.176567,-0.160336,1.384616,75.38,1
80080,0,223548,259223,223558.78,259231.42,-10.78,-8.42,-0.176566,-0.160335,1.384645,75.38,1
80120,0,223542,259226,223558.45,259231.31,-16.45,-5.31,-0.176564,-0.160335,1.385131,75.37,1
80159,0,223543,259229,223558.14,259231.26,-15.14,-2.27,-0.176563,-0.160335,1.385603,75.36,1
80200,0,223542,259224,223557.82,259231.12,-15.83,-7.13,-0.176561,-0.160334,1.385985,75.35,1
80240,0,223534,259214,223557.34,259230.78,-23.34,-16.78,-0.176559,-0.160333,1.386294,75.34,1
80280,0,223522,259198,223556.64,259230.12,-34.64,-32.13,-0.176556,-0.16033,1.38569,75.36,1
80320,0,223512,259182,223555.75,259229.17,-43.75,-47.17,-0.176552,-0.160326,1.382922,75.43,1
80359,0,223507,259184,223554.78,259228.28,-47.78,-44.28,-0.176548,-0.160323,1.381811,75.45,1
80400,0,223491,259188,223553.5,259227.48,-62.5,-39.48,-0.176542,-0.16032,1.385535,75.36,1
80440,0,223493,259188,223552.29,259226.7,-59.3,-38.7,-0.176537,-0.160317,1.388568,75.29,1
80480,0,223502,259183,223551.29,259225.82,-49.3,-42.83,-0.176532,-0.160314,1.388127,75.3,1
80520,0,223501,259189,223550.29,259225.09,-49.3,-36.09,-0.176528,-0.160311,1.389373,75.27,1
80559,0,223501,259197,223549.31,259224.53,-48.31,-27.53,-0.176523,-0.160309,1.392143,75.2,1
80600,0,223512,259205,223548.56,259224.14,-36.56,-19.14,-0.17652,-0.160307,1.393952,75.15,1
80640,0,223520,259194,223548,259223.53,-28,-29.53,-0.176517,-0.160305,1.392878,75.18,1
80679,0,223525,259205,223547.54,259223.15,-22.55,-18.16,-0.176515,-0.160303,1.392952,75.18,1
80719,0,223509,259200,223546.78,259222.7,-37.78,-22.7,-0.176512,-0.160301,1.394514,75.14,1
80758,0,223516,259198,223546.15,259222.2,-30.16,-24.2,-0.176509,-0.1603,1.394656,75.13,1
80799,0,223527,259211,223545.78,259221.98,-18.78,-10.98,-0.176507,-0.160299,1.395069,75.12,1
80839,0,223531,259206,223545.5,259221.67,-14.5,-15.67,-0.176506,-0.160298,1.394727,75.13,1
80879,0,223528,259198,223545.15,259221.2,-17.16,-23.2,-0.176505,-0.160296,1.39358,75.16,1
80919,0,223501,259185,223544.26,259220.48,-43.27,-35.48,-0.176501,-0.160293,1.393706,75.16,1
80958,0,223521,259189,223543.81,259219.85,-22.81,-30.86,-0.176499,-0.160291,1.391663,75.21,1
80999,0,223509,259183,223543.12,259219.12,-34.13,-36.13,-0.176496,-0.160288,1.389946,75.25,1
81039,0,223507,259177,223542.4,259218.29,-35.41,-41.3,-0.176492,-0.160285,1.387065,75.32,1
81079,0,223496,259178,223541.48,259217.5,-45.48,-39.5,-0.176488,-0.160281,1.386669,75.33,1
81119,0,223483,259175,223540.31,259216.65,-57.31,-41.66,-0.176483,-0.160278,1.388612,75.28,1
81158,0,223489,259168,223539.29,259215.68,-50.3,-47.69,-0.176478,-0.160274,1.386846,75.33,1
81199,0,223500,259183,223538.51,259215.03,-38.52,-32.03,-0.176475,-0.160272,1.386884,75.33,1
81239,0,223515,259184,223538.04,259214.4,-23.05,-30.41,-0.176473,-0.160269,1.384951,75.38,1
81278,0,223508,259199,223537.45,259214.1,-29.45,-15.11,-0.17647,-0.160268,1.386285,75.34,1
81318,0,223501,259171,223536.71,259213.25,-35.72,-42.25,-0.176467,-0.160265,1.383136,75.42,1
81357,0,223508,259175,223536.14,259212.48,-28.14,-37.48,-0.176464,-0.160262,1.380141,75.5,1
81398,0,223511,259187,223535.64,259211.96,-24.64,-24.97,-0.176462,-0.16026,1.37945,75.51,1
81438,0,223502,259189,223534.98,259211.51,-32.98,-22.52,-0.176459,-0.160258,1.380383,75.49,1
81478,0,223511,259187,223534.5,259211.03,-23.5,-24.03,-0.176457,-0.160256,1.379707,75.51,1
81518,0,223510,259182,223534.01,259210.45,-24.02,-28.45,-0.176455,-0.160254,1.378252,75.54,1
81557,0,223521,259191,223533.76,259210.06,-12.77,-19.06,-0.176454,-0.160253,1.377348,75.57,1
81598,0,223509,259189,223533.28,259209.64,-24.28,-20.64,-0.176452,-0.160251,1.377317,75.57,1
81638,0,223509,259196,223532.81,259209.37,-23.81,-13.38,-0.176449,-0.16025,1.37814,75.55,1
81678,0,223502,259174,223532.2,259208.67,-30.2,-34.67,-0.176447,-0.160247,1.376073,75.6,1
81718,0,223495,259166,223531.46,259207.81,-36.47,-41.81,-0.176443,-0.160244,1.373086,75.67,1
81757,0,223488,259172,223530.6,259207.09,-42.61,-35.09,-0.17644,-0.160241,1.373321,75.67,1
81798,0,223483,259176,223529.65,259206.46,-46.66,-30.47,-0.176435,-0.160239,1.375648,75.61,1
81838,0,223491,259175,223528.87,259205.84,-37.88,-30.84,-0.176432,-0.160236,1.375903,75.6,1
81878,0,223510,259185,223528.5,259205.43,-18.5,-20.44,-0.17643,-0.160235,1.37524,75.62,1
81917,0,223520,259194,223528.34,259205.2,-8.34,-11.2,-0.176429,-0.160234,1.374948,75.63,1
81956,0,223523,259190,223528.23,259204.9,-5.23,-14.91,-0.176429,-0.160233,1.374166,75.65,1
81997,0,223518,259191,223528.03,259204.62,-10.03,-13.63,-0.176428,-0.160232,1.373721,75.66,1
82037,0,223526,259198,223527.98,259204.48,-1.98,-6.48,-0.176428,-0.160231,1.373566,75.66,1
82076,0,223533,259200,223528.07,259204.4,4.92,-4.41,-0.176428,-0.160231,1.373557,75.66,1
82117,0,223530,259213,223528.1,259204.59,1.89,8.41,-0.176428,-0.160232,1.373283,75.67,1
82157,0,223541,259210,223528.35,259204.7,12.64,5.3,-0.17643,-0.160232,1.373629,75.66,1
82196,0,223550,259212,223528.79,259204.84,21.2,7.16,-0.176431,-0.160233,1.374727,75.63,1
82237,0,223538,259206,223528.98,259204.87,9.02,1.12,-0.176432,-0.160233,1.374959,75.63,1
82277,0,223545,259207,223529.31,259204.92,15.69,2.08,-0.176434,-0.160233,1.375669,75.61,1
82316,0,223554,259212,223529.81,259205.06,24.19,6.94,-0.176436,-0.160233,1.377215,75.57,1
82357,0,223555,259212,223530.31,259205.2,24.69,6.8,-0.176438,-0.160234,1.378856,75.53,1
82397,0,223559,259223,223530.87,259205.56,28.12,17.44,-0.176441,-0.160235,1.379953,75.5,1
82437,0,223553,259207,223531.32,259205.59,21.67,1.41,-0.176443,-0.160235,1.381383,75.47,1
82477,0,223562,259227,223531.93,259206.03,30.06,20.97,-0.176446,-0.160237,1.382246,75.44,1
82515,0,223583,259241,223532.95,259206.73,50.05,34.27,-0.17645,-0.16024,1.38483,75.38,1
82556,0,223595,259255,223534.2,259207.7,60.8,47.3,-0.176456,-0.160244,1.386385,75.34,1
82596,0,223606,259259,223535.64,259208.71,70.36,50.28,-0.176462,-0.160248,1.39046,75.24,1
82636,0,223608,259270,223537.09,259209.95,70.91,60.05,-0.176469,-0.160252,1.38999,75.25,1
82676,0,223620,259282,223538.76,259211.4,81.23,70.59,-0.176476,-0.160258,1.388338,75.29,1
82715,0,223615,259281,223540.29,259212.81,74.7,68.19,-0.176483,-0.160263,1.385197,75.37,1
82756,0,223616,259273,223541.81,259214.01,74.19,58.98,-0.17649,-0.160268,1.386745,75.33,1
82796,0,223612,259262,223543.21,259214.96,68.78,47.03,-0.176496,-0.160272,1.391219,75.22,1
82835,0,223607,259260,223544.5,259215.87,62.5,44.13,-0.176502,-0.160275,1.394355,75.14,1
82876,0,223590,259260,223545.4,259216.76,44.59,43.23,-0.176506,-0.160279,1.392328,75.19,1
82915,0,223592,259244,223546.34,259217.31,45.66,26.69,-0.17651,-0.160281,1.395346,75.12,1
82956,0,223562,259234,223546.65,259217.65,15.34,16.34,-0.176511,-0.160282,1.39491,75.13,1
82996,0,223564,259224,223547.01,259217.79,16.98,6.2,-0.176513,-0.160283,1.395584,75.11,1
83035,0,223565,259229,223547.37,259218.03,17.62,10.97,-0.176515,-0.160283,1.395983,75.1,1
83076,0,223549,259226,223547.42,259218.18,1.58,7.81,-0.176515,-0.160284,1.395727,75.11,1
83115,0,223554,259241,223547.56,259218.64,6.44,22.36,-0.176515,-0.160286,1.393691,75.16,1
83155,0,223570,259242,223548.01,259219.1,21.98,22.89,-0.176517,-0.160288,1.392868,75.18,1
83195,0,223572,259256,223548.5,259219.85,23.5,36.14,-0.17652,-0.160291,1.388851,75.28,1
83234,0,223576,259245,223549.04,259220.37,26.95,24.62,-0.176522,-0.160293,1.388414,75.29,1
83275,0,223576,259238,223549.57,259220.73,26.42,17.27,-0.176524,-0.160294,1.389242,75.27,1
83315,0,223565,259237,223549.89,259221.06,15.11,15.94,-0.176526,-0.160295,1.38882,75.28,1
83355,0,223559,259235,223550.06,259221.34,8.94,13.66,-0.176527,-0.160296,1.388234,75.29,1
83395,0,223547,259230,223550,259221.51,-3,8.48,-0.176526,-0.160297,1.387937,75.3,1
83434,0,223548,259230,223549.95,259221.68,-1.95,8.31,-0.176526,-0.160298,1.387633,75.31,1
83474,0,223536,259217,223549.67,259221.6,-13.67,-4.61,-0.176525,-0.160297,1.388135,75.3,1
83515,0,223533,259226,223549.34,259221.7,-16.34,4.3,-0.176523,-0.160298,1.388913,75.28,1
83554,0,223535,259216,223549.06,259221.59,-14.06,-5.59,-0.176522,-0.160297,1.389412,75.26,1
83595,0,223532,259219,223548.71,259221.54,-16.72,-2.55,-0.176521,-0.160297,1.390304,75.24,1
83635,0,223524,259219,223548.23,259221.5,-24.23,-2.5,-0.176518,-0.160297,1.392231,75.19,1
83674,0,223525,259214,223547.78,259221.35,-22.78,-7.36,-0.176516,-0.160296,1.393712,75.16,1
83715,0,223520,259198,223547.23,259220.89,-27.23,-22.89,-0.176514,-0.160294,1.39366,75.16,1
83755,0,223524,259210,223546.78,259220.68,-22.78,-10.69,-0.176512,-0.160294,1.394867,75.13,1
83794,0,223525,259224,223546.34,259220.76,-21.34,3.23,-0.17651,-0.160294,1.396381,75.09,1
83834,0,223536,259229,223546.14,259220.93,-10.14,8.06,-0.176509,-0.160295,1.39641,75.09,1
83873,0,223550,259226,223546.21,259221.04,3.78,4.95,-0.176509,-0.160295,1.396335,75.09,1
83914,0,223535,259227,223546,259221.17,-11,5.83,-0.176508,-0.160296,1.396588,75.09,1
83954,0,223531,259216,223545.7,259221.06,-14.7,-5.06,-0.176507,-0.160295,1.397228,75.07,1
83993,0,223535,259229,223545.5,259221.21,-10.5,7.78,-0.176506,-0.160296,1.397307,75.07,1
84034,0,223543,259238,223545.45,259221.56,-2.45,16.44,-0.176506,-0.160297,1.395901,75.1,1
84074,0,223543,259224,223545.4,259221.62,-2.41,2.38,-0.176506,-0.160297,1.395891,75.1,1
84113,0,223542,259219,223545.34,259221.57,-3.34,-2.58,-0.176505,-0.160297,1.395896,75.1,1
84154,0,223539,259218,223545.21,259221.51,-6.22,-3.52,-0.176505,-0.160297,1.395974,75.1,1
84194,0,223531,259219,223544.93,259221.46,-13.94,-2.47,-0.176504,-0.160297,1.396676,75.08,1
84233,0,223536,259214,223544.76,259221.32,-8.77,-7.33,-0.176503,-0.160296,1.396671,75.08,1
84274,0,223520,259207,223544.28,259221.04,-24.28,-14.05,-0.176501,-0.160295,1.39784,75.05,1
84314,0,223519,259201,223543.78,259220.64,-24.78,-19.64,-0.176498,-0.160294,1.398047,75.05,1
84353,0,223519,259196,223543.28,259220.15,-24.28,-24.16,-0.176496,-0.160292,1.397038,75.07,1
84393,0,223515,259208,223542.71,259219.92,-27.72,-11.92,-0.176494,-0.160291,1.399249,75.02,1
84433,0,223524,259214,223542.35,259219.81,-18.36,-5.81,-0.176492,-0.16029,1.400392,74.99,1
84473,0,223530,259220,223542.1,259219.82,-12.11,0.17,-0.176491,-0.16029,1.400979,74.98,1
84513,0,223532,259215,223541.9,259219.73,-9.91,-4.73,-0.17649,-0.16029,1.401243,74.97,1
84552,0,223536,259220,223541.79,259219.75,-5.8,0.25,-0.17649,-0.16029,1.401379,74.97,1
84592,0,223560,259207,223542.17,259219.5,17.83,-12.5,-0.176491,-0.160289,1.401748,74.96,1
84633,0,223557,259226,223542.46,259219.62,14.53,6.38,-0.176493,-0.16029,1.402379,74.94,1
84672,0,223566,259215,223542.93,259219.53,23.06,-4.53,-0.176495,-0.160289,1.404484,74.89,1
84713,0,223559,259218,223543.25,259219.5,15.75,-1.5,-0.176496,-0.160289,1.40552,74.86,1
84753,0,223559,259220,223543.56,259219.51,15.44,0.48,-0.176497,-0.160289,1.406537,74.84,1
84792,0,223559,259228,223543.87,259219.68,15.13,8.31,-0.176499,-0.16029,1.407084,74.82,1
84833,0,223552,259210,223544.04,259219.5,7.95,-9.5,-0.1765,-0.160289,1.40678,74.83,1
84873,0,223542,259207,223544.01,259219.25,-2.02,-12.25,-0.1765,-0.160288,1.405828,74.85,1
84912,0,223542,259207,223543.98,259219.01,-1.98,-12.02,-0.176499,-0.160287,1.404904,74.88,1
84953,0,223537,259201,223543.84,259218.65,-6.84,-17.66,-0.176499,-0.160286,1.403068,74.92,1
84993,0,223528,259205,223543.53,259218.37,-15.53,-13.38,-0.176497,-0.160285,1.402974,74.93,1
85031,0,223551,259217,223543.68,259218.35,7.31,-1.36,-0.176498,-0.160285,1.403205,74.92,1
85072,0,223557,259239,223543.95,259218.78,13.05,20.22,-0.176499,-0.160286,1.40124,74.97,1
85112,0,223565,259243,223544.37,259219.26,20.62,23.73,-0.176501,-0.160288,1.399407,75.01,1
85151,0,223572,259239,223544.92,259219.67,27.08,19.33,-0.176504,-0.16029,1.400286,74.99,1
85192,0,223563,259230,223545.29,259219.87,17.7,10.13,-0.176505,-0.160291,1.401053,74.97,1
85231,0,223553,259239,223545.45,259220.26,7.55,18.73,-0.176506,-0.160292,1.398904,75.03,1
85272,0,223566,259236,223545.85,259220.57,20.14,15.42,-0.176508,-0.160293,1.399187,75.02,1
85312,0,223564,259235,223546.23,259220.87,17.77,14.13,-0.176509,-0.160294,1.399307,75.02,1
85351,0,223567,259231,223546.65,259221.09,20.34,9.91,-0.176511,-0.160295,1.400616,74.98,1
85392,0,223556,259230,223546.85,259221.26,9.14,8.73,-0.176512,-0.160296,1.40048,74.99,1
85432,0,223552,259236,223546.96,259221.56,5.03,14.44,-0.176513,-0.160297,1.399109,75.02,1
85471,0,223551,259225,223547.04,259221.64,3.95,3.36,-0.176513,-0.160297,1.399104,75.02,1
85512,0,223543,259220,223546.96,259221.62,-3.97,-1.63,-0.176513,-0.160297,1.399163,75.02,1
85552,0,223542,259227,223546.87,259221.75,-4.88,5.25,-0.176512,-0.160298,1.39908,75.02,1
85591,0,223556,259243,223547.06,259222.17,8.94,20.83,-0.176513,-0.160299,1.396264,75.09,1
85632,0,223551,259236,223547.14,259222.45,3.86,13.55,-0.176513,-0.160301,1.394969,75.13,1
85671,0,223559,259260,223547.37,259223.21,11.63,36.78,-0.176515,-0.160304,1.385583,75.36,1
85710,0,223574,259259,223547.92,259223.93,26.08,35.06,-0.176517,-0.160306,1.380033,75.5,1
85751,0,223581,259269,223548.59,259224.84,32.41,44.16,-0.17652,-0.16031,1.371248,75.72,1
85790,0,223602,259269,223549.67,259225.73,52.33,43.27,-0.176525,-0.160313,1.371864,75.7,1
85831,0,223593,259273,223550.54,259226.67,42.45,46.33,-0.176529,-0.160317,1.365798,75.86,1
85871,0,223607,259282,223551.68,259227.78,55.31,54.22,-0.176534,-0.160321,1.360739,75.98,1
85910,0,223618,259284,223553.01,259228.9,64.98,55.09,-0.17654,-0.160325,1.36095,75.98,1
85951,0,223614,259289,223554.23,259230.1,59.77,58.89,-0.176545,-0.16033,1.355202,76.12,1
85990,0,223613,259273,223555.42,259230.96,57.58,42.03,-0.176551,-0.160333,1.359479,76.01,1
86031,0,223607,259278,223556.45,259231.92,50.55,46.08,-0.176555,-0.160337,1.357777,76.06,1
86071,0,223604,259274,223557.4,259232.76,46.59,41.23,-0.176559,-0.16034,1.35703,76.07,1
86110,0,223605,259275,223558.35,259233.6,46.64,41.39,-0.176564,-0.160344,1.356238,76.09,1
86151,0,223604,259267,223559.28,259234.28,44.72,32.72,-0.176568,-0.160346,1.358718,76.03,1
86190,0,223614,259267,223560.37,259234.93,53.63,32.06,-0.176573,-0.160349,1.365483,75.86,1
86231,0,223611,259289,223561.39,259236.03,49.61,52.97,-0.176577,-0.160353,1.358986,76.03,1
86270,0,223618,259297,223562.53,259237.25,55.47,59.75,-0.176582,-0.160358,1.350825,76.23,1
86309,0,223627,259296,223563.82,259238.43,63.17,57.56,-0.176588,-0.160362,1.348601,76.28,1
86350,0,223636,259310,223565.28,259239.87,70.72,70.12,-0.176595,-0.160368,1.341555,76.46,1
86389,0,223636,259302,223566.7,259241.12,69.3,60.88,-0.176601,-0.160373,1.340893,76.48,1
86430,0,223629,259297,223567.95,259242.25,61.05,54.75,-0.176607,-0.160377,1.33973,76.51,1
86470,0,223618,259296,223568.95,259243.32,49.05,52.67,-0.176611,-0.160381,1.334423,76.64,1
86509,0,223615,259284,223569.87,259244.15,45.13,39.84,-0.176615,-0.160384,1.334153,76.65,1
86550,0,223596,259293,223570.4,259245.14,25.59,47.86,-0.176618,-0.160388,1.324486,76.89,1
86589,0,223603,259279,223571.06,259245.82,31.94,33.17,-0.17662,-0.160391,1.322786,76.93,1
86630,0,223591,259288,223571.45,259246.68,19.55,41.31,-0.176622,-0.160394,1.315268,77.12,1
86670,0,223573,259280,223571.48,259247.35,1.52,32.64,-0.176622,-0.160397,1.309638,77.26,1
86709,0,223557,259270,223571.2,259247.82,-14.2,22.17,-0.176621,-0.160398,1.307872,77.3,1
86750,0,223548,259273,223570.73,259248.32,-22.73,24.67,-0.176619,-0.1604,1.306796,77.33,1
86790,0,223561,259262,223570.54,259248.59,-9.55,13.41,-0.176618,-0.160401,1.306217,77.34,1
86829,0,223550,259269,223570.14,259249,-20.14,20,-0.176616,-0.160403,1.305784,77.36,1
86870,0,223549,259286,223569.71,259249.75,-20.72,36.25,-0.176614,-0.160406,1.300525,77.49,1
86908,0,223559,259286,223569.5,259250.48,-10.5,35.52,-0.176613,-0.160409,1.294223,77.64,1
86949,0,223553,259288,223569.17,259251.25,-16.17,36.75,-0.176612,-0.160412,1.288135,77.8,1
86989,0,223565,259297,223569.09,259252.17,-4.09,44.83,-0.176612,-0.160415,1.277583,78.06,1
87028,0,223567,259298,223569.06,259253.09,-2.06,44.91,-0.176612,-0.160419,1.267095,78.32,1
87069,0,223569,259320,223569.06,259254.43,-0.06,65.56,-0.176612,-0.160424,1.245327,78.87,1
87108,0,223576,259334,223569.2,259256.03,6.8,77.97,-0.176612,-0.16043,1.216286,79.59,1
87148,0,223589,259339,223569.6,259257.7,19.39,81.3,-0.176614,-0.160437,1.187994,80.3,1
87189,0,223583,259327,223569.87,259259.09,13.13,67.91,-0.176615,-0.160442,1.168912,80.78,1
87228,0,223584,259319,223570.15,259260.29,13.84,58.7,-0.176616,-0.160446,1.15539,81.12,1
87269,0,223562,259315,223569.98,259261.39,-7.98,53.61,-0.176616,-0.160451,1.143988,81.4,1
87309,0,223567,259317,223569.93,259262.51,-2.94,54.48,-0.176615,-0.160455,1.13222,81.69,1
87348,0,223557,259317,223569.68,259263.6,-12.69,53.39,-0.176614,-0.160459,1.121774,81.96,1
87389,0,223547,259301,223569.23,259264.35,-22.23,36.64,-0.176612,-0.160462,1.11864,82.03,1
87428,0,223545,259276,223568.76,259264.59,-23.77,11.41,-0.17661,-0.160463,1.120483,81.99,1
87469,0,223531,259281,223568.01,259264.93,-37.02,16.06,-0.176607,-0.160464,1.1252,81.87,1
87508,0,223532,259287,223567.29,259265.37,-35.3,21.62,-0.176604,-0.160466,1.128576,81.79,1
87547,0,223542,259290,223566.79,259265.87,-24.8,24.12,-0.176601,-0.160468,1.128844,81.78,1
87588,0,223530,259280,223566.06,259266.15,-36.06,13.84,-0.176598,-0.160469,1.133584,81.66,1
87627,0,223530,259272,223565.34,259266.28,-35.34,5.72,-0.176595,-0.16047,1.138771,81.53,1
87667,0,223524,259286,223564.53,259266.67,-40.53,19.33,-0.176591,-0.160471,1.144248,81.39,1
87708,0,223530,259296,223563.84,259267.26,-33.84,28.73,-0.176588,-0.160473,1.145708,81.36,1
87747,0,223534,259291,223563.25,259267.73,-29.25,23.27,-0.176586,-0.160475,1.147114,81.32,1
87788,0,223521,259288,223562.4,259268.15,-41.41,19.84,-0.176582,-0.160477,1.152846,81.18,1
87827,0,223529,259279,223561.73,259268.37,-32.73,10.63,-0.176579,-0.160478,1.157006,81.07,1
87868,0,223522,259288,223560.93,259268.78,-38.94,19.22,-0.176575,-0.160479,1.162001,80.95,1
87908,0,223527,259276,223560.26,259268.92,-33.27,7.08,-0.176572,-0.16048,1.166619,80.83,1
87947,0,223522,259271,223559.5,259268.96,-37.5,2.03,-0.176569,-0.16048,1.172783,80.68,1
87988,0,223522,259262,223558.75,259268.82,-36.75,-6.83,-0.176565,-0.160479,1.178538,80.54,1
88028,0,223526,259261,223558.09,259268.67,-32.09,-7.67,-0.176563,-0.160479,1.182841,80.43,1
88067,0,223517,259262,223557.28,259268.53,-40.28,-6.53,-0.176559,-0.160478,1.189883,80.25,1
88108,0,223513,259259,223556.4,259268.34,-43.41,-9.34,-0.176555,-0.160478,1.197904,80.05,1
88146,0,223530,259272,223555.87,259268.42,-25.87,3.58,-0.176553,-0.160478,1.200856,79.98,1
88186,0,223527,259271,223555.31,259268.48,-28.31,2.52,-0.17655,-0.160478,1.204459,79.89,1
88227,0,223519,259270,223554.57,259268.53,-35.58,1.47,-0.176547,-0.160478,1.210222,79.74,1
88266,0,223521,259253,223553.9,259268.23,-32.91,-15.23,-0.176544,-0.160477,1.214023,79.65,1
88307,0,223532,259260,223553.46,259268.07,-21.47,-8.08,-0.176542,-0.160477,1.215821,79.6,1
88347,0,223533,259269,223553.06,259268.09,-20.06,0.91,-0.17654,-0.160477,1.21769,79.56,1
88386,0,223544,259245,223552.87,259267.64,-8.88,-22.64,-0.176539,-0.160475,1.215415,79.61,1
88427,0,223519,259246,223552.2,259267.21,-33.2,-21.22,-0.176536,-0.160473,1.218278,79.54,1
88467,0,223527,259238,223551.7,259266.64,-24.7,-28.64,-0.176534,-0.160471,1.216886,79.58,1
88506,0,223513,259230,223550.93,259265.9,-37.94,-35.91,-0.17653,-0.160468,1.21698,79.58,1
88547,0,223510,259229,223550.12,259265.17,-40.13,-36.17,-0.176527,-0.160465,1.217777,79.56,1
88586,0,223519,259217,223549.5,259264.21,-30.5,-47.22,-0.176524,-0.160462,1.210627,79.73,1
88627,0,223504,259211,223548.59,259263.15,-44.59,-52.16,-0.17652,-0.160458,1.206098,79.85,1
88667,0,223510,259222,223547.82,259262.32,-37.83,-40.33,-0.176517,-0.160454,1.204577,79.89,1
88706,0,223517,259228,223547.21,259261.65,-30.22,-33.66,-0.176514,-0.160452,1.203143,79.92,1
88747,0,223521,259234,223546.7,259261.09,-25.7,-27.09,-0.176512,-0.16045,1.202539,79.94,1
88785,0,223531,259241,223546.39,259260.68,-15.39,-19.69,-0.17651,-0.160448,1.201695,79.96,1
88826,0,223527,259216,223546.01,259259.79,-19.02,-43.8,-0.176508,-0.160445,1.193731,80.16,1
88866,0,223527,259216,223545.64,259258.92,-18.64,-42.92,-0.176507,-0.160441,1.186198,80.35,1
88905,0,223532,259229,223545.37,259258.32,-13.38,-29.33,-0.176506,-0.160439,1.182788,80.43,1
88946,0,223532,259227,223545.1,259257.71,-13.11,-30.72,-0.176504,-0.160437,1.178938,80.53,1
88985,0,223546,259223,223545.14,259257.01,0.86,-34.02,-0.176505,-0.160434,1.173231,80.67,1
89026,0,223535,259225,223544.93,259256.37,-9.94,-31.37,-0.176504,-0.160431,1.168864,80.78,1
89066,0,223543,259222,223544.9,259255.68,-1.91,-33.69,-0.176503,-0.160429,1.163316,80.92,1
89105,0,223545,259227,223544.92,259255.12,0.08,-28.12,-0.176504,-0.160427,1.159445,81.01,1
89146,0,223552,259234,223545.07,259254.71,6.92,-20.72,-0.176504,-0.160425,1.157575,81.06,1
89186,0,223541,259226,223545,259254.14,-4,-28.14,-0.176504,-0.160423,1.15376,81.16,1
89225,0,223549,259215,223545.09,259253.35,3.91,-38.36,-0.176504,-0.16042,1.146631,81.33,1
89266,0,223545,259237,223545.1,259253.03,-0.11,-16.03,-0.176504,-0.160418,1.145374,81.37,1
89305,0,223573,259251,223545.67,259252.98,27.33,-1.98,-0.176507,-0.160418,1.149126,81.27,1
89345,0,223572,259240,223546.2,259252.71,25.8,-12.72,-0.176509,-0.160417,1.1517,81.21,1
89385,0,223571,259242,223546.7,259252.51,24.3,-10.52,-0.176512,-0.160417,1.154162,81.15,1
89424,0,223578,259244,223547.32,259252.34,30.67,-8.34,-0.176514,-0.160416,1.15865,81.03,1
89465,0,223577,259236,223547.93,259252.01,29.06,-16.02,-0.176517,-0.160415,1.161694,80.96,1
89505,0,223575,259247,223548.48,259251.92,26.52,-4.92,-0.17652,-0.160414,1.165228,80.87,1
89544,0,223585,259235,223549.21,259251.59,35.78,-16.59,-0.176523,-0.160413,1.170467,80.74,1
89585,0,223561,259228,223549.45,259251.12,11.55,-23.12,-0.176524,-0.160411,1.168309,80.79,1
89625,0,223573,259232,223549.92,259250.75,23.08,-18.75,-0.176526,-0.16041,1.169238,80.77,1
89664,0,223559,259216,223550.09,259250.04,8.91,-34.05,-0.176527,-0.160407,1.163421,80.91,1
89705,0,223524,259193,223549.57,259248.9,-25.58,-55.91,-0.176524,-0.160403,1.15037,81.24,1
89744,0,223522,259192,223549.03,259247.78,-27.03,-55.78,-0.176522,-0.160398,1.138244,81.54,1
89785,0,223521,259202,223548.48,259246.87,-27.48,-44.88,-0.17652,-0.160395,1.13208,81.7,1
89825,0,223514,259201,223547.79,259245.95,-33.8,-44.95,-0.176516,-0.160391,1.128016,81.8,1
89864,0,223512,259199,223547.07,259245.01,-35.08,-46.02,-0.176513,-0.160388,1.124027,81.9,1
89905,0,223521,259204,223546.56,259244.2,-25.56,-40.2,-0.176511,-0.160384,1.119563,82.01,1
89944,0,223521,259212,223546.06,259243.56,-25.06,-31.56,-0.176509,-0.160382,1.118007,82.05,1
89985,0,223519,259201,223545.51,259242.71,-26.52,-41.72,-0.176506,-0.160379,1.113278,82.17,1
90024,0,223517,259213,223544.95,259242.14,-27.95,-29.14,-0.176504,-0.160377,1.113272,82.17,1
90063,0,223510,259201,223544.26,259241.31,-34.27,-40.31,-0.176501,-0.160373,1.111597,82.21,1
90104,0,223503,259185,223543.45,259240.18,-40.45,-55.19,-0.176497,-0.160369,1.105655,82.36,1
90143,0,223491,259186,223542.4,259239.1,-51.41,-53.11,-0.176492,-0.160365,1.106052,82.35,1
90184,0,223494,259188,223541.43,259238.09,-47.44,-50.09,-0.176488,-0.160361,1.10589,82.35,1
90224,0,223491,259195,223540.42,259237.25,-49.42,-42.25,-0.176483,-0.160358,1.109962,82.25,1
90263,0,223495,259189,223539.53,259236.29,-44.53,-47.3,-0.176479,-0.160354,1.109636,82.26,1
90304,0,223473,259177,223538.2,259235.12,-65.2,-58.13,-0.176473,-0.160349,1.115225,82.12,1
90343,0,223489,259188,223537.21,259234.18,-48.22,-46.19,-0.176469,-0.160346,1.116907,82.08,1
90384,0,223477,259179,223536.03,259233.09,-59.03,-54.09,-0.176464,-0.160342,1.12053,81.99,1
90424,0,223478,259183,223534.87,259232.09,-56.88,-49.09,-0.176459,-0.160338,1.125103,81.87,1
90463,0,223488,259190,223533.95,259231.25,-45.95,-41.25,-0.176455,-0.160334,1.127457,81.81,1
90504,0,223486,259184,223533,259230.31,-47,-46.31,-0.17645,-0.160331,1.128289,81.79,1
90543,0,223498,259184,223532.29,259229.4,-34.3,-45.41,-0.176447,-0.160327,1.124755,81.88,1
90584,0,223487,259187,223531.39,259228.56,-44.39,-41.56,-0.176443,-0.160324,1.126327,81.84,1
90624,0,223498,259177,223530.71,259227.54,-32.72,-50.55,-0.17644,-0.16032,1.120281,81.99,1
90662,0,223493,259179,223529.96,259226.57,-36.97,-47.58,-0.176437,-0.160317,1.116924,82.08,1
90703,0,223487,259181,223529.1,259225.67,-42.11,-44.67,-0.176433,-0.160313,1.116575,82.09,1
90743,0,223484,259182,223528.21,259224.79,-44.22,-42.8,-0.176429,-0.16031,1.117725,82.06,1
90783,0,223477,259189,223527.2,259224.09,-50.2,-35.09,-0.176424,-0.160307,1.123859,81.9,1
90823,0,223493,259190,223526.51,259223.4,-33.52,-33.41,-0.176421,-0.160304,1.124194,81.9,1
90862,0,223491,259176,223525.79,259222.45,-34.8,-46.45,-0.176418,-0.160301,1.120574,81.99,1
90903,0,223488,259186,223525.04,259221.73,-37.05,-35.73,-0.176415,-0.160298,1.121374,81.97,1
90943,0,223484,259185,223524.21,259221,-40.22,-36,-0.176411,-0.160295,1.123174,81.92,1
90982,0,223477,259182,223523.28,259220.21,-46.28,-38.22,-0.176407,-0.160292,1.126588,81.84,1
91023,0,223469,259169,223522.18,259219.18,-53.19,-50.19,-0.176402,-0.160288,1.128564,81.79,1
91062,0,223482,259173,223521.39,259218.26,-39.39,-45.27,-0.176398,-0.160284,1.126872,81.83,1
91103,0,223484,259182,223520.65,259217.54,-36.66,-35.55,-0.176395,-0.160282,1.127528,81.81,1
91143,0,223494,259194,223520.12,259217.07,-26.12,-23.08,-0.176393,-0.16028,1.128313,81.79,1
91183,0,223493,259204,223519.59,259216.81,-26.59,-12.81,-0.17639,-0.160279,1.130749,81.73,1
91223,0,223485,259185,223518.9,259216.18,-33.91,-31.19,-0.176387,-0.160276,1.131743,81.71,1
91261,0,223492,259180,223518.37,259215.46,-26.37,-35.47,-0.176385,-0.160274,1.12952,81.76,1
91302,0,223488,259177,223517.78,259214.71,-29.78,-37.72,-0.176382,-0.160271,1.12747,81.81,1
91342,0,223499,259177,223517.42,259213.96,-18.42,-36.97,-0.176381,-0.160268,1.123239,81.92,1
91382,0,223495,259181,223516.98,259213.31,-21.98,-32.31,-0.176379,-0.160265,1.121024,81.97,1
91422,0,223490,259164,223516.45,259212.32,-26.45,-48.33,-0.176376,-0.160261,1.114427,82.14,1
91461,0,223486,259166,223515.84,259211.4,-29.84,-45.41,-0.176373,-0.160258,1.10992,82.25,1
91502,0,223477,259176,223515.07,259210.7,-38.08,-34.7,-0.17637,-0.160255,1.111466,82.21,1
91542,0,223485,259176,223514.48,259210.01,-29.48,-34.02,-0.176367,-0.160253,1.110602,82.23,1
91582,0,223480,259163,223513.79,259209.07,-33.8,-46.08,-0.176364,-0.160249,1.107021,82.32,1
91622,0,223483,259163,223513.18,259208.17,-30.19,-45.17,-0.176362,-0.160245,1.10281,82.43,1
91661,0,223477,259153,223512.46,259207.07,-35.47,-54.08,-0.176358,-0.160241,1.096691,82.58,1
91702,0,223477,259161,223511.76,259206.15,-34.77,-45.16,-0.176355,-0.160238,1.09398,82.65,1
91742,0,223501,259174,223511.54,259205.51,-10.55,-31.52,-0.176354,-0.160235,1.090553,82.74,1
91782,0,223497,259168,223511.25,259204.76,-14.25,-36.77,-0.176353,-0.160232,1.086136,82.85,1
91822,0,223501,259172,223511.04,259204.1,-10.05,-32.11,-0.176352,-0.16023,1.082536,82.94,1
91860,0,223501,259175,223510.84,259203.53,-9.84,-28.53,-0.176351,-0.160228,1.079773,83.01,1
91901,0,223491,259166,223510.43,259202.78,-19.44,-36.78,-0.176349,-0.160225,1.076175,83.1,1
91941,0,223499,259174,223510.21,259202.21,-11.22,-28.22,-0.176348,-0.160222,1.073623,83.16,1
91981,0,223503,259177,223510.07,259201.71,-7.08,-24.72,-0.176348,-0.160221,1.071447,83.21,1
92021,0,223504,259164,223509.95,259200.96,-5.95,-36.97,-0.176347,-0.160218,1.066233,83.34,1
92060,0,223513,259179,223510.03,259200.53,2.97,-21.53,-0.176347,-0.160216,1.06445,83.39,1
92101,0,223502,259169,223509.87,259199.9,-7.88,-30.91,-0.176347,-0.160214,1.060974,83.48,1
92141,0,223512,259175,223509.92,259199.4,2.08,-24.41,-0.176347,-0.160212,1.058641,83.53,1
92180,0,223509,259167,223509.9,259198.76,-0.91,-31.77,-0.176347,-0.160209,1.054654,83.63,1
92221,0,223505,259170,223509.81,259198.2,-4.81,-28.2,-0.176346,-0.160207,1.051619,83.71,1
92260,0,223500,259161,223509.62,259197.46,-9.63,-36.47,-0.176346,-0.160204,1.046815,83.83,1
92301,0,223509,259168,223509.62,259196.89,-0.63,-28.89,-0.176346,-0.160202,1.043528,83.91,1
92341,0,223523,259180,223509.89,259196.54,13.11,-16.55,-0.176347,-0.160201,1.043284,83.92,1
92380,0,223551,259203,223510.71,259196.68,40.28,6.31,-0.176351,-0.160201,1.051097,83.72,1
92421,0,223548,259207,223511.46,259196.9,36.53,10.09,-0.176354,-0.160202,1.057258,83.57,1
92461,0,223559,259212,223512.43,259197.2,46.56,14.8,-0.176358,-0.160203,1.067049,83.32,1
92499,0,223596,259297,223514.1,259199.2,81.89,97.8,-0.176366,-0.160211,1.060616,83.48,1
92540,0,223639,259337,223516.6,259201.95,122.39,135.05,-0.176377,-0.160221,1.059478,83.51,1
92579,0,223651,259312,223519.29,259204.15,131.7,107.84,-0.176389,-0.16023,1.088696,82.78,1
92620,0,223615,259298,223521.21,259206.03,93.78,91.97,-0.176398,-0.160237,1.093541,82.66,1
92659,0,223614,259313,223523.07,259208.18,90.92,104.81,-0.176406,-0.160246,1.088392,82.79,1
92700,0,223623,259330,223525.07,259210.62,97.92,119.37,-0.176415,-0.160255,1.078824,83.03,1
92740,0,223631,259332,223527.2,259213.06,103.8,118.94,-0.176424,-0.160264,1.074337,83.14,1
92779,0,223624,259317,223529.14,259215.15,94.86,101.84,-0.176433,-0.160272,1.074621,83.13,1
92820,0,223609,259309,223530.75,259217.03,78.25,91.97,-0.17644,-0.16028,1.071361,83.22,1
92859,0,223615,259313,223532.43,259218.96,82.56,94.03,-0.176448,-0.160287,1.069329,83.27,1
92900,0,223595,259304,223533.7,259220.67,61.3,83.33,-0.176453,-0.160294,1.063455,83.41,1
92940,0,223593,259300,223534.89,259222.26,58.11,77.73,-0.176459,-0.1603,1.058842,83.53,1
92979,0,223623,259340,223536.65,259224.62,86.34,115.37,-0.176467,-0.160309,1.049365,83.77,1
93020,0,223632,259391,223538.56,259227.95,93.44,163.05,-0.176475,-0.160322,1.01787,84.55,1
93059,0,223676,259416,223541.31,259231.71,134.69,184.28,-0.176487,-0.160336,1.000083,85,1
93100,0,223682,259415,223544.12,259235.39,137.88,179.61,-0.1765,-0.16035,0.989874,85.25,1
93138,0,223665,259402,223546.54,259238.73,118.45,163.27,-0.176511,-0.160363,0.979451,85.51,1
93179,0,223637,259385,223548.35,259241.67,88.64,143.33,-0.176519,-0.160375,0.966763,85.83,1
93219,0,223671,259448,223550.81,259245.79,120.19,202.2,-0.17653,-0.160391,0.942609,86.43,1
93259,0,223740,259534,223554.59,259251.56,185.41,282.44,-0.176547,-0.160413,0.915143,87.12,1
93299,0,223813,259544,223559.76,259257.4,253.23,286.59,-0.17657,-0.160435,0.932006,86.7,1
93339,0,223814,259556,223564.85,259263.39,249.14,292.61,-0.176593,-0.160458,0.939601,86.51,1
93379,0,223782,259504,223569.2,259268.2,212.8,235.8,-0.176612,-0.160477,0.948673,86.28,1
93418,0,223724,259455,223572.31,259271.93,151.69,183.06,-0.176626,-0.160491,0.949249,86.27,1
93459,0,223684,259427,223574.56,259275.04,109.44,151.95,-0.176636,-0.160503,0.945862,86.35,1
93498,0,223704,259464,223577.15,259278.82,126.84,185.17,-0.176648,-0.160518,0.939547,86.51,1
93539,0,223702,259462,223579.67,259282.48,122.33,179.52,-0.176659,-0.160532,0.933878,86.65,1
93578,0,223696,259465,223582,259286.14,114,178.86,-0.176669,-0.160546,0.926946,86.83,1
93619,0,223666,259459,223583.67,259289.59,82.33,169.41,-0.176677,-0.160559,0.91677,87.08,1
93659,0,223641,259459,223584.81,259293,56.19,166,-0.176682,-0.160573,0.90452,87.39,1
93699,0,223602,259456,223585.17,259296.26,16.83,159.73,-0.176684,-0.160585,0.891325,87.72,1
93739,0,223584,259484,223585.15,259300.03,-1.16,183.97,-0.176684,-0.1606,0.874214,88.14,1
93777,0,223621,259513,223585.87,259304.29,35.13,208.7,-0.176687,-0.160616,0.854427,88.64,1
93818,0,223631,259558,223586.78,259309.37,44.22,248.63,-0.176691,-0.160636,0.828588,89.29,1
93857,0,223663,259592,223588.31,259315.03,74.69,276.97,-0.176698,-0.160658,0.802062,89.95,1
93898,0,223656,259520,223589.67,259319.14,66.33,200.86,-0.176704,-0.160673,0.790348,90.24,1
93938,0,223586,259501,223589.59,259322.78,-3.59,178.22,-0.176703,-0.160688,0.778813,90.53,1
93978,0,223599,259503,223589.79,259326.39,9.2,176.61,-0.176704,-0.160701,0.767913,90.8,1
94018,0,223546,259418,223588.92,259328.23,-42.92,89.77,-0.1767,-0.160709,0.766582,90.84,1
94057,0,223491,259407,223586.95,259329.81,-95.95,77.19,-0.176692,-0.160715,0.771798,90.71,1
94098,0,223487,259427,223584.95,259331.76,-97.95,95.23,-0.176683,-0.160722,0.776184,90.6,1
94138,0,223486,259415,223582.98,259333.43,-96.98,81.56,-0.176674,-0.160729,0.781227,90.47,1
94178,0,223459,259417,223580.5,259335.12,-121.5,81.87,-0.176663,-0.160735,0.790377,90.24,1
94218,0,223487,259441,223578.62,259337.23,-91.62,103.77,-0.176654,-0.160743,0.793008,90.17,1
94257,0,223484,259424,223576.75,259338.98,-92.75,85.02,-0.176646,-0.16075,0.797054,90.07,1
94298,0,223483,259423,223574.87,259340.65,-91.87,82.34,-0.176638,-0.160756,0.801106,89.97,1
94338,0,223469,259399,223572.75,259341.82,-103.75,57.17,-0.176628,-0.160761,0.808226,89.79,1
94377,0,223438,259367,223570.06,259342.34,-132.06,24.66,-0.176616,-0.160763,0.821446,89.46,1
94417,0,223404,259321,223566.75,259341.92,-162.75,-20.92,-0.176601,-0.160761,0.841486,88.96,1
94457,0,223368,259301,223562.78,259341.1,-194.78,-40.11,-0.176583,-0.160758,0.869229,88.27,1
94497,0,223371,259299,223558.95,259340.28,-187.95,-41.28,-0.176566,-0.160755,0.894376,87.64,1
94536,0,223368,259294,223555.14,259339.35,-187.14,-45.36,-0.176549,-0.160751,0.918626,87.03,1
94577,0,223358,259289,223551.2,259338.35,-193.2,-49.36,-0.176532,-0.160748,0.943822,86.4,1
94616,0,223364,259305,223547.46,259337.68,-183.47,-32.69,-0.176515,-0.160745,0.966638,85.83,1
94657,0,223380,259310,223544.12,259337.14,-164.13,-27.14,-0.1765,-0.160743,0.984719,85.38,1
94696,0,223391,259312,223541.06,259336.64,-150.06,-24.64,-0.176486,-0.160741,0.999717,85.01,1
94737,0,223395,259327,223538.15,259336.45,-143.16,-9.45,-0.176473,-0.16074,1.013531,84.66,1
94777,0,223427,259368,223535.93,259337.09,-108.94,30.91,-0.176463,-0.160743,1.021054,84.47,1
94817,0,223461,259382,223534.43,259338,-73.44,44,-0.176457,-0.160746,1.023694,84.41,1
94857,0,223460,259384,223532.95,259338.93,-72.95,45.06,-0.17645,-0.16075,1.026244,84.34,1
94896,0,223479,259381,223531.87,259339.78,-52.88,41.22,-0.176445,-0.160753,1.027252,84.32,1
94937,0,223480,259382,223530.82,259340.62,-50.83,41.38,-0.176441,-0.160756,1.028112,84.3,1
94977,0,223474,259358,223529.7,259340.96,-55.7,17.03,-0.176436,-0.160758,1.030117,84.25,1
95016,0,223441,259347,223527.92,259341.09,-86.92,5.91,-0.176428,-0.160758,1.035396,84.12,1
95056,0,223445,259349,223526.28,259341.26,-81.28,7.73,-0.17642,-0.160759,1.04002,84,1
95095,0,223474,259377,223525.25,259341.98,-51.25,35.02,-0.176416,-0.160762,1.041187,83.97,1
95136,0,223494,259366,223524.62,259342.46,-30.62,23.53,-0.176413,-0.160763,1.041542,83.96,1
95176,0,223468,259339,223523.5,259342.4,-55.5,-3.41,-0.176408,-0.160763,1.043761,83.91,1
95215,0,223454,259329,223522.1,259342.14,-68.11,-13.14,-0.176402,-0.160762,1.047033,83.82,1
95256,0,223453,259330,223520.73,259341.89,-67.73,-11.89,-0.176395,-0.160761,1.050307,83.74,1
95296,0,223472,259339,223519.76,259341.84,-47.77,-2.84,-0.176391,-0.160761,1.051988,83.7,1
95336,0,223489,259361,223519.15,259342.23,-30.16,18.77,-0.176388,-0.160763,1.052453,83.69,1
95376,0,223502,259398,223518.82,259343.34,-16.83,54.66,-0.176387,-0.160767,1.050828,83.73,1
95415,0,223556,259449,223519.57,259345.46,36.42,103.53,-0.17639,-0.160775,1.045234,83.87,1
95456,0,223572,259470,223520.62,259347.96,51.38,122.03,-0.176395,-0.160785,1.038163,84.05,1
95495,0,223592,259500,223522.06,259351.01,69.94,148.98,-0.176401,-0.160796,1.028592,84.29,1
95536,0,223616,259529,223523.93,259354.57,92.06,174.42,-0.17641,-0.16081,1.017283,84.57,1
95576,0,223653,259579,223526.53,259359.06,126.47,219.94,-0.176421,-0.160827,1.002211,84.94,1
95616,0,223672,259623,223529.43,259364.34,142.56,258.66,-0.176434,-0.160848,0.982027,85.45,1
95655,0,223694,259623,223532.73,259369.51,161.27,253.48,-0.176449,-0.160868,0.968851,85.78,1
95694,0,223673,259612,223535.53,259374.35,137.47,237.64,-0.176462,-0.160886,0.955768,86.11,1
95735,0,223637,259564,223537.56,259378.15,99.44,185.84,-0.176471,-0.160901,0.947201,86.32,1
95774,0,223567,259516,223538.15,259380.9,28.84,135.09,-0.176473,-0.160912,0.940026,86.5,1
95815,0,223538,259495,223538.15,259383.2,-0.16,111.8,-0.176473,-0.16092,0.934804,86.63,1
95855,0,223498,259486,223537.34,259385.26,-39.34,100.73,-0.17647,-0.160928,0.931579,86.71,1
95895,0,223514,259479,223536.87,259387.14,-22.87,91.86,-0.176468,-0.160936,0.928415,86.79,1
95935,0,223508,259485,223536.29,259389.1,-28.3,95.89,-0.176465,-0.160943,0.925124,86.87,1
95974,0,223545,259521,223536.48,259391.75,8.52,129.25,-0.176466,-0.160953,0.918291,87.04,1
96015,0,223573,259549,223537.21,259394.9,35.78,154.09,-0.176469,-0.160966,0.909506,87.26,1
96055,0,223577,259568,223538.03,259398.37,38.97,169.63,-0.176473,-0.160979,0.899108,87.52,1
96095,0,223574,259587,223538.76,259402.14,35.23,184.86,-0.176476,-0.160994,0.886787,87.83,1
96135,0,223595,259600,223539.9,259406.1,55.09,193.89,-0.176481,-0.161009,0.874787,88.13,1
96174,0,223598,259612,223541.06,259410.21,56.94,201.78,-0.176486,-0.161025,0.862287,88.44,1
96215,0,223587,259620,223541.98,259414.42,45.02,205.58,-0.17649,-0.161041,0.849019,88.77,1
96253,0,223587,259635,223542.89,259418.84,44.11,216.16,-0.176494,-0.161058,0.834807,89.13,1
96294,0,223593,259651,223543.89,259423.48,49.11,227.52,-0.176499,-0.161076,0.819966,89.5,1
