timestamp,sensor1_smoothed,sensor1_bpm,sensor2_smoothed,sensor2_bpm,delta,status
2025-08-12 14:33,778.05,0,361.57,0,0,SKIP
2025-08-12 14:33,1515.15,0,750.28,0,0,SKIP
2025-08-12 14:33,2211.3,0,1164.65,0,0,SKIP
2025-08-12 14:33,2866.5,0,1602.39,0,0,SKIP
2025-08-12 14:33,3480.75,0,2061.01,0,0,SKIP
2025-08-12 14:33,3276,0,2175.5,0,0,SKIP
2025-08-12 14:33,3071.25,0,2271.77,0,0,SKIP
2025-08-12 14:33,2866.5,0,2352.6,0,0,SKIP
2025-08-12 14:33,2661.75,0,2414.94,0,0,SKIP
2025-08-12 14:33,2456.05,0,2458,0,0,SKIP
2025-08-12 14:33,2247.36,0,2461.67,0,0,SKIP
2025-08-12 14:33,2033.94,0,2415.47,0,0,SKIP
2025-08-12 14:33,1814.53,0,2318.1,0,0,SKIP
2025-08-12 14:33,1596.31,0,2174.9,0,0,SKIP
2025-08-12 14:33,1373.75,0,1989.15,0,0,SKIP
2025-08-12 14:33,1153.01,0,1784.4,0,0,SKIP
2025-08-12 14:33,937.28,0,1579.65,0,0,SKIP
2025-08-12 14:33,725.78,0,1374.9,0,0,SKIP
2025-08-12 14:33,508.26,0,1170.15,0,0,SKIP
2025-08-12 14:33,293.43,0,965.4,0,0,SKIP
2025-08-12 14:33,115.31,0,779.68,0,0,SKIP
2025-08-12 14:33,-26.02,0,615.42,0,0,SKIP
2025-08-12 14:33,-130.47,0,475.1,0,0,SKIP
2025-08-12 14:33,-190.53,0,361.21,0,0,SKIP
2025-08-12 14:33,-208.76,0,276.24,0,0,SKIP
2025-08-12 14:33,-221.7,0,201.13,0,0,SKIP
2025-08-12 14:33,-228.97,0,122.59,0,0,SKIP
2025-08-12 14:33,-228.32,0,36.7,0,0,SKIP
2025-08-12 14:33,-221.43,0,-60.77,0,0,SKIP
2025-08-12 14:33,-210.91,0,-169.67,0,0,SKIP
2025-08-12 14:33,-193.47,0,-291.08,0,0,SKIP
2025-08-12 14:33,-174.47,0,-413.93,0,0,SKIP
2025-08-12 14:33,-147.89,0,-535.93,0,0,SKIP
2025-08-12 14:33,-117,0,-652.74,0,0,SKIP
2025-08-12 14:33,-76.47,0,-767.68,0,0,SKIP
2025-08-12 14:33,-29.33,0,-877.73,0,0,SKIP
2025-08-12 14:33,18.46,0,-981.77,0,0,SKIP
2025-08-12 14:33,57.6,0,-1077.78,0,0,SKIP
2025-08-12 14:33,79.13,0,-1165.36,0,0,SKIP
2025-08-12 14:33,80.51,0,-1243.75,0,0,SKIP
2025-08-12 14:33,59.78,0,-1311.85,0,0,SKIP
2025-08-12 14:33,26.32,0,-1369.38,0,0,SKIP
2025-08-12 14:33,-16.46,0,-1419.5,0,0,SKIP
2025-08-12 14:33,-55.81,0,-1464.45,0,0,SKIP
2025-08-12 14:33,-92.86,0,-1503.5,0,0,SKIP
2025-08-12 14:33,-127.13,0,-1538.36,0,0,SKIP
2025-08-12 14:33,-156.04,0,-1568.87,0,0,SKIP
2025-08-12 14:33,-182.71,0,-1592.11,0,0,SKIP
2025-08-12 14:33,-208.26,0,-1606,0,0,SKIP
2025-08-12 14:33,-235.95,0,-1610.01,0,0,SKIP
2025-08-12 14:33,-268.1,0,-1598.07,0,0,SKIP
2025-08-12 14:33,-307.13,0,-1570.74,0,0,SKIP
2025-08-12 14:33,-351.55,0,-1525.77,0,0,SKIP
2025-08-12 14:33,-398.53,0,-1453.38,0,0,SKIP
2025-08-12 14:33,-447.13,0,-1356.23,0,0,SKIP
2025-08-12 14:33,-492.74,0,-1243.4,0,0,SKIP
2025-08-12 14:33,-533.15,0,-1117.83,0,0,SKIP
2025-08-12 14:33,-572.25,0,-986.07,0,200,SKIP
2025-08-12 14:33,-610.6,0,-862.34,0,200,SKIP
2025-08-12 14:33,-647.04,0,-747,0,200,SKIP
2025-08-12 14:33,-677.04,0,-639.95,0,200,SKIP
2025-08-12 14:33,-706.93,0,-541.07,0,200,SKIP
2025-08-12 14:33,-728.91,0,-450.4,0,200,SKIP
2025-08-12 14:33,-748.08,0,-368.1,0,200,SKIP
2025-08-12 14:33,-757.74,0,-294.3,0,200,SKIP
2025-08-12 14:33,-764.63,0,-229.22,0,200,SKIP
2025-08-12 14:33,-764,0,-173.04,0,200,SKIP
2025-08-12 14:33,-758.92,0,-125.74,0,200,SKIP
2025-08-12 14:33,-748.96,0,-87.12,0,200,SKIP
2025-08-12 14:33,-735.61,0,-56.87,0,200,SKIP
2025-08-12 14:33,-720.83,0,-34.27,0,200,SKIP
2025-08-12 14:33,-704.37,0,-18.55,0,200,SKIP
2025-08-12 14:33,-689.98,0,-8.75,0,200,SKIP
2025-08-12 14:33,-674.1,0,-1.43,0,200,SKIP
2025-08-12 14:33,-662.87,0,4.05,0,200,SKIP
2025-08-12 14:33,-654.33,0,8.36,0,200,SKIP
2025-08-12 14:33,-646.52,0,12.86,0,200,SKIP
2025-08-12 14:33,-637.2,0,17.46,0,200,SKIP
2025-08-12 14:33,-628.25,0,21.21,0,200,SKIP
2025-08-12 14:33,-614.15,0,24.9,0,200,SKIP
2025-08-12 14:33,-597.94,0,29.09,0,200,SKIP
2025-08-12 14:33,-579.95,0,32.79,0,200,SKIP
2025-08-12 14:33,-556.85,0,38.1,0,200,SKIP
2025-08-12 14:33,-529.54,0,43.78,0,200,SKIP
2025-08-12 14:33,-501.77,0,50.17,0,200,SKIP
2025-08-12 14:33,-472.3,0,55.88,0,200,SKIP
2025-08-12 14:33,-442.38,24.49,62.63,0,200,SKIP
2025-08-12 14:33,-414.86,24.49,67.87,0,200,SKIP
2025-08-12 14:33,-389.37,24.49,72.79,0,200,SKIP
2025-08-12 14:33,-365.8,24.49,76.24,0,200,SKIP
2025-08-12 14:33,-339.37,24.49,78.65,0,200,SKIP
2025-08-12 14:33,-317.1,24.49,79.86,0,200,SKIP
2025-08-12 14:33,-298.03,24.49,81.62,0,200,SKIP
2025-08-12 14:33,-280.1,24.49,84.36,0,200,SKIP
2025-08-12 14:33,-262.79,24.49,86.55,0,200,SKIP
2025-08-12 14:33,-248.94,24.49,91.66,0,200,SKIP
2025-08-12 14:33,-235.07,24.49,96.73,0,200,SKIP
2025-08-12 14:33,-217.94,24.49,101.95,0,200,SKIP
2025-08-12 14:33,-202.16,24.49,106.31,0,200,SKIP
2025-08-12 14:33,-188.39,24.49,111.55,0,200,SKIP
2025-08-12 14:33,-177.39,24.49,115.74,0,200,SKIP
2025-08-12 14:33,-165.88,24.49,123.65,0,200,SKIP
2025-08-12 14:33,-157.41,24.49,132.5,0,200,SKIP
2025-08-12 14:33,-149.28,24.49,142.63,0,200,SKIP
2025-08-12 14:33,-139.11,24.49,156.09,0,200,SKIP
2025-08-12 14:33,-128.37,24.49,170.95,0,200,SKIP
2025-08-12 14:33,-117.57,24.49,186.41,0,200,SKIP
2025-08-12 14:33,-105.44,24.49,205.76,0,200,SKIP
2025-08-12 14:33,-94.76,24.49,225.14,0,200,SKIP
2025-08-12 14:33,-83.8,24.49,243.48,0,200,SKIP
2025-08-12 14:33,-70.67,24.49,264.34,0,200,SKIP
2025-08-12 14:33,-57.73,24.49,281.01,22.22,250,OK
2025-08-12 14:33,-44.14,24.49,293.29,22.22,250,OK
2025-08-12 14:33,-29.58,24.49,303.87,22.22,250,OK
2025-08-12 14:33,-16.37,24.49,311.81,22.22,250,OK
2025-08-12 14:33,-4.38,24.49,314.31,22.22,250,OK
2025-08-12 14:33,8.02,24.49,315.42,22.22,250,OK
2025-08-12 14:33,21.03,24.49,311.21,22.22,250,OK
2025-08-12 14:33,35,24.49,304.56,22.22,250,OK
2025-08-12 14:33,49.45,24.49,296.4,22.22,250,OK
2025-08-12 14:33,63.3,24.49,286.38,22.22,250,OK
2025-08-12 14:33,77.2,24.49,275.37,22.22,250,OK
2025-08-12 14:33,91.76,24.49,267.49,22.22,250,OK
2025-08-12 14:33,105.39,56.92,262.11,22.22,250,OK
2025-08-12 14:33,121.64,56.92,260.45,22.22,250,OK
2025-08-12 14:33,140.76,56.92,264.53,22.22,250,OK
2025-08-12 14:33,162.76,56.92,275.08,22.22,250,OK
2025-08-12 14:33,185.05,56.92,292.96,22.22,250,OK
2025-08-12 14:33,208.83,56.92,314.99,22.22,250,OK
2025-08-12 14:33,231.52,56.92,338.66,22.22,250,OK
2025-08-12 14:33,252.28,56.92,361.58,22.22,250,OK
2025-08-12 14:33,268.12,56.92,382.48,22.22,250,OK
2025-08-12 14:33,276.07,56.92,394.81,22.22,250,OK
2025-08-12 14:33,277.72,56.92,401.99,22.22,250,OK
2025-08-12 14:33,272.77,56.92,402.67,22.22,250,OK
2025-08-12 14:33,260.39,56.92,395.99,22.22,250,OK
2025-08-12 14:33,244.07,56.92,381.53,22.22,250,OK
2025-08-12 14:33,224.1,56.92,363.26,22.22,250,OK
2025-08-12 14:33,203.45,56.92,338.25,22.22,250,OK
2025-08-12 14:33,182.46,56.92,309.28,22.22,250,OK
2025-08-12 14:33,161.22,56.92,280.12,22.22,250,OK
2025-08-12 14:33,139.85,56.92,249.25,22.22,250,OK
2025-08-12 14:33,123.26,56.92,218.29,22.22,250,OK
2025-08-12 14:33,107.29,56.92,189.71,22.22,250,OK
2025-08-12 14:33,91.21,56.92,161.55,22.22,250,OK
2025-08-12 14:33,77.97,56.92,133.78,22.22,250,OK
2025-08-12 14:33,64.69,56.92,108.34,22.22,250,OK
2025-08-12 14:33,49.28,56.92,85.05,22.22,250,OK
2025-08-12 14:33,33.07,56.92,63.42,22.22,250,OK
2025-08-12 14:33,17.21,56.92,47.06,22.22,250,OK
2025-08-12 14:33,-1.24,56.92,33.38,22.22,250,OK
2025-08-12 14:33,-19.9,56.92,24.23,22.22,250,OK
2025-08-12 14:33,-38.96,56.92,17.79,22.22,250,OK
2025-08-12 14:33,-57.41,56.92,15.51,22.22,250,OK
2025-08-12 14:33,-74.9,56.92,16.77,22.22,250,OK
2025-08-12 14:33,-93.07,56.92,22.81,22.22,250,OK
2025-08-12 14:33,-107.44,56.92,29.99,22.22,250,OK
2025-08-12 14:33,-119.09,56.92,39.97,22.22,250,OK
2025-08-12 14:33,-127.59,56.92,49.59,22.22,250,OK
2025-08-12 14:33,-134.24,56.92,58.05,22.22,250,OK
2025-08-12 14:33,-135.91,56.92,66.48,22.22,250,OK
2025-08-12 14:33,-135.34,56.92,74.16,22.22,250,OK
2025-08-12 14:33,-132.8,56.92,82.75,22.22,250,OK
2025-08-12 14:33,-128.18,56.92,89.57,22.22,250,OK
2025-08-12 14:33,-124.66,56.92,96.34,22.22,250,OK
2025-08-12 14:33,-118.28,56.92,100.3,22.22,250,OK
2025-08-12 14:33,-114.56,56.92,104.42,22.22,250,OK
2025-08-12 14:33,-108.41,56.92,106.17,22.22,250,OK
2025-08-12 14:33,-102.37,56.92,106.34,22.22,250,OK
2025-08-12 14:33,-95.58,56.92,105.1,22.22,250,OK
2025-08-12 14:33,-89.67,56.92,102.3,22.22,250,OK
2025-08-12 14:33,-80.38,56.92,97.71,22.22,250,OK
2025-08-12 14:33,-72.99,56.92,90.86,22.22,250,OK
2025-08-12 14:33,-66.38,56.92,85.2,22.22,250,OK
2025-08-12 14:33,-55.85,56.92,77.92,22.22,250,OK
2025-08-12 14:33,-45,56.92,69.68,22.22,250,OK
2025-08-12 14:33,-35.88,56.92,62.67,22.22,250,OK
2025-08-12 14:33,-26.29,56.92,56.6,22.22,250,OK
2025-08-12 14:33,-15.44,56.92,50.11,22.22,250,OK
2025-08-12 14:33,-4.16,56.92,44.54,22.22,250,OK
2025-08-12 14:33,5.6,56.92,40.27,22.22,250,OK
2025-08-12 14:33,17.57,56.92,36.49,22.22,250,OK
2025-08-12 14:33,32.8,56.92,34.8,22.22,250,OK
2025-08-12 14:33,51.34,56.92,36.96,22.22,250,OK
2025-08-12 14:33,71.17,56.92,44.72,22.22,250,OK
2025-08-12 14:33,97.97,56.92,59.78,22.22,250,OK
2025-08-12 14:33,127.53,56.92,81.22,22.22,250,OK
2025-08-12 14:33,158.38,56.92,108.02,22.22,250,OK
2025-08-12 14:33,189.38,75.38,137.71,22.22,250,OK
2025-08-12 14:33,219.49,75.38,166.6,22.22,250,OK
2025-08-12 14:33,245.18,75.38,195.54,22.22,250,OK
2025-08-12 14:33,266.56,75.38,218.47,22.22,250,OK
2025-08-12 14:33,280.64,75.38,235.31,37.04,690,OK
2025-08-12 14:33,287.31,75.38,245.4,37.04,690,OK
2025-08-12 14:33,285.02,75.38,248.74,37.04,690,OK
2025-08-12 14:33,278.24,75.38,241.75,37.04,690,OK
2025-08-12 14:33,264.47,75.38,227.62,37.04,690,OK
2025-08-12 14:33,247.92,75.38,207.67,37.04,690,OK
2025-08-12 14:33,228.08,75.38,183.1,37.04,690,OK
2025-08-12 14:33,208.62,75.38,156.84,37.04,690,OK
2025-08-12 14:33,189.5,75.38,128.66,37.04,690,OK
2025-08-12 14:33,171.06,75.38,105.15,37.04,690,OK
2025-08-12 14:33,154.64,75.38,82.57,37.04,690,OK
2025-08-12 14:33,139.82,75.38,64.88,37.04,690,OK
2025-08-12 14:33,127.07,75.38,52.33,37.04,690,OK
2025-08-12 14:33,115.81,75.38,44.89,37.04,690,OK
2025-08-12 14:33,107.41,75.38,41.56,37.04,690,OK
2025-08-12 14:33,100.45,75.38,44.98,37.04,690,OK
2025-08-12 14:33,96.01,75.38,54.32,37.04,690,OK
2025-08-12 14:33,92.79,75.38,66.14,37.04,690,OK
2025-08-12 14:33,86.34,75.38,84.63,37.04,690,OK
2025-08-12 14:33,81.93,75.38,106.23,37.04,690,OK
2025-08-12 14:33,76.23,75.38,129.05,37.04,690,OK
2025-08-12 14:33,70.61,75.38,151.04,37.04,690,OK
2025-08-12 14:33,64.73,75.38,172.89,37.04,690,OK
2025-08-12 14:33,60.55,75.38,191.05,37.04,690,OK
2025-08-12 14:33,53.7,75.38,205.69,37.04,690,OK
2025-08-12 14:33,44.21,75.38,215.3,37.04,690,OK
2025-08-12 14:33,33.02,75.38,219.63,37.04,690,OK
2025-08-12 14:33,15.69,75.38,218.01,37.04,690,OK
2025-08-12 14:33,-0.77,75.38,210.93,37.04,690,OK
2025-08-12 14:33,-17.86,75.38,195.59,37.04,690,OK
2025-08-12 14:33,-34.85,75.38,175.25,37.04,690,OK
2025-08-12 14:33,-55.25,75.38,150.18,37.04,690,OK
2025-08-12 14:33,-71.91,75.38,122.57,37.04,690,OK
2025-08-12 14:33,-89.87,75.38,93.18,37.04,690,OK
2025-08-12 14:33,-108.53,75.38,63.64,37.04,690,OK
2025-08-12 14:33,-124.54,75.38,36.78,37.04,690,OK
2025-08-12 14:33,-136.57,75.38,13.17,37.04,690,OK
2025-08-12 14:33,-145.52,75.38,-6.81,37.04,690,OK
2025-08-12 14:33,-154.38,75.38,-23.91,37.04,690,OK
2025-08-12 14:33,-160.6,75.38,-37.66,37.04,690,OK
2025-08-12 14:33,-165.91,75.38,-49.02,37.04,690,OK
2025-08-12 14:33,-169.79,75.38,-58.23,37.04,690,OK
2025-08-12 14:33,-171.94,75.38,-68.32,37.04,690,OK
2025-08-12 14:33,-173.87,75.38,-77,37.04,690,OK
2025-08-12 14:33,-173.42,75.38,-82.46,37.04,690,OK
2025-08-12 14:33,-169.12,75.38,-87.05,37.04,690,OK
2025-08-12 14:33,-164.1,75.38,-89.22,37.04,690,OK
2025-08-12 14:33,-159.68,75.38,-87.74,37.04,690,OK
2025-08-12 14:33,-149.75,75.38,-82.96,37.04,690,OK
2025-08-12 14:33,-138.48,75.38,-76.16,37.04,690,OK
2025-08-12 14:33,-125.06,75.38,-62.92,37.04,690,OK
2025-08-12 14:33,-107.02,75.38,-43.07,37.04,690,OK
2025-08-12 14:33,-82.44,75.38,-16.96,37.04,690,OK
2025-08-12 14:33,-54.9,75.38,16.78,37.04,690,OK
2025-08-12 14:33,-24.19,75.38,57.02,37.04,690,OK
2025-08-12 14:33,6.24,75.38,99.18,37.04,690,OK
2025-08-12 14:33,34.89,95.38,139.3,37.04,690,OK
2025-08-12 14:33,59.73,95.38,178.39,58.09,10,OK
2025-08-12 14:33,79.65,95.38,209.57,58.09,10,OK
2025-08-12 14:33,92.59,95.38,232.23,58.09,10,OK
2025-08-12 14:33,98.24,95.38,245.19,58.09,10,OK
2025-08-12 14:33,100.34,95.38,247.91,58.09,10,OK
2025-08-12 14:33,97.34,95.38,240.12,58.09,10,OK
2025-08-12 14:33,87.7,95.38,221.89,58.09,10,OK
2025-08-12 14:33,77.88,95.38,196.83,58.09,10,OK
2025-08-12 14:33,66.13,95.38,162.58,58.09,10,OK
2025-08-12 14:33,52.36,95.38,123.85,58.09,10,OK
2025-08-12 14:33,38.72,95.38,80.27,58.09,10,OK
2025-08-12 14:33,27.38,95.38,35.31,58.09,10,OK
2025-08-12 14:33,15.27,95.38,-12.32,58.09,10,OK
2025-08-12 14:33,6.56,95.38,-56.74,58.09,10,OK
2025-08-12 14:33,-1.1,95.38,-101.62,58.09,10,OK
2025-08-12 14:33,-5.45,95.38,-143.76,58.09,10,OK
2025-08-12 14:33,-10.95,95.38,-184.37,58.09,10,OK
2025-08-12 14:33,-13.24,95.38,-219.66,58.09,10,OK
2025-08-12 14:33,-15.18,95.38,-251.93,58.09,10,OK
2025-08-12 14:33,-14.43,95.38,-278.42,58.09,10,OK
2025-08-12 14:33,-16.86,95.38,-301.59,58.09,10,OK
2025-08-12 14:33,-14.61,95.38,-316.34,58.09,10,OK
2025-08-12 14:33,-11.94,95.38,-326.64,58.09,10,OK
2025-08-12 14:33,-8.95,95.38,-332.18,58.09,10,OK
2025-08-12 14:33,-5.76,95.38,-330.08,58.09,10,OK
2025-08-12 14:33,-0.68,95.38,-322.99,58.09,10,OK
2025-08-12 14:33,5.7,95.38,-311.58,58.09,10,OK
2025-08-12 14:33,10.65,95.38,-295.98,58.09,10,OK
2025-08-12 14:33,16.99,95.38,-278,58.09,10,OK
2025-08-12 14:33,22.63,95.38,-260.31,58.09,10,OK
2025-08-12 14:33,31.01,95.38,-241.89,58.09,10,OK
2025-08-12 14:33,39.03,95.38,-225.24,58.09,10,OK
2025-08-12 14:33,46.06,95.38,-212.44,58.09,10,OK
2025-08-12 14:33,52.85,95.38,-201.58,58.09,10,OK
2025-08-12 14:33,60.94,95.38,-193.33,58.09,10,OK
2025-08-12 14:33,65.43,95.38,-188.76,58.09,10,OK
2025-08-12 14:33,67.52,95.38,-188.4,58.09,10,OK
2025-08-12 14:33,70.46,95.38,-190.3,58.09,10,OK
2025-08-12 14:33,70.73,95.38,-195.77,58.09,10,OK
2025-08-12 14:33,68.15,95.38,-205.15,58.09,10,OK
2025-08-12 14:33,63.97,95.38,-214.32,58.09,10,OK
2025-08-12 14:33,60.35,95.38,-224.98,58.09,10,OK
2025-08-12 14:33,54.21,95.38,-235.87,58.09,10,OK
2025-08-12 14:33,48.34,95.38,-247.27,58.09,10,OK
2025-08-12 14:33,42.16,95.38,-254.32,58.09,10,OK
2025-08-12 14:33,35.98,95.38,-260.86,58.09,10,OK
2025-08-12 14:33,30.09,95.38,-263.12,58.09,10,OK
2025-08-12 14:33,25.96,95.38,-261.3,58.09,10,OK
2025-08-12 14:33,20.19,95.38,-253.94,58.09,10,OK
2025-08-12 14:33,17.63,95.38,-243.39,58.09,10,OK
2025-08-12 14:33,16.22,95.38,-227.07,58.09,10,OK
2025-08-12 14:33,17.84,95.38,-205.7,58.09,10,OK
2025-08-12 14:33,22.53,95.38,-177.04,58.09,10,OK
2025-08-12 14:33,35.86,95.38,-140.04,58.09,10,OK
2025-08-12 14:33,54.82,95.38,-94.52,58.09,10,OK
2025-08-12 14:33,83.5,95.38,-43.82,58.09,10,OK
2025-08-12 14:33,115.55,95.38,10.16,79.52,10,OK
2025-08-12 14:33,150.4,95.38,63.78,79.52,10,OK
2025-08-12 14:33,185.61,95.38,115.21,79.52,10,OK
2025-08-12 14:33,218.83,95.38,157.16,79.52,10,OK
2025-08-12 14:33,243.71,115.06,190.9,79.52,-40,OK
2025-08-12 14:33,264.21,115.06,212.8,79.52,-40,OK
2025-08-12 14:33,277.48,115.06,221.01,79.52,-40,OK
2025-08-12 14:33,282.86,115.06,217.01,79.52,-40,OK
2025-08-12 14:33,276.86,115.06,202.85,79.52,-40,OK
2025-08-12 14:33,266.65,115.06,178.6,79.52,-40,OK
2025-08-12 14:33,248.23,115.06,149.1,79.52,-40,OK
2025-08-12 14:33,225.88,115.06,116.11,79.52,-40,OK
2025-08-12 14:33,197.8,115.06,79.5,79.52,-40,OK
2025-08-12 14:33,169.57,115.06,44,79.52,-40,OK
2025-08-12 14:33,137.08,115.06,9.88,79.52,-40,OK
2025-08-12 14:34,103.95,115.06,-20.9,79.52,-40,OK
2025-08-12 14:34,70.22,115.06,-47.85,79.52,-40,OK
2025-08-12 14:34,39.85,115.06,-70.79,79.52,-40,OK
2025-08-12 14:34,9.64,115.06,-89.11,79.52,-40,OK
2025-08-12 14:34,-18.06,115.06,-101.97,79.52,-40,OK
2025-08-12 14:34,-42.24,115.06,-111.67,79.52,-40,OK
2025-08-12 14:34,-64.61,115.06,-116.18,79.52,-40,OK
2025-08-12 14:34,-84.61,115.06,-115.74,79.52,-40,OK
2025-08-12 14:34,-102.19,115.06,-111.71,79.52,-40,OK
2025-08-12 14:34,-114.4,115.06,-104.97,79.52,-40,OK
2025-08-12 14:34,-123.21,115.06,-92.2,79.52,-40,OK
2025-08-12 14:34,-126.28,115.06,-76.67,79.52,-40,OK
2025-08-12 14:34,-124.12,115.06,-56.53,79.52,-40,OK
2025-08-12 14:34,-117.44,115.06,-36.45,79.52,-40,OK
2025-08-12 14:34,-107.74,115.06,-13.12,79.52,-40,OK
2025-08-12 14:34,-95.73,115.06,9.19,79.52,-40,OK
2025-08-12 14:34,-82.29,115.06,31.61,79.52,-40,OK
2025-08-12 14:34,-69.7,115.06,52.32,79.52,-40,OK
2025-08-12 14:34,-56.83,115.06,73.99,79.52,-40,OK
2025-08-12 14:34,-45.68,115.06,94.21,114.81,-40,OK
2025-08-12 14:34,-35.33,115.06,113.63,114.81,-40,OK
2025-08-12 14:34,-27.01,115.06,130.22,114.81,-40,OK
2025-08-12 14:34,-20.19,115.06,145.66,114.81,-40,OK
2025-08-12 14:34,-14.54,115.06,158.52,114.81,-40,OK
2025-08-12 14:34,-9.47,115.06,169.95,114.81,-40,OK
2025-08-12 14:34,-6.28,115.06,177.5,114.81,-40,OK
2025-08-12 14:34,-5.16,115.06,187.5,114.81,-40,OK
2025-08-12 14:34,-7.79,115.06,195.31,114.81,-40,OK
2025-08-12 14:34,-11.01,115.06,203.7,114.81,-40,OK
2025-08-12 14:34,-16.97,115.06,209.19,114.81,-40,OK
2025-08-12 14:34,-23.99,115.06,216.09,114.81,-40,OK
2025-08-12 14:34,-30.71,115.06,220.96,114.81,-40,OK
2025-08-12 14:34,-35.26,115.06,225.42,114.81,-40,OK
2025-08-12 14:34,-40.61,115.06,227.77,114.81,-40,OK
2025-08-12 14:34,-45.45,115.06,232.68,114.81,-40,OK
2025-08-12 14:34,-49.68,115.06,236.22,114.81,-40,OK
2025-08-12 14:34,-52.47,115.06,238.15,114.81,-40,OK
2025-08-12 14:34,-54.08,115.06,240.83,114.81,-40,OK
2025-08-12 14:34,-55.46,115.06,243.79,114.81,-40,OK
2025-08-12 14:34,-50.95,115.06,246.28,114.81,-40,OK
2025-08-12 14:34,-42.74,115.06,253.89,114.81,-40,OK
2025-08-12 14:34,-28.8,115.06,263.45,114.81,-40,OK
2025-08-12 14:34,-8.72,115.06,276.39,114.81,-40,OK
2025-08-12 14:34,19.22,115.06,296.45,114.81,-40,OK
2025-08-12 14:34,51.72,115.06,321.13,114.81,-40,OK
2025-08-12 14:34,88.03,115.06,348.48,114.81,-40,OK
2025-08-12 14:34,124.94,115.06,378.85,114.81,-40,OK
2025-08-12 14:34,161.39,115.06,405.87,114.81,-40,OK
2025-08-12 14:34,195.38,110.91,426.1,114.81,-290,OK
2025-08-12 14:34,222.23,110.91,438.01,114.81,-290,OK
2025-08-12 14:34,243.66,110.91,438.47,114.81,-290,OK
2025-08-12 14:34,257.19,110.91,427.97,114.81,-290,OK
2025-08-12 14:34,262.28,110.91,408.78,114.81,-290,OK
2025-08-12 14:34,262.84,110.91,376.72,114.81,-290,OK
2025-08-12 14:34,256.95,110.91,337.39,114.81,-290,OK
2025-08-12 14:34,247.55,110.91,291.19,114.81,-290,OK
2025-08-12 14:34,235.2,110.91,240.21,114.81,-290,OK
2025-08-12 14:34,224.04,110.91,190.94,114.81,-290,OK
2025-08-12 14:34,208.07,110.91,149.33,114.81,-290,OK
2025-08-12 14:34,193.68,110.91,111.67,114.81,-290,OK
2025-08-12 14:34,177.54,110.91,84.22,114.81,-290,OK
2025-08-12 14:34,162.89,110.91,64.98,114.81,-290,OK
2025-08-12 14:34,146.02,110.91,50.03,114.81,-290,OK
2025-08-12 14:34,127.91,110.91,37.95,114.81,-290,OK
2025-08-12 14:34,108.04,110.91,27.87,114.81,-290,OK
2025-08-12 14:34,88.58,110.91,15.86,114.81,-290,OK
2025-08-12 14:34,68.23,110.91,3.93,114.81,-290,OK
2025-08-12 14:34,49.34,110.91,-10.49,114.81,-290,OK
2025-08-12 14:34,34.81,110.91,-25.84,114.81,-290,OK
2025-08-12 14:34,20.31,110.91,-41.11,114.81,-290,OK
2025-08-12 14:34,7.12,110.91,-58.96,114.81,-290,OK
2025-08-12 14:34,-2.36,110.91,-77.37,114.81,-290,OK
2025-08-12 14:34,-12,110.91,-94.73,114.81,-290,OK
2025-08-12 14:34,-21.31,110.91,-115.09,114.81,-290,OK
2025-08-12 14:34,-27.09,110.91,-134.09,114.81,-290,OK
2025-08-12 14:34,-32.07,110.91,-150.65,114.81,-290,OK
2025-08-12 14:34,-37.69,110.91,-165.77,114.81,-290,OK
2025-08-12 14:34,-42.07,110.91,-180.1,114.81,-290,OK
2025-08-12 14:34,-44.11,110.91,-189.39,114.81,-290,OK
2025-08-12 14:34,-45.13,110.91,-199.85,114.81,-290,OK
2025-08-12 14:34,-46.37,110.91,-210.02,114.81,-290,OK
2025-08-12 14:34,-47.34,110.91,-221.24,114.81,-290,OK
2025-08-12 14:34,-47.4,110.91,-233.06,114.81,-290,OK
2025-08-12 14:34,-49.73,110.91,-246.65,114.81,-290,OK
2025-08-12 14:34,-53.98,110.91,-259.75,114.81,-290,OK
2025-08-12 14:34,-58.97,110.91,-273.28,114.81,-290,OK
2025-08-12 14:34,-63.09,110.91,-286.52,114.81,-290,OK
2025-08-12 14:34,-69.46,110.91,-296.65,114.81,-290,OK
2025-08-12 14:34,-75.95,110.91,-305.3,114.81,-290,OK
2025-08-12 14:34,-79.41,110.91,-311.31,114.81,-290,OK
2025-08-12 14:34,-82.11,110.91,-315.04,114.81,-290,OK
2025-08-12 14:34,-87.02,110.91,-318.25,114.81,-290,OK
2025-08-12 14:34,-90.48,110.91,-321.76,114.81,-290,OK
2025-08-12 14:34,-92.98,110.91,-320.83,114.81,-290,OK
2025-08-12 14:34,-95.76,110.91,-319.48,114.81,-290,OK
2025-08-12 14:34,-97.65,110.91,-316.89,114.81,-290,OK
2025-08-12 14:34,-95.52,110.91,-309.27,114.81,-290,OK
2025-08-12 14:34,-94.11,110.91,-300.66,114.81,-290,OK
2025-08-12 14:34,-91.96,110.91,-294.31,114.81,-290,OK
2025-08-12 14:34,-90.41,110.91,-284.87,114.81,-290,OK
2025-08-12 14:34,-89.08,110.91,-273.87,114.81,-290,OK
2025-08-12 14:34,-88.54,110.91,-263.81,114.81,-290,OK
2025-08-12 14:34,-86.06,110.91,-251.93,114.81,-290,OK
2025-08-12 14:34,-83.96,110.91,-240.63,114.81,-290,OK
2025-08-12 14:34,-81.2,110.91,-230,114.81,-290,OK
2025-08-12 14:34,-76.36,110.91,-221.31,114.81,-290,OK
2025-08-12 14:34,-71.43,110.91,-212.31,114.81,-290,OK
2025-08-12 14:34,-63.9,110.91,-202.23,114.81,-290,OK
2025-08-12 14:34,-52.06,110.91,-190.79,114.81,-290,OK
2025-08-12 14:34,-35.84,110.91,-174.05,114.81,-290,OK
2025-08-12 14:34,-15.1,110.91,-150.37,114.81,-290,OK
2025-08-12 14:34,11.26,110.91,-122.09,114.81,-290,OK
2025-08-12 14:34,41.41,110.91,-86.17,114.81,-290,OK
2025-08-12 14:34,72.44,110.91,-42.72,114.81,-290,OK
2025-08-12 14:34,105.12,110.91,0.72,105.22,-290,OK
2025-08-12 14:34,135.29,96.38,45.57,105.22,-10,OK
2025-08-12 14:34,163.16,96.38,88.24,105.22,-10,OK
2025-08-12 14:34,186.04,96.38,122.28,105.22,-10,OK
2025-08-12 14:34,204.3,96.38,147.48,105.22,-10,OK
2025-08-12 14:34,216.52,96.38,161.65,105.22,-10,OK
2025-08-12 14:34,221.57,96.38,164.95,105.22,-10,OK
2025-08-12 14:34,219.69,96.38,159.91,105.22,-10,OK
2025-08-12 14:34,214.87,96.38,148.15,105.22,-10,OK
2025-08-12 14:34,204.53,96.38,129.6,105.22,-10,OK
2025-08-12 14:34,191.04,96.38,107.44,105.22,-10,OK
2025-08-12 14:34,176.93,96.38,82.74,105.22,-10,OK
2025-08-12 14:34,161.28,96.38,57.97,105.22,-10,OK
2025-08-12 14:34,145.26,96.38,31.34,105.22,-10,OK
2025-08-12 14:34,130.28,96.38,7.07,105.22,-10,OK
2025-08-12 14:34,114.66,96.38,-14.61,105.22,-10,OK
2025-08-12 14:34,99.5,96.38,-34.13,105.22,-10,OK
2025-08-12 14:34,85.18,96.38,-53.5,105.22,-10,OK
2025-08-12 14:34,69.72,96.38,-70.06,105.22,-10,OK
2025-08-12 14:34,55.87,96.38,-86,105.22,-10,OK
2025-08-12 14:34,40.98,96.38,-99.75,105.22,-10,OK
2025-08-12 14:34,25.57,96.38,-109.92,105.22,-10,OK
2025-08-12 14:34,8.62,96.38,-117.84,105.22,-10,OK
2025-08-12 14:34,-7.74,96.38,-123.21,105.22,-10,OK
2025-08-12 14:34,-24.33,96.38,-125.21,105.22,-10,OK
2025-08-12 14:34,-39.35,96.38,-124.17,105.22,-10,OK
2025-08-12 14:34,-52.31,96.38,-121.59,105.22,-10,OK
2025-08-12 14:34,-63.33,96.38,-115.77,105.22,-10,OK
2025-08-12 14:34,-73.87,96.38,-107.15,105.22,-10,OK
2025-08-12 14:34,-82.04,96.38,-96.19,105.22,-10,OK
2025-08-12 14:34,-87.47,96.38,-84.15,105.22,-10,OK
2025-08-12 14:34,-91.98,96.38,-72.38,105.22,-10,OK
2025-08-12 14:34,-92.79,96.38,-61.1,105.22,-10,OK
2025-08-12 14:34,-93.87,96.38,-50.62,105.22,-10,OK
2025-08-12 14:34,-94.94,96.38,-40.08,105.22,-10,OK
2025-08-12 14:34,-97.92,96.38,-29.99,105.22,-10,OK
2025-08-12 14:34,-100.79,96.38,-20.11,105.22,-10,OK
2025-08-12 14:34,-105.62,96.38,-10.9,105.22,-10,OK
2025-08-12 14:34,-106.51,96.38,-1.74,105.22,-10,OK
2025-08-12 14:34,-109.33,96.38,2.31,105.22,-10,OK
2025-08-12 14:34,-111.25,96.38,4.88,105.22,-10,OK
2025-08-12 14:34,-112.23,96.38,6.63,105.22,-10,OK
2025-08-12 14:34,-112.68,96.38,6.03,105.22,-10,OK
2025-08-12 14:34,-115.55,96.38,1.47,105.22,-10,OK
2025-08-12 14:34,-115.13,96.38,-1.67,105.22,-10,OK
2025-08-12 14:34,-114.46,96.38,-10.24,105.22,-10,OK
2025-08-12 14:34,-112.78,96.38,-16.91,105.22,-10,OK
2025-08-12 14:34,-109.36,96.38,-22.02,105.22,-10,OK
2025-08-12 14:34,-105.67,96.38,-26.84,105.22,-10,OK
2025-08-12 14:34,-104.71,96.38,-31.05,105.22,-10,OK
2025-08-12 14:34,-102.64,96.38,-30.59,105.22,-10,OK
2025-08-12 14:34,-99.7,96.38,-35.54,105.22,-10,OK
2025-08-12 14:34,-97.68,96.38,-38.37,105.22,-10,OK
2025-08-12 14:34,-96.76,96.38,-41.44,105.22,-10,OK
2025-08-12 14:34,-93.68,96.38,-42.01,105.22,-10,OK
2025-08-12 14:34,-91.15,96.38,-43.78,105.22,-10,OK
2025-08-12 14:34,-89.94,96.38,-43.03,105.22,-10,OK
2025-08-12 14:34,-88.23,96.38,-43.85,105.22,-10,OK
2025-08-12 14:34,-84.56,96.38,-41.54,105.22,-10,OK
2025-08-12 14:34,-80.5,96.38,-41.02,105.22,-10,OK
2025-08-12 14:34,-77.21,96.38,-39,105.22,-10,OK
2025-08-12 14:34,-72.93,96.38,-37.84,105.22,-10,OK
2025-08-12 14:34,-69.61,96.38,-37.2,105.22,-10,OK
2025-08-12 14:34,-67.35,96.38,-37.04,105.22,-10,OK
2025-08-12 14:34,-65.19,96.38,-37.63,105.22,-10,OK
2025-08-12 14:34,-61.98,96.38,-38.06,105.22,-10,OK
2025-08-12 14:34,-61.15,96.38,-37.3,105.22,-10,OK
2025-08-12 14:34,-60.78,96.38,-35.72,105.22,-10,OK
2025-08-12 14:34,-60.06,96.38,-33.74,105.22,-10,OK
2025-08-12 14:34,-59.52,96.38,-31.18,105.22,-10,OK
2025-08-12 14:34,-58.91,96.38,-26.9,105.22,-10,OK
2025-08-12 14:34,-57.62,96.38,-24.89,105.22,-10,OK
2025-08-12 14:34,-55.93,96.38,-23.44,105.22,-10,OK
2025-08-12 14:34,-53.17,96.38,-20.28,105.22,-10,OK
2025-08-12 14:34,-51.39,96.38,-19.01,105.22,-10,OK
2025-08-12 14:34,-49.81,96.38,-17.53,105.22,-10,OK
2025-08-12 14:34,-45.83,96.38,-11.76,105.22,-10,OK
2025-08-12 14:34,-40.69,96.38,-2.6,105.22,-10,OK
2025-08-12 14:34,-33.41,96.38,7.8,105.22,-10,OK
2025-08-12 14:34,-22.18,96.38,28.37,105.22,-10,OK
2025-08-12 14:34,-4.59,96.38,54.24,105.22,-10,OK
2025-08-12 14:34,16.78,96.38,87.49,105.22,-10,OK
2025-08-12 14:34,42.41,96.38,124.39,105.22,-10,OK
2025-08-12 14:34,70.46,96.38,164.43,105.22,-10,OK
2025-08-12 14:34,99.59,96.38,204.05,105.22,-10,OK
2025-08-12 14:34,125.16,96.38,239.35,104.52,-10,OK
2025-08-12 14:34,146.77,92.04,265.16,104.52,-10,OK
2025-08-12 14:34,164.7,92.04,283.6,104.52,-10,OK
2025-08-12 14:34,177.36,92.04,292.5,104.52,-10,OK
2025-08-12 14:34,181.9,92.04,290.4,104.52,-10,OK
2025-08-12 14:34,183.05,92.04,279.41,104.52,-10,OK
2025-08-12 14:34,181.16,92.04,260.42,104.52,-10,OK
2025-08-12 14:34,174.66,92.04,235.7,104.52,-10,OK
2025-08-12 14:34,164.58,92.04,204.69,104.52,-10,OK
2025-08-12 14:34,155.79,92.04,172.58,104.52,-10,OK
2025-08-12 14:34,146.49,92.04,139.47,104.52,-10,OK
2025-08-12 14:34,134.73,92.04,107.38,104.52,-10,OK
2025-08-12 14:34,123.93,92.04,77.26,104.52,-10,OK
2025-08-12 14:34,113.4,92.04,52.19,104.52,-10,OK
2025-08-12 14:34,103.73,92.04,25.88,104.52,-10,OK
2025-08-12 14:34,91.26,92.04,3.18,104.52,-10,OK
2025-08-12 14:34,80.59,92.04,-15.91,104.52,-10,OK
2025-08-12 14:34,68.92,92.04,-35.53,104.52,-10,OK
2025-08-12 14:34,56.38,92.04,-51.43,104.52,-10,OK
2025-08-12 14:34,43.43,92.04,-64.1,104.52,-10,OK
2025-08-12 14:34,32.56,92.04,-75.53,104.52,-10,OK
2025-08-12 14:34,22.69,92.04,-84.28,104.52,-10,OK
2025-08-12 14:34,12.61,92.04,-88.72,104.52,-10,OK
2025-08-12 14:34,5.26,92.04,-94.48,104.52,-10,OK
2025-08-12 14:34,-2.82,92.04,-96.19,104.52,-10,OK
2025-08-12 14:34,-10.71,92.04,-94.21,104.52,-10,OK
2025-08-12 14:34,-17.34,92.04,-90.97,104.52,-10,OK
2025-08-12 14:34,-21.03,92.04,-85.28,104.52,-10,OK
2025-08-12 14:34,-23.77,92.04,-77.22,104.52,-10,OK
2025-08-12 14:34,-25.12,92.04,-68.34,104.52,-10,OK
2025-08-12 14:34,-24.37,92.04,-61.26,104.52,-10,OK
2025-08-12 14:34,-24.57,92.04,-50.97,104.52,-10,OK
2025-08-12 14:34,-24.84,92.04,-42.37,104.52,-10,OK
2025-08-12 14:34,-25.71,92.04,-36.53,104.52,-10,OK
2025-08-12 14:34,-25.76,92.04,-31.95,104.52,-10,OK
2025-08-12 14:34,-28.41,92.04,-27.93,104.52,-10,OK
2025-08-12 14:34,-30.04,92.04,-27.81,104.52,-10,OK
2025-08-12 14:34,-33.07,92.04,-27.76,104.52,-10,OK
2025-08-12 14:34,-35.44,92.04,-26.99,104.52,-10,OK
2025-08-12 14:34,-37.47,92.04,-30.1,104.52,-10,OK
2025-08-12 14:34,-38.01,92.04,-31.67,104.52,-10,OK
2025-08-12 14:34,-40.39,92.04,-34.45,104.52,-10,OK
2025-08-12 14:34,-41.18,92.04,-38.86,104.52,-10,OK
2025-08-12 14:34,-38.87,92.04,-45.18,104.52,-10,OK
2025-08-12 14:34,-39.22,92.04,-49.01,104.52,-10,OK
2025-08-12 14:34,-37.77,92.04,-55.85,104.52,-10,OK
2025-08-12 14:34,-34.79,92.04,-62.27,104.52,-10,OK
2025-08-12 14:34,-30.63,92.04,-67.4,104.52,-10,OK
2025-08-12 14:34,-30.65,92.04,-70.58,104.52,-10,OK
2025-08-12 14:34,-27.37,92.04,-73.15,104.52,-10,OK
2025-08-12 14:34,-26.19,92.04,-75.18,104.52,-10,OK
2025-08-12 14:34,-23.64,92.04,-74.96,104.52,-10,OK
2025-08-12 14:34,-21.14,92.04,-74.53,104.52,-10,OK
2025-08-12 14:34,-19.12,92.04,-72.86,104.52,-10,OK
2025-08-12 14:34,-17.35,92.04,-71.94,104.52,-10,OK
2025-08-12 14:34,-14.83,92.04,-68.31,104.52,-10,OK
2025-08-12 14:34,-11.96,92.04,-67.04,104.52,-10,OK
2025-08-12 14:34,-11.71,92.04,-64.96,104.52,-10,OK
2025-08-12 14:34,-11.28,92.04,-60.92,104.52,-10,OK
2025-08-12 14:34,-11.25,92.04,-55.59,104.52,-10,OK
2025-08-12 14:34,-11.35,92.04,-51.24,104.52,-10,OK
2025-08-12 14:34,-13.58,92.04,-43.32,104.52,-10,OK
2025-08-12 14:34,-14.53,92.04,-36.86,104.52,-10,OK
2025-08-12 14:34,-15.44,92.04,-31.14,104.52,-10,OK
2025-08-12 14:34,-17.39,92.04,-27.54,104.52,-10,OK
2025-08-12 14:34,-18.9,92.04,-21.76,104.52,-10,OK
2025-08-12 14:34,-21.42,92.04,-18.11,104.52,-10,OK
2025-08-12 14:34,-23.3,92.04,-14.75,104.52,-10,OK
2025-08-12 14:34,-24.96,92.04,-11.61,104.52,-10,OK
2025-08-12 14:34,-25.67,92.04,-8.69,104.52,-10,OK
2025-08-12 14:34,-26.34,92.04,-6.18,104.52,-10,OK
2025-08-12 14:34,-27.47,92.04,-4.37,104.52,-10,OK
2025-08-12 14:34,-27.32,92.04,-1.35,104.52,-10,OK
2025-08-12 14:34,-25.59,92.04,-1.14,104.52,-10,OK
2025-08-12 14:34,-26.36,92.04,1.28,104.52,-10,OK
2025-08-12 14:34,-25.84,92.04,0.97,104.52,-10,OK
2025-08-12 14:34,-24.44,92.04,-1.49,104.52,-10,OK
2025-08-12 14:34,-25.55,92.04,-4.06,104.52,-10,OK
2025-08-12 14:34,-26.36,92.04,-2.65,104.52,-10,OK
2025-08-12 14:34,-23.09,92.04,1.66,104.52,-10,OK
2025-08-12 14:34,-18.8,92.04,11.33,104.52,-10,OK
2025-08-12 14:34,-8.14,92.04,28.35,104.52,-10,OK
2025-08-12 14:34,8.99,92.04,53.02,104.52,-10,OK
2025-08-12 14:34,28.61,92.04,83.55,104.52,-10,OK
2025-08-12 14:34,51.06,92.04,119.66,104.52,-10,OK
2025-08-12 14:34,75.39,92.04,156.35,104.52,-10,OK
2025-08-12 14:34,96.62,92.04,193.78,104.52,-10,OK
2025-08-12 14:34,114.47,92.04,225.91,97.27,-10,OK
2025-08-12 14:34,128.48,92.04,250.43,97.27,-10,OK
2025-08-12 14:34,136.73,85.68,265.35,97.27,-20,OK
2025-08-12 14:34,139.08,85.68,270.31,97.27,-20,OK
2025-08-12 14:34,137.28,85.68,264.59,97.27,-20,OK
2025-08-12 14:34,129.86,85.68,252.19,97.27,-20,OK
2025-08-12 14:34,120.78,85.68,231.4,97.27,-20,OK
2025-08-12 14:34,106.95,85.68,202.96,97.27,-20,OK
2025-08-12 14:34,92.47,85.68,173.04,97.27,-20,OK
2025-08-12 14:34,75.52,85.68,142.78,97.27,-20,OK
2025-08-12 14:34,60.1,85.68,109.37,97.27,-20,OK
2025-08-12 14:34,43.87,85.68,78.53,97.27,-20,OK
2025-08-12 14:34,30.7,85.68,51.09,97.27,-20,OK
2025-08-12 14:34,17.28,85.68,24.37,97.27,-20,OK
2025-08-12 14:34,7.22,85.68,1.65,97.27,-20,OK
2025-08-12 14:34,-3.05,85.68,-19.22,97.27,-20,OK
2025-08-12 14:34,-12.91,85.68,-35.2,97.27,-20,OK
2025-08-12 14:34,-21.92,85.68,-50.03,97.27,-20,OK
2025-08-12 14:34,-29.5,85.68,-60.27,97.27,-20,OK
2025-08-12 14:34,-40.09,85.68,-70.42,97.27,-20,OK
2025-08-12 14:34,-48.8,85.68,-78.78,97.27,-20,OK
2025-08-12 14:34,-56.34,85.68,-84.44,97.27,-20,OK
2025-08-12 14:34,-65.4,85.68,-87.81,97.27,-20,OK
2025-08-12 14:34,-73.81,85.68,-88.39,97.27,-20,OK
2025-08-12 14:34,-78.68,85.68,-88.26,97.27,-20,OK
2025-08-12 14:34,-83.83,85.68,-84.87,97.27,-20,OK
2025-08-12 14:34,-88.34,85.68,-82.76,97.27,-20,OK
2025-08-12 14:34,-89.22,85.68,-78.46,97.27,-20,OK
2025-08-12 14:34,-90.67,85.68,-75.23,97.27,-20,OK
2025-08-12 14:34,-90.7,85.68,-70.79,97.27,-20,OK
2025-08-12 14:34,-91.4,85.68,-64.84,97.27,-20,OK
2025-08-12 14:34,-89.93,85.68,-59.87,97.27,-20,OK
2025-08-12 14:34,-88.54,85.68,-54.97,97.27,-20,OK
2025-08-12 14:34,-86.3,85.68,-51.32,97.27,-20,OK
2025-08-12 14:34,-85.96,85.68,-50.08,97.27,-20,OK
2025-08-12 14:34,-85,85.68,-50.57,97.27,-20,OK
2025-08-12 14:34,-84.43,85.68,-49.53,97.27,-20,OK
2025-08-12 14:34,-85.39,85.68,-51.48,97.27,-20,OK
2025-08-12 14:34,-86.85,85.68,-52.75,97.27,-20,OK
2025-08-12 14:34,-88.06,85.68,-54.08,97.27,-20,OK
2025-08-12 14:34,-87.12,85.68,-55.52,97.27,-20,OK
2025-08-12 14:34,-89.29,85.68,-59.34,97.27,-20,OK
2025-08-12 14:34,-91.71,85.68,-62.56,97.27,-20,OK
2025-08-12 14:34,-94.21,85.68,-65.34,97.27,-20,OK
2025-08-12 14:34,-97.04,85.68,-66.01,97.27,-20,OK
2025-08-12 14:34,-102.32,85.68,-67.97,97.27,-20,OK
2025-08-12 14:34,-105.93,85.68,-68,97.27,-20,OK
2025-08-12 14:34,-107.21,85.68,-66.08,97.27,-20,OK
2025-08-12 14:34,-108.97,85.68,-64.63,97.27,-20,OK
2025-08-12 14:34,-108.07,85.68,-62.41,97.27,-20,OK
2025-08-12 14:34,-107.53,85.68,-59.73,97.27,-20,OK
2025-08-12 14:34,-104.37,85.68,-57.01,97.27,-20,OK
2025-08-12 14:34,-102.91,85.68,-54.04,97.27,-20,OK
2025-08-12 14:34,-98.08,85.68,-50.68,97.27,-20,OK
2025-08-12 14:34,-96.43,85.68,-46.87,97.27,-20,OK
2025-08-12 14:34,-91.7,85.68,-41.96,97.27,-20,OK
2025-08-12 14:34,-88.07,85.68,-39.17,97.27,-20,OK
2025-08-12 14:34,-84.06,85.68,-35.51,97.27,-20,OK
2025-08-12 14:34,-82.78,85.68,-31.58,97.27,-20,OK
2025-08-12 14:34,-80.1,85.68,-28.36,97.27,-20,OK
2025-08-12 14:34,-81.31,85.68,-25.45,97.27,-20,OK
2025-08-12 14:34,-81.62,85.68,-19.55,97.27,-20,OK
2025-08-12 14:34,-80.71,85.68,-16.32,97.27,-20,OK
2025-08-12 14:34,-79.6,85.68,-15.06,97.27,-20,OK
2025-08-12 14:34,-77.76,85.68,-12.92,97.27,-20,OK
2025-08-12 14:34,-74.99,85.68,-11.36,97.27,-20,OK
2025-08-12 14:34,-73.18,85.68,-10.27,97.27,-20,OK
2025-08-12 14:34,-73.9,85.68,-9.16,97.27,-20,OK
2025-08-12 14:34,-74.02,85.68,-7.3,97.27,-20,OK
2025-08-12 14:34,-74.97,85.68,-6.03,97.27,-20,OK
2025-08-12 14:34,-73.88,85.68,-4.36,97.27,-20,OK
2025-08-12 14:34,-73.58,85.68,-2.32,97.27,-20,OK
2025-08-12 14:34,-70.32,85.68,0.45,97.27,-20,OK
2025-08-12 14:34,-66.94,85.68,2.21,97.27,-20,OK
2025-08-12 14:34,-62.28,85.68,3.41,97.27,-20,OK
2025-08-12 14:34,-57.59,85.68,5.28,97.27,-20,OK
2025-08-12 14:34,-53.5,85.68,4.07,97.27,-20,OK
2025-08-12 14:34,-48.82,85.68,2.65,97.27,-20,OK
2025-08-12 14:34,-43.91,85.68,4.1,97.27,-20,OK
2025-08-12 14:34,-37.39,85.68,6.92,97.27,-20,OK
2025-08-12 14:34,-29.75,85.68,10.27,97.27,-20,OK
2025-08-12 14:34,-18.56,85.68,19.42,97.27,-20,OK
2025-08-12 14:34,-5.3,85.68,35.09,97.27,-20,OK
2025-08-12 14:34,12.18,85.68,57.02,97.27,-20,OK
2025-08-12 14:34,33.47,85.68,83.56,97.27,-20,OK
2025-08-12 14:34,55.72,85.68,117.62,97.27,-20,OK
2025-08-12 14:34,80.3,85.68,153.2,97.27,-20,OK
2025-08-12 14:34,104.23,85.68,187.27,97.27,-20,OK
2025-08-12 14:34,123.5,85.68,218.89,89.47,-20,OK
2025-08-12 14:34,135.37,79.8,243.3,89.47,-10,OK
2025-08-12 14:34,143.86,79.8,257.94,89.47,-10,OK
2025-08-12 14:34,146.19,79.8,263.63,89.47,-10,OK
2025-08-12 14:34,142.78,79.8,259.86,89.47,-10,OK
2025-08-12 14:34,136.75,79.8,245.51,89.47,-10,OK
2025-08-12 14:34,129.81,79.8,225.07,89.47,-10,OK
2025-08-12 14:34,120.1,79.8,200.98,89.47,-10,OK
2025-08-12 14:34,109.25,79.8,170.63,89.47,-10,OK
2025-08-12 14:34,98.11,79.8,139.67,89.47,-10,OK
2025-08-12 14:34,86.91,79.8,109.07,89.47,-10,OK
2025-08-12 14:34,76.89,79.8,78.93,89.47,-10,OK
2025-08-12 14:34,68.84,79.8,49.88,89.47,-10,OK
2025-08-12 14:34,63.45,79.8,25.45,89.47,-10,OK
2025-08-12 14:34,54.09,79.8,3.55,89.47,-10,OK
2025-08-12 14:34,50.18,79.8,-15.31,89.47,-10,OK
2025-08-12 14:34,45.08,79.8,-30.89,89.47,-10,OK
2025-08-12 14:34,39.58,79.8,-44.87,89.47,-10,OK
2025-08-12 14:34,31.86,79.8,-55.31,89.47,-10,OK
2025-08-12 14:34,29.57,79.8,-65.64,89.47,-10,OK
2025-08-12 14:34,21.52,79.8,-74.03,89.47,-10,OK
2025-08-12 14:34,11.95,79.8,-78.99,89.47,-10,OK
2025-08-12 14:34,2.6,79.8,-84.21,89.47,-10,OK
2025-08-12 14:34,-5.79,79.8,-87.68,89.47,-10,OK
2025-08-12 14:34,-11.77,79.8,-87.56,89.47,-10,OK
2025-08-12 14:34,-17.06,79.8,-86.2,89.47,-10,OK
2025-08-12 14:34,-20.18,79.8,-85.27,89.47,-10,OK
2025-08-12 14:34,-22.3,79.8,-80.56,89.47,-10,OK
2025-08-12 14:34,-22.75,79.8,-74.69,89.47,-10,OK
2025-08-12 14:34,-26.18,79.8,-71.22,89.47,-10,OK
2025-08-12 14:34,-26.92,79.8,-67.03,89.47,-10,OK
2025-08-12 14:34,-25.61,79.8,-60.11,89.47,-10,OK
2025-08-12 14:34,-23.58,79.8,-54.04,89.47,-10,OK
2025-08-12 14:34,-24.15,79.8,-50.72,89.47,-10,OK
2025-08-12 14:34,-22.45,79.8,-46.17,89.47,-10,OK
2025-08-12 14:34,-21,79.8,-41.92,89.47,-10,OK
2025-08-12 14:34,-20.82,79.8,-43.22,89.47,-10,OK
2025-08-12 14:34,-22.47,79.8,-43.37,89.47,-10,OK
2025-08-12 14:34,-22.41,79.8,-43.9,89.47,-10,OK
2025-08-12 14:34,-21.65,79.8,-45.87,89.47,-10,OK
2025-08-12 14:34,-22.47,79.8,-49.44,89.47,-10,OK
2025-08-12 14:34,-24.17,79.8,-49.54,89.47,-10,OK
2025-08-12 14:34,-26,79.8,-52.93,89.47,-10,OK
2025-08-12 14:34,-30.62,79.8,-53.94,89.47,-10,OK
2025-08-12 14:34,-37.42,79.8,-55.43,89.47,-10,OK
2025-08-12 14:34,-40.95,79.8,-56.4,89.47,-10,OK
2025-08-12 14:34,-45.84,79.8,-57.87,89.47,-10,OK
2025-08-12 14:34,-49.5,79.8,-57.35,89.47,-10,OK
2025-08-12 14:34,-50.57,79.8,-58.47,89.47,-10,OK
2025-08-12 14:34,-51.04,79.8,-56.68,89.47,-10,OK
2025-08-12 14:34,-54.42,79.8,-56.44,89.47,-10,OK
2025-08-12 14:34,-56.27,79.8,-55.41,89.47,-10,OK
2025-08-12 14:34,-56.05,79.8,-56.1,89.47,-10,OK
2025-08-12 14:34,-59.51,79.8,-55.68,89.47,-10,OK
2025-08-12 14:34,-57.98,79.8,-53.55,89.47,-10,OK
2025-08-12 14:34,-54.77,79.8,-49.41,89.47,-10,OK
2025-08-12 14:34,-49.28,79.8,-45.73,89.47,-10,OK
2025-08-12 14:34,-43.83,79.8,-39.78,89.47,-10,OK
2025-08-12 14:34,-38.92,79.8,-33.23,89.47,-10,OK
2025-08-12 14:34,-33.37,79.8,-29.24,89.47,-10,OK
2025-08-12 14:34,-32.05,79.8,-24.55,89.47,-10,OK
2025-08-12 14:34,-31.56,79.8,-20.75,89.47,-10,OK
2025-08-12 14:34,-28.82,79.8,-17.02,89.47,-10,OK
2025-08-12 14:34,-24.66,79.8,-15.53,89.47,-10,OK
2025-08-12 14:34,-24.99,79.8,-12.21,89.47,-10,OK
2025-08-12 14:34,-21.46,79.8,-9.99,89.47,-10,OK
2025-08-12 14:34,-18.35,79.8,-8.66,89.47,-10,OK
2025-08-12 14:34,-18.84,79.8,-8.66,89.47,-10,OK
2025-08-12 14:34,-16.18,79.8,-5.08,89.47,-10,OK
2025-08-12 14:34,-13.74,79.8,-4.81,89.47,-10,OK
2025-08-12 14:34,-12.06,79.8,-5.11,89.47,-10,OK
2025-08-12 14:34,-11.06,79.8,-3.27,89.47,-10,OK
2025-08-12 14:34,-9.87,79.8,-1.6,89.47,-10,OK
2025-08-12 14:34,-9.47,79.8,-1.96,89.47,-10,OK
2025-08-12 14:34,-9.03,79.8,-0.38,89.47,-10,OK
2025-08-12 14:34,-10,79.8,0.85,89.47,-10,OK
2025-08-12 14:34,-9.91,79.8,1.35,89.47,-10,OK
2025-08-12 14:34,-9.94,79.8,1.66,89.47,-10,OK
2025-08-12 14:34,-10.86,79.8,0.89,89.47,-10,OK
2025-08-12 14:34,-11.82,79.8,-0.44,89.47,-10,OK
2025-08-12 14:34,-9.03,79.8,1.37,89.47,-10,OK
2025-08-12 14:34,-3.11,79.8,5.37,89.47,-10,OK
2025-08-12 14:34,6.64,79.8,13.36,89.47,-10,OK
2025-08-12 14:34,21.99,79.8,28.44,89.47,-10,OK
2025-08-12 14:34,41.84,79.8,49.75,89.47,-10,OK
2025-08-12 14:34,63.45,79.8,76.12,89.47,-10,OK
2025-08-12 14:34,84.77,79.8,108.33,89.47,-10,OK
2025-08-12 14:34,106.34,79.8,144.79,89.47,-10,OK
2025-08-12 14:34,127.1,79.8,179.67,89.47,-10,OK
2025-08-12 14:34,142.46,79.8,211.64,89.47,-10,OK
2025-08-12 14:34,154.7,72.94,235.58,67.51,-10,OK
2025-08-12 14:34,163.14,72.94,250.2,67.51,-10,OK
2025-08-12 14:34,164.52,72.94,254.76,67.51,-10,OK
2025-08-12 14:34,160.28,72.94,250.95,67.51,-10,OK
2025-08-12 14:34,154.68,72.94,238.12,67.51,-10,OK
2025-08-12 14:34,145.42,72.94,219.17,67.51,-10,OK
2025-08-12 14:34,133.67,72.94,195.14,67.51,-10,OK
2025-08-12 14:34,121.63,72.94,167.24,67.51,-10,OK
2025-08-12 14:34,110.21,72.94,136.2,67.51,-10,OK
2025-08-12 14:34,96.32,72.94,103.89,67.51,-10,OK
2025-08-12 14:34,82.56,72.94,72.66,67.51,-10,OK
2025-08-12 14:34,69.87,72.94,43.19,67.51,-10,OK
2025-08-12 14:34,59.19,72.94,17.18,67.51,-10,OK
2025-08-12 14:34,48.1,72.94,-6.99,67.51,-10,OK
2025-08-12 14:34,39.04,72.94,-24.41,67.51,-10,OK
2025-08-12 14:34,32.11,72.94,-39.95,67.51,-10,OK
2025-08-12 14:34,26.17,72.94,-53.22,67.51,-10,OK
2025-08-12 14:34,20.94,72.94,-64.08,67.51,-10,OK
2025-08-12 14:34,15.53,72.94,-71.73,67.51,-10,OK
2025-08-12 14:34,11.9,72.94,-76.61,67.51,-10,OK
2025-08-12 14:34,6.5,72.94,-78.84,67.51,-10,OK
2025-08-12 14:34,0.29,72.94,-78.07,67.51,-10,OK
2025-08-12 14:34,-5.05,72.94,-78.61,67.51,-10,OK
2025-08-12 14:34,-11.87,72.94,-76.52,67.51,-10,OK
2025-08-12 14:34,-17.26,72.94,-76.5,67.51,-10,OK
2025-08-12 14:34,-20.86,72.94,-73.97,67.51,-10,OK
2025-08-12 14:34,-22.86,72.94,-71.78,67.51,-10,OK
2025-08-12 14:34,-24.29,72.94,-65.95,67.51,-10,OK
2025-08-12 14:34,-24.37,72.94,-61.05,67.51,-10,OK
2025-08-12 14:34,-24.23,72.94,-55.26,67.51,-10,OK
2025-08-12 14:34,-23.69,72.94,-50.74,67.51,-10,OK
2025-08-12 14:34,-22.35,72.94,-46.66,67.51,-10,OK
2025-08-12 14:34,-23.02,72.94,-43.48,67.51,-10,OK
2025-08-12 14:34,-22.42,72.94,-39.26,67.51,-10,OK
2025-08-12 14:34,-21.89,72.94,-38.19,67.51,-10,OK
2025-08-12 14:34,-22.13,72.94,-38.98,67.51,-10,OK
2025-08-12 14:34,-21.96,72.94,-39.26,67.51,-10,OK
2025-08-12 14:34,-23.7,72.94,-41.35,67.51,-10,OK
2025-08-12 14:34,-23.9,72.94,-43.99,67.51,-10,OK
2025-08-12 14:34,-26.59,72.94,-45.81,67.51,-10,OK
2025-08-12 14:34,-27.41,72.94,-47.78,67.51,-10,OK
2025-08-12 14:34,-29.4,72.94,-50.21,67.51,-10,OK
2025-08-12 14:34,-28.89,72.94,-51.69,67.51,-10,OK
2025-08-12 14:34,-27.83,72.94,-54.66,67.51,-10,OK
2025-08-12 14:34,-26.98,72.94,-55.57,67.51,-10,OK
2025-08-12 14:34,-27.41,72.94,-55.75,67.51,-10,OK
2025-08-12 14:34,-26.9,72.94,-56.59,67.51,-10,OK
2025-08-12 14:34,-27.19,72.94,-56.15,67.51,-10,OK
2025-08-12 14:34,-30.27,72.94,-53.75,67.51,-10,OK
2025-08-12 14:34,-32.94,72.94,-53.21,67.51,-10,OK
2025-08-12 14:34,-34.81,72.94,-52.18,67.51,-10,OK
2025-08-12 14:34,-39.67,72.94,-50.67,67.51,-10,OK
2025-08-12 14:34,-43.09,72.94,-49.1,67.51,-10,OK
2025-08-12 14:34,-46.97,72.94,-48.53,67.51,-10,OK
2025-08-12 14:34,-50.71,72.94,-45.63,67.51,-10,OK
2025-08-12 14:34,-53.78,72.94,-43.84,67.51,-10,OK
2025-08-12 14:34,-54.29,72.94,-41.94,67.51,-10,OK
2025-08-12 14:34,-52.85,72.94,-39.08,67.51,-10,OK
2025-08-12 14:34,-48.54,72.94,-36.87,67.51,-10,OK
2025-08-12 14:34,-42.41,72.94,-34.11,67.51,-10,OK
2025-08-12 14:34,-37.52,72.94,-29.33,67.51,-10,OK
2025-08-12 14:34,-32.17,72.94,-25.53,67.51,-10,OK
2025-08-12 14:34,-28.17,72.94,-23.01,67.51,-10,OK
2025-08-12 14:34,-24.09,72.94,-19.14,67.51,-10,OK
2025-08-12 14:34,-19.56,72.94,-16.75,67.51,-10,OK
2025-08-12 14:34,-16.57,72.94,-13.46,67.51,-10,OK
2025-08-12 14:34,-13.29,72.94,-9.17,67.51,-10,OK
2025-08-12 14:34,-11.68,72.94,-6.36,67.51,-10,OK
2025-08-12 14:34,-11.43,72.94,-2.21,67.51,-10,OK
2025-08-12 14:34,-14.75,72.94,-0.7,67.51,-10,OK
2025-08-12 14:34,-13.64,72.94,-1.5,67.51,-10,OK
2025-08-12 14:34,-13.82,72.94,-0.49,67.51,-10,OK
2025-08-12 14:34,-13.85,72.94,0.52,67.51,-10,OK
2025-08-12 14:34,-14.36,72.94,0.89,67.51,-10,OK
2025-08-12 14:34,-11.36,72.94,0.95,67.51,-10,OK
2025-08-12 14:34,-12.44,72.94,2.37,67.51,-10,OK
2025-08-12 14:34,-14.25,72.94,1.09,67.51,-10,OK
2025-08-12 14:34,-15.52,72.94,0.15,67.51,-10,OK
2025-08-12 14:34,-15.56,72.94,-1.63,67.51,-10,OK
2025-08-12 14:34,-16.41,72.94,-0.94,67.51,-10,OK
2025-08-12 14:34,-13.7,72.94,1.26,67.51,-10,OK
2025-08-12 14:34,-4.34,72.94,9.04,67.51,-10,OK
2025-08-12 14:34,7.46,72.94,23.38,67.51,-10,OK
2025-08-12 14:34,23.08,72.94,43.43,67.51,-10,OK
2025-08-12 14:34,44.98,72.94,70.88,67.51,-10,OK
2025-08-12 14:34,68.35,72.94,102.3,67.51,-10,OK
2025-08-12 14:34,90.6,72.94,133.67,67.51,-10,OK
2025-08-12 14:34,111.45,72.94,165.98,67.51,-10,OK
2025-08-12 14:34,129.13,72.94,194.22,67.51,-10,OK
2025-08-12 14:34,138.99,68.51,215.15,68.36,890,OK
2025-08-12 14:34,144.25,68.51,229.32,68.36,890,OK
2025-08-12 14:34,142.96,68.51,234.43,68.36,890,OK
2025-08-12 14:34,138.29,68.51,228.61,68.36,890,OK
2025-08-12 14:34,130.76,68.51,215.02,68.36,890,OK
2025-08-12 14:34,123.17,68.51,194.03,68.36,890,OK
2025-08-12 14:34,112.1,68.51,167.05,68.36,890,OK
2025-08-12 14:34,98.83,68.51,137.7,68.36,890,OK
2025-08-12 14:34,87.68,68.51,107.67,68.36,890,OK
2025-08-12 14:34,74.8,68.51,75.09,68.36,890,OK
2025-08-12 14:34,62.13,68.51,44.63,68.36,890,OK
2025-08-12 14:34,51.55,68.51,15.55,68.36,890,OK
2025-08-12 14:34,44.45,68.51,-9.02,68.36,890,OK
2025-08-12 14:34,35.5,68.51,-33.44,68.36,890,OK
2025-08-12 14:34,26.38,68.51,-51.22,68.36,890,OK
2025-08-12 14:34,18.27,68.51,-65.39,68.36,890,OK
2025-08-12 14:34,10.37,68.51,-74.41,68.36,890,OK
2025-08-12 14:34,0.85,68.51,-82.52,68.36,890,OK
2025-08-12 14:34,-6.9,68.51,-87.41,68.36,890,OK
2025-08-12 14:34,-12.79,68.51,-89.23,68.36,890,OK
2025-08-12 14:34,-19.26,68.51,-90.58,68.36,890,OK
2025-08-12 14:34,-23.18,68.51,-90.69,68.36,890,OK
2025-08-12 14:34,-26.45,68.51,-87.84,68.36,890,OK
2025-08-12 14:34,-29.98,68.51,-83.01,68.36,890,OK
2025-08-12 14:34,-32.15,68.51,-78.73,68.36,890,OK
2025-08-12 14:34,-33.2,68.51,-73.05,68.36,890,OK
2025-08-12 14:34,-36.38,68.51,-67.13,68.36,890,OK
2025-08-12 14:34,-37.88,68.51,-61.53,68.36,890,OK
2025-08-12 14:34,-38.62,68.51,-55,68.36,890,OK
2025-08-12 14:34,-37.58,68.51,-48.74,68.36,890,OK
2025-08-12 14:34,-37.5,68.51,-42.53,68.36,890,OK
2025-08-12 14:34,-34.43,68.51,-38.48,68.36,890,OK
2025-08-12 14:34,-30.07,68.51,-36.54,68.36,890,OK
2025-08-12 14:34,-27.26,68.51,-34.8,68.36,890,OK
2025-08-12 14:34,-25.02,68.51,-35.31,68.36,890,OK
2025-08-12 14:34,-21.43,68.51,-35.99,68.36,890,OK
2025-08-12 14:34,-20.99,68.51,-37.26,68.36,890,OK
2025-08-12 14:34,-22.56,68.51,-38.21,68.36,890,OK
2025-08-12 14:34,-22.42,68.51,-40.15,68.36,890,OK
2025-08-12 14:34,-25.01,68.51,-42.99,68.36,890,OK
2025-08-12 14:34,-28.38,68.51,-46.57,68.36,890,OK
2025-08-12 14:34,-30.89,68.51,-49.36,68.36,890,OK
2025-08-12 14:34,-36.57,68.51,-51.13,68.36,890,OK
2025-08-12 14:34,-41.3,68.51,-53.58,68.36,890,OK
2025-08-12 14:34,-46.02,68.51,-53.49,68.36,890,OK
2025-08-12 14:34,-50.68,68.51,-52.25,68.36,890,OK
2025-08-12 14:34,-55.77,68.51,-52.55,68.36,890,OK
2025-08-12 14:34,-55.67,68.51,-53.54,68.36,890,OK
2025-08-12 14:34,-56.31,68.51,-53.96,68.36,890,OK
2025-08-12 14:34,-52.81,68.51,-53.42,68.36,890,OK
2025-08-12 14:34,-49.8,68.51,-55.15,68.36,890,OK
2025-08-12 14:34,-45.59,68.51,-52.44,68.36,890,OK
2025-08-12 14:34,-41.32,68.51,-48.82,68.36,890,OK
2025-08-12 14:34,-37.07,68.51,-46.03,68.36,890,OK
2025-08-12 14:34,-36.67,68.51,-42.99,68.36,890,OK
2025-08-12 14:34,-34.72,68.51,-38.2,68.36,890,OK
2025-08-12 14:34,-33.35,68.51,-33.88,68.36,890,OK
2025-08-12 14:34,-32.44,68.51,-30.57,68.36,890,OK
2025-08-12 14:34,-32.83,68.51,-24.86,68.36,890,OK
2025-08-12 14:34,-29.08,68.51,-22.07,68.36,890,OK
2025-08-12 14:34,-27.53,68.51,-18.5,68.36,890,OK
2025-08-12 14:34,-25.76,68.51,-17.02,68.36,890,OK
2025-08-12 14:34,-22.25,68.51,-13.69,68.36,890,OK
2025-08-12 14:34,-17.64,68.51,-12.84,68.36,890,OK
2025-08-12 14:34,-15.82,68.51,-9.67,68.36,890,OK
2025-08-12 14:34,-14.78,68.51,-7.48,68.36,890,OK
2025-08-12 14:34,-13.39,68.51,-4.79,68.36,890,OK
2025-08-12 14:34,-15.04,68.51,-2.82,68.36,890,OK
2025-08-12 14:34,-17.34,68.51,0.56,68.36,890,OK
2025-08-12 14:34,-19.48,68.51,2.45,68.36,890,OK
2025-08-12 14:34,-20.34,68.51,5.44,68.36,890,OK
2025-08-12 14:34,-20.3,68.51,7.58,68.36,890,OK
2025-08-12 14:34,-21.68,68.51,9.52,68.36,890,OK
2025-08-12 14:34,-24.21,68.51,9.32,68.36,890,OK
2025-08-12 14:34,-26.5,68.51,10.9,68.36,890,OK
2025-08-12 14:34,-28.87,68.51,10.08,68.36,890,OK
2025-08-12 14:34,-33.05,68.51,9.25,68.36,890,OK
2025-08-12 14:34,-33.64,68.51,8.18,68.36,890,OK
2025-08-12 14:34,-31.65,68.51,11.58,68.36,890,OK
2025-08-12 14:34,-27.57,68.51,16.81,68.36,890,OK
2025-08-12 14:34,-20.66,68.51,25.34,68.36,890,OK
2025-08-12 14:34,-7.64,68.51,42.02,68.36,890,OK
2025-08-12 14:34,6.89,68.51,63.65,68.36,890,OK
2025-08-12 14:34,24.04,68.51,89.62,68.36,890,OK
2025-08-12 14:34,40.86,68.51,119.19,68.36,890,OK
2025-08-12 14:34,58.44,68.51,153,68.36,890,OK
2025-08-12 14:34,70.08,68.51,183.93,68.36,890,OK
2025-08-12 14:34,77.98,68.51,210.67,68.04,890,OK
2025-08-12 14:34,82.07,68.51,230,68.04,890,OK
2025-08-12 14:34,83.46,68.51,241.2,68.04,890,OK
2025-08-12 14:34,79.28,68.51,241.27,68.04,890,OK
2025-08-12 14:34,74.97,68.51,231.46,68.04,890,OK
2025-08-12 14:34,68.17,68.51,213.77,68.04,890,OK
2025-08-12 14:34,57.22,68.51,189.45,68.04,890,OK
2025-08-12 14:34,46.9,68.51,158.76,68.04,890,OK
2025-08-12 14:34,36.98,68.51,124.98,68.04,890,OK
2025-08-12 14:34,24.3,68.51,91.35,68.04,890,OK
2025-08-12 14:34,12.22,68.51,56.57,68.04,890,OK
2025-08-12 14:34,1.62,68.51,22.88,68.04,890,OK
2025-08-12 14:34,-9.92,68.51,-6.37,68.04,890,OK
2025-08-12 14:34,-22.36,68.51,-30.2,68.04,890,OK
2025-08-12 14:34,-31.48,68.51,-51.78,68.04,890,OK
2025-08-12 14:34,-39.38,68.51,-67.98,68.04,890,OK
2025-08-12 14:34,-45.52,68.51,-79.44,68.04,890,OK
2025-08-12 14:34,-49.14,68.51,-86.22,68.04,890,OK
2025-08-12 14:34,-48.13,68.51,-93.83,68.04,890,OK
2025-08-12 14:34,-48.82,68.51,-95.68,68.04,890,OK
2025-08-12 14:34,-47.05,68.51,-96.42,68.04,890,OK
2025-08-12 14:34,-46.11,68.51,-95.52,68.04,890,OK
2025-08-12 14:34,-45.66,68.51,-95.39,68.04,890,OK
2025-08-12 14:34,-44.02,68.51,-91.29,68.04,890,OK
2025-08-12 14:34,-41.43,68.51,-87.83,68.04,890,OK
2025-08-12 14:34,-40.14,68.51,-82.87,68.04,890,OK
2025-08-12 14:34,-36.11,68.51,-77.96,68.04,890,OK
2025-08-12 14:34,-33.07,68.51,-70.04,68.04,890,OK
2025-08-12 14:34,-31.53,68.51,-63.48,68.04,890,OK
2025-08-12 14:34,-28.52,68.51,-56.01,68.04,890,OK
2025-08-12 14:34,-22.21,68.51,-48.21,68.04,890,OK
2025-08-12 14:34,-18.05,68.51,-41.68,68.04,890,OK
2025-08-12 14:34,-12.79,68.51,-37.58,68.04,890,OK
2025-08-12 14:34,-9.25,68.51,-33.91,68.04,890,OK
2025-08-12 14:34,-5.54,68.51,-32.93,68.04,890,OK
2025-08-12 14:34,-4.53,68.51,-33.02,68.04,890,OK
2025-08-12 14:34,-3.6,68.51,-33.43,68.04,890,OK
2025-08-12 14:34,-3.83,68.51,-33.64,68.04,890,OK
2025-08-12 14:34,-2.71,68.51,-32.31,68.04,890,OK
2025-08-12 14:34,-3.1,68.51,-32.78,68.04,890,OK
2025-08-12 14:34,-1.8,68.51,-31.98,68.04,890,OK
2025-08-12 14:34,0.08,68.51,-32.28,68.04,890,OK
2025-08-12 14:34,2.26,68.51,-33.57,68.04,890,OK
2025-08-12 14:34,2.86,68.51,-35.67,68.04,890,OK
2025-08-12 14:34,3.89,68.51,-37.47,68.04,890,OK
2025-08-12 14:34,4.11,68.51,-40.45,68.04,890,OK
2025-08-12 14:34,3.89,68.51,-42.08,68.04,890,OK
2025-08-12 14:34,2.26,68.51,-44.53,68.04,890,OK
2025-08-12 14:34,4.16,68.51,-45.69,68.04,890,OK
2025-08-12 14:34,3.79,68.51,-45.72,68.04,890,OK
2025-08-12 14:34,4.11,68.51,-46.31,68.04,890,OK
2025-08-12 14:34,5.19,68.51,-46.48,68.04,890,OK
2025-08-12 14:34,7.83,68.51,-44.8,68.04,890,OK
2025-08-12 14:34,9.23,68.51,-43.63,68.04,890,OK
2025-08-12 14:34,12.14,68.51,-43.05,68.04,890,OK
2025-08-12 14:34,12.56,68.51,-40.6,68.04,890,OK
2025-08-12 14:34,14.42,68.51,-37.91,68.04,890,OK
2025-08-12 14:34,16.45,68.51,-35.94,68.04,890,OK
2025-08-12 14:34,14.52,68.51,-32.48,68.04,890,OK
2025-08-12 14:34,14.08,68.51,-29.22,68.04,890,OK
2025-08-12 14:34,12.86,68.51,-27.23,68.04,890,OK
2025-08-12 14:34,10.37,68.51,-24.03,68.04,890,OK
2025-08-12 14:34,6.33,68.51,-20.87,68.04,890,OK
2025-08-12 14:34,4.37,68.51,-19.13,68.04,890,OK
2025-08-12 14:34,1.57,68.51,-15.12,68.04,890,OK
2025-08-12 14:34,-0.91,68.51,-12.26,68.04,890,OK
2025-08-12 14:34,-3.1,68.51,-11.01,68.04,890,OK
2025-08-12 14:34,-3.56,68.51,-7.93,68.04,890,OK
2025-08-12 14:34,-4.66,68.51,-5.54,68.04,890,OK
2025-08-12 14:34,-4.38,68.51,-6.05,68.04,890,OK
2025-08-12 14:34,-4.28,68.51,-4.8,68.04,890,OK
2025-08-12 14:34,-6.02,68.51,-2.64,68.04,890,OK
2025-08-12 14:34,-9.42,68.51,-2.77,68.04,890,OK
2025-08-12 14:34,-11.59,68.51,-3.02,68.04,890,OK
2025-08-12 14:34,-14.59,68.51,-3.42,68.04,890,OK
2025-08-12 14:34,-18.29,68.51,-3.3,68.04,890,OK
2025-08-12 14:34,-17.62,68.51,-2.86,68.04,890,OK
2025-08-12 14:34,-12.77,68.51,0.13,68.04,890,OK
2025-08-12 14:34,-4.72,68.51,7.51,68.04,890,OK
2025-08-12 14:34,7.57,68.51,21.32,68.04,890,OK
2025-08-12 14:34,27.05,68.51,39.43,68.04,890,OK
2025-08-12 14:34,48.11,68.51,65.63,68.04,890,OK
2025-08-12 14:34,71.28,68.51,94.32,68.04,890,OK
2025-08-12 14:34,92.3,68.51,125.99,68.04,890,OK
2025-08-12 14:34,110.21,68.51,155.58,68.04,890,OK
2025-08-12 14:34,125.49,68.51,183.25,68.04,890,OK
2025-08-12 14:34,135.37,61.33,203.42,68.2,-860,OK
2025-08-12 14:34,138.26,61.33,215.54,68.2,-860,OK
2025-08-12 14:34,137.86,61.33,218.03,68.2,-860,OK
2025-08-12 14:34,135.14,61.33,213.85,68.2,-860,OK
2025-08-12 14:34,126.58,61.33,200.93,68.2,-860,OK
2025-08-12 14:34,117.31,61.33,180.14,68.2,-860,OK
2025-08-12 14:34,105.55,61.33,157.48,68.2,-860,OK
2025-08-12 14:34,94.32,61.33,130.02,68.2,-860,OK
2025-08-12 14:34,78.78,61.33,98.22,68.2,-860,OK
2025-08-12 14:34,64.23,61.33,67.31,68.2,-860,OK
2025-08-12 14:34,49.31,61.33,36.74,68.2,-860,OK
2025-08-12 14:34,35.97,61.33,7.44,68.2,-860,OK
2025-08-12 14:34,23,61.33,-19.98,68.2,-860,OK
2025-08-12 14:34,12.55,61.33,-42.53,68.2,-860,OK
2025-08-12 14:34,1.9,61.33,-63.91,68.2,-860,OK
2025-08-12 14:34,-8.17,61.33,-81.52,68.2,-860,OK
2025-08-12 14:34,-16.11,61.33,-95.61,68.2,-860,OK
2025-08-12 14:34,-24.65,61.33,-105.61,68.2,-860,OK
2025-08-12 14:34,-30.73,61.33,-112.18,68.2,-860,OK
2025-08-12 14:34,-35.99,61.33,-114.42,68.2,-860,OK
2025-08-12 14:34,-39.67,61.33,-113.67,68.2,-860,OK
2025-08-12 14:34,-44.2,61.33,-109.75,68.2,-860,OK
2025-08-12 14:34,-48.11,61.33,-101.85,68.2,-860,OK
2025-08-12 14:34,-51.68,61.33,-92.89,68.2,-860,OK
2025-08-12 14:34,-53.28,61.33,-81.61,68.2,-860,OK
2025-08-12 14:34,-55.87,61.33,-71.19,68.2,-860,OK
2025-08-12 14:34,-56.08,61.33,-60.95,68.2,-860,OK
2025-08-12 14:34,-53.61,61.33,-50.79,68.2,-860,OK
2025-08-12 14:34,-51.09,61.33,-39.48,68.2,-860,OK
2025-08-12 14:34,-48.1,61.33,-30.93,68.2,-860,OK
2025-08-12 14:34,-44.13,61.33,-21.28,68.2,-860,OK
2025-08-12 14:34,-39.75,61.33,-13.1,68.2,-860,OK
2025-08-12 14:34,-35.76,61.33,-9,68.2,-860,OK
2025-08-12 14:34,-31.49,61.33,-6.37,68.2,-860,OK
2025-08-12 14:34,-27.22,61.33,-4.82,68.2,-860,OK
2025-08-12 14:34,-24.14,61.33,-5.39,68.2,-860,OK
2025-08-12 14:34,-21.22,61.33,-8.7,68.2,-860,OK
2025-08-12 14:34,-20.85,61.33,-11.7,68.2,-860,OK
2025-08-12 14:34,-19.06,61.33,-17.79,68.2,-860,OK
2025-08-12 14:34,-19.38,61.33,-24.06,68.2,-860,OK
2025-08-12 14:34,-17.7,61.33,-30.07,68.2,-860,OK
2025-08-12 14:34,-16.31,61.33,-35.37,68.2,-860,OK
2025-08-12 14:34,-14.65,61.33,-39.27,68.2,-860,OK
2025-08-12 14:34,-15.24,61.33,-42.57,68.2,-860,OK
2025-08-12 14:34,-15.81,61.33,-45.56,68.2,-860,OK
2025-08-12 14:34,-17.39,61.33,-49.79,68.2,-860,OK
2025-08-12 14:34,-20.02,61.33,-52.89,68.2,-860,OK
2025-08-12 14:34,-22.95,61.33,-55.06,68.2,-860,OK
2025-08-12 14:34,-24.44,61.33,-57.17,68.2,-860,OK
2025-08-12 14:34,-25.86,61.33,-56.63,68.2,-860,OK
2025-08-12 14:34,-27.34,61.33,-54.59,68.2,-860,OK
2025-08-12 14:34,-27.89,61.33,-52.84,68.2,-860,OK
2025-08-12 14:34,-26.61,61.33,-49.8,68.2,-860,OK
2025-08-12 14:34,-25.47,61.33,-45.76,68.2,-860,OK
2025-08-12 14:34,-23.5,61.33,-42.31,68.2,-860,OK
2025-08-12 14:34,-20.79,61.33,-38.36,68.2,-860,OK
2025-08-12 14:34,-17.95,61.33,-32.92,68.2,-860,OK
2025-08-12 14:34,-13.02,61.33,-29.66,68.2,-860,OK
2025-08-12 14:34,-7.94,61.33,-25.59,68.2,-860,OK
2025-08-12 14:34,-1.88,61.33,-22.68,68.2,-860,OK
2025-08-12 14:34,4.25,61.33,-18.98,68.2,-860,OK
2025-08-12 14:34,11.19,61.33,-16.23,68.2,-860,OK
2025-08-12 14:34,14.92,61.33,-13.2,68.2,-860,OK
2025-08-12 14:34,20.43,61.33,-9.33,68.2,-860,OK
2025-08-12 14:34,22.3,61.33,-6.77,68.2,-860,OK
2025-08-12 14:34,25.79,61.33,-4.6,68.2,-860,OK
2025-08-12 14:34,30.37,61.33,-2.97,68.2,-860,OK
2025-08-12 14:34,33.28,61.33,-1.08,68.2,-860,OK
2025-08-12 14:34,33.13,61.33,-1.26,68.2,-860,OK
2025-08-12 14:34,36.33,61.33,1.45,68.2,-860,OK
2025-08-12 14:34,34.51,61.33,2.01,68.2,-860,OK
2025-08-12 14:34,31.56,61.33,5.05,68.2,-860,OK
2025-08-12 14:34,29.52,61.33,6.31,68.2,-860,OK
2025-08-12 14:34,28.52,61.33,10.48,68.2,-860,OK
2025-08-12 14:34,30.63,61.33,17.94,68.2,-860,OK
2025-08-12 14:34,37.05,61.33,31.76,68.2,-860,OK
2025-08-12 14:34,45.65,61.33,50.15,68.2,-860,OK
2025-08-12 14:34,59.64,61.33,76.91,68.2,-860,OK
2025-08-12 14:34,77.97,61.33,108.94,68.2,-860,OK
2025-08-12 14:34,94.17,61.33,142.42,68.2,-860,OK
2025-08-12 14:34,111.55,61.33,175.71,68.2,-860,OK
2025-08-12 14:34,126.64,61.33,206.4,68.2,-860,OK
2025-08-12 14:34,138.79,61.33,229.79,69.2,-860,OK
2025-08-12 14:34,144.22,61.33,243.17,69.2,-860,OK
2025-08-12 14:34,146.68,61.33,246.92,69.2,-860,OK
2025-08-12 14:34,143.73,61.33,242.42,69.2,-860,OK
2025-08-12 14:34,137.61,61.33,227.57,69.2,-860,OK
2025-08-12 14:34,126.52,61.33,206.33,69.2,-860,OK
2025-08-12 14:34,114,61.33,180.46,69.2,-860,OK
2025-08-12 14:34,101.08,61.33,153.79,69.2,-860,OK
2025-08-12 14:34,87.94,61.33,123.06,69.2,-860,OK
2025-08-12 14:34,74.17,61.33,91.5,69.2,-860,OK
2025-08-12 14:34,61,61.33,59.31,69.2,-860,OK
2025-08-12 14:34,48.85,61.33,31.29,69.2,-860,OK
2025-08-12 14:34,36.71,61.33,0.63,69.2,-860,OK
2025-08-12 14:34,24.84,61.33,-25.08,69.2,-860,OK
2025-08-12 14:34,12.83,61.33,-48.01,69.2,-860,OK
2025-08-12 14:34,2.18,61.33,-66.19,69.2,-860,OK
2025-08-12 14:34,-6.28,61.33,-84.33,69.2,-860,OK
2025-08-12 14:34,-13.22,61.33,-96.42,69.2,-860,OK
2025-08-12 14:34,-18.92,61.33,-105.76,69.2,-860,OK
2025-08-12 14:34,-22.49,61.33,-110.28,69.2,-860,OK
2025-08-12 14:34,-25.78,61.33,-111.88,69.2,-860,OK
2025-08-12 14:34,-26.39,61.33,-109.12,69.2,-860,OK
2025-08-12 14:34,-29.47,61.33,-106.93,69.2,-860,OK
2025-08-12 14:34,-29.79,61.33,-101.98,69.2,-860,OK
2025-08-12 14:34,-30.28,61.33,-96.96,69.2,-860,OK
2025-08-12 14:34,-25.66,61.33,-90.66,69.2,-860,OK
2025-08-12 14:34,-24.63,61.33,-83.39,69.2,-860,OK
2025-08-12 14:34,-21.54,61.33,-73.57,69.2,-860,OK
2025-08-12 14:34,-18.04,61.33,-64.63,69.2,-860,OK
2025-08-12 14:34,-15.34,61.33,-55.89,69.2,-860,OK
2025-08-12 14:34,-17.57,61.33,-48.22,69.2,-860,OK
2025-08-12 14:34,-16.46,61.33,-40.88,69.2,-860,OK
2025-08-12 14:34,-16.57,61.33,-34.28,69.2,-860,OK
2025-08-12 14:34,-17.48,61.33,-29.21,69.2,-860,OK
2025-08-12 14:34,-18.63,61.33,-23.49,69.2,-860,OK
2025-08-12 14:34,-17.91,61.33,-18.01,69.2,-860,OK
2025-08-12 14:34,-20.89,61.33,-16.53,69.2,-860,OK
2025-08-12 14:34,-23.19,61.33,-17.19,69.2,-860,OK
2025-08-12 14:34,-26.94,61.33,-17.81,69.2,-860,OK
2025-08-12 14:34,-28.22,61.33,-23.62,69.2,-860,OK
2025-08-12 14:34,-31.76,61.33,-33.38,69.2,-860,OK
2025-08-12 14:34,-35.26,61.33,-44.85,69.2,-860,OK
2025-08-12 14:34,-37.55,61.33,-59.54,69.2,-860,OK
2025-08-12 14:34,-39.72,61.33,-86.48,69.2,-860,OK
2025-08-12 14:34,-44.08,61.33,-119.12,69.2,-860,OK
2025-08-12 14:34,-46.83,61.33,-156.46,69.2,-860,OK
2025-08-12 14:34,-49.35,61.33,-198.48,69.2,-860,OK
2025-08-12 14:34,-51.91,61.33,-243.15,69.2,-860,OK
2025-08-12 14:34,-55.79,61.33,-282.03,69.2,-860,OK
2025-08-12 14:34,-58.46,61.33,-316.57,69.2,-860,OK
2025-08-12 14:34,-59.64,61.33,-349.14,69.2,-860,OK
2025-08-12 14:34,-58.09,61.33,-380.82,69.2,-860,OK
2025-08-12 14:34,-56.85,61.33,-408.84,69.2,-860,OK
2025-08-12 14:34,-52.71,61.33,-433.66,69.2,-860,OK
2025-08-12 14:34,-48.87,61.33,-452.76,69.2,-860,OK
2025-08-12 14:34,-44.08,61.33,-467.41,69.2,-860,OK
2025-08-12 14:34,-41.05,61.33,-471.6,69.2,-860,OK
2025-08-12 14:34,-37.77,61.33,-466.79,69.2,-860,OK
2025-08-12 14:34,-35.67,61.33,-450.86,69.2,-860,OK
2025-08-12 14:34,-33.06,61.33,-426.85,69.2,-860,OK
2025-08-12 14:34,-31.8,61.33,-390.6,69.2,-860,OK
2025-08-12 14:34,-28.99,61.33,-344.75,69.2,-860,OK
2025-08-12 14:34,-26.37,61.33,-290.02,69.2,-860,OK
2025-08-12 14:34,-21.28,61.33,-229.71,69.2,-860,OK
2025-08-12 14:34,-14.74,61.33,-164.99,69.2,-860,OK
2025-08-12 14:34,-9.64,61.33,-99.26,74.33,-860,OK
2025-08-12 14:34,-4.6,61.33,-32.57,74.33,-860,OK
2025-08-12 14:34,0.34,61.33,30.14,74.33,-860,OK
2025-08-12 14:34,3.17,61.33,88.2,74.33,-860,OK
2025-08-12 14:34,3.82,61.33,143.19,74.33,-860,OK
2025-08-12 14:34,7.2,61.33,192.31,74.33,-860,OK
2025-08-12 14:34,9.1,61.33,234.36,74.33,-860,OK
2025-08-12 14:34,12.03,61.33,272.71,74.33,-860,OK
2025-08-12 14:34,18.35,61.33,307.69,74.33,-860,OK
2025-08-12 14:34,29.57,61.33,340.31,74.33,-860,OK
2025-08-12 14:34,42.42,61.33,372.42,74.33,-860,OK
2025-08-12 14:34,59.55,61.33,404.77,74.33,-860,OK
2025-08-12 14:34,82.23,61.33,434.61,74.33,-860,OK
2025-08-12 14:34,105.5,61.33,462.51,74.33,-860,OK
2025-08-12 14:34,127.38,61.33,485.11,74.33,-860,OK
2025-08-12 14:34,149.32,61.33,504.43,74.33,-860,OK
2025-08-12 14:34,166.95,61.33,514.53,74.33,-860,OK
2025-08-12 14:34,178.13,55.01,517.22,74.33,-820,OK
2025-08-12 14:34,184.59,55.01,508.26,74.33,-820,OK
2025-08-12 14:34,186.62,55.01,490.49,74.33,-820,OK
2025-08-12 14:34,179.61,55.01,462.9,74.33,-820,OK
2025-08-12 14:34,170.48,55.01,428.78,74.33,-820,OK
2025-08-12 14:34,156.12,55.01,389.16,74.33,-820,OK
2025-08-12 14:34,138.43,55.01,347.66,74.33,-820,OK
2025-08-12 14:34,116.55,55.01,304.39,74.33,-820,OK
2025-08-12 14:34,96.19,55.01,258,74.33,-820,OK
2025-08-12 14:34,76.86,55.01,213.62,74.33,-820,OK
2025-08-12 14:34,56.89,55.01,171.73,74.33,-820,OK
2025-08-12 14:34,39.57,55.01,133,74.33,-820,OK
2025-08-12 14:34,24.51,55.01,97.55,74.33,-820,OK
2025-08-12 14:34,11.38,55.01,68.45,74.33,-820,OK
2025-08-12 14:34,-1.88,55.01,42.38,74.33,-820,OK
2025-08-12 14:34,-9.91,55.01,19.28,74.33,-820,OK
2025-08-12 14:34,-20.39,55.01,-0.89,74.33,-820,OK
2025-08-12 14:34,-27.4,55.01,-16.64,74.33,-820,OK
2025-08-12 14:34,-35.12,55.01,-28.96,74.33,-820,OK
2025-08-12 14:34,-41.66,55.01,-39.7,74.33,-820,OK
2025-08-12 14:34,-49.53,55.01,-47.35,74.33,-820,OK
2025-08-12 14:34,-55.92,55.01,-53.98,74.33,-820,OK
2025-08-12 14:34,-61.78,55.01,-59.2,74.33,-820,OK
2025-08-12 14:34,-67.89,55.01,-64.27,74.33,-820,OK
2025-08-12 14:34,-73.91,55.01,-64.77,74.33,-820,OK
2025-08-12 14:34,-77.98,55.01,-66,74.33,-820,OK
2025-08-12 14:34,-80.16,55.01,-62.2,74.33,-820,OK
2025-08-12 14:34,-82.28,55.01,-60.09,74.33,-820,OK
2025-08-12 14:34,-80.49,55.01,-55.5,74.33,-820,OK
2025-08-12 14:34,-78.38,55.01,-54.11,74.33,-820,OK
2025-08-12 14:34,-75.46,55.01,-48.37,74.33,-820,OK
2025-08-12 14:34,-71.3,55.01,-46.48,74.33,-820,OK
2025-08-12 14:34,-66.66,55.01,-43.87,74.33,-820,OK
2025-08-12 14:34,-63.04,55.01,-43.84,74.33,-820,OK
2025-08-12 14:34,-61.41,55.01,-43.99,74.33,-820,OK
2025-08-12 14:34,-61.29,55.01,-46.61,74.33,-820,OK
2025-08-12 14:34,-61.47,55.01,-48.37,74.33,-820,OK
2025-08-12 14:34,-65.26,55.01,-49.83,74.33,-820,OK
2025-08-12 14:34,-68.98,55.01,-50.05,74.33,-820,OK
2025-08-12 14:34,-72.46,55.01,-48.6,74.33,-820,OK
2025-08-12 14:34,-76.99,55.01,-50.88,74.33,-820,OK
2025-08-12 14:34,-84.98,55.01,-52.78,74.33,-820,OK
2025-08-12 14:34,-90.96,55.01,-54.73,74.33,-820,OK
2025-08-12 14:34,-98.31,55.01,-55.85,74.33,-820,OK
2025-08-12 14:34,-104.9,55.01,-58.1,74.33,-820,OK
2025-08-12 14:34,-108.22,55.01,-56.93,74.33,-820,OK
2025-08-12 14:34,-109.68,55.01,-55.89,74.33,-820,OK
2025-08-12 14:34,-109.37,55.01,-53.92,74.33,-820,OK
2025-08-12 14:34,-106.8,55.01,-50.93,74.33,-820,OK
2025-08-12 14:34,-103.58,55.01,-49.21,74.33,-820,OK
2025-08-12 14:34,-101.02,55.01,-47.13,74.33,-820,OK
2025-08-12 14:34,-95.4,55.01,-43.17,74.33,-820,OK
2025-08-12 14:34,-90.83,55.01,-38.52,74.33,-820,OK
2025-08-12 14:34,-84.83,55.01,-36.58,74.33,-820,OK
2025-08-12 14:34,-75.67,55.01,-31.53,74.33,-820,OK
2025-08-12 14:34,-66.46,55.01,-26.71,74.33,-820,OK
2025-08-12 14:34,-57.81,55.01,-23.61,74.33,-820,OK
2025-08-12 14:34,-50.1,55.01,-21.58,74.33,-820,OK
2025-08-12 14:34,-43.32,55.01,-17.48,74.33,-820,OK
2025-08-12 14:34,-38.78,55.01,-14.57,74.33,-820,OK
2025-08-12 14:34,-33.6,55.01,-10.9,74.33,-820,OK
2025-08-12 14:34,-31.07,55.01,-9.74,74.33,-820,OK
2025-08-12 14:34,-27.2,55.01,-7.75,74.33,-820,OK
2025-08-12 14:34,-24.26,55.01,-7.98,74.33,-820,OK
2025-08-12 14:34,-21.83,55.01,-7.92,74.33,-820,OK
2025-08-12 14:34,-19.95,55.01,-9.51,74.33,-820,OK
2025-08-12 14:34,-17.2,55.01,-8.31,74.33,-820,OK
2025-08-12 14:34,-15.46,55.01,-9.17,74.33,-820,OK
2025-08-12 14:34,-12.69,55.01,-9.85,74.33,-820,OK
2025-08-12 14:34,-10.45,55.01,-10.99,74.33,-820,OK
2025-08-12 14:34,-8.58,55.01,-12.18,74.33,-820,OK
2025-08-12 14:34,-6.36,55.01,-11.42,74.33,-820,OK
2025-08-12 14:34,-0.27,55.01,-10.48,74.33,-820,OK
2025-08-12 14:34,7.26,55.01,-6.65,74.33,-820,OK
2025-08-12 14:34,20.48,55.01,4.07,74.33,-820,OK
2025-08-12 14:34,37.19,55.01,18.66,74.33,-820,OK
2025-08-12 14:34,60.96,55.01,37.39,74.33,-820,OK
2025-08-12 14:34,87.17,55.01,64.71,74.33,-820,OK
2025-08-12 14:34,115.22,55.01,96.62,74.33,-820,OK
2025-08-12 14:34,141.99,55.01,126.1,74.33,-820,OK
2025-08-12 14:34,166.75,55.01,154.95,74.33,-820,OK
2025-08-12 14:34,184.47,56.03,177.49,74.33,-820,OK
2025-08-12 14:34,197.23,56.03,192.3,72.96,10,OK
2025-08-12 14:34,205.01,56.03,196.56,72.96,10,OK
2025-08-12 14:34,206.11,56.03,192.87,72.96,10,OK
2025-08-12 14:34,202.34,56.03,180.57,72.96,10,OK
2025-08-12 14:34,195.12,56.03,164.6,72.96,10,OK
2025-08-12 14:34,184.38,56.03,141.06,72.96,10,OK
2025-08-12 14:34,169.97,56.03,115.11,72.96,10,OK
2025-08-12 14:34,155.29,56.03,84.98,72.96,10,OK
2025-08-12 14:34,140.73,56.03,54.91,72.96,10,OK
2025-08-12 14:34,125.36,56.03,26.56,72.96,10,OK
2025-08-12 14:34,110.39,56.03,-1.24,72.96,10,OK
2025-08-12 14:34,96.48,56.03,-26.41,72.96,10,OK
2025-08-12 14:34,84.1,56.03,-45.43,72.96,10,OK
2025-08-12 14:34,72.85,56.03,-61.74,72.96,10,OK
2025-08-12 14:34,64.27,56.03,-76.86,72.96,10,OK
2025-08-12 14:34,56.77,56.03,-88.74,72.96,10,OK
2025-08-12 14:34,49.4,56.03,-97.69,72.96,10,OK
2025-08-12 14:34,40.93,56.03,-103.39,72.96,10,OK
2025-08-12 14:34,32.82,56.03,-106.78,72.96,10,OK
2025-08-12 14:34,25.06,56.03,-109.04,72.96,10,OK
2025-08-12 14:34,17.15,56.03,-107.59,72.96,10,OK
2025-08-12 14:34,9.55,56.03,-104.34,72.96,10,OK
2025-08-12 14:34,2.21,56.03,-102.16,72.96,10,OK
2025-08-12 14:34,-4.28,56.03,-97.38,72.96,10,OK
2025-08-12 14:34,-11.21,56.03,-92.01,72.96,10,OK
2025-08-12 14:34,-15.83,56.03,-86.28,72.96,10,OK
2025-08-12 14:34,-20.69,56.03,-80.18,72.96,10,OK
2025-08-12 14:34,-22.92,56.03,-72.67,72.96,10,OK
2025-08-12 14:34,-25.67,56.03,-68.08,72.96,10,OK
2025-08-12 14:34,-26.66,56.03,-61.89,72.96,10,OK
2025-08-12 14:34,-27.29,56.03,-55.95,72.96,10,OK
2025-08-12 14:34,-25.63,56.03,-52.49,72.96,10,OK
2025-08-12 14:34,-23.83,56.03,-50.79,72.96,10,OK
2025-08-12 14:34,-22.06,56.03,-48.24,72.96,10,OK
2025-08-12 14:34,-20.23,56.03,-47.96,72.96,10,OK
2025-08-12 14:34,-18.15,56.03,-47.7,72.96,10,OK
2025-08-12 14:34,-13.61,56.03,-47.25,72.96,10,OK
2025-08-12 14:34,-11.05,56.03,-45.82,72.96,10,OK
2025-08-12 14:34,-7.97,56.03,-45.18,72.96,10,OK
2025-08-12 14:34,-3.89,56.03,-44.59,72.96,10,OK
2025-08-12 14:34,-2.56,56.03,-45.29,72.96,10,OK
2025-08-12 14:34,-2.38,56.03,-44.53,72.96,10,OK
2025-08-12 14:34,0.84,56.03,-46.1,72.96,10,OK
2025-08-12 14:34,3.7,56.03,-45.22,72.96,10,OK
2025-08-12 14:34,6.9,56.03,-45.42,72.96,10,OK
2025-08-12 14:34,11.82,56.03,-45.67,72.96,10,OK
2025-08-12 14:34,14.9,56.03,-45.17,72.96,10,OK
2025-08-12 14:34,17.28,56.03,-44.04,72.96,10,OK
2025-08-12 14:34,21.41,56.03,-44.89,72.96,10,OK
2025-08-12 14:34,23.84,56.03,-45.98,72.96,10,OK
2025-08-12 14:34,26.55,56.03,-45.17,72.96,10,OK
2025-08-12 14:34,31.33,56.03,-44.73,72.96,10,OK
2025-08-12 14:34,35.02,56.03,-43.76,72.96,10,OK
2025-08-12 14:34,37.84,56.03,-43.94,72.96,10,OK
2025-08-12 14:34,40.38,56.03,-42.08,72.96,10,OK
2025-08-12 14:34,41.88,56.03,-40.18,72.96,10,OK
2025-08-12 14:34,43.83,56.03,-38.23,72.96,10,OK
2025-08-12 14:34,42.87,56.03,-35.23,72.96,10,OK
2025-08-12 14:34,41.07,56.03,-30.32,72.96,10,OK
2025-08-12 14:34,37.2,56.03,-25.12,72.96,10,OK
2025-08-12 14:34,31.43,56.03,-21.24,72.96,10,OK
2025-08-12 14:34,20.77,56.03,-17.22,72.96,10,OK
2025-08-12 14:34,12.49,56.03,-15.66,72.96,10,OK
2025-08-12 14:34,3.07,56.03,-13.09,72.96,10,OK
2025-08-12 14:34,-5.85,56.03,-11.71,72.96,10,OK
2025-08-12 14:34,-13.59,56.03,-9.95,72.96,10,OK
2025-08-12 14:34,-22.15,56.03,-8.18,72.96,10,OK
2025-08-12 14:34,-30.72,56.03,-5.05,72.96,10,OK
2025-08-12 14:34,-34.22,56.03,-2.07,72.96,10,OK
2025-08-12 14:34,-34.09,56.03,4.15,72.96,10,OK
2025-08-12 14:34,-29.33,56.03,15.41,72.96,10,OK
2025-08-12 14:34,-18.15,56.03,30.07,72.96,10,OK
2025-08-12 14:34,-0.35,56.03,51.93,72.96,10,OK
2025-08-12 14:34,17.98,56.03,78.03,72.96,10,OK
2025-08-12 14:34,38.49,56.03,104.76,72.96,10,OK
2025-08-12 14:34,60.42,56.03,132.77,72.96,10,OK
2025-08-12 14:34,81.4,56.03,160.01,72.96,10,OK
2025-08-12 14:34,95.78,56.03,181.54,74.75,10,OK
2025-08-12 14:34,105.71,56.03,195.39,74.75,10,OK
2025-08-12 14:34,111.65,57.55,203.43,74.75,-20,OK
2025-08-12 14:34,110.44,57.55,200.72,74.75,-20,OK
2025-08-12 14:34,103.11,57.55,190.07,74.75,-20,OK
2025-08-12 14:34,91.76,57.55,171.57,74.75,-20,OK
2025-08-12 14:34,76.13,57.55,150.05,74.75,-20,OK
2025-08-12 14:34,55.11,57.55,123.92,74.75,-20,OK
2025-08-12 14:34,32.06,57.55,95.56,74.75,-20,OK
2025-08-12 14:34,6.66,57.55,65.32,74.75,-20,OK
2025-08-12 14:34,-18.69,57.55,38.74,74.75,-20,OK
2025-08-12 14:34,-43.92,57.55,12.27,74.75,-20,OK
2025-08-12 14:34,-66.73,57.55,-9.49,74.75,-20,OK
2025-08-12 14:34,-87.53,57.55,-27.01,74.75,-20,OK
2025-08-12 14:34,-102.42,57.55,-41.94,74.75,-20,OK
2025-08-12 14:34,-115.26,57.55,-55.06,74.75,-20,OK
2025-08-12 14:34,-125.44,57.55,-65.13,74.75,-20,OK
2025-08-12 14:34,-133.81,57.55,-72.66,74.75,-20,OK
2025-08-12 14:34,-139.11,57.55,-78.47,74.75,-20,OK
2025-08-12 14:34,-143.3,57.55,-80.96,74.75,-20,OK
2025-08-12 14:34,-144.92,57.55,-80.58,74.75,-20,OK
2025-08-12 14:34,-140.98,57.55,-76.56,74.75,-20,OK
2025-08-12 14:34,-136.43,57.55,-72.67,74.75,-20,OK
2025-08-12 14:34,-129.69,57.55,-63.84,74.75,-20,OK
2025-08-12 14:34,-120.37,57.55,-55.24,74.75,-20,OK
2025-08-12 14:34,-111.45,57.55,-45.35,74.75,-20,OK
2025-08-12 14:34,-103.7,57.55,-36.7,74.75,-20,OK
2025-08-12 14:34,-95.08,57.55,-25.71,74.75,-20,OK
2025-08-12 14:34,-89.02,57.55,-18.77,74.75,-20,OK
2025-08-12 14:34,-83.29,57.55,-10.54,74.75,-20,OK
2025-08-12 14:34,-75.47,57.55,-4.23,74.75,-20,OK
2025-08-12 14:34,-68.79,57.55,0.55,74.75,-20,OK
2025-08-12 14:34,-61.84,57.55,2.88,74.75,-20,OK
2025-08-12 14:34,-55.97,57.55,5.67,74.75,-20,OK
2025-08-12 14:34,-50.94,57.55,8.18,74.75,-20,OK
2025-08-12 14:34,-46.53,57.55,6.99,74.75,-20,OK
2025-08-12 14:34,-42.12,57.55,6.32,74.75,-20,OK
2025-08-12 14:34,-38.5,57.55,3.31,74.75,-20,OK
2025-08-12 14:34,-35.03,57.55,-0.62,74.75,-20,OK
2025-08-12 14:34,-31.77,57.55,-7.08,74.75,-20,OK
2025-08-12 14:34,-31.35,57.55,-13.42,74.75,-20,OK
2025-08-12 14:34,-32.67,57.55,-18.96,74.75,-20,OK
2025-08-12 14:34,-33.39,57.55,-26.46,74.75,-20,OK
2025-08-12 14:34,-33.85,57.55,-32.74,74.75,-20,OK
2025-08-12 14:34,-36.23,57.55,-40.14,74.75,-20,OK
2025-08-12 14:34,-36.84,57.55,-46.41,74.75,-20,OK
2025-08-12 14:34,-38.1,57.55,-53.52,74.75,-20,OK
2025-08-12 14:34,-39.53,57.55,-56.11,74.75,-20,OK
2025-08-12 14:34,-38.56,57.55,-61,74.75,-20,OK
2025-08-12 14:34,-37.01,57.55,-62.42,74.75,-20,OK
2025-08-12 14:34,-36.86,57.55,-62.85,74.75,-20,OK
2025-08-12 14:34,-34.82,57.55,-64.06,74.75,-20,OK
2025-08-12 14:34,-30.74,57.55,-67.03,74.75,-20,OK
2025-08-12 14:34,-29.11,57.55,-68.37,74.75,-20,OK
2025-08-12 14:34,-26.59,57.55,-70.03,74.75,-20,OK
2025-08-12 14:34,-22.66,57.55,-71.57,74.75,-20,OK
2025-08-12 14:34,-18.89,57.55,-71.61,74.75,-20,OK
2025-08-12 14:34,-17.38,57.55,-70.51,74.75,-20,OK
2025-08-12 14:34,-14.2,57.55,-69.69,74.75,-20,OK
2025-08-12 14:34,-12.08,57.55,-66.98,74.75,-20,OK
2025-08-12 14:34,-8.05,57.55,-62.86,74.75,-20,OK
2025-08-12 14:34,-6.1,57.55,-57.95,74.75,-20,OK
2025-08-12 14:34,-3.06,57.55,-50.89,74.75,-20,OK
2025-08-12 14:34,-3.35,57.55,-42.53,74.75,-20,OK
2025-08-12 14:34,-2.54,57.55,-35.13,74.75,-20,OK
2025-08-12 14:34,-5.17,57.55,-29.59,74.75,-20,OK
2025-08-12 14:34,-6.35,57.55,-21.54,74.75,-20,OK
2025-08-12 14:34,-8.07,57.55,-13.41,74.75,-20,OK
2025-08-12 14:34,-4.48,57.55,-2.9,74.75,-20,OK
2025-08-12 14:34,0.95,57.55,12.64,74.75,-20,OK
2025-08-12 14:34,11.46,57.55,33.89,74.75,-20,OK
2025-08-12 14:34,27.81,57.55,59.11,74.75,-20,OK
2025-08-12 14:34,46.35,57.55,87.15,74.75,-20,OK
2025-08-12 14:34,64.9,57.55,117.45,74.75,-20,OK
2025-08-12 14:34,81.93,57.55,144.62,74.75,-20,OK
2025-08-12 14:34,95.07,57.55,171.55,76.8,-20,OK
2025-08-12 14:34,102.76,57.55,191.36,76.8,-20,OK
2025-08-12 14:34,107.98,57.55,203.79,76.8,-20,OK
2025-08-12 14:34,105.97,57.55,209.68,76.8,-20,OK
2025-08-12 14:34,99.31,57.55,208.44,76.8,-20,OK
2025-08-12 14:34,89.48,57.55,195.71,76.8,-20,OK
2025-08-12 14:34,76.94,57.55,176.66,76.8,-20,OK
2025-08-12 14:34,61.53,57.55,151.36,76.8,-20,OK
2025-08-12 14:34,46.68,57.55,122.9,76.8,-20,OK
2025-08-12 14:34,32.07,57.55,91.27,76.8,-20,OK
2025-08-12 14:34,18.68,57.55,60.79,76.8,-20,OK
2025-08-12 14:34,6.16,57.55,31.99,76.8,-20,OK
2025-08-12 14:34,-4.97,57.55,6.01,76.8,-20,OK
2025-08-12 14:34,-14.49,57.55,-18.22,76.8,-20,OK
2025-08-12 14:34,-22.16,57.55,-38.91,76.8,-20,OK
2025-08-12 14:34,-30.23,57.55,-56.77,76.8,-20,OK
2025-08-12 14:34,-35.64,57.55,-73.86,76.8,-20,OK
2025-08-12 14:34,-41.35,57.55,-85.7,76.8,-20,OK
2025-08-12 14:34,-44.18,57.55,-95.08,76.8,-20,OK
2025-08-12 14:34,-45.18,57.55,-100.92,76.8,-20,OK
2025-08-12 14:34,-45.67,57.55,-104.33,76.8,-20,OK
2025-08-12 14:34,-44.72,57.55,-103.3,76.8,-20,OK
2025-08-12 14:34,-41.69,57.55,-99.39,76.8,-20,OK
2025-08-12 14:34,-40.61,57.55,-95.02,76.8,-20,OK
2025-08-12 14:34,-39.31,57.55,-86.66,76.8,-20,OK
2025-08-12 14:34,-35.11,57.55,-76.55,76.8,-20,OK
2025-08-12 14:34,-33.44,57.55,-66.42,76.8,-20,OK
2025-08-12 14:34,-31.12,57.55,-57.76,76.8,-20,OK
2025-08-12 14:34,-29.9,57.55,-48.63,76.8,-20,OK
2025-08-12 14:34,-27.66,57.55,-39.68,76.8,-20,OK
2025-08-12 14:34,-28.41,57.55,-30.94,76.8,-20,OK
2025-08-12 14:34,-28.94,57.55,-23.18,76.8,-20,OK
2025-08-12 14:34,-29.4,57.55,-16.31,76.8,-20,OK
2025-08-12 14:34,-28.98,57.55,-9.73,76.8,-20,OK
2025-08-12 14:34,-30.13,57.55,-5.07,76.8,-20,OK
2025-08-12 14:34,-29.03,57.55,-3.92,76.8,-20,OK
2025-08-12 14:34,-27.43,57.55,-3.15,76.8,-20,OK
2025-08-12 14:34,-30.38,57.55,-3.18,76.8,-20,OK
2025-08-12 14:34,-31.87,57.55,-5.31,76.8,-20,OK
2025-08-12 14:34,-35.93,57.55,-10.71,76.8,-20,OK
2025-08-12 14:34,-41.69,57.55,-14.27,76.8,-20,OK
2025-08-12 14:34,-49.59,57.55,-18.81,76.8,-20,OK
2025-08-12 14:34,-53.54,57.55,-22.12,76.8,-20,OK
2025-08-12 14:34,-58.02,57.55,-26.96,76.8,-20,OK
2025-08-12 14:34,-60.9,57.55,-29.67,76.8,-20,OK
2025-08-12 14:34,-62.67,57.55,-33.69,76.8,-20,OK
2025-08-12 14:34,-64.82,57.55,-37.03,76.8,-20,OK
2025-08-12 14:34,-66.51,57.55,-42.23,76.8,-20,OK
2025-08-12 14:34,-67.6,57.55,-44.37,76.8,-20,OK
2025-08-12 14:34,-68.61,57.55,-46.97,76.8,-20,OK
2025-08-12 14:34,-68.53,57.55,-46.53,76.8,-20,OK
2025-08-12 14:34,-68.53,57.55,-46.04,76.8,-20,OK
2025-08-12 14:34,-68.97,57.55,-43.4,76.8,-20,OK
2025-08-12 14:34,-70.15,57.55,-39.06,76.8,-20,OK
2025-08-12 14:34,-69.63,57.55,-32.97,76.8,-20,OK
2025-08-12 14:34,-68.51,57.55,-27.27,76.8,-20,OK
2025-08-12 14:34,-64.5,57.55,-20.99,76.8,-20,OK
2025-08-12 14:34,-61.96,57.55,-14.76,76.8,-20,OK
2025-08-12 14:34,-57.9,57.55,-9.06,76.8,-20,OK
2025-08-12 14:34,-53.87,57.55,-5.18,76.8,-20,OK
2025-08-12 14:34,-51.31,57.55,0.09,76.8,-20,OK
2025-08-12 14:34,-50.1,57.55,5.28,76.8,-20,OK
2025-08-12 14:34,-48.11,57.55,9.86,76.8,-20,OK
2025-08-12 14:34,-46.38,57.55,12.43,76.8,-20,OK
2025-08-12 14:34,-47.31,57.55,15.07,76.8,-20,OK
2025-08-12 14:34,-47.69,57.55,15.4,76.8,-20,OK
2025-08-12 14:34,-46.82,57.55,16.96,76.8,-20,OK
2025-08-12 14:34,-45.14,57.55,18.23,76.8,-20,OK
2025-08-12 14:34,-40.78,57.55,21.05,76.8,-20,OK
2025-08-12 14:34,-32.95,57.55,26.8,76.8,-20,OK
2025-08-12 14:34,-20.47,57.55,36.77,76.8,-20,OK
2025-08-12 14:34,-3.81,57.55,52.41,76.8,-20,OK
2025-08-12 14:34,17.88,57.55,75.95,76.8,-20,OK
2025-08-12 14:34,41.57,57.55,103.77,76.8,-20,OK
2025-08-12 14:34,67.16,57.55,135.47,76.8,-20,OK
2025-08-12 14:34,92.59,57.55,167.9,76.8,-20,OK
2025-08-12 14:34,115.26,57.55,195.45,76.8,-20,OK
2025-08-12 14:34,134.21,52.07,217.33,77.75,-770,OK
2025-08-12 14:34,149.82,52.07,232.59,77.75,-770,OK
2025-08-12 14:34,160.87,52.07,237.81,77.75,-770,OK
2025-08-12 14:34,165,52.07,233.34,77.75,-770,OK
2025-08-12 14:34,165.31,52.07,220.04,77.75,-770,OK
2025-08-12 14:34,160.1,52.07,199.67,77.75,-770,OK
2025-08-12 14:34,150.57,52.07,172.9,77.75,-770,OK
2025-08-12 14:34,137.93,52.07,144.28,77.75,-770,OK
2025-08-12 14:34,124.44,52.07,111.94,77.75,-770,OK
2025-08-12 14:34,108.49,52.07,81.51,77.75,-770,OK
2025-08-12 14:34,93.86,52.07,48.96,77.75,-770,OK
2025-08-12 14:34,76.64,52.07,17.78,77.75,-770,OK
2025-08-12 14:34,62.87,52.07,-12.24,77.75,-770,OK
2025-08-12 14:34,47.91,52.07,-39.32,77.75,-770,OK
2025-08-12 14:34,34.2,52.07,-63.19,77.75,-770,OK
2025-08-12 14:34,20.71,52.07,-83.45,77.75,-770,OK
2025-08-12 14:34,8.81,52.07,-96.45,77.75,-770,OK
2025-08-12 14:34,-5.51,52.07,-107.28,77.75,-770,OK
2025-08-12 14:34,-15.12,52.07,-112.55,77.75,-770,OK
2025-08-12 14:34,-24.22,52.07,-117.12,77.75,-770,OK
2025-08-12 14:34,-31.91,52.07,-116.35,77.75,-770,OK
2025-08-12 14:34,-36.95,52.07,-114.46,77.75,-770,OK
2025-08-12 14:34,-39.38,52.07,-110.53,77.75,-770,OK
2025-08-12 14:34,-40.33,52.07,-106.19,77.75,-770,OK
2025-08-12 14:34,-39.79,52.07,-97.86,77.75,-770,OK
2025-08-12 14:34,-37.1,52.07,-91.03,77.75,-770,OK
2025-08-12 14:34,-34.26,52.07,-84.64,77.75,-770,OK
2025-08-12 14:34,-29.7,52.07,-76.91,77.75,-770,OK
2025-08-12 14:34,-27.53,52.07,-68.35,77.75,-770,OK
2025-08-12 14:34,-23.95,52.07,-61.84,77.75,-770,OK
2025-08-12 14:34,-22.58,52.07,-53.86,77.75,-770,OK
2025-08-12 14:34,-20.03,52.07,-47.37,77.75,-770,OK
2025-08-12 14:34,-18.49,52.07,-42.54,77.75,-770,OK
2025-08-12 14:34,-16.86,52.07,-39.26,77.75,-770,OK
2025-08-12 14:34,-15.51,52.07,-37.23,77.75,-770,OK
2025-08-12 14:34,-15.05,52.07,-36.73,77.75,-770,OK
2025-08-12 14:34,-15.81,52.07,-36.7,77.75,-770,OK
2025-08-12 14:34,-18.7,52.07,-37.34,77.75,-770,OK
2025-08-12 14:34,-20.43,52.07,-40,77.75,-770,OK
2025-08-12 14:34,-21.31,52.07,-44.1,77.75,-770,OK
2025-08-12 14:34,-20.64,52.07,-48.46,77.75,-770,OK
2025-08-12 14:34,-20.35,52.07,-52.34,77.75,-770,OK
2025-08-12 14:34,-18.27,52.07,-56.49,77.75,-770,OK
2025-08-12 14:34,-18.08,52.07,-60.54,77.75,-770,OK
2025-08-12 14:34,-18.89,52.07,-62.98,77.75,-770,OK
2025-08-12 14:34,-22.08,52.07,-65.1,77.75,-770,OK
2025-08-12 14:34,-25.62,52.07,-67.87,77.75,-770,OK
2025-08-12 14:34,-30.72,52.07,-68.69,77.75,-770,OK
2025-08-12 14:34,-35.69,52.07,-67.38,77.75,-770,OK
2025-08-12 14:34,-41.96,52.07,-66.58,77.75,-770,OK
2025-08-12 14:34,-48.22,52.07,-65.95,77.75,-770,OK
2025-08-12 14:34,-53.24,52.07,-63.22,77.75,-770,OK
2025-08-12 14:34,-58.82,52.07,-60.81,77.75,-770,OK
2025-08-12 14:34,-63.38,52.07,-56.84,77.75,-770,OK
2025-08-12 14:34,-66.39,52.07,-50.85,77.75,-770,OK
2025-08-12 14:34,-67.57,52.07,-44.71,77.75,-770,OK
2025-08-12 14:34,-68.01,52.07,-40.54,77.75,-770,OK
2025-08-12 14:34,-66.89,52.07,-33.71,77.75,-770,OK
2025-08-12 14:34,-64.61,52.07,-29.41,77.75,-770,OK
2025-08-12 14:34,-63.65,52.07,-24.75,77.75,-770,OK
2025-08-12 14:34,-60.43,52.07,-20.55,77.75,-770,OK
2025-08-12 14:34,-57.73,52.07,-15.08,77.75,-770,OK
2025-08-12 14:34,-55.61,52.07,-12.82,77.75,-770,OK
2025-08-12 14:34,-54.31,52.07,-9.64,77.75,-770,OK
2025-08-12 14:34,-51.17,52.07,-8.01,77.75,-770,OK
2025-08-12 14:34,-51.16,52.07,-4.82,77.75,-770,OK
2025-08-12 14:34,-48.07,52.07,-0.59,77.75,-770,OK
2025-08-12 14:34,-41.21,52.07,4.69,77.75,-770,OK
2025-08-12 14:34,-30.23,52.07,15.03,77.75,-770,OK
2025-08-12 14:34,-15.46,52.07,29.35,77.75,-770,OK
2025-08-12 14:34,6.83,52.07,48.52,77.75,-770,OK
2025-08-12 14:34,30.72,52.07,72.71,77.75,-770,OK
2025-08-12 14:34,57.71,52.07,101.57,77.75,-770,OK
2025-08-12 14:34,84.35,52.07,130.1,77.75,-770,OK
2025-08-12 14:34,108.72,52.07,159.47,77.75,-770,OK
2025-08-12 14:34,129.4,61.13,184.62,77.75,-770,OK
2025-08-12 14:34,147.66,61.13,203.87,75.08,10,OK
2025-08-12 14:34,159.25,61.13,215.68,75.08,10,OK
2025-08-12 14:34,165.45,61.13,218.54,75.08,10,OK
2025-08-12 14:34,167.17,61.13,212.32,75.08,10,OK
2025-08-12 14:34,164.51,61.13,198.78,75.08,10,OK
2025-08-12 14:34,154.97,61.13,177.23,75.08,10,OK
2025-08-12 14:34,143.97,61.13,150.99,75.08,10,OK
2025-08-12 14:34,130.76,61.13,121.15,75.08,10,OK
2025-08-12 14:34,117.43,61.13,90.34,75.08,10,OK
2025-08-12 14:34,103.06,61.13,58.37,75.08,10,OK
2025-08-12 14:34,88.99,61.13,28.09,75.08,10,OK
2025-08-12 14:34,74.08,61.13,-2.16,75.08,10,OK
2025-08-12 14:34,60.14,61.13,-29.56,75.08,10,OK
2025-08-12 14:34,46.24,61.13,-52.98,75.08,10,OK
2025-08-12 14:34,33.24,61.13,-73.75,75.08,10,OK
2025-08-12 14:34,23.21,61.13,-90.44,75.08,10,OK
2025-08-12 14:34,16.31,61.13,-101.11,75.08,10,OK
2025-08-12 14:34,10.25,61.13,-108.34,75.08,10,OK
2025-08-12 14:34,4.66,61.13,-113.95,75.08,10,OK
2025-08-12 14:34,0.44,61.13,-114.6,75.08,10,OK
2025-08-12 14:34,-4.35,61.13,-113.3,75.08,10,OK
2025-08-12 14:34,-10.64,61.13,-111.12,75.08,10,OK
2025-08-12 14:34,-16.42,61.13,-105.57,75.08,10,OK
2025-08-12 14:34,-20.89,61.13,-97.19,75.08,10,OK
2025-08-12 14:34,-26.16,61.13,-87.4,75.08,10,OK
2025-08-12 14:34,-29.06,61.13,-76.68,75.08,10,OK
2025-08-12 14:34,-30.51,61.13,-65.35,75.08,10,OK
2025-08-12 14:34,-32.38,61.13,-53.5,75.08,10,OK
2025-08-12 14:34,-34.45,61.13,-44.14,75.08,10,OK
2025-08-12 14:34,-33.32,61.13,-35.97,75.08,10,OK
2025-08-12 14:34,-34.07,61.13,-29.71,75.08,10,OK
2025-08-12 14:34,-34.18,61.13,-24.23,75.08,10,OK
2025-08-12 14:34,-35.17,61.13,-21.75,75.08,10,OK
2025-08-12 14:34,-35.31,61.13,-18.62,75.08,10,OK
2025-08-12 14:34,-39.4,61.13,-19.05,75.08,10,OK
2025-08-12 14:34,-42.01,61.13,-19.37,75.08,10,OK
2025-08-12 14:34,-44.25,61.13,-20.37,75.08,10,OK
2025-08-12 14:34,-45.01,61.13,-22.35,75.08,10,OK
2025-08-12 14:34,-47.25,61.13,-26.83,75.08,10,OK
2025-08-12 14:34,-47.84,61.13,-29.75,75.08,10,OK
2025-08-12 14:34,-49.23,61.13,-34.23,75.08,10,OK
2025-08-12 14:34,-50.94,61.13,-39.66,75.08,10,OK
2025-08-12 14:34,-52.79,61.13,-42.84,75.08,10,OK
2025-08-12 14:34,-54.37,61.13,-46.81,75.08,10,OK
2025-08-12 14:34,-55.39,61.13,-48.23,75.08,10,OK
2025-08-12 14:34,-56.54,61.13,-48.68,75.08,10,OK
2025-08-12 14:34,-58.89,61.13,-46.43,75.08,10,OK
2025-08-12 14:34,-60.12,61.13,-46.67,75.08,10,OK
2025-08-12 14:34,-62.2,61.13,-43.83,75.08,10,OK
2025-08-12 14:34,-65.68,61.13,-44.34,75.08,10,OK
2025-08-12 14:34,-68.48,61.13,-42.18,75.08,10,OK
2025-08-12 14:34,-70.59,61.13,-40.7,75.08,10,OK
2025-08-12 14:34,-73.6,61.13,-36.17,75.08,10,OK
2025-08-12 14:34,-75.32,61.13,-34.19,75.08,10,OK
2025-08-12 14:34,-76.58,61.13,-30.6,75.08,10,OK
2025-08-12 14:34,-76.96,61.13,-28.31,75.08,10,OK
2025-08-12 14:34,-75.55,61.13,-24.62,75.08,10,OK
2025-08-12 14:34,-74.66,61.13,-21.74,75.08,10,OK
2025-08-12 14:34,-72.26,61.13,-16.53,75.08,10,OK
2025-08-12 14:34,-69.31,61.13,-10.76,75.08,10,OK
2025-08-12 14:34,-66.08,61.13,-5.32,75.08,10,OK
2025-08-12 14:34,-62.8,61.13,-1.6,75.08,10,OK
2025-08-12 14:34,-58.73,61.13,0.95,75.08,10,OK
2025-08-12 14:34,-54.29,61.13,4.22,75.08,10,OK
2025-08-12 14:34,-49.29,61.13,4.85,75.08,10,OK
2025-08-12 14:34,-44.73,61.13,4.33,75.08,10,OK
2025-08-12 14:34,-41.81,61.13,3.98,75.08,10,OK
2025-08-12 14:34,-36.23,61.13,6.5,75.08,10,OK
2025-08-12 14:34,-28.76,61.13,11.31,75.08,10,OK
2025-08-12 14:34,-18.85,61.13,20.57,75.08,10,OK
2025-08-12 14:34,-3.79,61.13,37,75.08,10,OK
2025-08-12 14:34,17.84,61.13,59.01,75.08,10,OK
2025-08-12 14:34,41.02,61.13,86.41,75.08,10,OK
2025-08-12 14:34,66.21,61.13,114.73,75.08,10,OK
2025-08-12 14:34,92.48,61.13,146.39,75.08,10,OK
2025-08-12 14:34,117.06,61.13,175.74,75.08,10,OK
2025-08-12 14:34,136.99,69.4,200.4,78.75,10,OK
2025-08-12 14:34,154.29,69.4,217.63,78.75,10,OK
2025-08-12 14:34,165.29,69.4,227.1,78.75,10,OK
2025-08-12 14:34,171.41,69.4,227.29,78.75,10,OK
2025-08-12 14:34,169.25,69.4,217.31,78.75,10,OK
2025-08-12 14:34,162.24,69.4,199.31,78.75,10,OK
2025-08-12 14:34,148.94,69.4,176.7,78.75,10,OK
2025-08-12 14:34,133.11,69.4,149.41,78.75,10,OK
2025-08-12 14:34,114.35,69.4,118.16,78.75,10,OK
2025-08-12 14:34,96.42,69.4,87.51,78.75,10,OK
2025-08-12 14:34,77.32,69.4,56.72,78.75,10,OK
2025-08-12 14:34,60.69,69.4,26.76,78.75,10,OK
2025-08-12 14:34,44.26,69.4,-0.9,78.75,10,OK
2025-08-12 14:34,30.86,69.4,-24.35,78.75,10,OK
2025-08-12 14:34,17.63,69.4,-44.85,78.75,10,OK
2025-08-12 14:34,7.09,69.4,-61.74,78.75,10,OK
2025-08-12 14:34,-3.15,69.4,-77.04,78.75,10,OK
2025-08-12 14:34,-10.76,69.4,-86.78,78.75,10,OK
2025-08-12 14:34,-20.02,69.4,-94.85,78.75,10,OK
2025-08-12 14:34,-27.33,69.4,-100.65,78.75,10,OK
2025-08-12 14:34,-34.56,69.4,-103.17,78.75,10,OK
2025-08-12 14:34,-40.54,69.4,-102.94,78.75,10,OK
2025-08-12 14:34,-45.31,69.4,-101.47,78.75,10,OK
2025-08-12 14:34,-46.77,69.4,-96.51,78.75,10,OK
2025-08-12 14:34,-45.98,69.4,-90.58,78.75,10,OK
2025-08-12 14:34,-43.24,69.4,-84.3,78.75,10,OK
2025-08-12 14:34,-37.61,69.4,-76.79,78.75,10,OK
2025-08-12 14:34,-33.93,69.4,-68.77,78.75,10,OK
2025-08-12 14:34,-30.75,69.4,-63,78.75,10,OK
2025-08-12 14:34,-26.13,69.4,-56.94,78.75,10,OK
2025-08-12 14:34,-24.79,69.4,-50.31,78.75,10,OK
2025-08-12 14:34,-25.33,69.4,-45.66,78.75,10,OK
2025-08-12 14:34,-23.3,69.4,-41.73,78.75,10,OK
2025-08-12 14:34,-22.32,69.4,-37.04,78.75,10,OK
2025-08-12 14:34,-24.65,69.4,-33.87,78.75,10,OK
2025-08-12 14:34,-23.77,69.4,-32.08,78.75,10,OK
2025-08-12 14:34,-22.17,69.4,-30.51,78.75,10,OK
2025-08-12 14:34,-23.82,69.4,-28.05,78.75,10,OK
2025-08-12 14:34,-25.87,69.4,-28.22,78.75,10,OK
2025-08-12 14:34,-26.77,69.4,-27.11,78.75,10,OK
2025-08-12 14:34,-29.13,69.4,-26.27,78.75,10,OK
2025-08-12 14:34,-32.33,69.4,-24.52,78.75,10,OK
2025-08-12 14:34,-33.3,69.4,-26.5,78.75,10,OK
2025-08-12 14:34,-33,69.4,-25.45,78.75,10,OK
2025-08-12 14:34,-32.75,69.4,-24.93,78.75,10,OK
2025-08-12 14:34,-33.42,69.4,-25.86,78.75,10,OK
2025-08-12 14:34,-33.1,69.4,-25.06,78.75,10,OK
2025-08-12 14:34,-32.3,69.4,-23.33,78.75,10,OK
2025-08-12 14:34,-30.67,69.4,-22.7,78.75,10,OK
2025-08-12 14:34,-30.25,69.4,-22.31,78.75,10,OK
2025-08-12 14:34,-28.27,69.4,-22.08,78.75,10,OK
2025-08-12 14:34,-28.89,69.4,-25.29,78.75,10,OK
2025-08-12 14:34,-29.56,69.4,-28.91,78.75,10,OK
2025-08-12 14:34,-32.22,69.4,-32.08,78.75,10,OK
2025-08-12 14:34,-31.8,69.4,-35.43,78.75,10,OK
2025-08-12 14:34,-31.34,69.4,-36.9,78.75,10,OK
2025-08-12 14:34,-29.28,69.4,-36,78.75,10,OK
2025-08-12 14:34,-26.44,69.4,-36.59,78.75,10,OK
2025-08-12 14:34,-23.08,69.4,-36.62,78.75,10,OK
2025-08-12 14:34,-21.27,69.4,-34.9,78.75,10,OK
2025-08-12 14:34,-18.92,69.4,-32.66,78.75,10,OK
2025-08-12 14:34,-15.73,69.4,-31.96,78.75,10,OK
2025-08-12 14:34,-15.63,69.4,-28.53,78.75,10,OK
2025-08-12 14:34,-14.79,69.4,-25.78,78.75,10,OK
2025-08-12 14:34,-15.15,69.4,-23.32,78.75,10,OK
2025-08-12 14:34,-16.89,69.4,-21.21,78.75,10,OK
2025-08-12 14:34,-18.57,69.4,-19.73,78.75,10,OK
2025-08-12 14:34,-20.55,69.4,-16.71,78.75,10,OK
2025-08-12 14:34,-19.54,69.4,-12.85,78.75,10,OK
2025-08-12 14:34,-15.76,69.4,-8.4,78.75,10,OK
2025-08-12 14:34,-10.04,69.4,0.2,78.75,10,OK
2025-08-12 14:34,-0.15,69.4,15.01,78.75,10,OK
2025-08-12 14:34,15.94,69.4,35.64,78.75,10,OK
2025-08-12 14:34,33.2,69.4,61.55,78.75,10,OK
2025-08-12 14:34,56.61,69.4,90.47,78.75,10,OK
2025-08-12 14:34,82.18,69.4,124.14,78.75,10,OK
2025-08-12 14:34,107.9,69.4,157.77,78.75,10,OK
2025-08-12 14:34,130.69,69.4,185.85,78.75,770,OK
2025-08-12 14:34,151.42,69.4,208.96,78.75,770,OK
2025-08-12 14:34,163.59,69.77,226.58,78.75,770,OK
2025-08-12 14:34,172.17,69.77,230.38,78.75,770,OK
2025-08-12 14:34,172.41,69.77,225.86,78.75,770,OK
2025-08-12 14:34,168.54,69.77,213.93,78.75,770,OK
2025-08-12 14:34,158.88,69.77,193.02,78.75,770,OK
2025-08-12 14:34,147.45,69.77,166.43,78.75,770,OK
2025-08-12 14:34,131.79,69.77,138.64,78.75,770,OK
2025-08-12 14:34,114.39,69.77,107.05,78.75,770,OK
2025-08-12 14:34,97.6,69.77,74.06,78.75,770,OK
2025-08-12 14:34,79.83,69.77,42.5,78.75,770,OK
2025-08-12 14:34,61.29,69.77,14.67,78.75,770,OK
2025-08-12 14:34,44.62,69.77,-12.19,78.75,770,OK
2025-08-12 14:34,31.89,69.77,-36,78.75,770,OK
2025-08-12 14:34,17.59,69.77,-55.15,78.75,770,OK
2025-08-12 14:34,6.34,69.77,-70.39,78.75,770,OK
2025-08-12 14:34,-3.67,69.77,-84.8,78.75,770,OK
2025-08-12 14:34,-3.67,69.77,-84.8,78.75,770,Start
2025-08-12 14:34,-13.57,69.77,-94.35,78.75,770,OK
2025-08-12 14:34,-23.57,69.77,-101.52,78.75,770,OK
2025-08-12 14:34,-31.93,69.77,-106.09,78.75,770,OK
2025-08-12 14:34,-40.38,69.77,-108.22,78.75,770,OK
2025-08-12 14:34,-48.81,69.77,-107.16,78.75,770,OK
2025-08-12 14:34,-53.47,69.77,-103.99,78.75,770,OK
2025-08-12 14:34,-56.39,69.77,-97.99,78.75,770,OK
2025-08-12 14:34,-58.36,69.77,-92.09,78.75,770,OK
2025-08-12 14:34,-59.48,69.77,-85.2,78.75,770,OK
2025-08-12 14:34,-56.62,69.77,-78.06,78.75,770,OK
2025-08-12 14:34,-54.17,69.77,-70.41,78.75,770,OK
2025-08-12 14:34,-51.06,69.77,-61.96,78.75,770,OK
2025-08-12 14:34,-47.11,69.77,-53.29,78.75,770,OK
2025-08-12 14:34,-40.53,69.77,-42.73,78.75,770,OK
2025-08-12 14:34,-33.43,69.77,-33.71,78.75,770,OK
2025-08-12 14:34,-24.46,69.77,-26.59,78.75,770,OK
2025-08-12 14:34,-14.52,69.77,-19.15,78.75,770,OK
2025-08-12 14:34,-2.1,69.77,-13.96,78.75,770,OK
2025-08-12 14:34,9.32,69.77,-14.26,78.75,770,OK
2025-08-12 14:34,19.37,69.77,-14.73,78.75,770,OK
2025-08-12 14:34,28.39,69.77,-18.11,78.75,770,OK
2025-08-12 14:34,34.97,69.77,-25.22,78.75,770,OK
2025-08-12 14:34,38.81,69.77,-32.25,78.75,770,OK
2025-08-12 14:34,40.11,69.77,-39,78.75,770,OK
2025-08-12 14:34,38.89,69.77,-45.42,78.75,770,OK
2025-08-12 14:34,34.8,69.77,-51.48,78.75,770,OK
2025-08-12 14:34,28.77,69.77,-56.33,78.75,770,OK
2025-08-12 14:34,20.52,69.77,-60.81,78.75,770,OK
2025-08-12 14:34,12.27,69.77,-63.17,78.75,770,OK
2025-08-12 14:34,3.45,69.77,-68.04,78.75,770,OK
2025-08-12 14:34,-4.97,69.77,-70.1,78.75,770,OK
2025-08-12 14:34,-9.54,69.77,-72.06,78.75,770,OK
2025-08-12 14:34,-13.44,69.77,-72.9,78.75,770,OK
2025-08-12 14:34,-15.79,69.77,-73.27,78.75,770,OK
2025-08-12 14:34,-16.8,69.77,-71.49,78.75,770,OK
2025-08-12 14:34,-17.36,69.77,-68.84,78.75,770,OK
2025-08-12 14:34,-17.79,69.77,-64.34,78.75,770,OK
2025-08-12 14:34,-15.45,69.77,-60.24,78.75,770,OK
2025-08-12 14:34,-12.76,69.77,-53.35,78.75,770,OK
2025-08-12 14:34,-12.23,69.77,-44.76,78.75,770,OK
2025-08-12 14:34,-12.04,69.77,-38.89,78.75,770,OK
2025-08-12 14:34,-14.71,69.77,-31.44,78.75,770,OK
2025-08-12 14:34,-19.61,69.77,-22.33,78.75,770,OK
2025-08-12 14:34,-27.65,69.77,-17.18,78.75,770,OK
2025-08-12 14:34,-35.13,69.77,-14.29,78.75,770,OK
2025-08-12 14:34,-43.7,69.77,-8.05,78.75,770,OK
2025-08-12 14:34,-53.94,69.77,-5.26,78.75,770,OK
2025-08-12 14:34,-66.8,69.77,-3.1,78.75,770,OK
2025-08-12 14:34,-80.6,69.77,-0.51,78.75,770,OK
2025-08-12 14:34,-94.35,69.77,1.38,78.75,770,OK
2025-08-12 14:34,-110.67,69.77,1.38,78.75,770,OK
2025-08-12 14:34,-126.92,69.77,0.7,78.75,770,OK
2025-08-12 14:34,-141.12,69.77,2.06,78.75,770,OK
2025-08-12 14:34,-149.45,69.77,6.67,78.75,770,OK
2025-08-12 14:34,-156.28,69.77,17.09,78.75,770,OK
2025-08-12 14:34,-156.12,69.77,33.21,78.75,770,OK
2025-08-12 14:34,-149.49,69.77,56.67,78.75,770,OK
2025-08-12 14:34,-137.34,69.77,83.96,78.75,770,OK
2025-08-12 14:34,-124.5,69.77,112.86,78.75,770,OK
2025-08-12 14:34,-110.37,69.77,140.64,78.75,770,OK
2025-08-12 14:34,-96.39,69.77,163.54,78.75,770,OK
2025-08-12 14:34,-83.11,69.77,179.93,77.94,770,OK
2025-08-12 14:34,-73.5,69.77,186.77,77.94,770,OK
2025-08-12 14:34,-66.82,69.77,184.52,77.94,770,OK
2025-08-12 14:34,-60.66,69.77,174.85,77.94,770,OK
2025-08-12 14:34,-56.42,69.77,156.99,77.94,770,OK
2025-08-12 14:34,-58.5,69.77,132.55,77.94,770,OK
2025-08-12 14:34,-58.77,69.77,104.35,77.94,770,OK
2025-08-12 14:34,-57.42,69.77,73.99,77.94,770,OK
2025-08-12 14:34,-55.73,69.77,42.38,77.94,770,OK
2025-08-12 14:34,-50.12,69.77,13.17,77.94,770,OK
2025-08-12 14:34,-37.66,69.77,-16.77,77.94,770,OK
2025-08-12 14:34,-24.04,69.77,-44,77.94,770,OK
2025-08-12 14:34,-8.39,69.77,-67.84,77.94,770,OK
2025-08-12 14:34,11.23,69.77,-89.59,77.94,770,OK
2025-08-12 14:34,29.72,69.77,-105.71,77.94,770,OK
2025-08-12 14:34,48.32,69.77,-115.96,77.94,770,OK
2025-08-12 14:34,66.66,69.77,-123.11,77.94,770,OK
2025-08-12 14:34,85.49,69.77,-125.33,77.94,770,OK
2025-08-12 14:34,105.37,67.41,-122.73,77.94,770,OK
2025-08-12 14:34,125.24,67.41,-119.6,77.94,770,OK
2025-08-12 14:34,145.4,67.41,-113.47,77.94,770,OK
2025-08-12 14:34,166.74,67.41,-105.42,77.94,770,OK
2025-08-12 14:34,187.47,67.41,-95.54,77.94,770,OK
2025-08-12 14:34,205.43,67.41,-84.63,77.94,770,OK
2025-08-12 14:34,223.06,67.41,-71.26,77.94,770,OK
2025-08-12 14:34,238.64,67.41,-57.26,77.94,770,OK
2025-08-12 14:34,251.89,67.41,-41.03,77.94,770,OK
2025-08-12 14:34,260.84,67.41,-27.27,77.94,770,OK
2025-08-12 14:34,267.94,67.41,-13.57,77.94,770,OK
2025-08-12 14:34,271.16,67.41,-1.07,77.94,770,OK
2025-08-12 14:34,270.09,67.41,8.99,77.94,770,OK
2025-08-12 14:34,265.04,67.41,18.26,77.94,770,OK
2025-08-12 14:34,258.26,67.41,29.29,77.94,770,OK
2025-08-12 14:34,247.45,67.41,38.72,77.94,770,OK
2025-08-12 14:34,235.31,67.41,46.57,77.94,770,OK
2025-08-12 14:34,223.7,67.41,56.29,77.94,770,OK
2025-08-12 14:34,213.22,67.41,65.88,77.94,770,OK
2025-08-12 14:34,202.58,67.41,75.62,77.94,770,OK
2025-08-12 14:34,194.2,67.41,86.54,77.94,770,OK
2025-08-12 14:34,188.05,67.41,99.6,77.94,770,OK
2025-08-12 14:34,183.17,67.41,111.28,77.94,770,OK
2025-08-12 14:34,176.05,67.41,125.24,77.94,770,OK
2025-08-12 14:34,169.75,67.41,144.97,77.94,770,OK
2025-08-12 14:34,160.61,67.41,174.13,77.94,770,OK
2025-08-12 14:34,148.52,67.41,222.35,77.94,770,OK
2025-08-12 14:34,133.32,67.41,300.56,77.94,770,OK
2025-08-12 14:34,116.94,67.41,414.6,77.94,770,OK
2025-08-12 14:34,98.07,67.41,561.52,87.89,290,OK
2025-08-12 14:34,76.35,67.41,736.45,87.89,290,OK
2025-08-12 14:34,52.85,67.41,923.21,87.89,290,OK
2025-08-12 14:34,27.4,67.41,1114.48,87.89,290,OK
2025-08-12 14:34,1.93,67.41,1287.57,87.89,290,OK
2025-08-12 14:34,-21.25,67.41,1411.76,87.89,290,OK
2025-08-12 14:34,-42.56,67.41,1473.57,87.89,290,OK
2025-08-12 14:34,-59.81,67.41,1478.94,87.89,290,OK
2025-08-12 14:34,-72.93,67.41,1427.35,87.89,290,OK
2025-08-12 14:34,-83.73,67.41,1331.46,87.89,290,OK
2025-08-12 14:34,-92.67,67.41,1221.28,87.89,290,OK
2025-08-12 14:34,-98.17,67.41,1111.92,87.89,290,OK
2025-08-12 14:34,-102.72,67.41,984.74,87.89,290,OK
2025-08-12 14:34,-102.46,67.41,784.67,87.89,290,OK
2025-08-12 14:34,-97.34,67.41,506.52,87.89,290,OK
2025-08-12 14:34,-89.65,67.41,153,87.89,290,OK
2025-08-12 14:34,-79.29,67.41,-271.91,87.89,290,OK
2025-08-12 14:34,-68.1,67.41,-747.49,87.89,290,OK
2025-08-12 14:34,-58.24,67.41,-1205.3,87.89,290,OK
2025-08-12 14:34,-48.64,67.41,-1619.53,87.89,290,OK
2025-08-12 14:34,-40.45,67.41,-1968.48,87.89,290,OK
2025-08-12 14:34,-30.43,67.41,-2234.52,87.89,290,OK
2025-08-12 14:34,-20.98,67.41,-2398.46,87.89,290,OK
2025-08-12 14:34,-10.41,67.41,-2454.68,87.89,290,OK
2025-08-12 14:34,1.45,67.41,-2411.7,87.89,290,OK
2025-08-12 14:34,16.01,67.41,-2284.22,87.89,290,OK
2025-08-12 14:34,29.84,67.41,-2087.48,87.89,290,OK
2025-08-12 14:34,45.88,67.41,-1842.54,87.89,290,OK
2025-08-12 14:34,61.42,67.41,-1573.05,87.89,290,OK
2025-08-12 14:34,75.13,67.41,-1295.65,87.89,290,OK
2025-08-12 14:34,85.16,67.41,-1029.39,87.89,290,OK
2025-08-12 14:34,91.17,67.41,-783.28,87.89,290,OK
2025-08-12 14:34,92.72,67.41,-568.54,87.89,290,OK
2025-08-12 14:34,89.6,67.41,-394.01,87.89,290,OK
2025-08-12 14:34,83.74,67.41,-259.38,107.39,290,OK
2025-08-12 14:34,75.36,67.41,-164.23,107.39,290,OK
2025-08-12 14:34,65.46,67.41,-108.57,107.39,290,OK
2025-08-12 14:34,53.97,67.41,-87.61,107.39,290,OK
2025-08-12 14:34,43.01,67.41,-90.79,107.39,290,OK
2025-08-12 14:34,30.47,67.41,-116.18,107.39,290,OK
2025-08-12 14:34,17.34,67.41,-154.37,107.39,290,OK
2025-08-12 14:34,6.07,67.41,-198.65,107.39,290,OK
2025-08-12 14:34,-4.35,67.41,-242.2,107.39,290,OK
2025-08-12 14:34,-15.35,67.41,-278.69,107.39,290,OK
2025-08-12 14:34,-25.03,67.41,-303.85,107.39,290,OK
2025-08-12 14:34,-34.54,67.41,-315.63,107.39,290,OK
2025-08-12 14:34,-45.32,67.41,-314.88,107.39,290,OK
2025-08-12 14:34,-52.88,67.41,-300.62,107.39,290,OK
2025-08-12 14:34,-58.6,67.41,-275.09,107.39,290,OK
2025-08-12 14:34,-63.67,67.41,-238.59,107.39,290,OK
2025-08-12 14:34,-64.95,67.41,-193.46,107.39,290,OK
2025-08-12 14:34,-65.2,67.41,-143.77,107.39,290,OK
2025-08-12 14:34,-66.32,67.41,-88.88,107.39,290,OK
2025-08-12 14:34,-69.01,67.41,-33.15,107.39,290,OK
2025-08-12 14:34,-68.73,67.41,19.16,107.39,290,OK
2025-08-12 14:34,-70.87,67.41,69.05,107.39,290,OK
2025-08-12 14:34,-71.39,67.41,114.72,107.39,290,OK
2025-08-12 14:34,-70.46,67.41,152.32,107.39,290,OK
2025-08-12 14:34,-66.62,67.41,186.49,107.39,290,OK
2025-08-12 14:34,-65.25,67.41,214.45,107.39,290,OK
2025-08-12 14:34,-64,67.41,235.08,107.39,290,OK
2025-08-12 14:34,-63.37,67.41,250.21,107.39,290,OK
2025-08-12 14:34,-64.45,67.41,258.55,107.39,290,OK
2025-08-12 14:34,-68.73,67.41,260,107.39,290,OK
2025-08-12 14:34,-72.02,67.41,259.31,107.39,290,OK
2025-08-12 14:34,-75.54,67.41,255.29,107.39,290,OK
2025-08-12 14:34,-79.96,67.41,249.34,107.39,290,OK
2025-08-12 14:34,-85.51,67.41,245.06,107.39,290,OK
2025-08-12 14:34,-90.19,67.41,238.7,107.39,290,OK
2025-08-12 14:34,-97.48,67.41,230.49,107.39,290,OK
2025-08-12 14:34,-103.67,67.41,223.81,107.39,290,OK
2025-08-12 14:34,-110.3,67.41,215.83,107.39,290,OK
2025-08-12 14:34,-116.26,67.41,207.97,107.39,290,OK
2025-08-12 14:34,-122.62,67.41,202.98,107.39,290,OK
2025-08-12 14:34,-128.64,67.41,198.39,107.39,290,OK
2025-08-12 14:34,-134.45,67.41,193.68,107.39,290,OK
2025-08-12 14:34,-138.64,67.41,190.42,107.39,290,OK
2025-08-12 14:34,-143.48,67.41,185.95,107.39,290,OK
2025-08-12 14:34,-148.76,67.41,179.7,107.39,290,OK
2025-08-12 14:34,-150.93,67.41,175.95,107.39,290,OK
2025-08-12 14:34,-152.97,67.41,173.18,107.39,290,OK
2025-08-12 14:34,-152.99,67.41,170.58,107.39,290,OK
2025-08-12 14:34,-150.4,67.41,170.13,107.39,290,OK
2025-08-12 14:34,-144.73,67.41,171.37,107.39,290,OK
2025-08-12 14:34,-141.42,67.41,172.53,107.39,290,OK
2025-08-12 14:34,-136.38,67.41,172.78,107.39,290,OK
2025-08-12 14:34,-132.41,67.41,174.98,107.39,290,OK
2025-08-12 14:34,-128.96,67.41,176.11,107.39,290,OK
2025-08-12 14:34,-125.6,67.41,177.66,107.39,290,OK
2025-08-12 14:34,-120.01,67.41,178.75,107.39,290,OK
2025-08-12 14:34,-115.52,67.41,180.22,107.39,290,OK
2025-08-12 14:34,-111.76,67.41,181.58,107.39,290,OK
2025-08-12 14:34,-109.27,67.41,181.85,107.39,290,OK
2025-08-12 14:34,-108.04,67.41,182.33,107.39,290,OK
2025-08-12 14:34,-107.65,67.41,181.86,107.39,290,OK
2025-08-12 14:34,-109.79,67.41,181.59,107.39,290,OK
2025-08-12 14:34,-112.38,67.41,180.22,107.39,290,OK
2025-08-12 14:34,-115.84,67.41,180,107.39,290,OK
2025-08-12 14:34,-116.39,67.41,179.98,107.39,290,OK
2025-08-12 14:34,-115.39,67.41,182.13,107.39,290,OK
2025-08-12 14:34,-106.11,67.41,188.25,107.39,290,OK
2025-08-12 14:34,-91.2,67.41,197.34,107.39,290,OK
2025-08-12 14:34,-67.64,67.41,210.83,107.39,290,OK
2025-08-12 14:34,-40.52,67.41,229.3,107.39,290,OK
2025-08-12 14:34,-10.4,67.41,252.06,107.39,290,OK
2025-08-12 14:34,16.49,67.41,274.03,107.39,290,OK
2025-08-12 14:34,42.08,67.41,296.61,107.39,290,OK
2025-08-12 14:34,63.67,67.41,316.98,107.39,290,OK
2025-08-12 14:34,79.48,68.16,330.26,107.39,-740,OK
2025-08-12 14:34,89.29,68.16,334.45,107.6,-740,OK
2025-08-12 14:34,97.11,68.16,331.32,107.6,-740,OK
2025-08-12 14:34,98.41,68.16,320.46,107.6,-740,OK
2025-08-12 14:34,95.71,68.16,300.88,107.6,-740,OK
2025-08-12 14:34,90.65,68.16,276.66,107.6,-740,OK
2025-08-12 14:34,82.72,68.16,248.78,107.6,-740,OK
2025-08-12 14:34,73.63,68.16,220.14,107.6,-740,OK
2025-08-12 14:34,63.96,68.16,187.73,107.6,-740,OK
2025-08-12 14:34,51.01,68.16,156.42,107.6,-740,OK
2025-08-12 14:34,38.12,68.16,124.91,107.6,-740,OK
2025-08-12 14:34,27.26,68.16,95.11,107.6,-740,OK
2025-08-12 14:34,14.58,68.16,65.71,107.6,-740,OK
2025-08-12 14:34,4.12,68.16,40.95,107.6,-740,OK
2025-08-12 14:34,-3.33,68.16,19.62,107.6,-740,OK
2025-08-12 14:34,-8.77,68.16,1.38,107.6,-740,OK
2025-08-12 14:34,-13.53,68.16,-13.53,107.6,-740,OK
2025-08-12 14:34,-16.9,68.16,-24.74,107.6,-740,OK
2025-08-12 14:34,-20.2,68.16,-30.12,107.6,-740,OK
2025-08-12 14:34,-23.3,68.16,-33.3,107.6,-740,OK
2025-08-12 14:34,-27.89,68.16,-34.57,107.6,-740,OK
2025-08-12 14:34,-31.05,68.16,-31.49,107.6,-740,OK
2025-08-12 14:34,-30.2,68.16,-25.88,107.6,-740,OK
2025-08-12 14:34,-33.59,68.16,-20.29,107.6,-740,OK
2025-08-12 14:34,-36.21,68.16,-13.05,107.6,-740,OK
2025-08-12 14:34,-35.13,68.16,-2.79,107.6,-740,OK
2025-08-12 14:34,-35.21,68.16,7.25,107.6,-740,OK
2025-08-12 14:34,-37.56,68.16,16.78,107.6,-740,OK
2025-08-12 14:34,-36.55,68.16,25.74,107.6,-740,OK
2025-08-12 14:34,-34.58,68.16,33.73,107.6,-740,OK
2025-08-12 14:34,-33.59,68.16,40.49,107.6,-740,OK
2025-08-12 14:34,-32.47,68.16,45.29,107.6,-740,OK
2025-08-12 14:34,-32.28,68.16,48.5,107.6,-740,OK
2025-08-12 14:34,-32.51,68.16,51.44,107.6,-740,OK
2025-08-12 14:34,-34.55,68.16,51.88,107.6,-740,OK
2025-08-12 14:34,-38.06,68.16,51.48,107.6,-740,OK
2025-08-12 14:34,-41.08,68.16,50.87,107.6,-740,OK
2025-08-12 14:34,-43.8,68.16,51.05,107.6,-740,OK
2025-08-12 14:34,-43.62,68.16,47.57,107.6,-740,OK
2025-08-12 14:34,-42.63,68.16,46.87,107.6,-740,OK
2025-08-12 14:34,-40.43,68.16,44.23,107.6,-740,OK
2025-08-12 14:34,-40.1,68.16,42.54,107.6,-740,OK
2025-08-12 14:34,-41.38,68.16,39.16,107.6,-740,OK
2025-08-12 14:34,-42.14,68.16,39.46,107.6,-740,OK
2025-08-12 14:34,-41.25,68.16,39.52,107.6,-740,OK
2025-08-12 14:34,-45.65,68.16,39.7,107.6,-740,OK
2025-08-12 14:34,-43.91,68.16,39.63,107.6,-740,OK
2025-08-12 14:34,-43.11,68.16,40.47,107.6,-740,OK
2025-08-12 14:34,-43.61,68.16,39.53,107.6,-740,OK
2025-08-12 14:34,-44.71,68.16,38.04,107.6,-740,OK
2025-08-12 14:34,-41.85,68.16,42.1,107.6,-740,OK
2025-08-12 14:34,-44.34,68.16,44.34,107.6,-740,OK
2025-08-12 14:34,-42.82,68.16,46.71,107.6,-740,OK
2025-08-12 14:34,-42.07,68.16,50.55,107.6,-740,OK
2025-08-12 14:34,-41.58,68.16,54.92,107.6,-740,OK
2025-08-12 14:34,-41.81,68.16,56.72,107.6,-740,OK
2025-08-12 14:34,-40.06,68.16,59.12,107.6,-740,OK
2025-08-12 14:34,-39.48,68.16,64.04,107.6,-740,OK
2025-08-12 14:34,-36.46,68.16,66.79,107.6,-740,OK
2025-08-12 14:34,-34.89,68.16,70.46,107.6,-740,OK
2025-08-12 14:34,-32.73,68.16,71.67,107.6,-740,OK
2025-08-12 14:34,-30.48,68.16,73.24,107.6,-740,OK
2025-08-12 14:34,-28.81,68.16,74.1,107.6,-740,OK
2025-08-12 14:34,-27.86,68.16,75.03,107.6,-740,OK
2025-08-12 14:34,-23.9,68.16,76.2,107.6,-740,OK
2025-08-12 14:34,-15.66,68.16,80.06,107.6,-740,OK
2025-08-12 14:34,-5.55,68.16,89.1,107.6,-740,OK
2025-08-12 14:34,12.35,68.16,101.55,107.6,-740,OK
2025-08-12 14:34,34.87,68.16,120.33,107.6,-740,OK
2025-08-12 14:34,59.58,68.16,141.98,107.6,-740,OK
2025-08-12 14:34,86.3,68.16,166.56,107.6,-740,OK
2025-08-12 14:34,113.43,68.16,190.15,107.6,-740,OK
2025-08-12 14:34,133.83,68.16,211.02,107.6,-740,OK
2025-08-12 14:34,150.95,68.6,226.27,107.6,-720,OK
2025-08-12 14:34,160.69,68.6,236.54,108.45,-720,OK
2025-08-12 14:34,164.47,68.6,238.3,108.45,-720,OK
2025-08-12 14:34,162.84,68.6,231.79,108.45,-720,OK
2025-08-12 14:34,156.94,68.6,218.88,108.45,-720,OK
2025-08-12 14:34,145.19,68.6,198.48,108.45,-720,OK
2025-08-12 14:34,131.42,68.6,172.57,108.45,-720,OK
2025-08-12 14:34,116.9,68.6,143.45,108.45,-720,OK
2025-08-12 14:34,99.02,68.6,113.64,108.45,-720,OK
2025-08-12 14:34,83.26,68.6,80.93,108.45,-720,OK
2025-08-12 14:34,67.97,68.6,52,108.45,-720,OK
2025-08-12 14:34,55.95,68.6,24.08,108.45,-720,OK
2025-08-12 14:34,42.54,68.6,-1.53,108.45,-720,OK
2025-08-12 14:34,34.22,68.6,-24.4,108.45,-720,OK
2025-08-12 14:34,25.49,68.6,-44.38,108.45,-720,OK
2025-08-12 14:34,19.18,68.6,-62.86,108.45,-720,OK
2025-08-12 14:34,11.99,68.6,-77.12,108.45,-720,OK
2025-08-12 14:34,6.68,68.6,-85.71,108.45,-720,OK
2025-08-12 14:34,0.5,68.6,-90.48,108.45,-720,OK
2025-08-12 14:34,-4.4,68.6,-88.72,108.45,-720,OK
2025-08-12 14:34,-9.24,68.6,-83.35,108.45,-720,OK
2025-08-12 14:34,-9.51,68.6,-74.1,108.45,-720,OK
2025-08-12 14:34,-11.15,68.6,-61.49,108.45,-720,OK
2025-08-12 14:34,-10.49,68.6,-47.76,108.45,-720,OK
2025-08-12 14:34,-10.66,68.6,-31.38,108.45,-720,OK
2025-08-12 14:34,-10.56,68.6,-13.27,108.45,-720,OK
2025-08-12 14:34,-12.01,68.6,5.18,108.45,-720,OK
2025-08-12 14:34,-10.6,68.6,21.6,108.45,-720,OK
2025-08-12 14:34,-9.32,68.6,37.08,108.45,-720,OK
2025-08-12 14:34,-6.94,68.6,48.73,108.45,-720,OK
2025-08-12 14:34,-3.89,68.6,58.51,108.45,-720,OK
2025-08-12 14:34,0.89,68.6,63.4,108.45,-720,OK
2025-08-12 14:34,4.17,68.6,66.11,108.45,-720,OK
2025-08-12 14:34,6.06,68.6,65.81,108.45,-720,OK
2025-08-12 14:34,8.85,68.6,61.34,108.45,-720,OK
2025-08-12 14:34,8.76,68.6,53.61,108.45,-720,OK
2025-08-12 14:34,6.59,68.6,43.62,108.45,-720,OK
2025-08-12 14:34,4.75,68.6,30.5,108.45,-720,OK
2025-08-12 14:34,1.58,68.6,13.35,108.45,-720,OK
2025-08-12 14:34,-4.57,68.6,-7.38,108.45,-720,OK
2025-08-12 14:34,-9.62,68.6,-30.61,108.45,-720,OK
2025-08-12 14:34,-15.91,68.6,-58.31,108.45,-720,OK
2025-08-12 14:34,-23.09,68.6,-88.53,108.45,-720,OK
2025-08-12 14:34,-30.06,68.6,-119.11,108.45,-720,OK
2025-08-12 14:34,-34.21,68.6,-146.75,108.45,-720,OK
2025-08-12 14:34,-39.46,68.6,-174.41,108.45,-720,OK
2025-08-12 14:34,-43.35,68.6,-195.25,108.45,-720,OK
2025-08-12 14:34,-46.74,68.6,-208.78,108.45,-720,OK
2025-08-12 14:34,-48.11,68.6,-218.1,108.45,-720,OK
2025-08-12 14:34,-50.71,68.6,-222.5,108.45,-720,OK
2025-08-12 14:34,-50.99,68.6,-220.85,108.45,-720,OK
2025-08-12 14:34,-51.23,68.6,-216.81,108.45,-720,OK
2025-08-12 14:34,-49,68.6,-210.89,108.45,-720,OK
2025-08-12 14:34,-48.85,68.6,-200.97,108.45,-720,OK
2025-08-12 14:34,-45.48,68.6,-190.06,108.45,-720,OK
2025-08-12 14:34,-42.99,68.6,-177,108.45,-720,OK
2025-08-12 14:34,-41.25,68.6,-161.04,108.45,-720,OK
2025-08-12 14:34,-40.02,68.6,-146.48,108.45,-720,OK
2025-08-12 14:34,-37.63,68.6,-131.58,108.45,-720,OK
2025-08-12 14:34,-37.34,68.6,-115.46,108.45,-720,OK
2025-08-12 14:34,-34.82,68.6,-100.49,108.45,-720,OK
2025-08-12 14:34,-30.46,68.6,-87.15,108.45,-720,OK
2025-08-12 14:34,-26.71,68.6,-73.17,108.45,-720,OK
2025-08-12 14:34,-24.71,68.6,-60.3,112.62,-720,OK
2025-08-12 14:34,-20.65,68.6,-49.1,112.62,-720,OK
2025-08-12 14:34,-17.38,68.6,-39.88,112.62,-720,OK
2025-08-12 14:34,-13.68,68.6,-30.31,112.62,-720,OK
2025-08-12 14:34,-8.06,68.6,-19.46,112.62,-720,OK
2025-08-12 14:34,5.91,68.6,-2.6,112.62,-720,OK
2025-08-12 14:34,21.42,68.6,18.15,112.62,-720,OK
2025-08-12 14:34,42.81,68.6,45.21,112.62,-720,OK
2025-08-12 14:34,68.75,68.6,78.23,112.62,-720,OK
2025-08-12 14:34,97.9,68.6,113.8,112.62,-720,OK
2025-08-12 14:34,123.43,68.6,149.74,112.62,-720,OK
2025-08-12 14:34,148.62,68.6,182.89,112.62,-720,OK
2025-08-12 14:34,167.84,69.02,212.98,112.62,-740,OK
2025-08-12 14:34,181.65,69.02,233.92,112.62,-740,OK
2025-08-12 14:34,188.51,69.02,249.24,112.62,-740,OK
2025-08-12 14:34,191.43,69.02,253.66,112.62,-740,OK
2025-08-12 14:34,189.7,69.02,249.85,112.62,-740,OK
2025-08-12 14:34,184.39,69.02,235.7,112.62,-740,OK
2025-08-12 14:34,174.81,69.02,218.15,112.62,-740,OK
2025-08-12 14:34,162.29,69.02,192.34,112.62,-740,OK
2025-08-12 14:34,148.99,69.02,161.2,112.62,-740,OK
2025-08-12 14:34,132.4,69.02,129.21,112.62,-740,OK
2025-08-12 14:34,116.47,69.02,95.49,112.62,-740,OK
2025-08-12 14:34,99.69,69.02,59.32,112.62,-740,OK
2025-08-12 14:34,84.32,69.02,24.63,112.62,-740,OK
2025-08-12 14:34,68.1,69.02,-4.4,112.62,-740,OK
2025-08-12 14:34,53.9,69.02,-33.01,112.62,-740,OK
2025-08-12 14:34,42.97,69.02,-55.58,112.62,-740,OK
2025-08-12 14:34,33.99,69.02,-74.17,112.62,-740,OK
2025-08-12 14:34,26.23,69.02,-88.03,112.62,-740,OK
2025-08-12 14:34,20.57,69.02,-100.54,112.62,-740,OK
2025-08-12 14:34,14.58,69.02,-109.36,112.62,-740,OK
2025-08-12 14:34,6.81,69.02,-115.33,112.62,-740,OK
2025-08-12 14:34,0.84,69.02,-119.39,112.62,-740,OK
2025-08-12 14:34,-6.11,69.02,-121.33,112.62,-740,OK
2025-08-12 14:34,-12.56,69.02,-123.15,112.62,-740,OK
2025-08-12 14:34,-17.34,69.02,-121.91,112.62,-740,OK
2025-08-12 14:34,-21.78,69.02,-119.53,112.62,-740,OK
2025-08-12 14:34,-25.87,69.02,-115.24,112.62,-740,OK
2025-08-12 14:34,-30.31,69.02,-110.87,112.62,-740,OK
2025-08-12 14:34,-32.62,69.02,-105.01,112.62,-740,OK
2025-08-12 14:34,-34.58,69.02,-98.21,112.62,-740,OK
2025-08-12 14:34,-37.88,69.02,-90.29,112.62,-740,OK
2025-08-12 14:34,-41.54,69.02,-82.85,112.62,-740,OK
2025-08-12 14:34,-41.86,69.02,-75.9,112.62,-740,OK
2025-08-12 14:34,-42.12,69.02,-68.3,112.62,-740,OK
2025-08-12 14:34,-41.69,69.02,-62.47,112.62,-740,OK
2025-08-12 14:34,-40.49,69.02,-59.11,112.62,-740,OK
2025-08-12 14:34,-39.66,69.02,-57.85,112.62,-740,OK
2025-08-12 14:34,-38.43,69.02,-56.02,112.62,-740,OK
2025-08-12 14:34,-39.25,69.02,-56.01,112.62,-740,OK
2025-08-12 14:34,-41.34,69.02,-55.41,112.62,-740,OK
2025-08-12 14:34,-41.94,69.02,-57.29,112.62,-740,OK
2025-08-12 14:34,-44.14,69.02,-58.13,112.62,-740,OK
2025-08-12 14:34,-48.72,69.02,-61.03,112.62,-740,OK
2025-08-12 14:34,-53.49,69.02,-61.6,112.62,-740,OK
2025-08-12 14:34,-61.05,69.02,-65.01,112.62,-740,OK
2025-08-12 14:34,-70.69,69.02,-64.26,112.62,-740,OK
2025-08-12 14:34,-79.06,69.02,-64.25,112.62,-740,OK
2025-08-12 14:34,-87.57,69.02,-63.43,112.62,-740,OK
2025-08-12 14:34,-94.77,69.02,-64.04,112.62,-740,OK
2025-08-12 14:34,-99.55,69.02,-61.76,112.62,-740,OK
2025-08-12 14:34,-101.52,69.02,-61.97,112.62,-740,OK
2025-08-12 14:34,-101.41,69.02,-59.2,112.62,-740,OK
2025-08-12 14:34,-100.3,69.02,-57.95,112.62,-740,OK
2025-08-12 14:34,-98.42,69.02,-52.94,112.62,-740,OK
2025-08-12 14:34,-94.63,69.02,-48.97,112.62,-740,OK
2025-08-12 14:34,-92.22,69.02,-42.86,112.62,-740,OK
2025-08-12 14:34,-89.05,69.02,-38.43,112.62,-740,OK
2025-08-12 14:34,-85.52,69.02,-29.87,112.62,-740,OK
2025-08-12 14:34,-84.04,69.02,-23.95,112.62,-740,OK
2025-08-12 14:34,-82.49,69.02,-17.86,112.62,-740,OK
2025-08-12 14:34,-81.18,69.02,-12.7,112.62,-740,OK
2025-08-12 14:34,-79.99,69.02,-8.2,112.62,-740,OK
2025-08-12 14:34,-77.9,69.02,-5.02,112.62,-740,OK
2025-08-12 14:34,-73.65,69.02,-4.7,112.62,-740,OK
2025-08-12 14:34,-70.75,69.02,-3.26,112.62,-740,OK
2025-08-12 14:34,-67.57,69.02,-3.6,112.62,-740,OK
2025-08-12 14:34,-66.2,69.02,-1.68,112.62,-740,OK
2025-08-12 14:34,-63.56,69.02,-1.38,112.62,-740,OK
2025-08-12 14:34,-62.17,69.02,0.72,112.62,-740,OK
2025-08-12 14:34,-61.13,69.02,2.19,112.62,-740,OK
2025-08-12 14:34,-55.94,69.02,7.1,112.62,-740,OK
2025-08-12 14:34,-47.11,69.02,13.5,112.62,-740,OK
2025-08-12 14:34,-36.33,69.02,25.96,112.62,-740,OK
2025-08-12 14:34,-21.04,69.02,46.41,112.62,-740,OK
2025-08-12 14:34,1.24,69.02,72.44,112.62,-740,OK
2025-08-12 14:34,24.51,69.02,105.71,112.62,-740,OK
2025-08-12 14:34,49.44,69.02,140.37,112.62,-740,OK
2025-08-12 14:34,73.41,69.02,174.95,112.62,-740,OK
2025-08-12 14:34,93.43,69.02,206.96,112.62,-740,OK
2025-08-12 14:34,108.29,69.02,232.08,100.27,-740,OK
2025-08-12 14:34,116.83,69.02,250.54,100.27,-740,OK
2025-08-12 14:34,118.73,69.02,260.11,100.27,-740,OK
2025-08-12 14:34,114.52,69.02,260.37,100.27,-740,OK
2025-08-12 14:34,106.31,69.02,250.85,100.27,-740,OK
2025-08-12 14:34,95.57,69.02,235.89,100.27,-740,OK
2025-08-12 14:34,82.65,69.02,211.87,100.27,-740,OK
2025-08-12 14:34,66.26,69.02,185.84,100.27,-740,OK
2025-08-12 14:34,49.71,69.02,157.85,100.27,-740,OK
2025-08-12 14:34,33.36,69.02,125.66,100.27,-740,OK
2025-08-12 14:34,16.07,69.02,92.16,100.27,-740,OK
2025-08-12 14:34,-1.3,69.02,58.61,100.27,-740,OK
2025-08-12 14:34,-16.42,69.02,25.74,100.27,-740,OK
2025-08-12 14:34,-27.15,69.02,-5.88,100.27,-740,OK
2025-08-12 14:34,-37.4,69.02,-33.11,100.27,-740,OK
2025-08-12 14:34,-45.03,69.02,-54.95,100.27,-740,OK
2025-08-12 14:34,-49.23,69.02,-73.19,100.27,-740,OK
2025-08-12 14:34,-51.66,69.02,-89.03,100.27,-740,OK
2025-08-12 14:34,-56.68,69.02,-100.26,100.27,-740,OK
2025-08-12 14:34,-59.83,69.02,-109.84,100.27,-740,OK
2025-08-12 14:34,-61.7,69.02,-117.58,100.27,-740,OK
2025-08-12 14:34,-63.88,69.02,-121.03,100.27,-740,OK
2025-08-12 14:34,-65.26,69.02,-122.19,100.27,-740,OK
2025-08-12 14:34,-64.22,69.02,-122.64,100.27,-740,OK
2025-08-12 14:34,-62.76,69.02,-118.62,100.27,-740,OK
2025-08-12 14:34,-62.91,69.02,-114.75,100.27,-740,OK
2025-08-12 14:34,-62.03,69.02,-111.26,100.27,-740,OK
2025-08-12 14:34,-60.54,69.02,-107.1,100.27,-740,OK
2025-08-12 14:34,-59.45,69.02,-102.04,100.27,-740,OK
2025-08-12 14:34,-60.08,69.02,-99.04,100.27,-740,OK
2025-08-12 14:34,-62.22,69.02,-93.75,100.27,-740,OK
2025-08-12 14:34,-64.12,69.02,-89.6,100.27,-740,OK
2025-08-12 14:34,-65.15,69.02,-85.26,100.27,-740,OK
2025-08-12 14:34,-67.64,69.02,-81.55,100.27,-740,OK
2025-08-12 14:34,-67.73,69.02,-77.4,100.27,-740,OK
2025-08-12 14:34,-65.09,69.02,-75.74,100.27,-740,OK
2025-08-12 14:34,-63.55,69.02,-74.51,100.27,-740,OK
2025-08-12 14:34,-62.84,69.02,-72.77,100.27,-740,OK
2025-08-12 14:34,-61.79,69.02,-71.61,100.27,-740,OK
2025-08-12 14:34,-59.26,69.02,-70.31,100.27,-740,OK
2025-08-12 14:34,-58.37,69.02,-68.55,100.27,-740,OK
2025-08-12 14:34,-57.78,69.02,-67.22,100.27,-740,OK
2025-08-12 14:34,-56.72,69.02,-66.1,100.27,-740,OK
2025-08-12 14:34,-52.27,69.02,-64.28,100.27,-740,OK
2025-08-12 14:34,-51.06,69.02,-64.1,100.27,-740,OK
2025-08-12 14:34,-47.32,69.02,-62.86,100.27,-740,OK
2025-08-12 14:34,-40.95,69.02,-62.36,100.27,-740,OK
2025-08-12 14:34,-33.01,69.02,-61.4,100.27,-740,OK
2025-08-12 14:34,-27.22,69.02,-59.39,100.27,-740,OK
2025-08-12 14:34,-17.11,69.02,-56.86,100.27,-740,OK
2025-08-12 14:34,-6.23,69.02,-52.76,100.27,-740,OK
2025-08-12 14:34,2.89,69.02,-46.64,100.27,-740,OK
2025-08-12 14:34,12.63,69.02,-40.29,100.27,-740,OK
2025-08-12 14:34,26.64,69.02,-33.36,100.27,-740,OK
2025-08-12 14:34,38.88,69.02,-25.66,100.27,-740,OK
2025-08-12 14:34,52,69.02,-20.02,100.27,-740,OK
2025-08-12 14:34,66.04,69.02,-13.52,100.27,-740,OK
2025-08-12 14:34,79.9,69.02,-6.19,100.27,-740,OK
2025-08-12 14:34,90.32,69.02,-0.21,100.27,-740,OK
2025-08-12 14:34,101.49,69.02,7.9,100.27,-740,OK
2025-08-12 14:34,111.53,69.02,18.23,100.27,-740,OK
2025-08-12 14:34,119.48,69.02,29.67,100.27,-740,OK
2025-08-12 14:34,127.13,69.02,37.75,100.27,-740,OK
2025-08-12 14:34,133.86,69.02,45.31,100.27,-740,OK
2025-08-12 14:34,138.94,69.02,53.4,100.27,-740,OK
2025-08-12 14:34,139.88,69.02,57.64,100.27,-740,OK
2025-08-12 14:34,140.04,69.02,61.39,100.27,-740,OK
2025-08-12 14:34,138.01,69.02,66.38,100.27,-740,OK
2025-08-12 14:34,134.74,69.02,70.67,100.27,-740,OK
2025-08-12 14:34,129.38,69.02,71.07,100.27,-740,OK
2025-08-12 14:34,128.19,69.02,75.06,100.27,-740,OK
2025-08-12 14:34,130.33,69.02,78.75,100.27,-740,OK
2025-08-12 14:34,137.2,69.02,85.77,100.27,-740,OK
2025-08-12 14:34,148.04,69.02,98.44,100.27,-740,OK
2025-08-12 14:34,163.53,69.02,115.73,100.27,-740,OK
2025-08-12 14:34,181.39,69.02,139.55,100.27,-740,OK
2025-08-12 14:34,200.41,69.02,165.57,100.27,-740,OK
2025-08-12 14:34,214.83,69.02,195.56,100.27,-740,OK
2025-08-12 14:34,229.28,69.02,222.34,100.27,-740,OK
2025-08-12 14:34,237.91,69.02,249.72,100.27,-740,OK
2025-08-12 14:34,240.6,69.02,268.22,79.98,800,OK
2025-08-12 14:34,236.82,69.02,283.82,79.98,800,OK
2025-08-12 14:34,229.4,69.02,290.01,79.98,800,OK
2025-08-12 14:34,213.78,69.02,289.69,79.98,800,OK
2025-08-12 14:34,198.73,69.02,282.65,79.98,800,OK
2025-08-12 14:34,181.42,69.02,270.19,79.98,800,OK
2025-08-12 14:34,163.88,69.02,252.39,79.98,800,OK
2025-08-12 14:34,144.54,69.02,233.04,79.98,800,OK
2025-08-12 14:34,128.61,69.02,212.04,79.98,800,OK
2025-08-12 14:34,112.42,69.02,191.6,79.98,800,OK
2025-08-12 14:34,94.32,69.02,173.43,79.98,800,OK
2025-08-12 14:34,80.33,69.02,155.35,79.98,800,OK
2025-08-12 14:34,67.89,69.02,138.33,79.98,800,OK
2025-08-12 14:34,54.16,69.02,125.9,79.98,800,OK
2025-08-12 14:34,41.45,69.02,112.07,79.98,800,OK
2025-08-12 14:34,30.53,69.02,98.13,79.98,800,OK
2025-08-12 14:34,18.28,69.02,85.5,79.98,800,OK
2025-08-12 14:34,9.24,69.02,78.87,79.98,800,OK
2025-08-12 14:34,3.39,69.02,74.36,79.98,800,OK
2025-08-12 14:34,-1.69,69.02,71.51,79.98,800,OK
2025-08-12 14:34,-4.15,69.02,70.91,79.98,800,OK
2025-08-12 14:34,-5.33,69.02,73.2,79.98,800,OK
2025-08-12 14:34,-5.63,69.02,71.99,79.98,800,OK
2025-08-12 14:34,-3.98,69.02,67.79,79.98,800,OK
2025-08-12 14:34,-1.61,69.02,63.33,79.98,800,OK
2025-08-12 14:34,0.36,69.02,59.54,79.98,800,OK
2025-08-12 14:34,2.1,69.02,54.05,79.98,800,OK
2025-08-12 14:34,3.88,69.02,45.54,79.98,800,OK
2025-08-12 14:34,3.75,69.02,34.27,79.98,800,OK
2025-08-12 14:34,1.78,69.02,18.9,79.98,800,OK
2025-08-12 14:34,0.22,69.02,0.72,79.98,800,OK
2025-08-12 14:34,-4.39,69.02,-19.9,79.98,800,OK
2025-08-12 14:34,-11.85,69.02,-43.13,79.98,800,OK
2025-08-12 14:34,-25.16,69.02,-68.76,79.98,800,OK
2025-08-12 14:34,-40.6,69.02,-92.14,79.98,800,OK
2025-08-12 14:34,-58.78,69.02,-118.7,79.98,800,OK
2025-08-12 14:34,-78.16,69.02,-145.55,79.98,800,OK
2025-08-12 14:34,-98.94,69.02,-169.52,79.98,800,OK
2025-08-12 14:34,-118.07,69.02,-192.15,79.98,800,OK
2025-08-12 14:34,-135.61,69.02,-213.6,79.98,800,OK
2025-08-12 14:34,-151.32,69.02,-231.69,79.98,800,OK
2025-08-12 14:34,-165.21,69.02,-247.73,79.98,800,OK
2025-08-12 14:34,-179.58,69.02,-263.27,79.98,800,OK
2025-08-12 14:34,-191.97,69.02,-274.06,79.98,800,OK
2025-08-12 14:34,-203.33,69.02,-284.1,79.98,800,OK
2025-08-12 14:34,-213.66,69.02,-292.19,79.98,800,OK
2025-08-12 14:34,-222.95,69.02,-298.82,79.98,800,OK
2025-08-12 14:34,-227.75,69.02,-302.82,79.98,800,OK
2025-08-12 14:34,-231.36,69.02,-305.93,79.98,800,OK
2025-08-12 14:34,-234.64,69.02,-306.85,79.98,800,OK
2025-08-12 14:34,-237.34,69.02,-306.02,79.98,800,OK
2025-08-12 14:34,-236.94,69.02,-302.53,79.98,800,OK
2025-08-12 14:34,-236.95,69.02,-296.88,79.98,800,OK
2025-08-12 14:34,-238.59,69.02,-290.9,79.98,800,OK
2025-08-12 14:34,-239.62,69.02,-281.16,79.98,800,OK
2025-08-12 14:34,-240.05,69.02,-272.1,79.98,800,OK
2025-08-12 14:34,-241.34,69.02,-262.11,79.98,800,OK
2025-08-12 14:34,-243.57,69.02,-251.42,79.98,800,OK
2025-08-12 14:34,-244.58,69.02,-239.19,79.98,800,OK
2025-08-12 14:34,-245.17,69.02,-227.49,79.98,800,OK
2025-08-12 14:34,-245.33,69.02,-212.48,79.98,800,OK
2025-08-12 14:34,-244.67,69.02,-199.71,79.98,800,OK
2025-08-12 14:34,-244.27,69.02,-188.25,79.98,800,OK
2025-08-12 14:34,-240.29,69.02,-174.52,79.98,800,OK
2025-08-12 14:34,-234.65,69.02,-162.92,79.98,800,OK
2025-08-12 14:34,-227.47,69.02,-151.68,79.98,800,OK
2025-08-12 14:34,-216.4,69.02,-137.62,79.98,800,OK
2025-08-12 14:34,-199.99,69.02,-120.32,79.98,800,OK
2025-08-12 14:34,-179.69,69.02,-100.8,79.98,800,OK
2025-08-12 14:34,-157.31,69.02,-76.35,79.98,800,OK
2025-08-12 14:34,-133.43,69.02,-49.55,79.98,800,OK
2025-08-12 14:34,-110.37,69.02,-18.24,80.88,800,OK
2025-08-12 14:34,-90.31,69.02,11.25,80.88,800,OK
2025-08-12 14:34,-75.37,64.23,36.82,80.88,-20,OK
2025-08-12 14:34,-64.4,64.23,57.99,80.88,-20,OK
2025-08-12 14:34,-58.95,64.23,72.59,80.88,-20,OK
2025-08-12 14:34,-61.69,64.23,74.48,80.88,-20,OK
2025-08-12 14:34,-69.44,64.23,67.54,80.88,-20,OK
2025-08-12 14:34,-80.96,64.23,48.69,80.88,-20,OK
2025-08-12 14:34,-97,64.23,21.21,80.88,-20,OK
2025-08-12 14:34,-112.56,64.23,-14.22,80.88,-20,OK
2025-08-12 14:34,-128.38,64.23,-54.35,80.88,-20,OK
2025-08-12 14:34,-140.65,64.23,-96.79,80.88,-20,OK
2025-08-12 14:34,-152.59,64.23,-136.23,80.88,-20,OK
2025-08-12 14:34,-162.59,64.23,-176.39,80.88,-20,OK
2025-08-12 14:34,-169.12,64.23,-212.35,80.88,-20,OK
2025-08-12 14:34,-174.02,64.23,-241.36,80.88,-20,OK
2025-08-12 14:34,-178.38,64.23,-262.68,80.88,-20,OK
2025-08-12 14:34,-178.91,64.23,-279.45,80.88,-20,OK
2025-08-12 14:34,-177.12,64.23,-287.47,80.88,-20,OK
2025-08-12 14:34,-175.41,64.23,-289.71,80.88,-20,OK
2025-08-12 14:34,-171.42,64.23,-285.45,80.88,-20,OK
2025-08-12 14:34,-166.82,64.23,-277.74,80.88,-20,OK
2025-08-12 14:34,-161.22,64.23,-262.56,80.88,-20,OK
2025-08-12 14:34,-151.17,64.23,-242.04,80.88,-20,OK
2025-08-12 14:34,-140.34,64.23,-217.01,80.88,-20,OK
2025-08-12 14:34,-126.11,64.23,-188.62,80.88,-20,OK
2025-08-12 14:34,-110.43,64.23,-155.93,80.88,-20,OK
2025-08-12 14:34,-92.27,64.23,-123.59,80.88,-20,OK
2025-08-12 14:34,-76.8,64.23,-90.59,80.88,-20,OK
2025-08-12 14:34,-59.19,64.23,-56.95,80.88,-20,OK
2025-08-12 14:34,-43.07,64.23,-26.37,80.88,-20,OK
2025-08-12 14:34,-26.75,64.23,3.24,80.88,-20,OK
2025-08-12 14:34,-11.83,64.23,31.45,80.88,-20,OK
2025-08-12 14:34,3.67,64.23,55.19,80.88,-20,OK
2025-08-12 14:34,16.2,64.23,75.59,99.74,-20,OK
2025-08-12 14:34,28.57,64.23,90.83,99.74,-20,OK
2025-08-12 14:34,39.39,90.77,102.28,99.74,-20,OK
2025-08-12 14:34,49.4,90.77,109.96,99.74,-20,OK
2025-08-12 14:34,59.61,90.77,114.68,99.74,-20,OK
2025-08-12 14:34,68.95,90.77,114.42,99.74,-20,OK
2025-08-12 14:34,77.66,90.77,114.72,99.74,-20,OK
2025-08-12 14:34,87.22,90.77,110.82,99.74,-20,OK
2025-08-12 14:34,94.12,90.77,104.89,99.74,-20,OK
2025-08-12 14:34,99.02,90.77,100.44,99.74,-20,OK
2025-08-12 14:34,103.53,90.77,96.42,99.74,-20,OK
2025-08-12 14:34,107.44,90.77,92.58,99.74,-20,OK
2025-08-12 14:34,108.58,90.77,87.63,99.74,-20,OK
2025-08-12 14:34,110.29,90.77,83.77,99.74,-20,OK
2025-08-12 14:34,112.08,90.77,78.61,99.74,-20,OK
2025-08-12 14:34,113.92,90.77,73.91,99.74,-20,OK
2025-08-12 14:34,114.66,90.77,69.47,99.74,-20,OK
2025-08-12 14:34,115.57,90.77,65.41,99.74,-20,OK
2025-08-12 14:34,115.69,90.77,62.59,99.74,-20,OK
2025-08-12 14:34,117.25,90.77,60.54,99.74,-20,OK
2025-08-12 14:34,117.81,90.77,59.62,99.74,-20,OK
2025-08-12 14:34,118.8,90.77,57.78,99.74,-20,OK
2025-08-12 14:34,118.85,90.77,59.2,99.74,-20,OK
2025-08-12 14:34,119.16,90.77,60.8,99.74,-20,OK
2025-08-12 14:34,118.83,90.77,61.76,99.74,-20,OK
2025-08-12 14:34,118.1,90.77,61.75,99.74,-20,OK
2025-08-12 14:34,117.02,90.77,64.14,99.74,-20,OK
2025-08-12 14:34,119.33,90.77,61.05,99.74,-20,OK
