t_ms,phase,red_raw,ir_raw,red_dc,ir_dc,red_ac,ir_ac,OD_red,OD_ir,R,spo2,spo2_valid
10,0,83026,148501,1660.52,2970.02,81365.48,145530.98,0,0,nan,nan,0
48,0,206650,241052,5760.31,7731.66,200889.68,233320.34,0,0,nan,nan,0
88,0,215272,240283,9950.54,12382.69,205321.45,227900.31,0,0,nan,nan,0
128,0,215004,239815,14051.61,16931.33,200952.39,222883.67,0,0,nan,nan,0
168,0,214872,239696,18068.02,21386.63,196803.98,218309.37,0,0,nan,nan,0
208,0,214900,239789,22004.66,25754.67,192895.34,214034.32,0,0,nan,nan,0
248,0,214907,239907,25862.71,30037.72,189044.29,209869.28,0,0,nan,nan,0
287,0,214956,240057,29644.58,34238.1,185311.42,205818.89,0,0,1.047355,83.82,1
329,0,215047,240199,33352.62,38357.32,181694.37,201841.67,0,0,1.042294,83.94,1
369,0,215123,240331,36988.03,42396.8,178134.96,197934.2,0,0,1.038189,84.05,1
409,0,215199,240529,40552.25,46359.44,174646.75,194169.56,0,0,1.03477,84.13,1
449,0,215284,240827,44046.89,50248.8,171237.1,190578.2,0,0,1.031847,84.2,1
488,0,215429,241159,47474.53,54067,167954.46,187092,0,0,1.029326,84.27,1
529,0,215575,241428,50836.54,57814.22,164738.45,183613.78,0,0,1.027147,84.32,1
569,0,215697,241677,54133.75,61491.47,161563.25,180185.53,0,0,1.02524,84.37,1
609,0,215794,241865,57366.96,65098.94,158427.04,176766.06,0,0,1.023565,84.41,1
649,0,215851,242070,60536.64,68638.37,155314.35,173431.62,0,0,1.022065,84.45,1
690,0,215912,241885,63644.14,72103.31,152267.85,169781.68,0,0,1.020805,84.48,1
729,0,215686,241181,66684.99,75484.86,149001.01,165696.14,0,0,1.019782,84.51,1
769,0,215481,240729,69660.91,78789.75,145820.09,161939.25,0,0,1.018901,84.53,1
808,0,215355,240614,72574.79,82026.23,142780.21,158587.78,0,0,1.018087,84.55,1
848,0,215366,240743,75430.62,85200.57,139935.37,155542.43,0,0,1.017317,84.57,1
889,0,215416,240865,78230.33,88313.85,137185.67,152551.15,0,0,1.016596,84.59,1
928,0,215465,240917,80975.03,91365.92,134489.96,149551.07,0,0,1.015933,84.6,1
968,0,215500,240943,83665.53,94357.46,131834.46,146585.53,0,0,1.015324,84.62,1
1008,0,215531,241054,86302.83,97291.39,129228.17,143762.6,0,0,1.014745,84.63,1
1048,0,215614,241257,88889.06,100170.71,126724.95,141086.29,0,0,1.014191,84.65,1
1089,0,215664,241325,91424.56,102993.79,124239.45,138331.21,0,0,1.013675,84.66,1
1128,0,215676,241366,93909.59,105761.24,121766.42,135604.76,0,0,1.013191,84.67,1
1168,0,215706,241441,96345.52,108474.83,119360.49,132966.17,0,0,1.012735,84.68,1
1208,0,215726,241489,98733.14,111135.12,116992.87,130353.89,0,0,1.012305,84.69,1
1249,0,215712,241535,101072.71,113743.12,114639.29,127791.89,0,0,1.011894,84.7,1
1288,0,215715,241534,103365.56,116298.94,112349.45,125235.07,0,0,1.011511,84.71,1
1328,0,215614,240785,105610.53,118788.67,110003.48,121996.34,0,0,1.011236,84.72,1
1369,0,215173,239775,107801.78,121208.39,107371.23,118566.61,0,0,1.011038,84.72,1
1408,0,214809,239191,109941.92,123568.05,104867.08,115622.96,0,0,1.010862,84.73,1
1447,0,214626,239014,112035.61,125876.97,102590.39,113137.03,0,0,1.010683,84.73,1
1488,0,214549,238930,114085.88,128138.03,100463.13,110791.97,0,0,1.010505,84.74,1
1528,0,214501,238965,116094.18,130354.57,98406.82,108610.43,0,0,1.010318,84.74,1
1567,0,214516,238928,118062.62,132526.04,96453.39,106401.96,0,0,1.01014,84.75,1
1607,0,214475,238872,119990.87,134652.96,94484.14,104219.03,0,0,1.009966,84.75,1
1648,0,214445,238924,121879.96,136738.39,92565.05,102185.61,0,0,1.009785,84.76,1
1687,0,214469,239095,123731.75,138785.53,90737.26,100309.47,0,0,1.009593,84.76,1
1727,0,214564,239329,125548.39,140796.4,89015.61,98532.6,0,0,1.009393,84.77,1
1767,0,214655,239564,127330.53,142771.76,87324.48,96792.24,0,0,1.009186,84.77,1
1808,0,214744,239758,129078.8,144711.48,85665.21,95046.52,0,0,1.008978,84.78,1
1848,0,214784,239907,130792.91,146615.39,83991.1,93291.61,0,0,1.008769,84.78,1
1887,0,214846,240116,132473.96,148485.39,82372.03,91630.61,0,0,1.008554,84.79,1
1927,0,214910,239995,134122.68,150315.59,80787.32,89679.41,0,0,1.008368,84.79,1
1968,0,214658,238926,135733.39,152087.79,78924.61,86838.21,0,0,1.008262,84.79,1
2008,0,214135,237797,137301.42,153801.98,76833.58,83995.02,0,0,1.008204,84.79,1
2046,0,213740,237228,138830.18,155470.51,74909.82,81757.49,0,0,1.008151,84.8,1
2086,0,213546,236962,140324.51,157100.34,73221.49,79861.66,0,0,1.008096,84.8,1
2127,0,213397,236747,141785.96,158693.28,71611.03,78053.72,0,0,1.00804,84.8,1
2167,0,213296,236625,143216.17,160251.92,70079.83,76373.08,0,0,1.00798,84.8,1
2207,0,213233,236530,144616.5,161777.48,68616.5,74752.52,0,0,1.007918,84.8,1
2246,0,213169,236435,145987.54,163270.64,67181.46,73164.36,0,0,1.007853,84.8,1
2286,0,213145,236509,147330.7,164735.4,65814.3,71773.6,0,0,1.007777,84.81,1
2327,0,213150,236586,148647.09,166172.42,64502.91,70413.58,0,0,1.007693,84.81,1
2367,0,213221,236799,149938.57,167584.96,63282.42,69214.03,0,0,1.007597,84.81,1
2407,0,213327,237008,151206.35,168973.42,62120.64,68034.58,0,0,1.007494,84.81,1
2446,0,213398,237220,152450.18,170338.35,60947.81,66881.64,0,0,1.007382,84.82,1
2486,0,213491,237469,153671,171680.96,59820,65788.03,0,0,1.00726,84.82,1
2527,0,213592,237757,154869.42,173002.5,58722.58,64754.5,0,0,1.007128,84.82,1
2567,0,213710,237594,156046.23,174294.32,57663.76,63299.67,0,0,1.007021,84.82,1
2606,0,213407,236401,157193.45,175536.45,56213.55,60864.55,0,0,1.006974,84.83,1
2646,0,212896,235433,158307.51,176734.39,54588.48,58698.61,0,0,1.00695,84.83,1
2686,0,212632,235155,159394.01,177902.79,53237.98,57252.2,0,0,1.006917,84.83,1
2726,0,212594,235078,160458.01,179046.31,52135.98,56031.69,0,0,1.006882,84.83,1
2766,0,212587,234946,161500.59,180164.31,51086.41,54781.69,0,0,1.00685,84.83,1
2805,0,212579,234885,162522.15,181258.73,50056.84,53626.26,0,0,1.006816,84.83,1
2845,0,212577,234874,163523.26,182331.04,49053.73,52542.95,0,0,1.006778,84.83,1
2886,0,212582,234916,164504.43,183382.73,48077.56,51533.26,0,0,1.006734,84.83,1
2926,0,212613,235148,165466.62,184418.03,47146.37,50729.97,0,0,1.006673,84.83,1
2966,0,212794,235538,166413.17,185440.43,46380.83,50097.56,0,0,1.006598,84.84,1
3005,0,212987,235976,167344.64,186451.14,45642.36,49524.86,0,0,1.00651,84.84,1
3046,0,213194,236410,168261.62,187450.32,44932.37,48959.67,0,0,1.006409,84.84,1
3086,0,213365,236799,169163.68,188437.31,44201.31,48361.69,0,0,1.006298,84.84,1
3126,0,213527,237054,170050.96,189409.64,43476.03,47644.36,0,0,1.006184,84.85,1
3166,0,213648,237386,170922.9,190369.17,42725.09,47016.83,0,0,1.006061,84.85,1
3205,0,213794,237298,171780.32,191307.75,42013.67,45990.25,0,0,1.005955,84.85,1
3246,0,213554,236307,172615.79,192207.73,40938.2,44099.26,0,0,1.005893,84.85,1
3286,0,213128,235401,173426.04,193071.59,39701.95,42329.41,0,0,1.005851,84.85,1
3325,0,212935,235239,174216.23,193914.95,38718.76,41324.05,0,0,1.005802,84.85,1
3364,0,213005,235387,174992,194744.39,38013,40642.61,0,0,1.005747,84.86,1
3405,0,213117,235625,175754.5,195562,37362.5,40063,0,0,1.005685,84.86,1
3445,0,213272,235982,176504.84,196370.4,36767.16,39611.59,0,0,1.005611,84.86,1
3485,0,213417,236289,177243.09,197168.78,36173.91,39120.22,0,0,1.00553,84.86,1
3525,0,213560,236629,177969.43,197957.98,35590.56,38671.01,0,0,1.005439,84.86,1
3564,0,213750,237080,178685.04,198740.42,35064.95,38339.58,0,0,1.005337,84.87,1
3605,0,214003,237701,179391.4,199519.64,34611.59,38181.36,0,0,1.00522,84.87,1
3645,0,214282,238240,180089.21,200294.04,34192.78,37945.95,0,0,1.005093,84.87,1
3685,0,214462,238622,180776.67,201060.6,33685.33,37561.39,0,0,1.004961,84.88,1
3726,0,214581,238904,181452.76,201817.48,33128.23,37086.51,0,0,1.004826,84.88,1
3764,0,214689,239127,182117.5,202563.68,32571.5,36563.31,0,0,1.004691,84.88,1
3805,0,214795,239298,182771.06,203298.37,32023.94,35999.62,0,0,1.004557,84.89,1
3845,0,214786,238856,183411.35,204009.53,31374.64,34846.47,0,0,1.00445,84.89,1
3885,0,214373,237603,184030.59,204681.4,30342.41,32921.59,0,0,1.004384,84.89,1
3926,0,213879,236561,184627.56,205319,29251.44,31242,0,0,1.004341,84.89,1
3964,0,213578,236154,185206.57,205935.7,28371.42,30218.3,0,0,1.004298,84.89,1
4004,0,213484,235972,185772.12,206536.43,27711.88,29435.56,0,0,1.004257,84.89,1
4044,0,213421,235999,186325.1,207125.7,27095.89,28873.3,0,0,1.00421,84.89,1
4084,0,213424,236121,186867.09,207705.6,26556.91,28415.39,0,0,1.004156,84.9,1
4125,0,213444,236222,187398.62,208275.93,26045.38,27946.06,0,0,1.004098,84.9,1
4164,0,213511,236411,187920.87,208838.64,25590.13,27572.36,0,0,1.004035,84.9,1
4204,0,213637,236769,188435.2,209397.25,25201.8,27371.75,0,0,1.003963,84.9,1
4244,0,213834,237330,188943.18,209955.9,24890.81,27374.09,0,0,1.003877,84.9,1
4285,0,214068,237965,189445.68,210516.09,24622.31,27448.91,0,0,1.003777,84.91,1
4325,0,214341,238624,189943.59,211078.26,24397.41,27545.74,0,0,1.003665,84.91,1
4364,0,214613,239230,190436.98,211641.29,24176.02,27588.7,0,0,1.003543,84.91,1
4404,0,214890,239831,190926.04,212205.09,23963.95,27625.91,0,0,1.003412,84.91,1
4444,0,215124,240164,191410.01,212764.28,23713.99,27399.72,0,0,1.003283,84.92,1
4485,0,215052,239531,191882.85,213299.62,23169.14,26231.38,0,0,1.003184,84.92,1
4524,0,214746,238824,192340.12,213810.12,22405.88,25013.88,0,0,1.003105,84.92,1
4563,0,214577,238565,192784.87,214305.21,21792.13,24259.78,0,0,1.00303,84.92,1
4603,0,214572,238651,193220.62,214792.14,21351.38,23858.86,0,0,1.002954,84.93,1
4644,0,214610,238776,193648.42,215271.81,20961.58,23504.19,0,0,1.002876,84.93,1
4684,0,214636,238897,194068.17,215744.31,20567.83,23152.69,0,0,1.002798,84.93,1
4723,0,214647,238925,194479.75,216207.93,20167.25,22717.06,0,0,1.002721,84.93,1
4763,0,214670,238929,194883.56,216662.35,19786.44,22266.64,0,0,1.002648,84.93,1
4803,0,214676,239029,195279.4,217109.68,19396.59,21919.31,0,0,1.002573,84.94,1
4844,0,214720,239250,195668.23,217552.5,19051.77,21697.5,0,0,1.002494,84.94,1
4884,0,214813,239553,196051.14,217992.51,18761.86,21560.49,0,0,1.002411,84.94,1
4923,0,214936,239866,196428.84,218429.98,18507.16,21436.02,0,0,1.002323,84.94,1
4963,0,215045,240129,196801.17,218863.96,18243.83,21265.03,0,0,1.002234,84.94,1
5004,0,215155,240366,197168.25,219294,17986.75,21072,0,0,1.002144,84.95,1
5044,0,215238,240606,197529.65,219720.25,17708.34,20885.75,-0.001831,-0.001942,1.002053,84.95,1
5084,0,215277,240389,197884.6,220133.62,17392.39,20255.38,-0.003627,-0.003821,1.001975,84.95,1
5124,0,215007,239525,198227.06,220521.45,16779.94,19003.55,-0.005356,-0.005582,1.001923,84.95,1
5164,0,214715,239015,198556.82,220891.32,16158.17,18123.67,-0.007018,-0.007258,1.001879,84.95,1
5203,0,214660,238979,198878.9,221253.07,15781.09,17725.92,-0.008639,-0.008894,1.001835,84.95,1
5243,0,214665,239046,199194.62,221608.93,15470.37,17437.06,-0.010225,-0.010501,1.001791,84.96,1
5284,0,214691,239145,199504.54,221959.67,15186.45,17185.33,-0.01178,-0.012082,1.001745,84.96,1
5323,0,214744,239279,199809.32,222306.06,14934.67,16972.94,-0.013306,-0.013642,1.001699,84.96,1
5362,0,214787,239298,200108.87,222645.9,14678.12,16652.09,-0.014804,-0.015169,1.001656,84.96,1
5403,0,214822,239330,200403.14,222979.59,14418.86,16350.41,-0.016274,-0.016667,1.001614,84.96,1
5443,0,214830,239397,200691.67,223307.93,14138.33,16089.06,-0.017712,-0.018138,1.001571,84.96,1
5483,0,214892,239602,200975.68,223633.82,13916.31,15968.17,-0.019127,-0.019597,1.001526,84.96,1
5523,0,214972,239757,201255.6,223956.29,13716.39,15800.7,-0.020518,-0.021038,1.00148,84.96,1
5564,0,215015,239768,201530.79,224272.53,13484.2,15495.47,-0.021885,-0.022449,1.001438,84.96,1
5603,0,215009,239757,201800.37,224582.21,13208.62,15174.78,-0.023222,-0.023829,1.001397,84.97,1
5643,0,215006,239753,202064.5,224885.64,12941.5,14867.36,-0.02453,-0.025179,1.001358,84.97,1
5683,0,214998,239770,202323.17,225183.34,12674.83,14586.66,-0.025809,-0.026502,1.00132,84.97,1
5723,0,214923,239088,202575.17,225461.45,12347.83,13626.55,-0.027054,-0.027736,1.001302,84.97,1
5764,0,214385,237451,202811.37,225701.25,11573.62,11749.75,-0.028219,-0.028799,1.001312,84.97,1
5803,0,213764,236225,203030.43,225911.73,10733.56,10313.27,-0.029298,-0.029731,1.00133,84.97,1
5843,0,213403,235616,203237.89,226105.81,10165.11,9510.19,-0.03032,-0.03059,1.001348,84.97,1
5882,0,213175,235251,203436.64,226288.71,9738.36,8962.28,-0.031297,-0.031398,1.001364,84.97,1
5923,0,213034,235043,203628.59,226463.81,9405.41,8579.19,-0.03224,-0.032172,1.001377,84.97,1
5962,0,212954,234884,203815.1,226632.21,9138.89,8251.78,-0.033156,-0.032915,1.001388,84.97,1
6003,0,212879,234700,203996.39,226793.57,8882.61,7906.42,-0.034045,-0.033627,1.001397,84.97,1
6042,0,212807,234657,204172.6,226950.84,8634.39,7706.16,-0.034908,-0.03432,1.001401,84.96,1
6083,0,212828,234808,204345.71,227107.98,8482.28,7700.02,-0.035756,-0.035012,1.0014,84.96,1
6122,0,212913,235066,204517.07,227267.14,8395.92,7798.86,-0.036594,-0.035713,1.001394,84.97,1
6163,0,213036,235306,204687.45,227427.92,8348.55,7878.08,-0.037427,-0.03642,1.001384,84.97,1
6202,0,213133,235519,204856.35,227589.75,8276.64,7929.25,-0.038252,-0.037131,1.001371,84.97,1
6243,0,213226,235696,205023.75,227751.87,8202.25,7944.12,-0.039068,-0.037843,1.001354,84.97,1
6282,0,213272,235846,205188.71,227913.76,8083.28,7932.23,-0.039873,-0.038554,1.001335,84.97,1
6323,0,213333,235946,205351.6,228074.42,7981.39,7871.58,-0.040666,-0.039259,1.001314,84.97,1
6362,0,213222,234929,205509.01,228211.51,7712.98,6717.48,-0.041432,-0.03986,1.001307,84.97,1
6403,0,212680,233428,205652.43,228315.85,7027.56,5112.14,-0.04213,-0.040317,1.001306,84.97,1
6441,0,212212,232744,205783.62,228404.42,6428.37,4339.58,-0.042768,-0.040705,1.0013,84.97,1
6482,0,212122,232612,205910.39,228488.57,6211.61,4123.42,-0.043384,-0.041073,1.001289,84.97,1
6521,0,212131,232608,206034.81,228570.96,6096.19,4037.03,-0.043988,-0.041433,1.001275,84.97,1
6562,0,212165,232412,206157.42,228647.78,6007.58,3764.22,-0.044583,-0.041769,1.00126,84.97,1
6601,0,212023,231682,206274.73,228708.46,5748.27,2973.53,-0.045151,-0.042035,1.001244,84.97,1
6642,0,211702,230826,206383.29,228750.81,5318.7,2075.19,-0.045678,-0.04222,1.001222,84.97,1
6681,0,211390,230167,206483.43,228779.14,4906.56,1387.86,-0.046163,-0.042344,1.001194,84.97,1
6722,0,211204,229830,206577.84,228800.15,4626.16,1029.84,-0.04662,-0.042436,1.001157,84.97,1
6761,0,211152,229724,206669.34,228818.64,4482.66,905.36,-0.047063,-0.042516,1.001116,84.97,1
6802,0,211154,229686,206759.03,228835.98,4394.97,850.02,-0.047497,-0.042592,1.001069,84.97,1
6841,0,211167,229550,206847.2,228850.26,4319.8,699.73,-0.047923,-0.042655,1.001019,84.97,1
6882,0,211029,229167,206930.84,228856.6,4098.16,310.39,-0.048327,-0.042682,1.000962,84.98,1
6921,0,210926,229091,207010.75,228861.29,3915.25,229.7,-0.048713,-0.042703,1.000899,84.98,1
6962,0,210835,228297,207087.23,228850.01,3747.77,-553.02,-0.049083,-0.042654,1.000829,84.98,1
7001,0,210256,226407,207150.62,228801.15,3105.37,-2394.16,-0.049389,-0.04244,1.000736,84.98,1
7042,0,209659,225396,207200.78,228733.06,2458.22,-3337.06,-0.049631,-0.042142,1.000622,84.98,1
7081,0,209503,225369,207246.82,228665.78,2256.17,-3296.78,-0.049853,-0.041848,1.000501,84.99,1
7121,0,209589,225626,207293.67,228604.98,2295.33,-2978.98,-0.050079,-0.041582,1.000379,84.99,1
7161,0,209742,226004,207342.64,228552.96,2399.36,-2548.97,-0.050315,-0.041355,1.000258,84.99,1
7201,0,209902,226363,207393.84,228509.17,2508.16,-2146.17,-0.050562,-0.041163,1.000137,85,1
7241,0,210103,226713,207448.03,228473.26,2654.97,-1760.27,-0.050823,-0.041006,1.000016,85,1
7280,0,210239,226936,207503.85,228442.51,2735.14,-1506.52,-0.051093,-0.040871,0.999895,85,1
7321,0,210381,227340,207561.4,228420.46,2819.59,-1080.47,-0.05137,-0.040775,0.999774,85.01,1
7361,0,210580,227742,207621.78,228406.9,2958.22,-664.91,-0.051661,-0.040715,0.999654,85.01,1
7401,0,210770,228228,207684.75,228403.32,3085.25,-175.33,-0.051964,-0.0407,0.999534,85.01,1
7440,0,211021,228783,207751.48,228410.92,3269.52,372.08,-0.052285,-0.040733,0.999416,85.01,1
7481,0,211238,229376,207821.21,228430.21,3416.78,945.78,-0.052621,-0.040817,0.999298,85.02,1
7520,0,211476,229959,207894.31,228460.81,3581.69,1498.19,-0.052972,-0.040951,0.999179,85.02,1
7561,0,211689,230390,207970.21,228499.39,3718.78,1890.61,-0.053337,-0.04112,0.999061,85.02,1
7600,0,211699,229472,208044.79,228518.84,3654.2,953.16,-0.053696,-0.041205,0.998945,85.03,1
7641,0,211146,228059,208106.82,228509.65,3039.17,-450.66,-0.053994,-0.041165,0.998819,85.03,1
7680,0,210781,227568,208160.32,228490.82,2620.67,-922.83,-0.054251,-0.041083,0.998685,85.03,1
7720,0,210739,227689,208211.9,228474.79,2527.09,-785.8,-0.054499,-0.041013,0.998548,85.04,1
7760,0,210853,227873,208264.73,228462.76,2588.27,-589.77,-0.054753,-0.04096,0.998411,85.04,1
7800,0,210942,228134,208318.28,228456.18,2623.72,-322.19,-0.05501,-0.040931,0.998274,85.04,1
7840,0,211052,228323,208372.96,228453.51,2679.03,-130.52,-0.055272,-0.040919,0.998137,85.05,1
7880,0,211121,228533,208427.93,228455.1,2693.06,77.89,-0.055536,-0.040926,0.997999,85.05,1
7920,0,211243,228864,208484.23,228463.29,2758.77,400.7,-0.055806,-0.040962,0.997862,85.05,1
7959,0,211415,229283,208542.84,228479.68,2872.16,803.31,-0.056087,-0.041034,0.997725,85.06,1
8000,0,211568,229651,208603.34,228503.1,2964.66,1147.89,-0.056377,-0.041137,0.997589,85.06,1
8039,0,211753,230077,208666.34,228534.59,3086.66,1542.41,-0.056679,-0.041274,0.997452,85.06,1
8080,0,211888,230518,208730.78,228574.26,3157.22,1943.73,-0.056988,-0.041448,0.997315,85.07,1
8121,0,212055,231057,208797.26,228623.92,3257.73,2433.08,-0.057306,-0.041665,0.997176,85.07,1
8160,0,212250,231623,208866.32,228683.9,3383.67,2939.09,-0.057637,-0.041927,0.997035,85.07,1
8201,0,212474,232152,208938.48,228753.28,3535.52,3398.72,-0.057982,-0.042231,0.996893,85.08,1
8240,0,212529,231624,209010.29,228810.7,3518.7,2813.3,-0.058326,-0.042482,0.996759,85.08,1
8281,0,212124,230382,209072.57,228842.14,3051.42,1539.86,-0.058624,-0.042619,0.99663,85.08,1
8320,0,211757,229983,209126.26,228864.95,2630.73,1118.05,-0.058881,-0.042719,0.996497,85.09,1
8360,0,211797,230227,209179.68,228892.2,2617.31,1334.8,-0.059136,-0.042838,0.996364,85.09,1
8399,0,211900,230506,209234.09,228924.48,2665.91,1581.52,-0.059396,-0.042979,0.99623,85.09,1
8440,0,212009,230670,209289.59,228959.4,2719.41,1710.59,-0.059662,-0.043131,0.996098,85.1,1
8479,0,212056,230783,209344.93,228995.87,2711.06,1787.13,-0.059926,-0.043291,0.995965,85.1,1
8520,0,212091,230867,209399.85,229033.31,2691.14,1833.69,-0.060188,-0.043454,0.995833,85.1,1
8559,0,212136,231094,209454.57,229074.53,2681.42,2019.47,-0.060449,-0.043634,0.9957,85.11,1
8600,0,212300,231514,209511.48,229123.32,2788.52,2390.67,-0.060721,-0.043847,0.995567,85.11,1
8639,0,212490,232070,209571.06,229182.26,2918.94,2887.73,-0.061005,-0.044104,0.995432,85.11,1
8680,0,212740,232725,209634.43,229253.12,3105.56,3471.87,-0.061308,-0.044413,0.995293,85.12,1
8719,0,212969,233358,209701.12,229335.21,3267.87,4022.78,-0.061626,-0.044772,0.995149,85.12,1
8760,0,213194,233930,209770.98,229427.1,3423.02,4502.89,-0.061959,-0.045172,0.995001,85.12,1
8799,0,213392,234417,209843.4,229526.92,3548.59,4890.08,-0.062304,-0.045607,0.99485,85.13,1
8840,0,213582,234834,209918.18,229633.06,3663.81,5200.94,-0.06266,-0.046069,0.994696,85.13,1
8879,0,213601,234306,209991.84,229726.53,3609.16,4579.47,-0.063011,-0.046476,0.994559,85.14,1
8920,0,213217,233347,210056.35,229798.93,3160.64,3548.06,-0.063318,-0.046791,0.994436,85.14,1
8958,0,212977,233102,210114.78,229865.01,2862.22,3236.98,-0.063597,-0.047079,0.994314,85.14,1
8999,0,213049,233400,210173.46,229935.71,2875.53,3464.28,-0.063876,-0.047386,0.99419,85.15,1
9038,0,213200,233787,210234,230012.75,2966,3774.25,-0.064164,-0.047721,0.994065,85.15,1
9079,0,213342,234103,210296.17,230094.56,3045.83,4008.44,-0.064459,-0.048077,0.993938,85.15,1
9118,0,213431,234342,210358.87,230179.51,3072.12,4162.48,-0.064758,-0.048446,0.993811,85.15,1
9159,0,213478,234469,210421.26,230265.31,3056.73,4203.69,-0.065054,-0.048819,0.993685,85.16,1
9198,0,213514,234577,210483.12,230351.56,3030.87,4225.44,-0.065348,-0.049193,0.99356,85.16,1
9239,0,213603,234839,210545.53,230441.31,3057.47,4397.69,-0.065644,-0.049583,0.993434,85.16,1
9278,0,213714,235166,210608.9,230535.79,3105.09,4630.2,-0.065946,-0.049993,0.993306,85.17,1
9319,0,213853,235534,210673.79,230635.75,3179.2,4898.25,-0.066253,-0.050426,0.993174,85.17,1
9358,0,213969,235871,210739.7,230740.46,3229.3,5130.53,-0.066566,-0.05088,0.99304,85.17,1
9399,0,214110,236216,210807.1,230849.96,3302.89,5366.03,-0.066886,-0.051355,0.992903,85.18,1
9438,0,214244,236508,210875.84,230963.12,3368.16,5544.87,-0.067212,-0.051845,0.992765,85.18,1
9479,0,214353,236569,210945.39,231075.23,3407.61,5493.77,-0.067542,-0.05233,0.992632,85.18,1
9518,0,214161,235615,211009.7,231166.03,3151.3,4448.97,-0.067847,-0.052723,0.992525,85.19,1
9559,0,213763,234756,211064.78,231237.84,2698.22,3518.16,-0.068108,-0.053033,0.992433,85.19,1
9597,0,213573,234389,211114.93,231300.87,2458.06,3088.12,-0.068345,-0.053306,0.992346,85.19,1
9638,0,213473,234071,211162.09,231356.28,2310.91,2714.72,-0.068569,-0.053546,0.992264,85.19,1
9677,0,213305,233624,211204.95,231401.64,2100.05,2222.36,-0.068772,-0.053742,0.992188,85.2,1
9718,0,213095,233196,211242.76,231437.53,1852.23,1758.47,-0.068951,-0.053897,0.992113,85.2,1
9757,0,212920,232764,211276.32,231464.06,1643.67,1299.94,-0.069109,-0.054011,0.992042,85.2,1
9798,0,212721,232401,211305.23,231482.79,1415.77,918.2,-0.069246,-0.054092,0.99197,85.2,1
9837,0,212611,232184,211331.35,231496.81,1279.64,687.19,-0.06937,-0.054153,0.991899,85.2,1
9878,0,212564,232237,211356.01,231511.6,1207.98,725.39,-0.069487,-0.054217,0.991827,85.2,1
9918,0,212637,232467,211381.64,231530.71,1255.36,936.28,-0.069608,-0.054299,0.991755,85.21,1
9957,0,212708,232656,211408.17,231553.23,1299.83,1102.77,-0.069733,-0.054397,0.991684,85.21,1
9998,0,212777,232864,211435.56,231579.45,1341.44,1284.55,-0.069863,-0.05451,0.991612,85.21,1
10037,0,212907,233198,211465,231611.82,1442,1586.17,-0.070002,-0.054649,0.991539,85.21,1
10078,0,213110,233725,211497.9,231654.09,1612.09,2070.91,-0.070158,-0.054832,0.991464,85.21,1
10117,0,213362,233646,211535.18,231693.93,1826.81,1952.06,-0.070334,-0.055004,0.991394,85.22,1
10158,0,213216,233050,211568.79,231721.06,1647.2,1328.94,-0.070493,-0.055121,0.991329,85.22,1
10198,0,213146,233139,211600.34,231749.42,1545.66,1389.58,-0.070642,-0.055243,0.991263,85.22,1
10237,0,213358,233682,211635.5,231788.07,1722.5,1893.92,-0.070808,-0.05541,0.991195,85.22,1
10277,0,213642,234269,211675.64,231837.7,1966.36,2431.3,-0.070998,-0.055624,0.991123,85.22,1
10317,0,213890,234967,211719.92,231900.29,2170.08,3066.7,-0.071207,-0.055894,0.991044,85.22,1
10357,0,214164,235637,211768.81,231975.03,2395.19,3661.97,-0.071438,-0.056216,0.990957,85.23,1
10397,0,214404,236240,211821.51,232060.32,2582.48,4179.67,-0.071687,-0.056584,0.99086,85.23,1
10437,0,214682,237287,211878.73,232164.85,2803.27,5122.14,-0.071957,-0.057034,0.990739,85.23,1
10477,0,215181,238659,211944.78,232294.75,3236.22,6364.25,-0.072268,-0.057594,0.990579,85.24,1
10517,0,215679,239956,212019.46,232447.98,3659.53,7508.02,-0.072621,-0.058253,0.990375,85.24,1
10558,0,216069,240915,212100.45,232617.32,3968.55,8297.67,-0.073003,-0.058981,0.990138,85.25,1
10597,0,216412,241829,212186.68,232801.56,4225.31,9027.44,-0.073409,-0.059773,0.989864,85.25,1
10638,0,216769,242523,212278.32,232995.98,4490.67,9527.02,-0.073841,-0.060608,0.989568,85.26,1
10677,0,217010,243073,212372.96,233197.51,4637.03,9875.48,-0.074287,-0.061472,0.989255,85.27,1
10718,0,217189,243168,212469.29,233396.92,4719.7,9771.08,-0.07474,-0.062327,0.988957,85.28,1
10757,0,217028,242690,212560.48,233582.78,4467.52,9107.22,-0.075169,-0.063123,0.988699,85.28,1
10796,0,216891,242458,212647.09,233760.28,4243.91,8697.72,-0.075577,-0.063883,0.988464,85.29,1
10836,0,216873,242523,212731.6,233935.53,4141.39,8587.47,-0.075974,-0.064632,0.988234,85.29,1
10875,0,216935,242598,212815.68,234108.78,4119.31,8489.22,-0.076369,-0.065373,0.988013,85.3,1
10916,0,216943,242706,212898.23,234280.73,4044.77,8425.27,-0.076757,-0.066107,0.987795,85.31,1
10956,0,216979,242798,212979.85,234451.07,3999.14,8346.92,-0.07714,-0.066834,0.987582,85.31,1
10996,0,216960,242786,213059.46,234617.78,3900.53,8168.22,-0.077514,-0.067544,0.98738,85.32,1
11036,0,216967,242814,213137.62,234781.71,3829.37,8032.28,-0.077881,-0.068243,0.987186,85.32,1
11076,0,216973,242894,213214.32,234943.96,3758.67,7950.03,-0.07824,-0.068934,0.986997,85.33,1
11116,0,217021,243062,213290.46,235106.32,3730.53,7955.67,-0.078598,-0.069625,0.986808,85.33,1
11156,0,217048,243193,213365.6,235268.06,3682.39,7924.94,-0.07895,-0.070312,0.986621,85.33,1
11196,0,217079,243339,213439.87,235429.48,3639.12,7909.52,-0.079298,-0.070998,0.986435,85.34,1
11236,0,217139,243497,213513.85,235590.84,3625.14,7906.16,-0.079644,-0.071683,0.98625,85.34,1
11276,0,217221,243704,213588.01,235753.1,3632.98,7950.89,-0.079992,-0.072372,0.986064,85.35,1
11316,0,217278,243863,213661.82,235915.31,3616.17,7947.69,-0.080337,-0.07306,0.985879,85.35,1
11356,0,217294,243632,213734.46,236069.65,3559.53,7562.34,-0.080677,-0.073714,0.985721,85.36,1
11397,0,217091,243153,213801.59,236211.32,3289.41,6941.67,-0.080991,-0.074314,0.985595,85.36,1
11436,0,216989,243071,213865.34,236348.53,3123.66,6722.47,-0.081289,-0.074894,0.985478,85.36,1
11476,0,217077,243243,213929.59,236486.42,3147.41,6756.58,-0.08159,-0.075477,0.985361,85.37,1
11515,0,217162,243448,213994.23,236625.65,3167.77,6822.34,-0.081892,-0.076066,0.985241,85.37,1
11556,0,217233,243649,214059.01,236766.12,3173.98,6882.87,-0.082194,-0.07666,0.985119,85.37,1
11595,0,217298,243842,214123.79,236907.65,3174.2,6934.34,-0.082497,-0.077257,0.984994,85.38,1
11636,0,217367,243927,214188.67,237048.04,3178.33,6878.95,-0.0828,-0.07785,0.984875,85.38,1
11675,0,217399,244030,214252.89,237187.68,3146.11,6842.31,-0.0831,-0.078439,0.984757,85.38,1
11716,0,217455,244226,214316.93,237328.45,3138.06,6897.55,-0.083398,-0.079032,0.984637,85.38,1
11755,0,217501,244446,214380.62,237470.81,3120.37,6975.19,-0.083696,-0.079631,0.984511,85.39,1
11796,0,217601,244647,214445.03,237614.34,3155.97,7032.66,-0.083996,-0.080236,0.984383,85.39,1
11835,0,217667,244853,214509.48,237759.12,3157.52,7093.87,-0.084296,-0.080845,0.984252,85.39,1
11875,0,217802,245092,214575.34,237905.79,3226.66,7186.2,-0.084603,-0.081461,0.984118,85.4,1
11915,0,217870,245269,214641.25,238053.06,3228.75,7215.94,-0.084911,-0.08208,0.983982,85.4,1
11955,0,217911,245292,214706.64,238197.84,3204.36,7094.16,-0.085215,-0.082688,0.983855,85.4,1
11996,0,217730,244670,214767.1,238327.29,2962.89,6342.7,-0.085497,-0.083232,0.983772,85.41,1
12035,0,217556,244360,214822.89,238447.95,2733.11,5912.05,-0.085756,-0.083738,0.98371,85.41,1
12076,0,217512,244415,214876.67,238567.29,2635.33,5847.7,-0.086007,-0.084238,0.983648,85.41,1
12114,0,217578,244570,214930.7,238687.35,2647.3,5882.64,-0.086258,-0.084741,0.983585,85.41,1
12155,0,217612,244657,214984.32,238806.75,2627.67,5850.25,-0.086508,-0.085241,0.983524,85.41,1
12194,0,217615,244636,215036.93,238923.34,2578.06,5712.66,-0.086752,-0.085729,0.983471,85.41,1
12235,0,217561,244535,215087.42,239035.57,2473.58,5499.42,-0.086987,-0.086199,0.983428,85.41,1
12274,0,217516,244411,215135.98,239143.09,2380.02,5267.91,-0.087213,-0.086649,0.983396,85.42,1
12315,0,217468,244406,215182.62,239248.35,2285.37,5157.64,-0.08743,-0.087089,0.983368,85.42,1
12354,0,217466,244485,215228.29,239353.09,2237.7,5131.91,-0.087642,-0.087526,0.983339,85.42,1
12395,0,217471,244516,215273.15,239456.34,2197.84,5059.66,-0.08785,-0.087958,0.983315,85.42,1
12434,0,217499,244591,215317.68,239559.03,2181.31,5031.97,-0.088057,-0.088387,0.983291,85.42,1
12475,0,217539,244567,215362.12,239659.2,2176.87,4907.8,-0.088263,-0.088805,0.983275,85.42,1
12514,0,217508,244554,215405.04,239757.1,2102.95,4796.89,-0.088463,-0.089213,0.983263,85.42,1
12555,0,217486,244479,215446.67,239851.54,2039.33,4627.45,-0.088656,-0.089607,0.983259,85.42,1
12594,0,217400,244071,215485.75,239935.93,1914.25,4135.06,-0.088837,-0.089959,0.983278,85.42,1
12635,0,217211,243607,215520.26,240009.35,1690.73,3597.64,-0.088997,-0.090265,0.983317,85.42,1
12675,0,217193,243714,215553.71,240083.45,1639.28,3630.55,-0.089153,-0.090573,0.983352,85.42,1
12715,0,217320,243830,215589.06,240158.37,1730.94,3671.62,-0.089317,-0.090885,0.983388,85.42,1
12754,0,217326,244062,215623.79,240236.45,1702.2,3825.55,-0.089478,-0.09121,0.983415,85.41,1
12794,0,217390,243972,215659.12,240311.17,1730.88,3660.83,-0.089642,-0.091521,0.983451,85.41,1
12834,0,217224,243010,215690.43,240365.15,1533.56,2644.84,-0.089787,-0.091746,0.983524,85.41,1
12874,0,217432,243332,215725.28,240424.5,1706.72,2907.5,-0.089948,-0.091993,0.98359,85.41,1
12914,0,220292,242179,215816.62,240459.59,4475.37,1719.41,-0.090372,-0.092139,0.983836,85.4,1
12953,0,219382,240031,215887.93,240451.03,3494.06,-420.03,-0.090702,-0.092103,0.984029,85.4,1
12994,0,218501,241118,215940.2,240464.37,2560.8,653.63,-0.090944,-0.092159,0.98417,85.4,1
13034,0,218642,241767,215994.25,240490.43,2647.75,1276.56,-0.091194,-0.092267,0.984305,85.39,1
13074,0,218759,242432,216049.56,240529.28,2709.44,1902.72,-0.09145,-0.092429,0.984426,85.39,1
13114,0,218995,242748,216108.48,240573.65,2886.52,2174.34,-0.091723,-0.092613,0.984547,85.39,1
13154,0,218965,242766,216165.6,240617.5,2799.39,2148.5,-0.091987,-0.092795,0.984664,85.38,1
13194,0,219093,243103,216224.15,240667.21,2868.84,2435.78,-0.092258,-0.093002,0.984773,85.38,1
13234,0,219131,242926,216282.29,240712.39,2848.7,2213.61,-0.092527,-0.093189,0.984887,85.38,1
13273,0,219294,243021,216342.53,240758.56,2951.47,2262.44,-0.092806,-0.093381,0.985003,85.37,1
13314,0,219395,243747,216403.59,240818.32,2991.41,2928.67,-0.093088,-0.09363,0.985095,85.37,1
13352,0,219650,244174,216468.53,240885.45,3181.47,3288.55,-0.093388,-0.093908,0.985181,85.37,1
13393,0,219689,244161,216532.95,240950.96,3156.05,3210.03,-0.093685,-0.09418,0.985268,85.37,1
13432,0,219600,245611,216594.29,241044.17,3005.7,4566.83,-0.093969,-0.094567,0.985265,85.37,1
13473,0,220449,234626,216671.4,240915.81,3777.59,-6289.81,-0.094324,-0.094034,0.985157,85.37,1
13512,0,216051,228913,216659,240675.76,-608,-11762.77,-0.094267,-0.093037,0.984123,85.4,1
13553,0,218013,238338,216686.09,240629.01,1326.91,-2291.02,-0.094392,-0.092843,0.984144,85.4,1
13593,0,225477,249685,216861.92,240810.14,8615.08,8874.86,-0.095203,-0.093595,0.984308,85.39,1
13633,0,229897,254982,217122.62,241093.57,12774.37,13888.42,-0.096405,-0.094772,0.984456,85.39,1
13673,0,231691,256945,217413.98,241410.62,14277.02,15534.37,-0.097746,-0.096086,0.984628,85.38,1
13713,0,232388,257862,217713.46,241739.65,14674.53,16122.34,-0.099122,-0.097448,0.984766,85.38,1
13753,0,232743,257869,218014.06,242062.25,14728.94,15806.75,-0.100502,-0.098782,0.985002,85.37,1
13794,0,232968,258205,218313.14,242385.1,14654.86,15819.89,-0.101873,-0.100114,0.985211,85.37,1
13833,0,232989,257584,218606.65,242689.09,14382.34,14894.91,-0.103217,-0.101368,0.985573,85.36,1
13873,0,232471,256401,218883.95,242963.32,13587.05,13437.67,-0.104484,-0.102497,0.986044,85.35,1
13913,0,231903,255725,219144.34,243218.56,12758.66,12506.44,-0.105673,-0.103547,0.986487,85.34,1
13953,0,231463,255446,219390.73,243463.12,12072.27,11982.87,-0.106797,-0.104552,0.986857,85.33,1
13993,0,230881,254823,219620.54,243690.31,11260.45,11132.69,-0.107844,-0.105485,0.987193,85.32,1
14032,0,229671,253770,219821.56,243891.92,9849.44,9878.08,-0.108759,-0.106312,0.987433,85.31,1
14073,0,228412,252985,219993.37,244073.79,8418.62,8911.2,-0.10954,-0.107057,0.987546,85.31,1
14112,0,227505,252492,220143.6,244242.17,7361.39,8249.83,-0.110223,-0.107747,0.987575,85.31,1
14153,0,226772,251963,220276.17,244396.59,6495.83,7566.41,-0.110825,-0.108379,0.987567,85.31,1
14192,0,226000,251670,220390.65,244542.07,5609.34,7127.92,-0.111344,-0.108974,0.987496,85.31,1
14232,0,225638,251473,220495.6,244680.68,5142.39,6792.31,-0.11182,-0.109541,0.98741,85.31,1
14272,0,225239,251094,220590.48,244808.95,4648.52,6285.05,-0.112251,-0.110065,0.987328,85.32,1
14312,0,224571,250774,220670.09,244928.26,3900.91,5845.73,-0.112611,-0.110552,0.987222,85.32,1
14352,0,224208,250640,220740.85,245042.5,3467.14,5597.5,-0.112932,-0.111018,0.987105,85.32,1
14392,0,223786,250313,220801.76,245147.92,2984.23,5165.08,-0.113208,-0.111449,0.986995,85.33,1
14432,0,223635,250055,220858.43,245246.06,2776.56,4808.94,-0.113464,-0.111849,0.986904,85.33,1
14472,0,223402,248799,220909.31,245317.12,2492.69,3481.87,-0.113695,-0.112138,0.986899,85.33,1
14513,0,222947,248215,220950.06,245375.07,1996.94,2839.92,-0.113879,-0.112375,0.986906,85.33,1
14552,0,223159,248700,220994.25,245441.57,2164.75,3258.42,-0.114079,-0.112646,0.986896,85.33,1
14593,0,223359,248762,221041.56,245507.98,2317.44,3254.02,-0.114293,-0.112916,0.986895,85.33,1
14631,0,223177,248168,221084.28,245561.18,2092.72,2606.81,-0.114487,-0.113133,0.986919,85.33,1
14672,0,223100,248749,221124.59,245624.95,1975.41,3124.05,-0.114669,-0.113393,0.986908,85.33,1
14711,0,221883,235700,221139.76,245426.45,743.23,-9726.45,-0.114737,-0.112584,0.985984,85.35,1
14752,0,206945,160366,220855.87,243725.23,-13910.87,-83359.24,-0.113453,-0.105628,0.924134,86.9,1
14791,0,167296,177334,219784.68,242397.42,-52488.69,-65063.42,-0.108591,-0.100165,0.921896,86.95,1
14832,0,206414,225583,219517.28,242061.14,-13103.28,-16478.14,-0.107374,-0.098777,0.92167,86.96,1
14872,0,234567,242246,219818.28,242064.84,14748.72,181.16,-0.108744,-0.098792,0.924109,86.9,1
14911,0,230271,245070,220027.34,242124.95,10243.66,2945.05,-0.109694,-0.099041,0.925193,86.87,1
14952,0,228738,244811,220201.56,242178.67,8536.44,2632.33,-0.110486,-0.099263,0.925923,86.85,1
14991,0,225994,244182,220317.4,242218.75,5676.59,1963.25,-0.111012,-0.099428,0.926205,86.84,1
15032,0,224515,243593,220401.35,242246.23,4113.64,1346.77,-0.111393,-0.099541,0.926324,86.84,1
15071,0,223228,242051,220457.9,242242.32,2770.09,-191.33,-0.111649,-0.099525,0.926347,86.84,1
15112,0,221963,240560,220488.01,242208.68,1474.98,-1648.69,-0.111786,-0.099386,0.92628,86.84,1
15151,0,221110,239959,220500.46,242163.68,609.53,-2204.69,-0.111842,-0.099201,0.92617,86.85,1
15192,0,220603,239612,220502.53,242112.65,100.47,-2500.66,-0.111852,-0.09899,0.926043,86.85,1
15230,0,220216,239577,220496.79,242061.95,-280.8,-2484.95,-0.111826,-0.09878,0.925915,86.85,1
15271,0,220022,239563,220487.29,242011.98,-465.3,-2448.98,-0.111783,-0.098574,0.92579,86.86,1
15310,0,219812,239447,220473.79,241960.68,-661.8,-2513.69,-0.111721,-0.098362,0.925663,86.86,1
15351,0,219513,239276,220454.59,241907,-941.59,-2631,-0.111634,-0.09814,0.925536,86.86,1
15390,0,219304,239309,220431.57,241855.03,-1127.58,-2546.03,-0.11153,-0.097925,0.925417,86.86,1
15431,0,219220,239403,220407.35,241806,-1187.36,-2403,-0.11142,-0.097722,0.925306,86.87,1
15470,0,219153,239462,220382.28,241759.12,-1229.28,-2297.12,-0.111306,-0.097529,0.9252,86.87,1
15511,0,219129,239561,220357.21,241715.17,-1228.22,-2154.17,-0.111193,-0.097347,0.925101,86.87,1
15551,0,219046,239570,220331,241672.28,-1285,-2102.28,-0.111074,-0.097169,0.925005,86.87,1
15591,0,218920,239629,220302.79,241631.42,-1382.8,-2002.42,-0.110945,-0.097,0.924917,86.88,1
15631,0,218880,239670,220274.34,241592.2,-1394.34,-1922.2,-0.110816,-0.096838,0.924833,86.88,1
15671,0,218710,238785,220243.06,241536.06,-1533.06,-2751.06,-0.110674,-0.096605,0.924717,86.88,1
15711,0,218264,237887,220203.48,241463.07,-1939.48,-3576.08,-0.110495,-0.096303,0.924569,86.89,1
15750,0,218054,237666,220160.5,241387.14,-2106.5,-3721.14,-0.110299,-0.095989,0.924419,86.89,1
15791,0,217981,237795,220116.92,241315.31,-2135.92,-3520.31,-0.110101,-0.095691,0.924284,86.89,1
15830,0,218016,237811,220074.9,241245.23,-2058.91,-3434.23,-0.109911,-0.095401,0.92415,86.9,1
15870,0,217984,237895,220033.09,241178.23,-2049.09,-3283.23,-0.109721,-0.095123,0.924025,86.9,1
15909,0,218040,237976,219993.23,241114.18,-1953.23,-3138.19,-0.109539,-0.094857,0.923904,86.9,1
15950,0,218021,237894,219953.79,241049.78,-1932.8,-3155.78,-0.10936,-0.09459,0.92378,86.91,1
15989,0,217934,237751,219913.4,240983.81,-1979.41,-3232.81,-0.109176,-0.094316,0.923653,86.91,1
16030,0,217872,237787,219872.57,240919.87,-2000.58,-3132.87,-0.108991,-0.094051,0.923534,86.91,1
16070,0,217919,237818,219833.5,240857.84,-1914.5,-3039.84,-0.108813,-0.093794,0.923416,86.91,1
16110,0,217876,237669,219794.34,240794.06,-1918.34,-3125.06,-0.108635,-0.093529,0.923291,86.92,1
16150,0,217773,237535,219753.92,240728.89,-1980.92,-3193.89,-0.108451,-0.093258,0.923165,86.92,1
16190,0,217659,237419,219712.03,240662.68,-2053.03,-3243.69,-0.10826,-0.092983,0.92304,86.92,1
16230,0,217566,237344,219669.1,240596.31,-2103.11,-3252.31,-0.108065,-0.092707,0.922917,86.93,1
16270,0,217484,236572,219625.4,240515.82,-2141.41,-3943.83,-0.107866,-0.092373,0.92274,86.93,1
16310,0,216919,234493,219571.28,240395.37,-2652.28,-5902.37,-0.10762,-0.091872,0.922381,86.94,1
16350,0,216127,232804,219502.4,240243.54,-3375.41,-7439.55,-0.107306,-0.09124,0.921854,86.95,1
16390,0,215632,231906,219425,240076.81,-3793,-8170.81,-0.106953,-0.090546,0.92124,86.97,1
16430,0,215337,231215,219343.23,239899.57,-4006.23,-8684.58,-0.10658,-0.089807,0.920546,86.99,1
16470,0,215076,230589,219257.89,239713.37,-4181.89,-9124.37,-0.106191,-0.089031,0.919778,87.01,1
16510,0,214850,230152,219169.73,239522.15,-4319.73,-9370.16,-0.105789,-0.088233,0.91897,87.03,1
16549,0,214683,229838,219080,239328.48,-4397,-9490.48,-0.10538,-0.087424,0.918139,87.05,1
16590,0,214508,229567,218988.56,239133.26,-4480.56,-9566.27,-0.104962,-0.086608,0.917296,87.07,1
16629,0,214426,229658,218897.31,238943.76,-4471.31,-9285.77,-0.104545,-0.085815,0.916508,87.09,1
16670,0,214519,229960,218809.75,238764.09,-4290.75,-8804.09,-0.104145,-0.085063,0.915792,87.11,1
16709,0,214653,230341,218726.62,238595.62,-4073.62,-8254.62,-0.103765,-0.084357,0.915152,87.12,1
16750,0,214786,230694,218647.81,238437.59,-3861.81,-7743.59,-0.103405,-0.083694,0.914577,87.14,1
16789,0,214837,230950,218571.59,238287.84,-3734.59,-7337.84,-0.103056,-0.083066,0.914056,87.15,1
16830,0,214893,231178,218498.03,238145.65,-3605.03,-6967.66,-0.10272,-0.082469,0.913579,87.16,1
16869,0,214922,231117,218426.51,238005.09,-3504.52,-6888.09,-0.102392,-0.081879,0.913099,87.17,1
16910,0,214658,229593,218351.14,237836.85,-3693.14,-8243.86,-0.102047,-0.081172,0.912379,87.19,1
16949,0,213918,227961,218262.48,237639.34,-4344.48,-9678.34,-0.101641,-0.080341,0.911421,87.21,1
16990,0,213470,227614,218166.64,237438.84,-4696.64,-9824.84,-0.101202,-0.079497,0.910478,87.24,1
17029,0,213451,228130,218072.32,237252.67,-4621.33,-9122.67,-0.100769,-0.078712,0.909689,87.26,1
17070,0,213643,228745,217983.75,237082.53,-4340.75,-8337.53,-0.100363,-0.077995,0.909025,87.27,1
17108,0,213888,229534,217901.84,236931.56,-4013.84,-7397.56,-0.099987,-0.077358,0.908497,87.29,1
17149,0,214171,230134,217827.23,236795.62,-3656.23,-6661.62,-0.099645,-0.076784,0.908049,87.3,1
17189,0,214333,230617,217757.34,236672.06,-3424.34,-6055.06,-0.099324,-0.076262,0.907669,87.31,1
17228,0,214522,231183,217692.64,236562.28,-3170.64,-5379.28,-0.099027,-0.075798,0.907358,87.32,1
17269,0,214730,231728,217633.39,236465.6,-2903.39,-4737.61,-0.098754,-0.075389,0.907101,87.32,1
17308,0,214931,232144,217579.35,236379.17,-2648.36,-4235.17,-0.098506,-0.075024,0.906876,87.33,1
17349,0,215073,232497,217529.23,236301.53,-2456.23,-3804.53,-0.098276,-0.074695,0.906679,87.33,1
17388,0,215175,232827,217482.15,236232.04,-2307.16,-3405.05,-0.098059,-0.074401,0.906507,87.34,1
17429,0,215242,233043,217437.35,236168.26,-2195.36,-3125.27,-0.097853,-0.074131,0.906351,87.34,1
17468,0,215306,233288,217394.73,236110.67,-2088.73,-2822.67,-0.097657,-0.073887,0.906212,87.34,1
17509,0,215371,232860,217354.26,236045.67,-1983.27,-3185.67,-0.097471,-0.073612,0.906032,87.35,1
17548,0,214947,231303,217306.12,235950.82,-2359.12,-4647.83,-0.09725,-0.07321,0.905719,87.36,1
17589,0,214429,230466,217248.57,235841.12,-2819.58,-5375.12,-0.096985,-0.072745,0.905349,87.37,1
17628,0,214258,230283,217188.76,235729.96,-2930.77,-5446.97,-0.096709,-0.072274,0.904979,87.38,1
17669,0,214207,230275,217129.14,235620.87,-2922.14,-5345.87,-0.096435,-0.071811,0.904622,87.38,1
17708,0,214235,230378,217071.26,235516.03,-2836.27,-5138.03,-0.096168,-0.071366,0.904283,87.39,1
17748,0,214309,230616,217016.03,235418.03,-2707.03,-4802.03,-0.095914,-0.070949,0.903978,87.4,1
17788,0,214328,230704,216962.28,235323.75,-2634.28,-4619.75,-0.095666,-0.070549,0.903689,87.41,1
17828,0,214369,230916,216910.42,235235.59,-2541.42,-4319.59,-0.095427,-0.070174,0.903428,87.41,1
17868,0,214433,231230,216860.87,235155.48,-2427.87,-3925.48,-0.095199,-0.069834,0.903204,87.42,1
17908,0,214589,231560,216815.43,235083.57,-2226.44,-3523.58,-0.094989,-0.069528,0.903005,87.42,1
17948,0,214698,231869,216773.09,235019.28,-2075.09,-3150.28,-0.094794,-0.069254,0.90283,87.43,1
17988,0,214807,232222,216733.78,234963.34,-1926.78,-2741.34,-0.094612,-0.069016,0.90268,87.43,1
18028,0,214925,232597,216697.6,234916.01,-1772.61,-2319.02,-0.094445,-0.068815,0.902552,87.44,1
18068,0,215045,232883,216664.56,234875.35,-1619.56,-1992.36,-0.094293,-0.068642,0.902435,87.44,1
18108,0,215155,233099,216634.37,234839.84,-1479.38,-1740.84,-0.094154,-0.06849,0.902324,87.44,1
18148,0,215058,232202,216602.84,234787.09,-1544.84,-2585.09,-0.094008,-0.068266,0.902157,87.45,1
18188,0,214642,231444,216563.64,234720.23,-1921.64,-3276.23,-0.093827,-0.067981,0.901955,87.45,1
18229,0,214510,231503,216522.57,234655.89,-2012.58,-3152.89,-0.093637,-0.067707,0.901774,87.46,1
18268,0,214603,231850,216484.18,234599.78,-1881.19,-2749.78,-0.09346,-0.067468,0.901622,87.46,1
18309,0,214771,232175,216449.93,234551.29,-1678.94,-2376.3,-0.093302,-0.067261,0.901484,87.46,1
18348,0,214871,232459,216418.35,234509.46,-1547.36,-2050.47,-0.093156,-0.067083,0.901361,87.47,1
18388,0,214985,232708,216389.7,234473.43,-1404.7,-1765.44,-0.093024,-0.066929,0.901248,87.47,1
18427,0,215032,232798,216362.54,234439.92,-1330.55,-1641.92,-0.092898,-0.066786,0.901137,87.47,1
18466,0,215033,232944,216335.95,234410,-1302.95,-1466,-0.092775,-0.066658,0.901036,87.47,1
18507,0,215124,233290,216311.71,234387.59,-1187.72,-1097.59,-0.092663,-0.066563,0.900945,87.48,1
18547,0,215299,233820,216291.46,234376.25,-992.47,-556.25,-0.09257,-0.066514,0.900861,87.48,1
18587,0,215481,234362,216275.26,234375.96,-794.27,-13.97,-0.092495,-0.066513,0.900775,87.48,1
18626,0,215658,234803,216262.92,234384.51,-604.92,418.48,-0.092437,-0.06655,0.90068,87.48,1
18667,0,215803,235149,216253.73,234399.81,-450.73,749.19,-0.092395,-0.066615,0.900576,87.49,1
18708,0,215913,235458,216246.92,234420.98,-333.92,1037.02,-0.092363,-0.066705,0.900461,87.49,1
18747,0,215975,235126,216241.48,234435.07,-266.48,690.92,-0.092338,-0.066765,0.900358,87.49,1
18787,0,215686,234136,216230.37,234429.09,-544.38,-293.09,-0.092287,-0.06674,0.90027,87.49,1
18827,0,215340,233572,216212.56,234411.95,-872.56,-839.95,-0.092205,-0.066667,0.900185,87.5,1
18867,0,215261,233559,216193.53,234394.9,-932.53,-835.91,-0.092117,-0.066594,0.900105,87.5,1
18907,0,215276,233650,216175.18,234380.01,-899.19,-730.02,-0.092032,-0.06653,0.900027,87.5,1
18947,0,215349,233866,216158.67,234369.73,-809.67,-503.73,-0.091955,-0.066487,0.899952,87.5,1
18987,0,215431,234173,216144.12,234365.79,-713.13,-192.8,-0.091888,-0.06647,0.899878,87.5,1
19026,0,215578,234546,216132.81,234369.4,-554.81,176.59,-0.091836,-0.066485,0.8998,87.51,1
19067,0,215694,234828,216124.03,234378.57,-430.03,449.42,-0.091795,-0.066524,0.899716,87.51,1
19106,0,215822,235177,216118,234394.56,-296,782.44,-0.091767,-0.066593,0.899622,87.51,1
19147,0,215974,235626,216115.12,234419.18,-141.13,1206.81,-0.091754,-0.066698,0.89951,87.51,1
19186,0,216131,236043,216115.45,234451.67,15.55,1591.33,-0.091755,-0.066836,0.899375,87.52,1
19227,0,216250,236452,216118.14,234491.68,131.86,1960.31,-0.091768,-0.067007,0.899215,87.52,1
19266,0,216347,236719,216122.71,234536.23,224.28,2182.77,-0.091789,-0.067197,0.899036,87.52,1
19307,0,216453,237080,216129.32,234587.1,323.67,2492.89,-0.09182,-0.067414,0.898829,87.53,1
19346,0,216586,237319,216138.46,234641.75,447.53,2677.25,-0.091862,-0.067647,0.898605,87.53,1
19387,0,216554,236854,216146.78,234686,407.22,2168,-0.0919,-0.067835,0.898436,87.54,1
19426,0,216245,235981,216148.75,234711.9,96.25,1269.09,-0.091909,-0.067946,0.898333,87.54,1
19467,0,216019,235761,216146.15,234732.89,-127.16,1028.11,-0.091897,-0.068035,0.898244,87.54,1
19506,0,216007,235707,216143.37,234752.37,-136.38,954.63,-0.091885,-0.068118,0.89816,87.55,1
19547,0,216022,235772,216140.95,234772.76,-118.95,999.23,-0.091873,-0.068205,0.898076,87.55,1
19586,0,216036,235893,216138.85,234795.17,-102.86,1097.83,-0.091864,-0.0683,0.897987,87.55,1
19627,0,216070,236126,216137.5,234821.78,-67.5,1304.22,-0.091857,-0.068414,0.897888,87.55,1
19665,0,216176,236346,216138.26,234852.26,37.73,1493.73,-0.091861,-0.068543,0.897777,87.56,1
19706,0,216233,236554,216140.15,234886.29,92.84,1667.7,-0.09187,-0.068688,0.897654,87.56,1
19745,0,216350,236904,216144.35,234926.65,205.64,1977.34,-0.091889,-0.06886,0.897506,87.56,1
19786,0,216470,237239,216150.87,234972.9,319.13,2266.09,-0.091919,-0.069057,0.897331,87.57,1
19826,0,216577,237592,216159.4,235025.29,417.59,2566.7,-0.091959,-0.06928,0.897122,87.57,1
19866,0,216656,237786,216169.34,235080.51,486.66,2705.48,-0.092005,-0.069515,0.896899,87.58,1
19906,0,216709,238025,216180.15,235139.4,528.84,2885.59,-0.092055,-0.069765,0.896651,87.58,1
19946,0,216812,238315,216192.79,235202.92,619.2,3112.08,-0.092113,-0.070035,0.896373,87.59,1
19986,0,216913,238550,216207.2,235269.87,705.8,3280.12,-0.09218,-0.07032,0.896071,87.6,1
20025,0,216833,237967,216219.71,235323.82,613.28,2643.17,-0.092238,-0.070549,0.895864,87.6,1
20066,0,216532,237224,216225.96,235361.84,306.03,1862.16,-0.092267,-0.070711,0.895739,87.61,1
20105,0,216358,236957,216228.6,235393.75,129.39,1563.25,-0.092279,-0.070846,0.89564,87.61,1
20146,0,216325,236872,216230.54,235423.31,94.45,1448.69,-0.092288,-0.070972,0.89555,87.61,1
20185,0,216296,236829,216231.85,235451.42,64.14,1377.58,-0.092294,-0.071091,0.895466,87.61,1
20226,0,216268,236894,216232.57,235480.26,35.42,1413.73,-0.092297,-0.071214,0.89538,87.62,1
20264,0,216293,236993,216233.79,235510.53,59.2,1482.47,-0.092303,-0.071342,0.89529,87.62,1
20305,0,216335,237160,216235.82,235543.53,99.17,1616.47,-0.092312,-0.071482,0.895189,87.62,1
20344,0,216435,237464,216239.81,235581.95,195.19,1882.05,-0.092331,-0.071646,0.895064,87.62,1
20385,0,216580,237898,216246.6,235628.26,333.39,2269.73,-0.092362,-0.071842,0.894896,87.63,1
20424,0,216734,238374,216256.37,235683.18,477.63,2690.81,-0.092407,-0.072075,0.894673,87.63,1
20465,0,216898,238821,216269.2,235745.95,628.8,3075.05,-0.092466,-0.072341,0.894392,87.64,1
20504,0,217050,239137,216284.82,235813.76,765.17,3323.23,-0.092539,-0.072629,0.894073,87.65,1
20545,0,217163,239477,216302.4,235887.04,860.59,3589.95,-0.09262,-0.07294,0.893705,87.66,1
20584,0,217318,239823,216322.71,235965.76,995.28,3857.23,-0.092714,-0.073273,0.893288,87.67,1
20625,0,217421,239974,216344.68,236045.93,1076.31,3928.06,-0.092815,-0.073613,0.89286,87.68,1
20666,0,217316,239331,216364.1,236111.64,951.89,3219.36,-0.092905,-0.073891,0.892574,87.69,1
20705,0,217047,238692,216377.76,236163.25,669.23,2528.75,-0.092968,-0.07411,0.892389,87.69,1
20744,0,216916,238520,216388.53,236210.39,527.47,2309.61,-0.093018,-0.07431,0.892229,87.69,1
20785,0,216895,238531,216398.67,236256.81,496.33,2274.19,-0.093065,-0.074506,0.892073,87.7,1
20824,0,216874,238573,216408.18,236303.14,465.81,2269.86,-0.093109,-0.074702,0.891916,87.7,1
20865,0,216873,238671,216417.48,236350.5,455.52,2320.5,-0.093152,-0.074903,0.89175,87.71,1
20905,0,216906,238712,216427.26,236397.73,478.73,2314.27,-0.093197,-0.075102,0.891587,87.71,1
20944,0,216901,238716,216436.73,236444.09,464.27,2271.91,-0.093241,-0.075298,0.891429,87.71,1
20985,0,216902,238833,216446.04,236491.87,455.95,2341.12,-0.093284,-0.075501,0.89126,87.72,1
21024,0,216959,239147,216456.31,236544.98,502.69,2602.02,-0.093331,-0.075725,0.89105,87.72,1
21065,0,217067,239416,216468.53,236602.4,598.47,2813.59,-0.093388,-0.075968,0.890807,87.73,1
21104,0,217161,239704,216482.39,236664.43,678.61,3039.56,-0.093452,-0.07623,0.890523,87.74,1
21145,0,217267,239877,216498.09,236728.7,768.91,3148.3,-0.093524,-0.076501,0.890222,87.74,1
21184,0,217302,240131,216514.18,236796.76,787.81,3334.23,-0.093599,-0.076789,0.88988,87.75,1
21225,0,217391,240334,216531.71,236867.5,859.28,3466.5,-0.09368,-0.077088,0.889512,87.76,1
21264,0,217377,239967,216548.64,236929.5,828.36,3037.5,-0.093758,-0.077349,0.889237,87.77,1
21305,0,217125,239222,216560.17,236975.35,564.83,2246.64,-0.093811,-0.077543,0.88909,87.77,1
21344,0,216946,238979,216567.89,237015.43,378.11,1963.56,-0.093847,-0.077712,0.888975,87.78,1
21385,0,216911,238997,216574.75,237055.07,336.25,1941.92,-0.093878,-0.077879,0.888862,87.78,1
21424,0,216917,239147,216581.6,237096.92,335.39,2050.08,-0.09391,-0.078056,0.888733,87.78,1
21465,0,216960,239310,216589.18,237141.18,370.81,2168.81,-0.093945,-0.078242,0.888586,87.79,1
21504,0,217019,239457,216597.78,237187.51,421.22,2269.48,-0.093985,-0.078438,0.888424,87.79,1
21544,0,217093,239611,216607.68,237235.98,485.31,2375.02,-0.09403,-0.078642,0.888247,87.79,1
21583,0,217141,239766,216618.34,237286.57,522.66,2479.42,-0.09408,-0.078855,0.888052,87.8,1
21624,0,217202,240027,216630.03,237341.39,571.97,2685.61,-0.094134,-0.079086,0.887819,87.8,1
21663,0,217309,240294,216643.62,237400.43,665.38,2893.56,-0.094196,-0.079335,0.887546,87.81,1
21704,0,217408,240526,216658.9,237462.95,749.09,3063.05,-0.094267,-0.079598,0.88724,87.82,1
21743,0,217490,240689,216675.53,237527.48,814.47,3161.52,-0.094344,-0.07987,0.886915,87.83,1
21784,0,217533,240862,216692.68,237594.17,840.31,3267.83,-0.094423,-0.080151,0.886563,87.84,1
21823,0,217583,241027,216710.5,237662.84,872.5,3364.16,-0.094505,-0.08044,0.886188,87.85,1
21864,0,217585,240668,216728,237722.95,857,2945.05,-0.094586,-0.080693,0.885915,87.85,1
21903,0,217267,239633,216738.78,237761.15,528.22,1871.84,-0.094635,-0.080853,0.885823,87.85,1
21944,0,216937,239050,216742.75,237786.93,194.25,1263.06,-0.094654,-0.080962,0.885794,87.86,1
21984,0,216844,238933,216744.78,237809.85,99.22,1123.14,-0.094663,-0.081058,0.885776,87.86,1
22023,0,216810,238953,216746.09,237832.73,63.91,1120.27,-0.094669,-0.081154,0.885759,87.86,1
22064,0,216805,238943,216747.26,237854.93,57.73,1088.06,-0.094675,-0.081248,0.885744,87.86,1
22103,0,216769,238771,216747.7,237873.26,21.3,897.73,-0.094677,-0.081325,0.885745,87.86,1
22144,0,216649,238413,216745.73,237884.07,-96.73,528.92,-0.094667,-0.08137,0.88577,87.86,1
22182,0,216507,238245,216740.96,237891.31,-233.97,353.69,-0.094646,-0.081401,0.885804,87.85,1
22223,0,216428,238190,216734.71,237897.28,-306.72,292.72,-0.094617,-0.081426,0.885842,87.85,1
22262,0,216392,238203,216727.87,237903.4,-335.88,299.59,-0.094585,-0.081451,0.885882,87.85,1
22303,0,216433,238349,216721.98,237912.32,-288.98,436.67,-0.094558,-0.081489,0.885916,87.85,1
22343,0,216501,238462,216717.56,237923.32,-216.56,538.67,-0.094538,-0.081535,0.885943,87.85,1
22383,0,216514,238529,216713.5,237935.43,-199.5,593.56,-0.094519,-0.081586,0.885966,87.85,1
22423,0,216503,238742,216709.29,237951.57,-206.3,790.42,-0.094499,-0.081654,0.885978,87.85,1
22462,0,216585,238975,216706.81,237972.04,-121.81,1002.95,-0.094488,-0.08174,0.885969,87.85,1
22503,0,216606,238544,216704.81,237983.48,-98.81,560.52,-0.094479,-0.081788,0.885993,87.85,1
22542,0,216463,238145,216699.98,237986.71,-236.98,158.28,-0.094456,-0.081802,0.886034,87.85,1
22583,0,216468,238277,216695.34,237992.53,-227.34,284.47,-0.094435,-0.081826,0.886072,87.85,1
22622,0,216623,238583,216693.89,238004.34,-70.89,578.66,-0.094428,-0.081876,0.886094,87.85,1
22663,0,216716,238872,216694.32,238021.7,21.67,850.3,-0.09443,-0.081949,0.886096,87.85,1
22703,0,216853,239177,216697.51,238044.82,155.48,1132.17,-0.094445,-0.082046,0.886073,87.85,1
22743,0,216971,239283,216702.98,238069.59,268.02,1213.41,-0.09447,-0.08215,0.886043,87.85,1
22782,0,217001,239297,216708.93,238094.14,292.06,1202.86,-0.094498,-0.082253,0.886015,87.85,1
22822,0,216997,239453,216714.7,238121.32,282.3,1331.67,-0.094524,-0.082367,0.88597,87.85,1
22862,0,217045,239674,216721.31,238152.39,323.69,1521.61,-0.094555,-0.082497,0.885898,87.85,1
22902,0,217172,240217,216730.32,238193.68,441.67,2023.31,-0.094596,-0.082671,0.885741,87.86,1
22942,0,217438,240760,216744.48,238245.01,693.52,2514.98,-0.094662,-0.082886,0.885487,87.86,1
22982,0,217645,241172,216762.5,238303.56,882.5,2868.44,-0.094745,-0.083132,0.885154,87.87,1
23022,0,217757,241427,216782.39,238366.04,974.61,3060.95,-0.094837,-0.083394,0.884772,87.88,1
23062,0,217842,241686,216803.59,238432.45,1038.41,3253.55,-0.094934,-0.083673,0.884333,87.89,1
23102,0,217917,241324,216825.87,238490.29,1091.13,2833.7,-0.095037,-0.083915,0.884039,87.9,1
23142,0,217604,240447,216841.43,238529.43,762.56,1917.56,-0.095109,-0.084079,0.883932,87.9,1
23182,0,217343,240038,216851.46,238559.62,491.53,1478.38,-0.095155,-0.084206,0.883877,87.9,1
23222,0,217284,240057,216860.12,238589.57,423.88,1467.42,-0.095195,-0.084332,0.883818,87.9,1
23262,0,217329,240289,216869.5,238623.57,459.5,1665.42,-0.095238,-0.084474,0.883726,87.91,1
23302,0,217411,240483,216880.32,238660.76,530.67,1822.23,-0.095288,-0.08463,0.883608,87.91,1
23342,0,217515,240718,216893.01,238701.92,621.98,2016.08,-0.095347,-0.084802,0.883455,87.91,1
23382,0,217608,240827,216907.31,238744.43,700.69,2082.56,-0.095413,-0.08498,0.883294,87.92,1
23421,0,217606,240933,216921.29,238788.2,684.7,2144.8,-0.095477,-0.085164,0.883114,87.92,1
23462,0,217674,241153,216936.35,238835.5,737.64,2317.5,-0.095547,-0.085362,0.882894,87.93,1
23501,0,217745,241332,216952.54,238885.43,792.45,2446.56,-0.095621,-0.085571,0.882643,87.93,1
23542,0,217828,241505,216970.06,238937.82,857.94,2567.17,-0.095702,-0.08579,0.882364,87.94,1
23581,0,217846,241603,216987.59,238991.14,858.41,2611.86,-0.095783,-0.086013,0.882068,87.95,1
23622,0,217853,241772,217004.9,239046.76,848.09,2725.23,-0.095863,-0.086246,0.881731,87.96,1
23661,0,217912,241921,217023.04,239104.25,888.95,2816.75,-0.095946,-0.086486,0.881367,87.97,1
23702,0,217947,242058,217041.53,239163.32,905.47,2894.67,-0.096031,-0.086733,0.880975,87.98,1
23741,0,217946,241560,217059.62,239211.26,886.38,2348.73,-0.096115,-0.086934,0.880758,87.98,1
23782,0,217600,240696,217070.43,239240.96,529.56,1455.03,-0.096164,-0.087058,0.880706,87.98,1
23821,0,217381,240509,217076.65,239266.34,304.34,1242.66,-0.096193,-0.087164,0.880671,87.98,1
23862,0,217435,240711,217083.82,239295.23,351.17,1415.77,-0.096226,-0.087285,0.880608,87.98,1
23901,0,217507,240896,217092.29,239327.25,414.7,1568.75,-0.096265,-0.087419,0.880519,87.99,1
23942,0,217572,241068,217101.89,239362.06,470.11,1705.94,-0.096309,-0.087564,0.880405,87.99,1
23981,0,217650,241226,217112.85,239399.34,537.14,1826.66,-0.09636,-0.08772,0.880268,87.99,1
24022,0,217672,241329,217124.04,239437.93,547.95,1891.06,-0.096411,-0.087881,0.880114,88,1
24060,0,217741,241490,217136.37,239478.98,604.63,2011.02,-0.096468,-0.088052,0.879934,88,1
24101,0,217755,241605,217148.75,239521.5,606.25,2083.5,-0.096525,-0.08823,0.879732,88.01,1
24141,0,217838,241796,217162.54,239567,675.45,2229,-0.096589,-0.08842,0.879494,88.01,1
24180,0,217931,242034,217177.92,239616.34,753.08,2417.66,-0.096659,-0.088626,0.879204,88.02,1
24221,0,218004,242154,217194.45,239667.09,809.55,2486.91,-0.096736,-0.088838,0.878898,88.03,1
24260,0,217994,242280,217210.43,239719.34,783.56,2560.66,-0.096809,-0.089055,0.878558,88.04,1
24301,0,218036,242404,217226.95,239773.04,809.05,2630.95,-0.096885,-0.08928,0.878194,88.05,1
24340,0,218080,242360,217244.01,239824.79,835.98,2535.2,-0.096964,-0.089495,0.877868,88.05,1
24381,0,217877,241486,217256.68,239858.03,620.31,1627.97,-0.097022,-0.089634,0.877779,88.06,1
24420,0,217566,240894,217262.87,239878.75,303.13,1015.25,-0.097051,-0.08972,0.877775,88.06,1
24461,0,217434,240776,217266.31,239896.68,167.69,879.31,-0.097066,-0.089795,0.877781,88.06,1
24500,0,217431,240845,217269.6,239915.67,161.39,929.33,-0.097082,-0.089874,0.87778,88.06,1
24541,0,217449,240936,217273.2,239936.07,175.8,999.92,-0.097098,-0.089959,0.877769,88.06,1
24581,0,217503,241087,217277.81,239959.09,225.19,1127.91,-0.097119,-0.090055,0.877738,88.06,1
24621,0,217511,241146,217282.48,239982.84,228.52,1163.16,-0.097141,-0.090154,0.877701,88.06,1
24660,0,217521,241208,217287.26,240007.34,233.73,1200.66,-0.097163,-0.090256,0.877655,88.06,1
24700,0,217542,241310,217292.37,240033.4,249.63,1276.59,-0.097186,-0.090365,0.877595,88.06,1
24740,0,217612,241479,217298.76,240062.32,313.23,1416.67,-0.097216,-0.090485,0.877509,88.06,1
24780,0,217673,241626,217306.25,240093.6,366.75,1532.39,-0.09725,-0.090616,0.877398,88.07,1
24820,0,217737,241840,217314.85,240128.53,422.14,1711.47,-0.09729,-0.090761,0.877244,88.07,1
24860,0,217766,241949,217323.87,240164.95,442.13,1784.05,-0.097331,-0.090913,0.87707,88.07,1
24900,0,217793,242062,217333.26,240202.89,459.73,1859.11,-0.097375,-0.091071,0.876873,88.08,1
24940,0,217824,242086,217343.09,240240.56,480.91,1845.44,-0.09742,-0.091228,0.876681,88.08,1
24980,0,217741,241484,217351.04,240265.43,389.95,1218.56,-0.097456,-0.091331,0.876639,88.08,1
25020,0,217411,240691,217352.25,240273.95,58.75,417.05,-0.097462,-0.091366,0.876687,88.08,1
25060,0,217183,240429,217348.85,240277.06,-165.86,151.94,-0.097446,-0.091379,0.876751,88.08,1
25101,0,217178,240515,217345.45,240281.82,-167.45,233.17,-0.097431,-0.091399,0.876812,88.08,1
25140,0,217220,240640,217342.95,240289,-122.95,351,-0.097419,-0.091429,0.876865,88.08,1
25181,0,217268,240754,217341.45,240298.29,-73.45,455.7,-0.097412,-0.091468,0.876909,88.08,1
25220,0,217270,240801,217340.03,240308.34,-70.03,492.66,-0.097406,-0.09151,0.876949,88.08,1
25260,0,217258,240875,217338.39,240319.68,-80.39,555.31,-0.097398,-0.091557,0.876984,88.08,1
25299,0,217305,240984,217337.71,240332.96,-32.72,651.03,-0.097395,-0.091612,0.877006,88.07,1
25339,0,217379,241135,217338.54,240349.01,40.45,785.98,-0.097399,-0.091679,0.87701,88.07,1
25380,0,217451,241343,217340.79,240368.9,110.2,974.09,-0.097409,-0.091762,0.876984,88.08,1
25419,0,217522,241538,217344.42,240392.29,177.58,1145.7,-0.097426,-0.091859,0.876926,88.08,1
25460,0,217563,241679,217348.79,240418.03,214.2,1260.97,-0.097446,-0.091966,0.876843,88.08,1
25499,0,217617,241787,217354.17,240445.4,262.83,1341.59,-0.097471,-0.09208,0.876741,88.08,1
25540,0,217633,241836,217359.75,240473.21,273.25,1362.78,-0.097496,-0.092195,0.876634,88.08,1
25579,0,217662,241529,217365.79,240494.34,296.2,1034.66,-0.097524,-0.092283,0.876603,88.08,1
25620,0,217351,240509,217365.5,240494.65,-14.5,14.34,-0.097523,-0.092285,0.876665,88.08,1
25659,0,217003,239775,217358.25,240480.26,-355.25,-705.27,-0.097489,-0.092225,0.876695,88.08,1
25699,0,216797,239466,217347.03,240459.98,-550.03,-993.98,-0.097438,-0.09214,0.876702,88.08,1
25740,0,216740,239365,217334.89,240438.09,-594.89,-1073.09,-0.097382,-0.092049,0.8767,88.08,1
25779,0,216735,239368,217322.9,240416.7,-587.91,-1048.7,-0.097327,-0.09196,0.8767,88.08,1
25820,0,216745,239340,217311.35,240395.17,-566.36,-1055.17,-0.097274,-0.091871,0.876693,88.08,1
25859,0,216725,239271,217299.64,240372.68,-574.64,-1101.69,-0.09722,-0.091777,0.876675,88.08,1
25900,0,216696,239239,217287.57,240350.01,-591.58,-1111.02,-0.097164,-0.091683,0.876657,88.08,1
25938,0,216750,239348,217276.82,240329.96,-526.83,-981.97,-0.097115,-0.0916,0.876655,88.08,1
25979,0,216797,239460,217267.23,240312.57,-470.23,-852.58,-0.097071,-0.091527,0.876667,88.08,1
26018,0,216845,239676,217258.79,240299.84,-413.8,-623.84,-0.097032,-0.091474,0.876706,88.08,1
26059,0,216903,239891,217251.68,240291.65,-348.69,-400.66,-0.096999,-0.09144,0.876761,88.08,1
26098,0,216953,240114,217245.71,240288.1,-292.72,-174.11,-0.096972,-0.091425,0.876824,88.08,1
26139,0,217046,240428,217241.73,240290.92,-195.73,137.08,-0.096953,-0.091437,0.87688,88.08,1
26178,0,217187,240651,217240.64,240298.12,-53.64,352.88,-0.096948,-0.091467,0.876917,88.08,1
26219,0,217065,239783,217237.12,240287.82,-172.13,-504.83,-0.096932,-0.091424,0.876943,88.08,1
26259,0,216610,238625,217224.59,240254.57,-614.59,-1629.58,-0.096874,-0.091286,0.876753,88.08,1
26299,0,216280,237970,217205.7,240208.89,-925.7,-2238.89,-0.096787,-0.091096,0.876371,88.09,1
26339,0,216152,237692,217184.64,240158.56,-1032.64,-2466.56,-0.09669,-0.090886,0.875897,88.1,1
26379,0,216118,237606,217163.31,240107.51,-1045.31,-2501.52,-0.096592,-0.090673,0.875402,88.11,1
26419,0,216096,237562,217141.96,240056.6,-1045.97,-2494.61,-0.096494,-0.090461,0.874905,88.13,1
26459,0,216064,237640,217120.42,240008.28,-1056.42,-2368.28,-0.096395,-0.09026,0.874482,88.14,1
26499,0,216118,237742,217100.37,239962.96,-982.38,-2220.97,-0.096302,-0.090071,0.874107,88.15,1
26539,0,216154,237853,217081.45,239920.78,-927.45,-2067.78,-0.096215,-0.089895,0.873788,88.16,1
26578,0,216248,238100,217064.78,239884.37,-816.78,-1784.38,-0.096138,-0.089744,0.873563,88.16,1
26618,0,216343,238446,217050.34,239855.6,-707.34,-1409.61,-0.096072,-0.089624,0.873451,88.16,1
26658,0,216469,238788,217038.71,239834.26,-569.72,-1046.27,-0.096018,-0.089535,0.873414,88.16,1
26698,0,216541,239116,217028.76,239819.89,-487.77,-703.89,-0.095972,-0.089475,0.873435,88.16,1
26737,0,216655,239301,217021.28,239809.51,-366.28,-508.52,-0.095938,-0.089432,0.873465,88.16,1
26778,0,216694,239503,217014.73,239803.39,-320.73,-300.39,-0.095908,-0.089406,0.87351,88.16,1
26818,0,216739,239194,217009.21,239791.2,-270.22,-597.2,-0.095882,-0.089355,0.873513,88.16,1
26858,0,216362,237697,216996.26,239749.32,-634.27,-2052.33,-0.095823,-0.089181,0.873072,88.17,1
26898,0,215764,236118,216971.62,239676.7,-1207.63,-3558.7,-0.095709,-0.088878,0.871722,88.21,1
26938,0,215325,235181,216938.7,239586.79,-1613.7,-4405.8,-0.095557,-0.088502,0.869707,88.26,1
26978,0,215089,234701,216901.71,239489.07,-1812.72,-4788.08,-0.095387,-0.088095,0.867367,88.32,1
27018,0,214914,234456,216861.96,239388.42,-1947.97,-4932.42,-0.095204,-0.087674,0.86495,88.38,1
27059,0,214869,234547,216822.1,239291.59,-1953.11,-4744.59,-0.09502,-0.08727,0.862783,88.43,1
27098,0,214891,234630,216783.48,239198.35,-1892.48,-4568.36,-0.094842,-0.08688,0.860785,88.48,1
27139,0,214892,234558,216745.65,239105.54,-1853.66,-4547.55,-0.094667,-0.086492,0.85878,88.53,1
27177,0,214880,234740,216708.34,239018.23,-1828.34,-4278.23,-0.094495,-0.086127,0.857072,88.57,1
27216,0,214991,235153,216674,238940.93,-1683,-3787.94,-0.094337,-0.085803,0.85578,88.61,1
27257,0,215137,235678,216643.26,238875.68,-1506.27,-3197.69,-0.094195,-0.08553,0.854915,88.63,1
27297,0,215316,236083,216616.71,238819.82,-1300.72,-2736.83,-0.094072,-0.085296,0.854288,88.64,1
27337,0,215429,236376,216592.96,238770.95,-1163.97,-2394.95,-0.093962,-0.085091,0.853819,88.65,1
27377,0,215566,236804,216572.42,238731.6,-1006.42,-1927.61,-0.093868,-0.084927,0.853547,88.66,1
27417,0,215791,237407,216556.79,238705.12,-765.8,-1298.13,-0.093795,-0.084816,0.853458,88.66,1
27457,0,215928,237083,216544.23,238672.68,-616.23,-1589.69,-0.093737,-0.08468,0.853199,88.67,1
27497,0,215592,236037,216525.2,238619.96,-933.2,-2582.97,-0.09365,-0.084459,0.852463,88.69,1
27537,0,215237,235466,216499.43,238556.89,-1262.44,-3090.89,-0.093531,-0.084194,0.851482,88.71,1
27577,0,215196,235614,216473.37,238498.03,-1277.38,-2884.03,-0.09341,-0.083948,0.850682,88.73,1
27617,0,215288,235938,216449.67,238446.84,-1161.67,-2508.84,-0.093301,-0.083733,0.850101,88.75,1
27658,0,215378,236318,216428.25,238404.26,-1050.25,-2086.27,-0.093202,-0.083555,0.849738,88.76,1
27697,0,215481,236611,216409.31,238368.4,-928.31,-1757.41,-0.093114,-0.083404,0.849499,88.76,1
27738,0,215560,236869,216392.32,238338.42,-832.33,-1469.42,-0.093036,-0.083278,0.849354,88.77,1
27777,0,215660,237123,216377.68,238314.1,-717.69,-1191.11,-0.092968,-0.083176,0.849273,88.77,1
27817,0,215761,237558,216365.35,238298.98,-604.36,-740.98,-0.092911,-0.083113,0.849285,88.77,1
27856,0,215904,238009,216356.14,238293.18,-452.14,-284.19,-0.092868,-0.083088,0.849328,88.77,1
27897,0,216057,238525,216350.15,238297.82,-293.16,227.17,-0.092841,-0.083108,0.849345,88.77,1
27936,0,216202,238907,216347.2,238310.01,-145.2,596.98,-0.092827,-0.083159,0.849298,88.77,1
27976,0,216333,239256,216346.92,238328.93,-13.92,927.06,-0.092826,-0.083239,0.849166,88.77,1
28016,0,216414,239592,216348.26,238354.2,65.73,1237.8,-0.092832,-0.083345,0.848928,88.78,1
28056,0,216506,239985,216351.42,238386.82,154.58,1598.17,-0.092847,-0.083481,0.84853,88.79,1
28097,0,216460,239350,216353.59,238406.09,106.41,943.91,-0.092857,-0.083562,0.848395,88.79,1
28136,0,216170,238669,216349.93,238411.34,-179.94,257.66,-0.09284,-0.083584,0.848399,88.79,1
28177,0,216008,238386,216343.09,238410.84,-335.09,-24.84,-0.092808,-0.083582,0.848437,88.79,1
28216,0,215971,238538,216335.65,238413.39,-364.66,124.61,-0.092774,-0.083593,0.848479,88.79,1
28257,0,216076,238823,216330.46,238421.57,-254.47,401.42,-0.09275,-0.083627,0.848478,88.79,1
28296,0,216161,239134,216327.07,238435.84,-166.08,698.16,-0.092734,-0.083687,0.84841,88.79,1
28337,0,216264,239387,216325.82,238454.85,-61.83,932.14,-0.092728,-0.083767,0.84827,88.79,1
28376,0,216350,239513,216326.31,238476.03,23.69,1036.97,-0.092731,-0.083855,0.848093,88.8,1
28416,0,216368,239693,216327.15,238500.37,40.84,1192.63,-0.092734,-0.083958,0.847854,88.8,1
28456,0,216457,240029,216329.76,238530.95,127.23,1498.05,-0.092747,-0.084086,0.847473,88.81,1
28495,0,216584,240358,216334.84,238567.5,249.16,1790.5,-0.09277,-0.084239,0.846931,88.83,1
28536,0,216723,240681,216342.6,238609.78,380.39,2071.22,-0.092806,-0.084416,0.846217,88.84,1
28575,0,216798,240816,216351.71,238653.9,446.28,2162.09,-0.092848,-0.084601,0.845445,88.86,1
28616,0,216835,241038,216361.39,238701.59,473.61,2336.41,-0.092893,-0.084801,0.844534,88.89,1
28655,0,216932,241287,216372.81,238753.29,559.19,2533.7,-0.092945,-0.085017,0.84347,88.91,1
28696,0,216940,240869,216384.15,238795.6,555.84,2073.39,-0.092998,-0.085195,0.84279,88.93,1
28735,0,216597,239933,216388.42,238818.35,208.58,1114.64,-0.093018,-0.08529,0.84259,88.94,1
28776,0,216340,239523,216387.45,238832.45,-47.45,690.55,-0.093013,-0.085349,0.842519,88.94,1
28815,0,216285,239512,216385.4,238846.04,-100.41,665.95,-0.093004,-0.085406,0.842457,88.94,1
28856,0,216280,239672,216383.29,238862.56,-103.3,809.44,-0.092994,-0.085475,0.842353,88.94,1
28896,0,216335,239864,216382.34,238882.59,-47.34,981.41,-0.09299,-0.085559,0.842187,88.95,1
28936,0,216399,240016,216382.68,238905.26,16.31,1110.73,-0.092991,-0.085654,0.841966,88.95,1
28976,0,216420,239991,216383.43,238926.98,36.56,1064.02,-0.092995,-0.085745,0.841764,88.96,1
29015,0,216443,240109,216384.62,238950.62,58.38,1158.38,-0.093,-0.085844,0.841519,88.96,1
29056,0,216489,240353,216386.71,238978.67,102.28,1374.33,-0.09301,-0.085961,0.841165,88.97,1
29094,0,216623,240698,216391.43,239013.06,231.56,1684.94,-0.093032,-0.086105,0.840631,88.98,1
29135,0,216763,240926,216398.87,239051.32,364.13,1874.67,-0.093066,-0.086265,0.839984,89,1
29174,0,216848,241059,216407.85,239091.5,440.14,1967.5,-0.093107,-0.086433,0.83928,89.02,1
29215,0,216899,241194,216417.68,239133.54,481.31,2060.45,-0.093153,-0.086609,0.838509,89.04,1
29254,0,216926,241324,216427.85,239177.35,498.14,2146.64,-0.0932,-0.086792,0.837663,89.06,1
29295,0,216923,240922,216437.76,239212.25,485.23,1709.75,-0.093246,-0.086938,0.837161,89.07,1
29336,0,216583,239935,216440.67,239226.71,142.33,708.28,-0.093259,-0.086998,0.837089,89.07,1
29375,0,216312,239412,216438.09,239230.42,-126.09,181.58,-0.093247,-0.087014,0.837114,89.07,1
29416,0,216211,239260,216433.56,239231.01,-222.56,28.98,-0.093226,-0.087016,0.837159,89.07,1
29455,0,216147,239223,216427.82,239230.85,-280.83,-7.86,-0.0932,-0.087016,0.837216,89.07,1
29495,0,216121,239273,216421.7,239231.7,-300.7,41.3,-0.093171,-0.087019,0.837276,89.07,1
29535,0,216164,239312,216416.54,239233.31,-252.55,78.69,-0.093148,-0.087026,0.837326,89.07,1
29575,0,216131,239220,216410.84,239233.06,-279.84,-13.06,-0.093121,-0.087025,0.837383,89.07,1
29616,0,216125,239275,216405.12,239233.9,-280.13,41.09,-0.093095,-0.087028,0.83744,89.06,1
29655,0,216151,239426,216400.04,239237.75,-249.05,188.25,-0.093071,-0.087045,0.837483,89.06,1
29694,0,216225,239708,216396.54,239247.15,-171.55,460.84,-0.093055,-0.087084,0.837473,89.06,1
29734,0,216320,239925,216395.03,239260.71,-75.03,664.28,-0.093048,-0.087141,0.837398,89.07,1
29774,0,216372,240117,216394.57,239277.85,-22.58,839.14,-0.093046,-0.087212,0.837259,89.07,1
29814,0,216438,240318,216395.45,239298.67,42.55,1019.33,-0.09305,-0.087299,0.83704,89.07,1
29854,0,216480,240505,216397.14,239322.79,82.86,1182.2,-0.093058,-0.0874,0.836734,89.08,1
29895,0,216442,239920,216398.04,239334.75,43.95,585.25,-0.093062,-0.08745,0.83668,89.08,1
29934,0,216075,238888,216391.59,239325.82,-316.59,-437.83,-0.093032,-0.087413,0.836703,89.08,1
29975,0,215762,238250,216379,239304.31,-617,-1054.31,-0.092974,-0.087323,0.836619,89.08,1
30014,0,215626,238072,216363.93,239279.67,-737.94,-1207.67,-0.092904,-0.08722,0.836517,89.09,1
30055,0,215598,238054,216348.6,239255.15,-750.61,-1201.16,-0.092834,-0.087117,0.836426,89.09,1
30094,0,215596,238111,216333.56,239232.28,-737.56,-1121.28,-0.092764,-0.087022,0.836373,89.09,1
30135,0,215621,238192,216319.31,239211.48,-698.31,-1019.48,-0.092698,-0.086935,0.836349,89.09,1
30174,0,215655,238203,216306.03,239191.32,-651.03,-988.33,-0.092637,-0.08685,0.836311,89.09,1
30215,0,215656,238360,216293.04,239174.7,-637.05,-814.7,-0.092577,-0.086781,0.836347,89.09,1
30254,0,215739,238680,216281.96,239164.81,-542.97,-484.81,-0.092525,-0.08674,0.836445,89.09,1
30295,0,215880,239140,216273.92,239164.31,-393.92,-24.31,-0.092488,-0.086738,0.836541,89.09,1
30333,0,216053,239498,216269.51,239170.98,-216.52,327.02,-0.092468,-0.086765,0.836559,89.09,1
30373,0,216146,239781,216267.04,239183.18,-121.05,597.81,-0.092457,-0.086816,0.836493,89.09,1
30414,0,216242,240077,216266.54,239201.07,-24.55,875.92,-0.092454,-0.086891,0.836308,89.09,1
30453,0,216334,240299,216267.9,239223.04,66.09,1075.95,-0.092461,-0.086983,0.836013,89.1,1
30494,0,216257,239560,216267.68,239229.79,-10.69,330.2,-0.09246,-0.087011,0.836009,89.1,1
30533,0,215898,238614,216260.29,239217.48,-362.3,-603.48,-0.092425,-0.08696,0.835996,89.1,1
30574,0,215627,238079,216247.64,239194.71,-620.64,-1115.72,-0.092367,-0.086865,0.835856,89.1,1
30613,0,215530,237830,216233.28,239167.42,-703.28,-1337.42,-0.0923,-0.086751,0.835612,89.11,1
30654,0,215468,237720,216217.98,239138.48,-749.98,-1418.48,-0.09223,-0.08663,0.835336,89.12,1
30693,0,215433,237648,216202.28,239108.67,-769.28,-1460.67,-0.092157,-0.086505,0.835035,89.12,1
30734,0,215415,237620,216186.53,239078.9,-771.53,-1458.91,-0.092084,-0.08638,0.834735,89.13,1
30773,0,215435,237625,216171.51,239049.82,-736.52,-1424.83,-0.092015,-0.086259,0.834433,89.14,1
30814,0,215423,237617,216156.54,239021.18,-733.55,-1404.19,-0.091945,-0.086139,0.834144,89.15,1
30853,0,215434,237764,216142.09,238996.04,-708.09,-1232.05,-0.091879,-0.086034,0.833969,89.15,1
30894,0,215516,238093,216129.56,238977.98,-613.56,-884.98,-0.091821,-0.085958,0.833951,89.15,1
30932,0,215633,238411,216119.62,238966.64,-486.63,-555.64,-0.091775,-0.085911,0.834003,89.15,1
30973,0,215728,238667,216111.79,238960.65,-383.8,-293.66,-0.091738,-0.085886,0.834077,89.15,1
31012,0,215795,238889,216105.46,238959.23,-310.47,-70.23,-0.091709,-0.08588,0.834148,89.15,1
31053,0,215858,239177,216100.51,238963.59,-242.52,213.41,-0.091686,-0.085898,0.834186,89.15,1
31093,0,215846,238642,216095.43,238957.17,-249.44,-315.17,-0.091663,-0.085871,0.834209,89.14,1
31133,0,215482,237471,216083.17,238927.45,-601.17,-1456.45,-0.091606,-0.085747,0.833744,89.16,1
31173,0,215112,236671,216063.75,238882.32,-951.75,-2211.33,-0.091516,-0.085558,0.832682,89.18,1
31213,0,214946,236416,216041.4,238833,-1095.41,-2417,-0.091413,-0.085351,0.831473,89.21,1
31253,0,214897,236314,216018.51,238782.62,-1121.52,-2468.62,-0.091307,-0.08514,0.830211,89.24,1
31293,0,214867,236315,215995.5,238733.28,-1128.5,-2418.28,-0.0912,-0.084934,0.829036,89.27,1
31333,0,214860,236300,215972.79,238684.62,-1112.8,-2384.62,-0.091095,-0.08473,0.82789,89.3,1
31373,0,214873,236358,215950.79,238638.09,-1077.8,-2280.09,-0.090993,-0.084535,0.826857,89.33,1
31414,0,214917,236544,215930.12,238596.21,-1013.13,-2052.22,-0.090897,-0.084359,0.82607,89.35,1
31453,0,214985,236875,215911.23,238561.79,-926.23,-1686.8,-0.09081,-0.084215,0.825638,89.36,1
31494,0,215151,237319,215896.03,238536.93,-745.03,-1217.94,-0.09074,-0.084111,0.825481,89.36,1
31533,0,215327,237615,215884.65,238518.5,-557.66,-903.5,-0.090687,-0.084034,0.825403,89.36,1
31574,0,215427,237760,215875.51,238503.34,-448.52,-743.34,-0.090645,-0.08397,0.825346,89.37,1
31612,0,215454,237961,215867.09,238492.5,-413.09,-531.5,-0.090605,-0.083925,0.825364,89.37,1
31652,0,215518,238142,215860.1,238485.5,-342.11,-343.5,-0.090573,-0.083895,0.825406,89.36,1
31692,0,215548,238178,215853.85,238479.35,-305.86,-301.36,-0.090544,-0.08387,0.825444,89.36,1
31732,0,215373,237153,215844.23,238452.84,-471.23,-1299.84,-0.0905,-0.083758,0.824988,89.38,1
31772,0,214908,235842,215825.51,238400.64,-917.52,-2558.64,-0.090413,-0.083539,0.823172,89.42,1
31812,0,214580,235257,215800.6,238337.76,-1220.61,-3080.77,-0.090297,-0.083276,0.820714,89.48,1
31852,0,214480,235167,215774.18,238274.35,-1294.19,-3107.36,-0.090175,-0.08301,0.818326,89.54,1
31893,0,214450,235086,215747.7,238210.59,-1297.7,-3124.59,-0.090052,-0.082742,0.815913,89.6,1
31932,0,214426,235122,215721.26,238148.82,-1295.27,-3026.83,-0.08993,-0.082483,0.813721,89.66,1
31973,0,214471,235201,215696.26,238089.87,-1225.27,-2888.87,-0.089814,-0.082235,0.811712,89.71,1
32012,0,214483,235238,215672,238032.84,-1189,-2794.84,-0.089701,-0.081995,0.809839,89.75,1
32053,0,214500,235418,215648.56,237980.54,-1148.56,-2562.55,-0.089593,-0.081776,0.808353,89.79,1
32092,0,214584,235760,215627.28,237936.14,-1043.28,-2176.14,-0.089494,-0.081589,0.807371,89.82,1
32133,0,214740,236136,215609.53,237900.14,-869.53,-1764.14,-0.089412,-0.081438,0.806751,89.83,1
32172,0,214858,236490,215594.5,237871.93,-736.5,-1381.94,-0.089342,-0.081319,0.806421,89.84,1
32212,0,214995,236870,215582.51,237851.9,-587.52,-981.91,-0.089286,-0.081235,0.806301,89.84,1
32251,0,215109,237272,215573.06,237840.31,-464.06,-568.31,-0.089242,-0.081186,0.80633,89.84,1
32292,0,215219,237654,215565.98,237836.59,-346.98,-182.59,-0.08921,-0.081171,0.806401,89.84,1
32331,0,215323,237766,215561.12,237835.17,-238.13,-69.17,-0.089187,-0.081165,0.806438,89.84,1
32372,0,215180,236988,215553.5,237818.23,-373.5,-830.23,-0.089152,-0.081093,0.806271,89.84,1
32411,0,214876,236167,215539.95,237785.21,-663.95,-1618.22,-0.089089,-0.080955,0.805573,89.86,1
32452,0,214667,235887,215522.5,237747.25,-855.5,-1860.25,-0.089008,-0.080795,0.804756,89.88,1
32491,0,214615,235826,215504.34,237708.82,-889.34,-1882.83,-0.088924,-0.080633,0.803944,89.9,1
32532,0,214606,235874,215486.39,237672.14,-880.39,-1798.14,-0.08884,-0.080479,0.80324,89.92,1
32571,0,214655,236025,215469.76,237639.2,-814.77,-1614.2,-0.088763,-0.08034,0.802698,89.93,1
32612,0,214707,236158,215454.51,237609.57,-747.52,-1451.58,-0.088692,-0.080216,0.802272,89.94,1
32651,0,214752,236350,215440.46,237584.39,-688.47,-1234.39,-0.088627,-0.08011,0.802014,89.95,1
32692,0,214821,236624,215428.07,237565.18,-607.08,-941.19,-0.08857,-0.080029,0.801932,89.95,1
32731,0,214938,236970,215418.28,237553.29,-480.28,-583.3,-0.088524,-0.079979,0.801967,89.95,1
32772,0,215073,237343,215411.37,237549.09,-338.38,-206.09,-0.088492,-0.079961,0.802034,89.95,1
32811,0,215219,237706,215407.53,237552.23,-188.53,153.77,-0.088474,-0.079974,0.802047,89.95,1
32850,0,215294,238039,215405.26,237561.96,-111.27,477.03,-0.088464,-0.080015,0.801957,89.95,1
32890,0,215384,238332,215404.84,237577.37,-20.84,754.63,-0.088462,-0.08008,0.80171,89.96,1
32930,0,215478,238621,215406.31,237598.25,71.69,1022.75,-0.088469,-0.080168,0.80126,89.97,1
32971,0,215530,238354,215408.78,237613.37,121.22,740.63,-0.08848,-0.080232,0.801031,89.97,1
33010,0,215253,237381,215405.67,237608.73,-152.67,-227.73,-0.088466,-0.080212,0.801025,89.97,1
33051,0,214933,236789,215396.21,237592.34,-463.22,-803.34,-0.088422,-0.080143,0.800916,89.98,1
33090,0,214820,236608,215384.7,237572.65,-564.7,-964.66,-0.088368,-0.08006,0.800767,89.98,1
33131,0,214807,236622,215373.15,237553.64,-566.16,-931.64,-0.088315,-0.07998,0.800647,89.98,1
33170,0,214816,236632,215362.01,237535.21,-546.02,-903.22,-0.088263,-0.079903,0.80053,89.99,1
33211,0,214827,236755,215351.32,237519.6,-524.33,-764.61,-0.088213,-0.079837,0.800498,89.99,1
33250,0,214873,236867,215341.76,237506.56,-468.77,-639.56,-0.088169,-0.079782,0.800499,89.99,1
33291,0,214896,237113,215332.85,237498.7,-436.86,-385.7,-0.088128,-0.079749,0.800595,89.99,1
33330,0,215031,237445,215326.82,237497.64,-295.83,-52.64,-0.0881,-0.079744,0.800669,89.98,1
33370,0,215161,237830,215323.51,237504.28,-162.52,325.72,-0.088084,-0.079772,0.80064,89.98,1
33411,0,215298,238179,215323,237517.78,-25,661.22,-0.088082,-0.079829,0.800427,89.99,1
33449,0,215413,238518,215324.81,237537.79,88.19,980.2,-0.08809,-0.079913,0.799965,90,1
33490,0,215502,238775,215328.37,237562.54,173.63,1212.45,-0.088107,-0.080018,0.79927,90.02,1
33529,0,215569,239065,215333.18,237592.59,235.81,1472.41,-0.088129,-0.080144,0.798251,90.04,1
33570,0,215692,239273,215340.37,237626.2,351.63,1646.8,-0.088162,-0.080286,0.797022,90.07,1
33609,0,215632,238583,215346.21,237645.34,285.78,937.66,-0.08819,-0.080366,0.796662,90.08,1
33650,0,215273,237616,215344.75,237644.75,-71.75,-28.75,-0.088183,-0.080364,0.796667,90.08,1
33689,0,214996,237064,215337.78,237633.14,-341.78,-569.14,-0.08815,-0.080315,0.796618,90.08,1
33729,0,214895,236886,215328.93,237618.2,-433.94,-732.2,-0.088109,-0.080252,0.796528,90.09,1
33770,0,214878,236762,215319.92,237601.07,-441.92,-839.08,-0.088068,-0.08018,0.796358,90.09,1
33809,0,214857,236781,215310.67,237584.68,-453.67,-803.69,-0.088025,-0.080111,0.796227,90.09,1
33850,0,214873,236895,215301.92,237570.9,-428.92,-675.91,-0.087984,-0.080053,0.796172,90.1,1
33889,0,214913,237027,215294.15,237560.04,-381.16,-533.05,-0.087948,-0.080007,0.79617,90.1,1
33930,0,214968,237172,215287.64,237552.28,-319.64,-380.28,-0.087918,-0.079974,0.796198,90.1,1
33969,0,215059,237424,215283.06,237549.71,-224.06,-125.72,-0.087896,-0.079964,0.796242,90.09,1
34010,0,215172,237768,215280.84,237554.09,-108.84,213.91,-0.087886,-0.079982,0.79623,90.09,1
34049,0,215284,238086,215280.9,237564.73,3.09,521.27,-0.087886,-0.080027,0.796079,90.1,1
34089,0,215364,238374,215282.57,237580.92,81.42,793.08,-0.087894,-0.080095,0.795735,90.11,1
34129,0,215454,238620,215286.01,237601.71,167.98,1018.28,-0.08791,-0.080182,0.795182,90.12,1
34168,0,215552,238918,215291.34,237628.04,260.66,1289.95,-0.087935,-0.080293,0.794311,90.14,1
34209,0,215663,239031,215298.78,237656.1,364.22,1374.89,-0.087969,-0.080411,0.793378,90.17,1
34248,0,215508,238142,215302.96,237665.82,205.03,476.17,-0.087989,-0.080452,0.793297,90.17,1
34289,0,215114,237153,215299.18,237655.57,-185.19,-502.58,-0.087971,-0.080409,0.793192,90.17,1
34328,0,214891,236770,215291.01,237637.87,-400.02,-867.88,-0.087933,-0.080335,0.792933,90.18,1
34369,0,214834,236599,215281.87,237617.1,-447.88,-1018.11,-0.087891,-0.080247,0.792551,90.19,1
34408,0,214798,236529,215272.18,237595.34,-474.19,-1066.34,-0.087846,-0.080156,0.792134,90.2,1
34449,0,214789,236562,215262.53,237574.67,-473.53,-1012.67,-0.087801,-0.080069,0.79178,90.21,1
34488,0,214800,236568,215253.28,237554.54,-453.28,-986.55,-0.087758,-0.079984,0.791432,90.21,1
34529,0,214797,236561,215244.15,237534.67,-447.16,-973.67,-0.087716,-0.0799,0.79109,90.22,1
34568,0,214823,236691,215235.73,237517.79,-412.73,-826.8,-0.087676,-0.079829,0.790873,90.23,1
34609,0,214918,237001,215229.39,237507.46,-311.39,-506.47,-0.087647,-0.079786,0.790832,90.23,1
34648,0,215034,237293,215225.5,237503.18,-191.5,-210.19,-0.087629,-0.079768,0.790849,90.23,1
34689,0,215094,237513,215222.87,237503.39,-128.88,9.61,-0.087617,-0.079769,0.79087,90.23,1
34727,0,215158,237757,215221.57,237508.46,-63.58,248.53,-0.087611,-0.07979,0.790837,90.23,1
34768,0,215245,237989,215222.06,237518.07,22.94,470.92,-0.087613,-0.07983,0.790694,90.23,1
34808,0,215320,238246,215224.03,237532.64,95.97,713.36,-0.087622,-0.079892,0.790374,90.24,1
34847,0,215388,238185,215227.32,237545.7,160.67,639.3,-0.087637,-0.079947,0.79014,90.25,1
34888,0,215120,237076,215225.18,237536.31,-105.19,-460.31,-0.087627,-0.079907,0.790014,90.25,1
34927,0,214690,235982,215214.48,237505.23,-524.48,-1523.23,-0.087578,-0.079776,0.788818,90.28,1
34968,0,214462,235540,215199.43,237465.93,-737.44,-1925.94,-0.087508,-0.079611,0.787038,90.32,1
35007,0,214381,235435,215183.07,237425.32,-802.08,-1990.33,-0.087432,-0.07944,0.785221,90.37,1
35048,0,214366,235483,215166.73,237386.48,-800.73,-1903.48,-0.087356,-0.079276,0.78363,90.41,1
35087,0,214406,235623,215151.53,237351.21,-745.53,-1728.22,-0.087285,-0.079128,0.782354,90.44,1
35128,0,214433,235725,215137.15,237318.7,-704.16,-1593.7,-0.087218,-0.078991,0.781297,90.47,1
35168,0,214501,235878,215124.43,237289.89,-623.44,-1411.89,-0.087159,-0.078869,0.780463,90.49,1
35208,0,214562,236110,215113.18,237266.29,-551.19,-1156.3,-0.087107,-0.07877,0.779958,90.5,1
35248,0,214677,236511,215104.46,237251.18,-427.47,-740.19,-0.087066,-0.078706,0.779829,90.5,1
35288,0,214811,236954,215098.6,237245.25,-287.61,-291.25,-0.087039,-0.078681,0.779882,90.5,1
35328,0,214976,237450,215096.15,237249.34,-120.16,200.66,-0.087028,-0.078698,0.779871,90.5,1
35367,0,215154,237960,215097.31,237263.56,56.69,696.44,-0.087033,-0.078758,0.779527,90.51,1
35406,0,215327,238524,215101.92,237288.78,225.08,1235.22,-0.087055,-0.078865,0.778503,90.54,1
35447,0,215542,239183,215110.73,237326.67,431.27,1856.33,-0.087096,-0.079024,0.776289,90.59,1
35488,0,215759,239351,215123.71,237367.15,635.28,1983.84,-0.087156,-0.079195,0.774042,90.65,1
35527,0,215555,238445,215132.34,237388.71,422.66,1056.28,-0.087196,-0.079286,0.773498,90.66,1
35568,0,215240,237784,215134.5,237396.62,105.5,387.38,-0.087206,-0.079319,0.773406,90.66,1
35607,0,215113,237700,215134.07,237402.7,-21.08,297.3,-0.087204,-0.079345,0.773342,90.67,1
35648,0,215148,237898,215134.35,237412.6,13.64,485.39,-0.087205,-0.079386,0.773168,90.67,1
35687,0,215220,238123,215136.07,237426.81,83.92,696.19,-0.087213,-0.079446,0.772816,90.68,1
35727,0,215277,238368,215138.9,237445.64,138.09,922.36,-0.087226,-0.079525,0.772204,90.69,1
35767,0,215378,238620,215143.68,237469.14,234.31,1150.86,-0.087249,-0.079624,0.771283,90.72,1
35807,0,215469,238865,215150.18,237497.06,318.81,1367.94,-0.087279,-0.079742,0.770013,90.75,1
35847,0,215607,239277,215159.32,237532.67,447.67,1744.33,-0.087321,-0.079892,0.767996,90.8,1
35887,0,215763,239709,215171.4,237576.18,591.59,2132.81,-0.087378,-0.080075,0.765066,90.87,1
35927,0,215923,240107,215186.43,237626.81,736.56,2480.19,-0.087447,-0.080288,0.76124,90.97,1
35966,0,216091,240544,215204.53,237685.15,886.47,2858.84,-0.087531,-0.080534,0.756324,91.09,1
36007,0,216324,241083,215226.92,237753.1,1097.08,3329.89,-0.087636,-0.080819,0.750006,91.25,1
36046,0,216738,242159,215257.15,237841.21,1480.84,4317.78,-0.087776,-0.08119,0.740031,91.5,1
36087,0,217301,242834,215298.03,237941.09,2002.97,4892.91,-0.087966,-0.08161,0.729756,91.76,1
36126,0,217421,242240,215340.5,238027.07,2080.5,4212.92,-0.088163,-0.081971,0.724602,91.88,1
36166,0,217129,241355,215376.26,238093.64,1752.73,3261.36,-0.088329,-0.082251,0.722345,91.94,1
36207,0,216922,241081,215407.18,238153.39,1514.81,2927.61,-0.088473,-0.082502,0.720298,91.99,1
36246,0,216905,241129,215437.14,238212.9,1467.86,2916.09,-0.088612,-0.082752,0.718121,92.05,1
36287,0,216868,241200,215465.76,238272.65,1402.23,2927.34,-0.088745,-0.083002,0.715659,92.11,1
36326,0,216909,241316,215494.62,238333.51,1414.38,2982.48,-0.088879,-0.083258,0.713087,92.17,1
36367,0,216945,241378,215523.64,238394.4,1421.36,2983.59,-0.089013,-0.083513,0.710587,92.24,1
36406,0,216978,241360,215552.73,238453.71,1425.27,2906.28,-0.089148,-0.083762,0.708425,92.29,1
36447,0,216971,241483,215581.1,238514.31,1389.89,2968.69,-0.08928,-0.084016,0.705928,92.35,1
36486,0,217110,241784,215611.68,238579.71,1498.31,3204.28,-0.089422,-0.08429,0.703065,92.42,1
36527,0,217233,242074,215644.1,238649.6,1588.89,3424.39,-0.089572,-0.084583,0.69981,92.5,1
36566,0,217433,242519,215679.89,238727,1753.11,3792,-0.089738,-0.084907,0.695899,92.6,1
36606,0,217689,242927,215720.07,238811.01,1968.92,4115.98,-0.089924,-0.085259,0.69182,92.7,1
36645,0,217890,243257,215763.48,238899.93,2126.52,4357.06,-0.090125,-0.085632,0.687692,92.81,1
36686,0,217981,243469,215807.84,238991.31,2173.16,4477.69,-0.090331,-0.086014,0.683457,92.91,1
36725,0,217954,242789,215850.76,239067.26,2103.23,3721.73,-0.09053,-0.086332,0.682256,92.94,1
36766,0,217600,241803,215885.75,239121.98,1714.25,2681.02,-0.090692,-0.086561,0.682546,92.94,1
36805,0,217376,241549,215915.56,239170.53,1460.44,2378.47,-0.09083,-0.086764,0.682528,92.94,1
36846,0,217457,241804,215946.39,239223.2,1510.61,2580.8,-0.090973,-0.086984,0.682187,92.95,1
36886,0,217534,242075,215978.15,239280.25,1555.84,2794.75,-0.09112,-0.087222,0.681436,92.96,1
36926,0,217660,242336,216011.79,239341.37,1648.2,2994.62,-0.091276,-0.087478,0.680496,92.99,1
36966,0,217718,242417,216045.92,239402.89,1672.08,3014.11,-0.091434,-0.087735,0.679621,93.01,1
37006,0,217698,242424,216078.95,239463.32,1619.05,2960.67,-0.091586,-0.087987,0.678688,93.03,1
37046,0,217708,242568,216111.53,239525.42,1596.47,3042.58,-0.091737,-0.088246,0.677416,93.06,1
37086,0,217799,242762,216145.29,239590.15,1653.7,3171.84,-0.091893,-0.088517,0.676009,93.1,1
37126,0,217862,242955,216179.62,239657.45,1682.38,3297.55,-0.092052,-0.088797,0.674346,93.14,1
37166,0,217951,243124,216215.04,239726.79,1735.95,3397.2,-0.092216,-0.089087,0.67263,93.18,1
37206,0,217991,243332,216250.56,239798.9,1740.44,3533.09,-0.09238,-0.089387,0.670507,93.24,1
37245,0,218080,243561,216287.15,239874.15,1792.84,3686.84,-0.09255,-0.089701,0.668138,93.3,1
37285,0,218143,243778,216324.28,239952.23,1818.72,3825.77,-0.092721,-0.090027,0.665454,93.36,1
37324,0,218174,243411,216361.28,240021.4,1812.72,3389.59,-0.092892,-0.090315,0.664315,93.39,1
37365,0,217810,242301,216390.26,240067,1419.73,2234,-0.093026,-0.090505,0.664624,93.38,1
37404,0,217476,241665,216411.98,240098.96,1064.02,1566.03,-0.093127,-0.090638,0.664978,93.38,1
37445,0,217350,241595,216430.75,240128.9,919.25,1466.09,-0.093213,-0.090763,0.665096,93.37,1
37484,0,217361,241650,216449.35,240159.32,911.64,1490.67,-0.093299,-0.090889,0.66516,93.37,1
37525,0,217323,241737,216466.82,240190.87,856.17,1546.13,-0.09338,-0.091021,0.665008,93.37,1
37566,0,217368,241833,216484.85,240223.71,883.14,1609.28,-0.093463,-0.091157,0.66482,93.38,1
37605,0,217357,241871,216502.31,240256.67,854.69,1614.33,-0.093544,-0.091295,0.664556,93.39,1
37646,0,217375,241913,216519.76,240289.81,855.23,1623.19,-0.093624,-0.091432,0.664278,93.39,1
37685,0,217381,242064,216537,240325.29,844,1738.7,-0.093704,-0.09158,0.663777,93.41,1
37726,0,217461,242313,216555.48,240365.06,905.52,1947.94,-0.093789,-0.091746,0.663037,93.42,1
37765,0,217598,242620,216576.32,240410.17,1021.67,2209.83,-0.093886,-0.091933,0.662061,93.45,1
37806,0,217721,242738,216599.23,240456.73,1121.77,2281.27,-0.093991,-0.092127,0.66123,93.47,1
37844,0,217693,242750,216621.1,240502.6,1071.89,2247.39,-0.094092,-0.092318,0.660326,93.49,1
37885,0,217673,242873,216642.14,240550.01,1030.86,2322.98,-0.094189,-0.092515,0.659129,93.52,1
37924,0,217723,242903,216663.75,240597.07,1059.25,2305.92,-0.094289,-0.09271,0.658061,93.55,1
37965,0,217565,241917,216681.78,240623.48,883.22,1293.52,-0.094372,-0.09282,0.658362,93.54,1
38004,0,217122,240742,216690.59,240625.85,431.41,116.14,-0.094413,-0.09283,0.658656,93.53,1
38045,0,216821,240227,216693.2,240617.89,127.8,-390.89,-0.094425,-0.092797,0.65863,93.53,1
38084,0,216714,240014,216693.62,240605.81,20.37,-591.81,-0.094427,-0.092747,0.658476,93.54,1
38125,0,216666,239835,216693.06,240590.4,-27.06,-755.41,-0.094425,-0.092683,0.658202,93.54,1
38164,0,216642,239798,216692.04,240574.56,-50.05,-776.56,-0.09442,-0.092617,0.657911,93.55,1
38204,0,216668,239805,216691.56,240559.17,-23.56,-754.17,-0.094418,-0.092553,0.657632,93.56,1
38244,0,216688,239809,216691.5,240544.18,-3.5,-735.19,-0.094417,-0.09249,0.657364,93.57,1
38284,0,216679,239920,216691.25,240531.71,-12.25,-611.72,-0.094416,-0.092439,0.657184,93.57,1
38324,0,216766,240207,216692.73,240525.23,73.27,-318.23,-0.094423,-0.092412,0.657161,93.57,1
38364,0,216897,240543,216696.82,240525.59,200.17,17.41,-0.094442,-0.092413,0.65725,93.57,1
38405,0,217029,240875,216703.46,240532.59,325.53,342.41,-0.094472,-0.092442,0.657378,93.57,1
38444,0,217118,241145,216711.76,240544.85,406.23,600.14,-0.094511,-0.092493,0.657464,93.56,1
38484,0,217168,241360,216720.89,240561.17,447.11,798.83,-0.094553,-0.092561,0.657446,93.56,1
38523,0,217219,241630,216730.85,240582.54,488.14,1047.45,-0.094599,-0.09265,0.657225,93.57,1
38564,0,217295,241497,216742.15,240600.84,552.84,896.16,-0.094651,-0.092726,0.657286,93.57,1
38603,0,217026,240314,216747.82,240595.1,278.17,-281.11,-0.094677,-0.092702,0.657393,93.57,1
38644,0,216584,239247,216744.56,240568.15,-160.56,-1321.16,-0.094662,-0.09259,0.656417,93.59,1
38683,0,216332,238859,216736.31,240533.96,-404.31,-1674.97,-0.094624,-0.092448,0.655036,93.62,1
38724,0,216270,238781,216727,240498.92,-457,-1717.92,-0.094581,-0.092302,0.653642,93.66,1
38763,0,216283,238775,216718.12,240464.45,-435.13,-1689.45,-0.09454,-0.092159,0.65227,93.69,1
38804,0,216294,238854,216709.64,240432.25,-415.64,-1578.25,-0.094501,-0.092025,0.651084,93.72,1
38843,0,216322,238879,216701.89,240401.18,-379.89,-1522.19,-0.094465,-0.091896,0.64995,93.75,1
38884,0,216307,238943,216694,240372.03,-387,-1429.03,-0.094429,-0.091775,0.648988,93.78,1
38923,0,216350,239125,216687.12,240347.09,-337.13,-1222.09,-0.094397,-0.091671,0.648292,93.79,1
38964,0,216439,239363,216682.17,240327.42,-243.17,-964.42,-0.094374,-0.091589,0.647841,93.8,1
39003,0,216558,239680,216679.68,240314.46,-121.69,-634.47,-0.094363,-0.091535,0.647634,93.81,1
39044,0,216647,240009,216679.03,240308.37,-32.03,-299.38,-0.09436,-0.09151,0.647595,93.81,1
39083,0,216759,240420,216680.62,240310.62,78.37,109.37,-0.094367,-0.091519,0.647614,93.81,1
39122,0,216903,240837,216685.07,240321.15,217.92,515.84,-0.094388,-0.091563,0.647548,93.81,1
39163,0,217046,241165,216692.29,240338.03,353.7,826.97,-0.094421,-0.091633,0.647358,93.82,1
39202,0,217081,240781,216700.07,240346.9,380.92,434.09,-0.094457,-0.09167,0.647527,93.81,1
39243,0,216724,239554,216700.56,240331.04,23.44,-777.05,-0.094459,-0.091604,0.647145,93.82,1
39282,0,216290,238581,216692.35,240296.06,-402.36,-1715.06,-0.094421,-0.091459,0.645528,93.86,1
39323,0,216068,238267,216679.87,240255.48,-611.88,-1988.48,-0.094364,-0.09129,0.643655,93.91,1
39362,0,216037,238207,216667.01,240214.51,-630.02,-2007.52,-0.094304,-0.091119,0.641782,93.96,1
39403,0,216026,238254,216654.18,240175.31,-628.19,-1921.31,-0.094245,-0.090956,0.640132,94,1
39442,0,216075,238476,216642.6,240141.32,-567.61,-1665.33,-0.094192,-0.090814,0.638947,94.03,1
39483,0,216158,238636,216632.92,240111.21,-474.92,-1475.22,-0.094147,-0.090689,0.637963,94.05,1
39522,0,216202,238725,216624.31,240083.5,-422.31,-1358.5,-0.094107,-0.090573,0.637101,94.07,1
39563,0,216241,238885,216616.64,240059.53,-375.64,-1174.53,-0.094072,-0.090474,0.636471,94.09,1
39602,0,216351,239162,216611.32,240041.57,-260.33,-879.58,-0.094047,-0.090399,0.636096,94.1,1
39643,0,216474,239552,216608.59,240031.79,-134.59,-479.8,-0.094035,-0.090358,0.635985,94.1,1
39682,0,216605,239882,216608.51,240028.81,-3.52,-146.81,-0.094034,-0.090346,0.635978,94.1,1
39723,0,216675,240251,216609.84,240033.25,65.16,217.75,-0.09404,-0.090364,0.635962,94.1,1
39762,0,216829,240666,216614.23,240045.9,214.77,620.09,-0.094061,-0.090417,0.635799,94.11,1
39802,0,216991,241132,216621.76,240067.64,369.23,1064.36,-0.094095,-0.090507,0.6353,94.12,1
39842,0,217054,240655,216630.4,240079.39,423.59,575.61,-0.094135,-0.090556,0.635459,94.11,1
39882,0,216658,239481,216630.95,240067.43,27.05,-586.44,-0.094138,-0.090507,0.635222,94.12,1
39922,0,216272,238738,216623.78,240040.85,-351.78,-1302.86,-0.094105,-0.090396,0.634274,94.14,1
39961,0,216162,238660,216614.54,240013.25,-452.55,-1353.25,-0.094062,-0.090281,0.633404,94.16,1
40002,0,216183,238732,216605.92,239987.62,-422.92,-1255.63,-0.094022,-0.090174,0.632658,94.18,1
40042,0,216226,238951,216598.32,239966.89,-372.33,-1015.89,-0.093987,-0.090088,0.632218,94.19,1
40082,0,216289,239184,216592.14,239951.25,-303.14,-767.25,-0.093959,-0.090023,0.631997,94.2,1
40122,0,216351,239403,216587.31,239940.29,-236.31,-537.3,-0.093936,-0.089977,0.631914,94.2,1
40162,0,216424,239616,216584.06,239933.81,-160.06,-317.81,-0.093921,-0.08995,0.631903,94.2,1
40201,0,216545,239984,216583.29,239934.81,-38.3,49.19,-0.093918,-0.089954,0.63191,94.2,1
40242,0,216666,240394,216584.95,239944,81.05,450,-0.093925,-0.089992,0.631775,94.21,1
40283,0,216824,240897,216589.75,239963.06,234.25,933.94,-0.093948,-0.090072,0.631235,94.22,1
40322,0,216944,241267,216596.82,239989.15,347.17,1277.84,-0.09398,-0.09018,0.630258,94.24,1
40363,0,217067,241683,216606.23,240023.03,460.77,1659.97,-0.094024,-0.090322,0.628624,94.28,1
40401,0,217192,242001,216617.95,240062.59,574.05,1938.41,-0.094078,-0.090486,0.626498,94.34,1
40441,0,217299,241896,216631.57,240099.26,667.42,1796.73,-0.094141,-0.090639,0.625076,94.37,1
40481,0,216976,240851,216638.46,240114.29,337.53,736.7,-0.094173,-0.090702,0.624938,94.38,1
40521,0,216656,240226,216638.82,240116.53,17.17,109.47,-0.094174,-0.090711,0.624937,94.38,1
40561,0,216513,240054,216636.32,240115.28,-123.33,-61.28,-0.094163,-0.090706,0.62498,94.38,1
40601,0,216520,240181,216634.01,240116.6,-114.02,64.39,-0.094152,-0.090711,0.625018,94.37,1
40642,0,216592,240352,216633.18,240121.32,-41.19,230.67,-0.094148,-0.090731,0.624987,94.38,1
40681,0,216644,240600,216633.4,240130.9,10.59,469.09,-0.094149,-0.090771,0.624814,94.38,1
40721,0,216682,240655,216634.39,240141.39,47.61,513.61,-0.094154,-0.090815,0.624609,94.38,1
40761,0,216689,240779,216635.48,240154.14,53.52,624.86,-0.094159,-0.090868,0.624299,94.39,1
40801,0,216764,240998,216638.06,240171.01,125.94,826.98,-0.094171,-0.090938,0.623773,94.41,1
40842,0,216884,241377,216643,240195.14,241,1181.86,-0.094193,-0.091038,0.622752,94.43,1
40881,0,217000,241664,216650.14,240224.53,349.86,1439.47,-0.094226,-0.091161,0.621327,94.47,1
40922,0,217089,241997,216658.92,240259.98,430.08,1737.02,-0.094267,-0.091308,0.619269,94.52,1
40961,0,217204,242238,216669.82,240299.56,534.17,1938.44,-0.094317,-0.091473,0.616866,94.58,1
41001,0,217274,242488,216681.92,240343.34,592.08,2144.66,-0.094373,-0.091655,0.613952,94.65,1
41040,0,217374,242259,216695.76,240381.65,678.23,1877.34,-0.094437,-0.091815,0.612262,94.69,1
41081,0,217012,241178,216702.09,240397.59,309.91,780.41,-0.094466,-0.091881,0.612026,94.7,1
41120,0,216684,240565,216701.75,240400.93,-17.75,164.06,-0.094465,-0.091895,0.612015,94.7,1
41161,0,216557,240475,216698.85,240402.42,-141.86,72.58,-0.094451,-0.091901,0.612079,94.7,1
41200,0,216601,240565,216696.9,240405.67,-95.91,159.33,-0.094442,-0.091914,0.612095,94.7,1
41241,0,216634,240710,216695.65,240411.76,-61.66,298.23,-0.094436,-0.09194,0.61204,94.7,1
41281,0,216691,240892,216695.56,240421.37,-4.56,470.63,-0.094436,-0.09198,0.611856,94.7,1
41320,0,216725,241003,216696.15,240433.01,28.84,569.98,-0.094439,-0.092028,0.611581,94.71,1
41361,0,216785,241126,216697.93,240446.87,87.06,679.13,-0.094447,-0.092086,0.611201,94.72,1
41400,0,216838,241284,216700.75,240463.62,137.25,820.38,-0.09446,-0.092156,0.610659,94.73,1
41441,0,216943,241567,216705.59,240485.7,237.41,1081.3,-0.094482,-0.092247,0.609774,94.76,1
41481,0,217027,241819,216712.03,240512.37,314.97,1306.63,-0.094512,-0.092358,0.608524,94.79,1
41521,0,217112,242100,216720.03,240544.12,391.97,1555.88,-0.094549,-0.09249,0.606785,94.83,1
41561,0,217208,242320,216729.79,240579.65,478.2,1740.34,-0.094594,-0.092638,0.604725,94.88,1
41601,0,217277,242506,216740.75,240618.18,536.25,1887.81,-0.094644,-0.092798,0.602371,94.94,1
41640,0,217326,242124,216752.45,240648.31,573.55,1475.69,-0.094698,-0.092923,0.601416,94.96,1
41680,0,216945,240982,216756.31,240654.98,188.69,327.02,-0.094716,-0.092951,0.601443,94.96,1
41720,0,216589,240300,216752.96,240647.89,-163.97,-347.89,-0.094701,-0.092922,0.60143,94.96,1
41759,0,216463,240191,216747.17,240638.75,-284.17,-447.75,-0.094674,-0.092884,0.601513,94.96,1
41800,0,216490,240142,216742.03,240628.82,-252.03,-486.83,-0.09465,-0.092842,0.601506,94.96,1
41839,0,216490,240119,216736.98,240618.62,-246.98,-499.63,-0.094627,-0.0928,0.601479,94.96,1
41880,0,216476,240140,216731.76,240609.04,-255.77,-469.05,-0.094603,-0.09276,0.601495,94.96,1
41919,0,216469,240119,216726.51,240599.25,-257.52,-480.25,-0.094579,-0.092719,0.601502,94.96,1
41960,0,216465,240132,216721.28,240589.9,-256.28,-457.91,-0.094555,-0.092681,0.601528,94.96,1
41999,0,216512,240223,216717.09,240582.56,-205.09,-359.56,-0.094535,-0.09265,0.601554,94.96,1
42040,0,216570,240448,216714.15,240579.87,-144.16,-131.88,-0.094522,-0.092639,0.60162,94.96,1
42080,0,216688,240680,216713.64,240581.87,-25.64,98.12,-0.094519,-0.092647,0.601625,94.96,1
42120,0,216745,240869,216714.28,240587.6,30.72,281.39,-0.094522,-0.092671,0.60156,94.96,1
42160,0,216799,241024,216715.98,240596.34,83.02,427.66,-0.09453,-0.092707,0.601409,94.96,1
42199,0,216854,241194,216718.75,240608.29,135.25,585.7,-0.094543,-0.092757,0.60113,94.97,1
42240,0,216896,240960,216722.29,240615.34,173.7,344.66,-0.094559,-0.092786,0.601126,94.97,1
42278,0,216546,239545,216718.78,240593.95,-172.78,-1048.95,-0.094543,-0.092697,0.600085,95,1
42319,0,215960,238096,216703.6,240544,-743.61,-2448,-0.094473,-0.09249,0.59581,95.1,1
42359,0,215583,237344,216681.2,240480,-1098.2,-3136,-0.09437,-0.092224,0.590082,95.25,1
42399,0,215422,236974,216656.01,240409.89,-1234.02,-3435.89,-0.094253,-0.091932,0.583818,95.4,1
42440,0,215347,236702,216629.84,240335.75,-1282.84,-3633.75,-0.094133,-0.091624,0.577032,95.57,1
42479,0,215276,236578,216602.76,240260.6,-1326.77,-3682.61,-0.094008,-0.091311,0.570726,95.73,1
42520,0,215233,236546,216575.37,240186.32,-1342.38,-3640.33,-0.093881,-0.091002,0.5652,95.87,1
42559,0,215272,236686,216549.31,240116.32,-1277.31,-3430.33,-0.093761,-0.09071,0.560661,95.98,1
42600,0,215349,236802,216525.31,240050.04,-1176.31,-3248.05,-0.09365,-0.090434,0.556534,96.09,1
42639,0,215413,237022,216503.07,239989.48,-1090.08,-2967.48,-0.093547,-0.090182,0.553323,96.17,1
42679,0,215515,237366,216483.31,239937.01,-968.31,-2571.02,-0.093456,-0.089963,0.551123,96.22,1
42719,0,215628,237725,216466.21,239892.78,-838.22,-2167.78,-0.093377,-0.089779,0.549698,96.26,1
42759,0,215724,237969,216451.39,239854.31,-727.39,-1885.31,-0.093309,-0.089618,0.548625,96.28,1
42799,0,215792,238246,216438.2,239822.15,-646.2,-1576.16,-0.093248,-0.089484,0.548027,96.3,1
42839,0,215919,238565,216427.81,239797.01,-508.81,-1232.02,-0.0932,-0.08938,0.547674,96.31,1
42878,0,215959,238132,216418.43,239763.71,-459.44,-1631.72,-0.093156,-0.089241,0.546287,96.34,1
42918,0,215514,236567,216400.35,239699.79,-886.36,-3132.8,-0.093073,-0.088974,0.541297,96.47,1
42958,0,214940,235356,216371.15,239612.93,-1431.16,-4256.94,-0.092938,-0.088612,0.534394,96.64,1
42998,0,214669,235033,216337.1,239521.34,-1668.11,-4488.34,-0.09278,-0.088229,0.528796,96.78,1
43038,0,214639,234946,216303.15,239429.84,-1664.16,-4483.84,-0.092624,-0.087847,0.523631,96.91,1
43078,0,214601,235100,216269.1,239343.25,-1668.11,-4243.25,-0.092466,-0.087485,0.520181,97,1
43119,0,214706,235419,216237.85,239264.76,-1531.86,-3845.77,-0.092322,-0.087157,0.517683,97.06,1
43158,0,214793,235678,216208.96,239193.03,-1415.97,-3515.03,-0.092188,-0.086858,0.515813,97.1,1
43199,0,214907,235892,216182.93,239127.01,-1275.94,-3235.02,-0.092068,-0.086582,0.5141,97.15,1
43238,0,214972,236164,216158.71,239067.76,-1186.72,-2903.77,-0.091956,-0.086334,0.513013,97.17,1
43279,0,215134,236656,216138.21,239019.54,-1004.22,-2363.55,-0.091861,-0.086132,0.512503,97.19,1
43318,0,215289,237047,216121.23,238980.09,-832.23,-1933.09,-0.091782,-0.085967,0.51221,97.19,1
43359,0,215411,237474,216107.03,238949.98,-696.03,-1475.98,-0.091716,-0.085841,0.51225,97.19,1
43398,0,215536,237764,216095.6,238926.26,-559.61,-1162.27,-0.091664,-0.085742,0.512305,97.19,1
43439,0,215635,238142,216086.4,238910.59,-451.41,-768.59,-0.091621,-0.085676,0.512504,97.19,1
43478,0,215775,238535,216080.18,238903.09,-305.19,-368.09,-0.091592,-0.085645,0.512669,97.18,1
43518,0,215837,238332,216075.32,238891.67,-238.33,-559.67,-0.09157,-0.085597,0.51263,97.18,1
43557,0,215510,237049,216064.03,238854.82,-554.03,-1805.83,-0.091517,-0.085443,0.511537,97.21,1
43598,0,215033,236070,216043.4,238799.14,-1010.41,-2729.14,-0.091422,-0.085209,0.509964,97.25,1
43637,0,214859,235849,216019.71,238740.14,-1160.72,-2891.14,-0.091312,-0.084962,0.508791,97.28,1
43678,0,214826,235849,215995.84,238682.32,-1169.84,-2833.33,-0.091202,-0.08472,0.507895,97.3,1
43717,0,214868,236044,215973.29,238629.56,-1105.3,-2585.56,-0.091097,-0.084499,0.507384,97.32,1
43758,0,214927,236255,215952.37,238582.06,-1025.38,-2327.06,-0.091001,-0.0843,0.507141,97.32,1
43797,0,214996,236424,215933.25,238538.9,-937.25,-2114.91,-0.090912,-0.084119,0.506968,97.33,1
43838,0,215066,236642,215915.9,238500.96,-849.91,-1858.97,-0.090832,-0.08396,0.50695,97.33,1
43877,0,215164,237023,215900.87,238471.4,-736.88,-1448.41,-0.090762,-0.083836,0.507218,97.32,1
43918,0,215336,237476,215889.57,238451.5,-553.58,-975.5,-0.09071,-0.083753,0.507497,97.31,1
43957,0,215477,237933,215881.34,238441.12,-404.34,-508.13,-0.090672,-0.083709,0.507786,97.31,1
43998,0,215611,238358,215875.93,238439.46,-264.94,-81.47,-0.090646,-0.083702,0.507965,97.3,1
44037,0,215768,238791,215873.78,238446.5,-105.78,344.5,-0.090636,-0.083732,0.507913,97.3,1
44078,0,215917,239217,215874.65,238461.92,42.34,755.08,-0.090641,-0.083796,0.507564,97.31,1
44116,0,216056,239650,215878.29,238485.68,177.7,1164.31,-0.090657,-0.083896,0.506824,97.33,1
44157,0,216164,239720,215884.01,238510.39,279.98,1209.61,-0.090684,-0.084,0.506152,97.35,1
44197,0,215957,238790,215885.48,238515.98,71.52,274.02,-0.090691,-0.084023,0.50611,97.35,1
44236,0,215627,238003,215880.32,238505.73,-253.33,-502.73,-0.090667,-0.08398,0.506132,97.35,1
44277,0,215469,237809,215872.09,238491.81,-403.09,-682.81,-0.090629,-0.083922,0.506314,97.34,1
44316,0,215460,237887,215863.85,238479.71,-403.86,-592.72,-0.090591,-0.083871,0.506572,97.34,1
44357,0,215494,238066,215856.46,238471.43,-362.47,-405.44,-0.090556,-0.083836,0.506855,97.33,1
44396,0,215565,238213,215850.64,238466.28,-285.64,-253.28,-0.090529,-0.083815,0.507052,97.32,1
44437,0,215612,238351,215845.85,238463.96,-233.86,-112.97,-0.090507,-0.083805,0.507202,97.32,1
44476,0,215688,238564,215842.71,238465.96,-154.72,98.03,-0.090493,-0.083813,0.50726,97.32,1
44517,0,215769,238877,215841.25,238474.2,-72.25,402.8,-0.090486,-0.083848,0.507158,97.32,1
44557,0,215873,239251,215841.87,238489.73,31.12,761.27,-0.090489,-0.083913,0.506765,97.33,1
44597,0,216010,239647,215845.25,238512.87,164.75,1134.13,-0.090504,-0.08401,0.505979,97.35,1
44637,0,216155,240013,215851.43,238542.89,303.56,1470.11,-0.090533,-0.084136,0.504811,97.38,1
44676,0,216276,240373,215859.92,238579.48,416.08,1793.52,-0.090572,-0.084289,0.503198,97.42,1
44717,0,216362,240663,215869.96,238621.17,492.03,2041.83,-0.090619,-0.084464,0.501181,97.47,1
44755,0,216462,241027,215881.81,238669.29,580.19,2357.7,-0.090674,-0.084666,0.498569,97.54,1
44796,0,216542,240769,215895.03,238711.29,646.97,2057.7,-0.090735,-0.084842,0.49713,97.57,1
44835,0,216283,239820,215902.79,238733.48,380.2,1086.52,-0.090771,-0.084935,0.496818,97.58,1
44876,0,215972,239206,215904.18,238742.93,67.81,463.06,-0.090777,-0.084974,0.496684,97.58,1
44915,0,215860,239068,215903.31,238749.43,-43.31,318.56,-0.090773,-0.085001,0.496617,97.58,1
44956,0,215834,239078,215901.93,238756.01,-67.94,321.98,-0.090767,-0.085029,0.496557,97.59,1
44996,0,215870,239197,215901.31,238764.84,-31.31,432.16,-0.090764,-0.085066,0.496428,97.59,1
45036,0,215951,239314,215902.31,238775.82,48.69,538.17,-0.090769,-0.085112,0.49623,97.59,1
45076,0,215972,239369,215903.7,238787.68,68.3,581.31,-0.090775,-0.085162,0.496006,97.6,1
45116,0,215989,239503,215905.42,238802,83.58,701,-0.090783,-0.085221,0.49568,97.61,1
45156,0,216066,239750,215908.62,238820.96,157.38,929.03,-0.090798,-0.085301,0.495151,97.62,1
45196,0,216160,239992,215913.65,238844.39,246.34,1147.61,-0.090821,-0.085399,0.494424,97.64,1
45236,0,216257,240234,215920.53,238872.18,336.47,1361.81,-0.090853,-0.085515,0.493499,97.66,1
45276,0,216342,240489,215928.96,238904.53,413.03,1584.47,-0.090892,-0.085651,0.492312,97.69,1
45316,0,216400,240719,215938.39,238940.81,461.61,1778.19,-0.090936,-0.085803,0.490816,97.73,1
45356,0,216466,240970,215948.93,238981.4,517.06,1988.59,-0.090985,-0.085972,0.488964,97.78,1
45395,0,216549,241061,215960.95,239023,588.05,2038,-0.09104,-0.086146,0.487275,97.82,1
45435,0,216383,240136,215969.39,239045.26,413.61,1090.73,-0.091079,-0.08624,0.487057,97.82,1
45475,0,216000,239037,215970,239045.09,30,-8.09,-0.091082,-0.086239,0.48706,97.82,1
45515,0,215718,238541,215964.96,239035.01,-246.97,-494.02,-0.091059,-0.086197,0.487111,97.82,1
45556,0,215636,238417,215958.39,239022.65,-322.39,-605.66,-0.091028,-0.086145,0.487235,97.82,1
45595,0,215633,238363,215951.89,239009.46,-318.89,-646.47,-0.090998,-0.08609,0.487313,97.82,1
45635,0,215629,238446,215945.43,238998.2,-316.44,-552.2,-0.090968,-0.086043,0.48747,97.81,1
45675,0,215711,238598,215940.75,238990.2,-229.75,-392.2,-0.090947,-0.086009,0.487558,97.81,1
45715,0,215758,238750,215937.09,238985.4,-179.09,-235.41,-0.09093,-0.085989,0.487641,97.81,1
45756,0,215823,238978,215934.81,238985.26,-111.81,-7.27,-0.090919,-0.085989,0.48769,97.81,1
45795,0,215923,239307,215934.57,238991.7,-11.58,315.3,-0.090918,-0.086016,0.487613,97.81,1
45836,0,216074,239677,215937.37,239005.42,136.63,671.58,-0.090931,-0.086073,0.487335,97.82,1
45875,0,216216,240093,215942.93,239027.17,273.06,1065.83,-0.090957,-0.086164,0.486745,97.83,1
45916,0,216360,240477,215951.28,239056.18,408.72,1420.81,-0.090995,-0.086285,0.485836,97.85,1
45955,0,216464,240790,215961.54,239090.85,502.45,1699.14,-0.091043,-0.08643,0.484596,97.89,1
45996,0,216531,241099,215972.93,239131.03,558.06,1967.97,-0.091096,-0.086598,0.482835,97.93,1
46034,0,216660,241120,215986.68,239170.82,673.31,1949.17,-0.091159,-0.086765,0.481735,97.96,1
46075,0,216422,240029,215995.39,239188,426.61,841,-0.0912,-0.086837,0.481935,97.95,1
46114,0,215995,239032,215995.39,239184.89,-0.39,-152.89,-0.0912,-0.086824,0.481918,97.95,1
46154,0,215762,238645,215990.71,239174.1,-228.72,-529.11,-0.091178,-0.086779,0.481917,97.95,1
46195,0,215714,238556,215985.18,239161.75,-271.19,-605.75,-0.091152,-0.086727,0.481936,97.95,1
46234,0,215707,238510,215979.62,239148.71,-272.63,-638.72,-0.091127,-0.086672,0.481925,97.95,1
46275,0,215721,238551,215974.45,239136.76,-253.45,-585.77,-0.091103,-0.086622,0.481923,97.95,1
46314,0,215725,238600,215969.46,239126.03,-244.47,-526.03,-0.09108,-0.086577,0.481956,97.95,1
46355,0,215724,238670,215964.56,239116.92,-240.56,-446.92,-0.091057,-0.086539,0.482045,97.95,1
46394,0,215746,238810,215960.2,239110.79,-214.2,-300.8,-0.091037,-0.086514,0.482174,97.95,1
46435,0,215846,239128,215957.92,239111.14,-111.92,16.86,-0.091026,-0.086515,0.482231,97.94,1
46474,0,215984,239462,215958.43,239118.15,25.56,343.84,-0.091029,-0.086544,0.482134,97.95,1
46515,0,216066,239760,215960.57,239131,105.42,629,-0.091038,-0.086598,0.481843,97.95,1
46555,0,216166,240067,215964.68,239149.73,201.31,917.27,-0.091058,-0.086677,0.481298,97.97,1
46594,0,216259,240344,215970.56,239173.62,288.44,1170.38,-0.091085,-0.086776,0.480485,97.99,1
46635,0,216349,240642,215978.14,239203,370.86,1439,-0.09112,-0.086899,0.479312,98.02,1
46673,0,216449,240644,215987.56,239231.81,461.44,1412.19,-0.091163,-0.08702,0.478561,98.04,1
46714,0,216207,239532,215991.95,239237.82,215.05,294.17,-0.091184,-0.087045,0.478706,98.03,1
46753,0,215752,238487,215987.17,239222.81,-235.17,-735.81,-0.091162,-0.086982,0.47849,98.04,1
46794,0,215530,238105,215978.03,239200.45,-448.03,-1095.45,-0.091119,-0.086889,0.47838,98.04,1
46833,0,215490,237993,215968.26,239176.31,-478.27,-1183.31,-0.091074,-0.086788,0.478224,98.04,1
46874,0,215468,237976,215958.26,239152.31,-490.27,-1176.31,-0.091028,-0.086687,0.478139,98.05,1
46913,0,215487,238101,215948.84,239131.28,-461.84,-1030.28,-0.090984,-0.086599,0.478215,98.04,1
46954,0,215525,238247,215940.37,239113.59,-415.38,-866.59,-0.090945,-0.086525,0.478376,98.04,1
46993,0,215588,238397,215933.34,239099.26,-345.34,-702.27,-0.090912,-0.086466,0.478511,98.04,1
47034,0,215667,238645,215928.03,239090.18,-261.03,-445.19,-0.090888,-0.086427,0.478668,98.03,1
47074,0,215793,238979,215925.32,239087.96,-132.33,-108.97,-0.090875,-0.086418,0.478746,98.03,1
47114,0,215904,239392,215924.9,239094.06,-20.91,297.94,-0.090873,-0.086444,0.478665,98.03,1
47154,0,216042,239759,215927.25,239107.37,114.75,651.63,-0.090884,-0.086499,0.478327,98.04,1
47194,0,216139,240084,215931.48,239126.9,207.52,957.09,-0.090904,-0.086581,0.477667,98.06,1
47234,0,216266,240399,215938.17,239152.35,327.83,1246.64,-0.090935,-0.086688,0.476724,98.08,1
47273,0,216358,240679,215946.56,239182.89,411.44,1496.11,-0.090974,-0.086815,0.475444,98.11,1
47313,0,216462,240992,215956.87,239219.07,505.13,1772.92,-0.091021,-0.086966,0.473753,98.16,1
47353,0,216384,240235,215965.4,239239.4,418.59,995.59,-0.091061,-0.087051,0.473723,98.16,1
47393,0,215958,239090,215965.26,239236.42,-7.27,-146.42,-0.09106,-0.087039,0.473706,98.16,1
47432,0,215641,238501,215958.78,239221.71,-317.78,-720.72,-0.09103,-0.086978,0.47374,98.16,1
47473,0,215578,238478,215951.17,239206.84,-373.17,-728.84,-0.090995,-0.086915,0.47397,98.15,1
47514,0,215584,238519,215943.84,239193.09,-359.84,-674.09,-0.090961,-0.086858,0.474223,98.14,1
47553,0,215593,238697,215936.82,239183.17,-343.83,-486.17,-0.090928,-0.086816,0.474636,98.13,1
47594,0,215664,238916,215931.37,239177.82,-267.38,-261.83,-0.090903,-0.086794,0.474964,98.13,1
47633,0,215765,239172,215928.04,239177.71,-163.05,-5.72,-0.090888,-0.086794,0.475115,98.12,1
47673,0,215874,239442,215926.96,239183.01,-52.97,258.98,-0.090883,-0.086816,0.475064,98.12,1
47713,0,215987,239810,215928.17,239195.56,58.83,614.44,-0.090888,-0.086868,0.474691,98.13,1
47753,0,216119,240300,215931.98,239217.65,187.02,1082.34,-0.090906,-0.08696,0.473662,98.16,1
47794,0,216300,240736,215939.34,239248.03,360.66,1487.97,-0.09094,-0.087087,0.472086,98.2,1
47833,0,216446,241112,215949.48,239285.31,496.52,1826.69,-0.090987,-0.087243,0.470024,98.25,1
47874,0,216587,241443,215962.23,239328.46,624.77,2114.53,-0.091046,-0.087424,0.467656,98.31,1
47912,0,216681,241700,215976.62,239375.9,704.38,2324.09,-0.091113,-0.087622,0.465014,98.37,1
47953,0,216764,241997,215992.37,239428.32,771.63,2568.67,-0.091186,-0.087841,0.461839,98.45,1
47992,0,216779,241412,216008.1,239468,770.89,1944,-0.091259,-0.088007,0.461492,98.46,1
48033,0,216420,240521,216016.35,239489.06,403.64,1031.94,-0.091297,-0.088095,0.461374,98.47,1
48072,0,216222,240234,216020.46,239503.96,201.53,730.03,-0.091316,-0.088157,0.461086,98.47,1
48113,0,216210,240352,216024.26,239520.93,185.73,831.06,-0.091333,-0.088228,0.460606,98.48,1
48152,0,216267,240610,216029.12,239542.71,237.88,1067.28,-0.091356,-0.088318,0.459805,98.5,1
48193,0,216339,240791,216035.32,239567.68,303.67,1223.31,-0.091385,-0.088423,0.458854,98.53,1
48232,0,216412,240932,216042.85,239594.98,369.14,1337.02,-0.091419,-0.088537,0.457871,98.55,1
48273,0,216447,240996,216050.93,239623.01,396.06,1372.98,-0.091457,-0.088654,0.456914,98.58,1
48312,0,216482,241165,216059.56,239653.85,422.44,1511.14,-0.091497,-0.088782,0.455694,98.61,1
48353,0,216549,241423,216069.35,239689.23,479.64,1733.77,-0.091542,-0.08893,0.454072,98.65,1
48392,0,216679,241731,216081.54,239730.07,597.45,2000.92,-0.091598,-0.0891,0.45224,98.69,1
48433,0,216792,241988,216095.76,239775.25,696.23,2212.75,-0.091664,-0.089289,0.450331,98.74,1
48472,0,216896,242188,216111.78,239823.51,784.22,2364.48,-0.091738,-0.08949,0.448568,98.79,1
48513,0,216945,242345,216128.45,239873.95,816.55,2471.05,-0.091815,-0.0897,0.44668,98.83,1
48551,0,216978,242502,216145.45,239926.53,832.55,2575.47,-0.091894,-0.089919,0.444533,98.89,1
48592,0,217017,242454,216162.89,239977.07,854.11,2476.92,-0.091975,-0.09013,0.443112,98.92,1
48631,0,216781,241420,216175.26,240005.95,605.73,1414.05,-0.092032,-0.09025,0.443383,98.92,1
48672,0,216466,240821,216181.07,240022.26,284.92,798.73,-0.092059,-0.090318,0.443276,98.92,1
48711,0,216355,240720,216184.54,240036.23,170.45,683.77,-0.092075,-0.090377,0.443029,98.92,1
48752,0,216345,240871,216187.76,240052.93,157.23,818.06,-0.09209,-0.090446,0.442572,98.94,1
48791,0,216416,241029,216192.32,240072.46,223.67,956.53,-0.092111,-0.090527,0.442034,98.95,1
48832,0,216465,241163,216197.78,240094.29,267.22,1068.7,-0.092136,-0.090618,0.441408,98.96,1
48872,0,216522,241163,216204.26,240115.68,317.73,1047.31,-0.092166,-0.090708,0.440995,98.98,1
48912,0,216517,241177,216210.53,240136.92,306.47,1040.08,-0.092195,-0.090796,0.440554,98.99,1
48952,0,216524,241335,216216.81,240160.89,307.19,1174.11,-0.092224,-0.090896,0.43984,99,1
48991,0,216611,241574,216224.7,240189.15,386.3,1384.84,-0.092261,-0.091013,0.438949,99.03,1
49032,0,216702,241797,216234.26,240221.31,467.73,1575.69,-0.092305,-0.091147,0.437952,99.05,1
49071,0,216790,241947,216245.37,240255.82,544.63,1691.17,-0.092356,-0.091291,0.437076,99.07,1
49112,0,216832,242111,216257.1,240292.93,574.89,1818.06,-0.092411,-0.091445,0.436004,99.1,1
49150,0,216879,242272,216269.54,240332.51,609.45,1939.48,-0.092468,-0.09161,0.434776,99.13,1
49191,0,216913,242359,216282.42,240373.06,630.58,1985.94,-0.092528,-0.091779,0.433561,99.16,1
49230,0,216802,241448,216292.82,240394.56,509.17,1053.44,-0.092576,-0.091868,0.434101,99.15,1
49271,0,216406,240425,216295.09,240395.17,110.91,29.83,-0.092586,-0.091871,0.434187,99.15,1
49310,0,216146,240043,216292.12,240388.12,-146.13,-345.13,-0.092572,-0.091841,0.434219,99.14,1
49351,0,216083,240068,216287.93,240381.71,-204.94,-313.72,-0.092553,-0.091815,0.434395,99.14,1
49390,0,216122,240149,216284.62,240377.07,-162.63,-228.08,-0.092538,-0.091796,0.434521,99.14,1
49431,0,216150,240262,216281.93,240374.78,-131.94,-112.78,-0.092525,-0.091786,0.43463,99.13,1
49472,0,216209,240268,216280.46,240372.65,-71.47,-104.66,-0.092519,-0.091777,0.434664,99.13,1
49511,0,216181,240261,216278.48,240370.42,-97.48,-109.42,-0.092509,-0.091768,0.434725,99.13,1
49551,0,216198,240340,216276.87,240369.81,-78.87,-29.81,-0.092502,-0.091765,0.434776,99.13,1
49591,0,216248,240511,216276.29,240372.64,-28.3,138.36,-0.092499,-0.091777,0.434775,99.13,1
49631,0,216329,240795,216277.35,240381.09,51.64,413.91,-0.092504,-0.091812,0.434633,99.13,1
49670,0,216452,241018,216280.85,240393.82,171.14,624.17,-0.09252,-0.091865,0.434445,99.14,1
49711,0,216513,241227,216285.51,240410.5,227.48,816.5,-0.092542,-0.091935,0.434123,99.15,1
49752,0,216589,241432,216291.59,240430.93,297.41,1001.06,-0.09257,-0.09202,0.433702,99.16,1
49790,0,216629,241660,216298.34,240455.53,330.66,1204.47,-0.092601,-0.092122,0.432963,99.18,1
49831,0,216642,241077,216305.21,240467.96,336.78,609.03,-0.092633,-0.092174,0.433358,99.17,1
49870,0,216261,239843,216304.34,240455.46,-43.34,-612.47,-0.092629,-0.092122,0.432994,99.18,1
49910,0,215865,239124,216295.56,240428.84,-430.56,-1304.84,-0.092588,-0.092011,0.4325,99.19,1
49950,0,215712,238884,216283.89,240397.93,-571.89,-1513.94,-0.092534,-0.091882,0.432363,99.19,1
49991,0,215661,238775,216271.43,240365.48,-610.44,-1590.48,-0.092477,-0.091747,0.432291,99.19,1
50030,0,215649,238766,216259,240333.48,-610,-1567.48,-0.092419,-0.091614,0.432291,99.19,1
50071,0,215698,238812,216247.78,240303.04,-549.78,-1491.05,-0.092367,-0.091488,0.432059,99.2,1
50110,0,215708,238827,216236.98,240273.53,-528.98,-1446.53,-0.092318,-0.091365,0.431811,99.2,1
50151,0,215725,238919,216226.75,240246.43,-501.75,-1327.44,-0.09227,-0.091252,0.431715,99.21,1
50190,0,215747,239082,216217.15,240223.15,-470.16,-1141.16,-0.092226,-0.091155,0.431885,99.2,1
50231,0,215825,239373,216209.31,240206.15,-384.31,-833.16,-0.09219,-0.091084,0.432185,99.2,1
50270,0,215967,239687,216204.46,240195.76,-237.47,-508.77,-0.092167,-0.091041,0.432312,99.19,1
50311,0,216041,239929,216201.2,240190.43,-160.2,-261.44,-0.092152,-0.091019,0.432427,99.19,1
50350,0,216098,240207,216199.14,240190.78,-101.14,16.22,-0.092142,-0.09102,0.432508,99.19,1
50390,0,216180,240491,216198.75,240196.78,-18.75,294.22,-0.092141,-0.091045,0.432425,99.19,1
50430,0,216283,240607,216200.43,240204.98,82.56,402.02,-0.092149,-0.091079,0.432306,99.19,1
50469,0,216107,239494,216198.57,240190.76,-91.58,-696.77,-0.09214,-0.09102,0.431839,99.2,1
50510,0,215601,238095,216186.62,240148.85,-585.63,-2053.86,-0.092085,-0.090846,0.429711,99.26,1
50549,0,215194,237322,216166.76,240092.32,-972.77,-2770.33,-0.091993,-0.09061,0.42827,99.29,1
50590,0,215016,237044,216143.75,240031.35,-1127.75,-2987.36,-0.091886,-0.090356,0.427872,99.3,1
50629,0,214962,236865,216120.1,239968.03,-1158.11,-3103.03,-0.091777,-0.090092,0.42727,99.32,1
50670,0,214931,236837,216096.34,239905.4,-1165.34,-3068.41,-0.091667,-0.089831,0.427021,99.32,1
50709,0,214932,236857,216073.06,239844.43,-1141.06,-2987.44,-0.091559,-0.089577,0.426893,99.33,1
50750,0,214924,236880,216050.09,239785.14,-1126.09,-2905.14,-0.091453,-0.08933,0.427002,99.32,1
50789,0,214933,236949,216027.75,239728.42,-1094.75,-2779.42,-0.091349,-0.089093,0.427318,99.32,1
50830,0,214971,237118,216006.62,239676.21,-1035.63,-2558.22,-0.091252,-0.088876,0.427905,99.3,1
50870,0,215071,237444,215987.92,239631.57,-916.92,-2187.58,-0.091165,-0.088689,0.428643,99.28,1
50910,0,215202,237793,215972.21,239594.81,-770.22,-1801.81,-0.091092,-0.088536,0.429263,99.27,1
50950,0,215281,238063,215958.4,239564.18,-677.41,-1501.19,-0.091028,-0.088408,0.429956,99.25,1
50990,0,215358,238392,215946.4,239540.75,-588.41,-1148.75,-0.090973,-0.08831,0.430804,99.23,1
51030,0,215466,238767,215936.79,239525.28,-470.8,-758.28,-0.090928,-0.088246,0.431582,99.21,1
51069,0,215611,238874,215930.28,239512.26,-319.28,-638.27,-0.090898,-0.088191,0.431816,99.2,1
51109,0,215389,237657,215919.46,239475.17,-530.47,-1818.17,-0.090848,-0.088036,0.430544,99.24,1
51149,0,214850,236297,215898.07,239411.6,-1048.08,-3114.61,-0.090749,-0.087771,0.428491,99.29,1
51189,0,214514,235785,215870.4,239339.07,-1356.41,-3554.08,-0.090621,-0.087468,0.42824,99.29,1
51229,0,214439,235660,215841.78,239265.5,-1402.78,-3605.5,-0.090488,-0.087161,0.428392,99.29,1
51269,0,214435,235662,215813.65,239193.42,-1378.66,-3531.42,-0.090358,-0.086859,0.42859,99.29,1
51309,0,214477,235822,215786.93,239126,-1309.94,-3304,-0.090234,-0.086577,0.429007,99.27,1
51349,0,214519,235969,215761.57,239062.85,-1242.58,-3093.86,-0.090117,-0.086313,0.429538,99.26,1
51389,0,214566,236128,215737.65,239004.17,-1171.66,-2876.17,-0.090006,-0.086068,0.430154,99.25,1
51429,0,214630,236369,215715.5,238951.46,-1085.5,-2582.47,-0.089903,-0.085847,0.430961,99.23,1
51469,0,214762,236751,215696.42,238907.45,-934.42,-2156.45,-0.089815,-0.085663,0.431744,99.21,1
51509,0,214921,237215,215680.92,238873.6,-759.92,-1658.61,-0.089743,-0.085521,0.432479,99.19,1
51550,0,215094,237716,215669.18,238850.45,-575.19,-1134.45,-0.089688,-0.085424,0.433098,99.17,1
51589,0,215238,238147,215660.57,238836.39,-422.58,-689.39,-0.089648,-0.085365,0.433587,99.16,1
51630,0,215381,238585,215655,238831.37,-274,-246.38,-0.089623,-0.085344,0.433891,99.15,1
51668,0,215527,238979,215652.45,238834.32,-125.45,144.67,-0.089611,-0.085357,0.433945,99.15,1
51708,0,215650,239070,215652.4,238839.04,-2.41,230.95,-0.08961,-0.085377,0.433901,99.15,1
51748,0,215424,237958,215647.84,238821.42,-223.84,-863.42,-0.089589,-0.085303,0.433586,99.16,1
51788,0,214943,236795,215633.75,238780.9,-690.75,-1985.91,-0.089524,-0.085133,0.432973,99.18,1
51828,0,214675,236346,215614.57,238732.21,-939.58,-2386.22,-0.089435,-0.084929,0.433037,99.17,1
51868,0,214605,236254,215594.39,238682.65,-989.39,-2428.66,-0.089341,-0.084722,0.433405,99.16,1
