t_ms,trial_id,t_trial_ms,phase,red_raw,ir_raw,red_dc,ir_dc,red_ac,ir_ac,R,spo2,spo2_valid
759853,1,0,0,46473,50417,46053.38,50215.23,419.62,201.77,0.794251,91.23,1
759893,1,40,0,46496,50480,46054.27,50215.77,441.73,264.23,0.795986,91.20,1
759933,1,80,0,46529,50541,46055.21,50216.42,473.79,324.58,0.797725,91.17,1
759974,1,121,0,46551,50595,46056.21,50217.18,494.79,377.82,0.799462,91.13,1
760014,1,161,0,46573,50635,46057.24,50218.01,515.76,416.99,0.801191,91.10,1
760054,1,201,0,46590,50681,46058.31,50218.94,531.69,462.06,0.802906,91.06,1
760094,1,241,0,46604,50719,46059.40,50219.94,544.60,499.06,0.804600,91.03,1
760134,1,281,0,46632,50769,46060.55,50221.04,571.45,547.96,0.806266,90.99,1
760174,1,321,0,46659,50843,46061.75,50222.28,597.25,620.72,0.807890,90.96,1
760214,1,361,0,46683,50837,46062.99,50223.51,620.01,613.49,0.809480,90.92,1
760254,1,401,0,46630,50583,46064.12,50224.23,565.87,358.77,0.811085,90.88,1
760294,1,441,0,46500,50319,46065.00,50224.42,435.00,94.58,0.812711,90.85,1
760334,1,481,0,46415,50226,46065.70,50224.43,349.30,1.57,0.814350,90.81,1
760374,1,521,0,46405,50251,46066.38,50224.48,338.62,26.52,0.816001,90.78,1
760414,1,561,0,46430,50285,46067.11,50224.60,362.89,60.40,0.817667,90.74,1
760454,1,601,0,46438,50333,46067.85,50224.82,370.15,108.18,0.819345,90.70,1
760494,1,641,0,46462,50391,46068.64,50225.15,393.36,165.85,0.821035,90.67,1
760535,1,682,0,46480,50402,46069.46,50225.51,410.54,176.49,0.822739,90.63,1
760575,1,722,0,46470,50374,46070.26,50225.80,399.74,148.20,0.824456,90.59,1
760615,1,762,0,46451,50371,46071.02,50226.10,379.98,144.90,0.826185,90.55,1
760655,1,802,0,46457,50406,46071.80,50226.46,385.20,179.54,0.827923,90.52,1
760695,1,842,0,46486,50466,46072.62,50226.94,413.37,239.06,0.829668,90.48,1
760735,1,882,0,46512,50538,46073.50,50227.56,438.50,310.44,0.831412,90.44,1
760775,1,922,0,46548,50600,46074.45,50228.31,473.55,371.69,0.833151,90.40,1
760815,1,962,0,46573,50659,46075.45,50229.17,497.55,429.83,0.834874,90.36,1
760855,1,1002,0,46600,50703,46076.50,50230.12,523.50,472.88,0.836578,90.33,1
760895,1,1042,0,46626,50751,46077.61,50231.16,548.39,519.84,0.838255,90.29,1
760935,1,1082,0,46643,50788,46078.74,50232.28,564.26,555.72,0.839900,90.25,1
760975,1,1122,0,46664,50824,46079.91,50233.46,584.09,590.54,0.841508,90.21,1
761015,1,1162,0,46675,50875,46081.10,50234.75,593.90,640.25,0.843071,90.17,1
761055,1,1202,0,46702,50925,46082.34,50236.13,619.66,688.87,0.844581,90.13,1
761095,1,1242,0,46717,50898,46083.61,50237.45,633.39,660.55,0.846053,90.09,1
761136,1,1283,0,46647,50618,46084.74,50238.21,562.26,379.79,0.847533,90.06,1
761176,1,1323,0,46498,50331,46085.57,50238.40,412.43,92.60,0.849029,90.02,1
761216,1,1363,0,46413,50211,46086.23,50238.35,326.77,-27.35,0.850534,89.98,1
761256,1,1403,0,46393,50218,46086.84,50238.31,306.16,-20.31,0.852047,89.94,1
761296,1,1443,0,46402,50254,46087.47,50238.34,314.53,15.66,0.853569,89.90,1
761336,1,1483,0,46407,50280,46088.11,50238.43,318.89,41.57,0.855099,89.86,1
761376,1,1523,0,46436,50330,46088.81,50238.61,347.19,91.39,0.856639,89.83,1
761416,1,1563,0,46458,50338,46089.55,50238.81,368.45,99.19,0.858191,89.79,1
761456,1,1603,0,46450,50320,46090.27,50238.97,359.73,81.03,0.859754,89.75,1
761496,1,1643,0,46442,50300,46090.97,50239.10,351.03,60.90,0.861329,89.71,1
761536,1,1683,0,46440,50327,46091.67,50239.27,348.33,87.73,0.862913,89.67,1
761576,1,1723,0,46455,50381,46092.40,50239.56,362.60,141.44,0.864507,89.63,1
761616,1,1763,0,46482,50450,46093.18,50239.98,388.82,210.02,0.866107,89.59,1
761657,1,1804,0,46509,50512,46094.01,50240.53,414.99,271.47,0.867709,89.56,1
761697,1,1844,0,46536,50572,46094.90,50241.19,441.10,330.81,0.869308,89.52,1
761737,1,1884,0,46559,50639,46095.83,50241.99,463.17,397.01,0.870896,89.48,1
761777,1,1924,0,46582,50681,46096.80,50242.87,485.20,438.13,0.872469,89.44,1
761817,1,1964,0,46606,50728,46097.82,50243.84,508.18,484.16,0.874019,89.40,1
761857,1,2004,0,46621,50774,46098.87,50244.90,522.13,529.10,0.875541,89.36,1
761897,1,2044,0,46651,50825,46099.97,50246.06,551.03,578.94,0.877028,89.32,1
761937,1,2084,0,46681,50874,46101.14,50247.32,579.86,626.68,0.878474,89.29,1
761977,1,2124,0,46703,50890,46102.34,50248.61,600.66,641.39,0.879880,89.25,1
762017,1,2164,0,46658,50666,46103.45,50249.44,554.55,416.56,0.881288,89.21,1
762057,1,2204,0,46522,50333,46104.29,50249.61,417.71,83.39,0.882712,89.17,1
762097,1,2244,0,46409,50175,46104.90,50249.46,304.10,-74.46,0.884142,89.13,1
762137,1,2284,0,46372,50159,46105.44,50249.28,266.56,-90.28,0.885575,89.09,1
762177,1,2324,0,46382,50194,46105.99,50249.17,276.01,-55.17,0.887013,89.06,1
762218,1,2365,0,46393,50221,46106.57,50249.12,286.43,-28.12,0.888457,89.02,1
762258,1,2405,0,46406,50273,46107.17,50249.17,298.83,23.83,0.889908,88.98,1
762298,1,2445,0,46426,50303,46107.81,50249.28,318.19,53.72,0.891367,88.94,1
762338,1,2485,0,46434,50289,46108.46,50249.36,325.54,39.64,0.892836,88.90,1
762378,1,2525,0,46431,50285,46109.11,50249.43,321.89,35.57,0.894314,88.87,1
762418,1,2565,0,46433,50307,46109.75,50249.55,323.25,57.45,0.895800,88.83,1
762458,1,2605,0,46450,50359,46110.44,50249.77,339.56,109.23,0.897295,88.79,1
762498,1,2645,0,46482,50427,46111.18,50250.12,370.82,176.87,0.898796,88.75,1
762538,1,2685,0,46515,50502,46111.99,50250.63,403.01,251.37,0.900302,88.71,1
762578,1,2725,0,46543,50570,46112.86,50251.27,430.14,318.73,0.901805,88.68,1
762618,1,2765,0,46571,50618,46113.77,50252.00,457.23,366.00,0.903301,88.64,1
762658,1,2805,0,46591,50664,46114.73,50252.83,476.27,411.17,0.904786,88.60,1
762698,1,2845,0,46611,50708,46115.72,50253.74,495.28,454.26,0.906255,88.56,1
762738,1,2885,0,46629,50741,46116.75,50254.71,512.25,486.29,0.907702,88.53,1
762779,1,2926,0,46647,50781,46117.81,50255.77,529.19,525.23,0.909124,88.49,1
762819,1,2966,0,46662,50833,46118.90,50256.93,543.10,576.07,0.910511,88.45,1
762859,1,3006,0,46685,50869,46120.04,50258.15,564.96,610.85,0.911860,88.41,1
762899,1,3046,0,46669,50673,46121.13,50258.98,547.87,414.02,0.913210,88.38,1
762939,1,3086,0,46532,50352,46121.96,50259.17,410.04,92.83,0.914574,88.34,1
762979,1,3126,0,46415,50179,46122.54,50259.01,292.46,-80.01,0.915944,88.30,1
763019,1,3166,0,46380,50158,46123.06,50258.81,256.94,-100.81,0.917316,88.26,1
763059,1,3206,0,46390,50194,46123.59,50258.68,266.41,-64.68,0.918692,88.23,1
763099,1,3246,0,46405,50222,46124.16,50258.61,280.84,-36.61,0.920073,88.19,1
763139,1,3286,0,46417,50279,46124.74,50258.66,292.26,20.34,0.921462,88.15,1
763179,1,3326,0,46442,50306,46125.38,50258.75,316.62,47.25,0.922858,88.12,1
763219,1,3366,0,46441,50285,46126.01,50258.81,314.99,26.19,0.924264,88.08,1
763259,1,3406,0,46418,50260,46126.60,50258.81,291.40,1.19,0.925676,88.04,1
763300,1,3447,0,46425,50267,46127.20,50258.83,297.80,8.17,0.927096,88.01,1
763340,1,3487,0,46435,50319,46127.81,50258.95,307.19,60.05,0.928523,87.97,1
763380,1,3527,0,46456,50389,46128.47,50259.21,327.53,129.79,0.929957,87.93,1
763420,1,3567,0,46488,50454,46129.19,50259.61,358.81,194.39,0.931395,87.90,1
763460,1,3607,0,46519,50513,46129.97,50260.11,389.03,252.89,0.932835,87.86,1
763500,1,3647,0,46543,50569,46130.80,50260.73,412.20,308.27,0.934272,87.82,1
763540,1,3687,0,46567,50615,46131.67,50261.44,435.33,353.56,0.935702,87.79,1
763580,1,3727,0,46592,50649,46132.59,50262.22,459.41,386.78,0.937122,87.75,1
763620,1,3767,0,46607,50682,46133.54,50263.06,473.46,418.94,0.938529,87.72,1
763660,1,3807,0,46623,50723,46134.52,50263.98,488.48,459.02,0.939916,87.68,1
763700,1,3847,0,46644,50769,46135.54,50264.99,508.46,504.01,0.941279,87.64,1
763740,1,3887,0,46662,50760,46136.60,50265.98,525.40,494.02,0.942621,87.61,1
763780,1,3927,0,46601,50497,46137.53,50266.45,463.47,230.55,0.943976,87.57,1
763820,1,3967,0,46461,50200,46138.18,50266.32,322.82,-66.32,0.945340,87.53,1
763861,1,4008,0,46364,50069,46138.63,50265.92,225.37,-196.92,0.946697,87.50,1
763901,1,4048,0,46337,50084,46139.03,50265.56,197.97,-181.56,0.948049,87.46,1
763941,1,4088,0,46351,50125,46139.45,50265.28,211.55,-140.28,0.949398,87.43,1
763981,1,4128,0,46365,50163,46139.91,50265.07,225.09,-102.07,0.950747,87.39,1
764021,1,4168,0,46391,50225,46140.41,50265.00,250.59,-40.00,0.952100,87.35,1
764061,1,4208,0,46412,50249,46140.95,50264.96,271.05,-15.96,0.953460,87.32,1
764101,1,4248,0,46419,50228,46141.51,50264.89,277.49,-36.89,0.954825,87.28,1
764141,1,4288,0,46404,50215,46142.04,50264.79,261.96,-49.79,0.956195,87.25,1
764181,1,4328,0,46410,50241,46142.58,50264.75,267.42,-23.75,0.957571,87.21,1
764221,1,4368,0,46431,50296,46143.16,50264.81,287.84,31.19,0.958954,87.18,1
764261,1,4408,0,46463,50356,46143.80,50264.99,319.20,91.01,0.960346,87.14,1
764301,1,4448,0,46490,50415,46144.49,50265.29,345.51,149.71,0.961744,87.11,1
764341,1,4488,0,46513,50474,46145.23,50265.71,367.77,208.29,0.963147,87.07,1
764382,1,4529,0,46534,50522,46146.01,50266.23,387.99,255.77,0.964551,87.03,1
764422,1,4569,0,46557,50567,46146.83,50266.83,410.17,300.17,0.965953,87.00,1
764462,1,4609,0,46577,50608,46147.70,50267.51,429.30,340.49,0.967349,86.96,1
764502,1,4649,0,46591,50645,46148.58,50268.27,442.42,376.73,0.968733,86.93,1
764542,1,4689,0,46617,50696,46149.52,50269.12,467.48,426.87,0.970099,86.89,1
764582,1,4729,0,46637,50753,46150.50,50270.09,486.50,482.91,0.971439,86.86,1
764622,1,4769,0,46646,50666,46151.49,50270.89,494.51,395.11,0.972773,86.82,1
764662,1,4809,0,46556,50351,46152.30,50271.05,403.70,79.95,0.974123,86.79,1
764702,1,4849,0,46420,50111,46152.83,50270.73,267.17,-159.73,0.975474,86.75,1
764742,1,4889,0,46353,50049,46153.23,50270.29,199.77,-221.29,0.976814,86.72,1
764782,1,4929,0,46353,50077,46153.64,50269.90,199.36,-192.90,0.978146,86.68,1
764822,1,4969,0,46368,50102,46154.07,50269.56,213.93,-167.56,0.979474,86.65,1
764862,1,5009,0,46373,50151,46154.50,50269.33,218.50,-118.33,0.980802,86.61,1
764902,1,5049,0,46400,50196,46155.00,50269.18,245.00,-73.18,0.982133,86.58,1
764943,1,5090,0,46404,50186,46155.50,50269.02,248.50,-83.02,0.983467,86.54,1
764983,1,5130,0,46396,50165,46155.98,50268.81,240.02,-103.81,0.984802,86.51,1
765023,1,5170,0,46388,50170,46156.44,50268.62,231.56,-98.62,0.986140,86.47,1
765063,1,5210,0,46401,50204,46156.93,50268.49,244.07,-64.49,0.987480,86.44,1
765103,1,5250,0,46422,50270,46157.46,50268.49,264.54,1.51,0.988828,86.40,1
765143,1,5290,0,46453,50343,46158.06,50268.64,294.94,74.36,0.990183,86.37,1
765183,1,5330,0,46486,50405,46158.71,50268.91,327.29,136.09,0.991545,86.33,1
765223,1,5370,0,46522,50464,46159.44,50269.30,362.56,194.70,0.992913,86.30,1
765263,1,5410,0,46546,50514,46160.21,50269.80,385.79,244.20,0.994283,86.26,1
765303,1,5450,0,46566,50547,46161.03,50270.35,404.97,276.65,0.995654,86.23,1
765343,1,5490,0,46583,50583,46161.87,50270.98,421.13,312.02,0.997021,86.19,1
765383,1,5530,0,46599,50620,46162.75,50271.68,436.25,348.32,0.998380,86.16,1
765423,1,5570,0,46616,50664,46163.65,50272.46,452.35,391.54,0.999725,86.12,1
765464,1,5611,0,46638,50696,46164.60,50273.31,473.40,422.69,1.001052,86.09,1
765504,1,5651,0,46618,50516,46165.51,50273.80,452.49,242.20,1.002391,86.06,1
765544,1,5691,0,46488,50205,46166.15,50273.66,321.85,-68.66,1.003739,86.02,1
765584,1,5731,0,46371,50020,46166.56,50273.15,204.44,-253.15,1.005073,85.99,1
765624,1,5771,0,46328,49994,46166.89,50272.59,161.11,-278.59,1.006386,85.95,1
765664,1,5811,0,46331,50028,46167.21,50272.11,163.79,-244.11,1.007683,85.92,1
765704,1,5851,0,46344,50057,46167.57,50271.68,176.43,-214.68,1.008969,85.88,1
765744,1,5891,0,46361,50102,46167.96,50271.34,193.04,-169.34,1.010248,85.85,1
765784,1,5931,0,46389,50134,46168.40,50271.06,220.60,-137.06,1.011527,85.82,1
765824,1,5971,0,46384,50113,46168.83,50270.75,215.17,-157.75,1.012801,85.78,1
765864,1,6011,0,46373,50086,46169.24,50270.38,203.76,-184.38,1.014070,85.75,1
765904,1,6051,0,46371,50098,46169.65,50270.04,201.35,-172.04,1.015332,85.71,1
765944,1,6091,0,46386,50143,46170.08,50269.78,215.92,-126.78,1.016594,85.68,1
765984,1,6131,0,46405,50204,46170.55,50269.65,234.45,-65.65,1.017859,85.65,1
766025,1,6172,0,46431,50266,46171.08,50269.64,259.92,-3.64,1.019132,85.61,1
766065,1,6212,0,46461,50328,46171.66,50269.76,289.34,58.24,1.020413,85.58,1
766105,1,6252,0,46483,50379,46172.29,50269.98,310.71,109.02,1.021703,85.54,1
766145,1,6292,0,46506,50420,46172.95,50270.28,333.05,149.72,1.023001,85.51,1
766185,1,6332,0,46527,50459,46173.66,50270.66,353.34,188.34,1.024305,85.48,1
766225,1,6372,0,46544,50496,46174.41,50271.11,369.59,224.89,1.025612,85.44,1
766265,1,6412,0,46565,50539,46175.19,50271.65,389.81,267.35,1.026920,85.41,1
766305,1,6452,0,46589,50589,46176.02,50272.29,412.98,316.71,1.028222,85.38,1
766345,1,6492,0,46618,50618,46176.90,50272.98,441.10,345.02,1.029517,85.34,1
766385,1,6532,0,46591,50422,46177.73,50273.28,413.27,148.72,1.030829,85.31,1
766425,1,6572,0,46459,50106,46178.29,50272.95,280.71,-166.95,1.032142,85.28,1
766465,1,6612,0,46343,49940,46178.62,50272.28,164.37,-332.28,1.033422,85.24,1
766505,1,6652,0,46303,49910,46178.87,50271.56,124.12,-361.56,1.034663,85.21,1
766545,1,6692,0,46300,49925,46179.12,50270.87,120.88,-345.87,1.035867,85.18,1
766586,1,6733,0,46303,49938,46179.37,50270.20,123.63,-332.20,1.037038,85.14,1
766626,1,6773,0,46311,49988,46179.63,50269.64,131.37,-281.64,1.038186,85.11,1
766666,1,6813,0,46329,50011,46179.93,50269.12,149.07,-258.12,1.039315,85.08,1
766706,1,6853,0,46334,49993,46180.24,50268.57,153.76,-275.57,1.040423,85.05,1
766746,1,6893,0,46324,49978,46180.53,50268.00,143.47,-290.00,1.041508,85.01,1
766786,1,6933,0,46324,49999,46180.82,50267.46,143.18,-268.46,1.042572,84.98,1
766826,1,6973,0,46344,50050,46181.15,50267.03,162.85,-217.03,1.043625,84.95,1
766866,1,7013,0,46371,50107,46181.53,50266.71,189.47,-159.71,1.044673,84.92,1
766906,1,7053,0,46399,50168,46181.97,50266.51,217.03,-98.51,1.045724,84.88,1
766946,1,7093,0,46427,50213,46182.46,50266.41,244.54,-53.41,1.046781,84.85,1
766986,1,7133,0,46446,50262,46182.99,50266.40,263.01,-4.40,1.047847,84.82,1
767026,1,7173,0,46465,50298,46183.55,50266.46,281.45,31.54,1.048923,84.79,1
767066,1,7213,0,46482,50338,46184.15,50266.61,297.85,71.39,1.050010,84.76,1
767107,1,7254,0,46499,50371,46184.79,50266.82,314.21,104.18,1.051109,84.73,1
767147,1,7294,0,46515,50416,46185.45,50267.12,329.55,148.88,1.052216,84.70,1
767187,1,7334,0,46534,50470,46186.14,50267.53,347.86,202.47,1.053330,84.67,1
767227,1,7374,0,46563,50524,46186.90,50268.04,376.10,255.96,1.054446,84.64,1
767267,1,7414,0,46578,50459,46187.68,50268.43,390.32,190.57,1.055574,84.60,1
767307,1,7454,0,46484,50157,46188.28,50268.20,295.72,-111.20,1.056711,84.57,1
767347,1,7494,0,46357,49909,46188.62,50267.48,168.38,-358.48,1.057809,84.54,1
767387,1,7534,0,46281,49822,46188.80,50266.59,92.20,-444.59,1.058845,84.51,1
767427,1,7574,0,46270,49828,46188.97,50265.72,81.03,-437.72,1.059823,84.48,1
767467,1,7614,0,46275,49841,46189.14,50264.87,85.86,-423.87,1.060747,84.45,1
767507,1,7654,0,46277,49871,46189.32,50264.09,87.68,-393.09,1.061627,84.42,1
767547,1,7694,0,46294,49915,46189.53,50263.39,104.47,-348.39,1.062472,84.39,1
767587,1,7734,0,46304,49916,46189.76,50262.70,114.24,-346.70,1.063285,84.36,1
767628,1,7775,0,46298,49890,46189.98,50261.95,108.02,-371.95,1.064060,84.34,1
767668,1,7815,0,46293,49893,46190.18,50261.21,102.82,-368.21,1.064799,84.31,1
767708,1,7855,0,46298,49936,46190.40,50260.57,107.60,-324.57,1.065510,84.28,1
767748,1,7895,0,46323,49995,46190.67,50260.04,132.33,-265.04,1.066205,84.25,1
767788,1,7935,0,46352,50066,46190.99,50259.65,161.01,-193.65,1.066892,84.22,1
767828,1,7975,0,46380,50126,46191.37,50259.38,188.63,-133.38,1.067579,84.20,1
767868,1,8015,0,46408,50185,46191.80,50259.23,216.20,-74.23,1.068271,84.17,1
767908,1,8055,0,46440,50227,46192.30,50259.17,247.70,-32.17,1.068972,84.14,1
767948,1,8095,0,46461,50262,46192.84,50259.18,268.16,2.82,1.069685,84.11,1
767988,1,8135,0,46476,50305,46193.41,50259.27,282.59,45.73,1.070409,84.09,1
768028,1,8175,0,46494,50334,46194.01,50259.43,299.99,74.57,1.071147,84.06,1
768068,1,8215,0,46511,50376,46194.64,50259.66,316.36,116.34,1.071898,84.04,1
768108,1,8255,0,46531,50436,46195.32,50260.02,335.68,175.98,1.072659,84.01,1
768148,1,8295,0,46556,50478,46196.04,50260.45,359.96,217.55,1.073430,83.99,1
768189,1,8336,0,46545,50309,46196.74,50260.55,348.26,48.45,1.074220,83.96,1
768229,1,8376,0,46417,49984,46197.18,50260.00,219.82,-276.00,1.074995,83.94,1
768269,1,8416,0,46285,49783,46197.36,50259.05,87.64,-476.05,1.075706,83.91,1
768309,1,8456,0,46239,49734,46197.45,50258.00,41.55,-524.00,1.076339,83.89,1
768349,1,8496,0,46237,49753,46197.53,50256.99,39.47,-503.99,1.076906,83.86,1
768389,1,8536,0,46241,49775,46197.62,50256.03,43.38,-481.03,1.077413,83.84,1
768429,1,8576,0,46254,49822,46197.73,50255.16,56.27,-433.16,1.077874,83.81,1
768469,1,8616,0,46283,49855,46197.90,50254.36,85.10,-399.36,1.078297,83.79,1
768509,1,8656,0,46287,49845,46198.08,50253.55,88.92,-408.55,1.078682,83.77,1
768549,1,8696,0,46280,49818,46198.25,50252.68,81.75,-434.68,1.079024,83.75,1
768589,1,8736,0,46277,49827,46198.41,50251.82,78.59,-424.82,1.079327,83.72,1
768629,1,8776,0,46291,49875,46198.59,50251.07,92.41,-376.07,1.079599,83.70,1
768669,1,8816,0,46318,49938,46198.83,50250.45,119.17,-312.45,1.079852,83.68,1
768710,1,8857,0,46346,49999,46199.13,50249.95,146.87,-250.95,1.080095,83.66,1
768750,1,8897,0,46372,50051,46199.48,50249.55,172.52,-198.55,1.080335,83.64,1
768790,1,8937,0,46394,50104,46199.87,50249.26,194.13,-145.26,1.080576,83.62,1
768830,1,8977,0,46415,50147,46200.30,50249.05,214.70,-102.05,1.080823,83.60,1
768870,1,9017,0,46438,50193,46200.77,50248.95,237.23,-55.95,1.081079,83.58,1
768910,1,9057,0,46455,50234,46201.28,50248.92,253.72,-14.92,1.081347,83.56,1
768950,1,9097,0,46478,50283,46201.84,50248.99,276.16,34.01,1.081629,83.55,1
768990,1,9137,0,46510,50334,46202.45,50249.16,307.55,84.84,1.081926,83.53,1
769030,1,9177,0,46539,50390,46203.13,50249.44,335.87,140.56,1.082240,83.51,1
769070,1,9217,0,46558,50404,46203.84,50249.75,354.16,154.25,1.082572,83.49,1
769110,1,9257,0,46522,50165,46204.48,50249.58,317.52,-84.58,1.082921,83.48,1
769150,1,9297,0,46377,49843,46204.82,50248.77,172.18,-405.77,1.083236,83.46,1
769190,1,9337,0,46265,49680,46204.95,50247.63,60.05,-567.63,1.083477,83.44,1
769230,1,9377,0,46225,49658,46204.99,50246.45,20.01,-588.45,1.083642,83.43,1
769271,1,9418,0,46231,49678,46205.04,50245.32,25.96,-567.32,1.083740,83.41,1
769311,1,9458,0,46234,49697,46205.10,50244.22,28.90,-547.22,1.083780,83.40,1
769351,1,9498,0,46247,49746,46205.19,50243.23,41.81,-497.23,1.083773,83.38,1
769391,1,9538,0,46274,49774,46205.33,50242.29,68.67,-468.29,1.083727,83.37,1
769431,1,9578,0,46277,49771,46205.47,50241.35,71.53,-470.35,1.083643,83.35,1
769471,1,9618,0,46275,49760,46205.61,50240.39,69.39,-480.39,1.083519,83.34,1
769511,1,9658,0,46285,49784,46205.77,50239.48,79.23,-455.48,1.083362,83.33,1
769551,1,9698,0,46315,49844,46205.99,50238.69,109.01,-394.69,1.083182,83.32,1
769591,1,9738,0,46352,49919,46206.29,50238.05,145.71,-319.05,1.082989,83.30,1
769631,1,9778,0,46377,49982,46206.63,50237.54,170.37,-255.54,1.082792,83.29,1
769671,1,9818,0,46414,50045,46207.04,50237.16,206.96,-192.16,1.082597,83.28,1
769711,1,9858,0,46436,50097,46207.50,50236.88,228.50,-139.88,1.082409,83.27,1
769751,1,9898,0,46463,50143,46208.02,50236.69,254.98,-93.69,1.082233,83.26,1
769792,1,9939,0,46481,50186,46208.56,50236.59,272.44,-50.59,1.082070,83.25,1
769832,1,9979,0,46508,50231,46209.16,50236.58,298.84,-5.58,1.081926,83.24,1
769872,1,10019,0,46525,50282,46209.80,50236.67,315.20,45.33,1.081801,83.24,1
769912,1,10059,0,46553,50340,46210.48,50236.88,342.52,103.12,1.081697,83.23,1
769952,1,10099,0,46588,50412,46211.24,50237.23,376.76,174.77,1.081615,83.22,1
769992,1,10139,0,46616,50438,46212.05,50237.63,403.95,200.37,1.081557,83.21,1
770032,1,10179,0,46583,50208,46212.80,50237.57,370.20,-29.57,1.081526,83.20,1
770072,1,10219,0,46455,49921,46213.28,50236.94,241.72,-315.94,1.081488,83.20,1
770112,1,10259,0,46354,49787,46213.56,50236.04,140.44,-449.04,1.081416,83.19,1
770152,1,10299,0,46325,49769,46213.79,50235.11,111.21,-466.11,1.081307,83.18,1
770192,1,10339,0,46330,49773,46214.02,50234.19,115.98,-461.19,1.081164,83.18,1
770232,1,10379,0,46334,49778,46214.26,50233.28,119.74,-455.28,1.080989,83.17,1
770272,1,10419,0,46350,49835,46214.54,50232.48,135.46,-397.48,1.080791,83.16,1
770313,1,10460,0,46376,49871,46214.86,50231.76,161.14,-360.76,1.080576,83.16,1
770353,1,10500,0,46383,49866,46215.20,50231.03,167.80,-365.03,1.080346,83.15,1
770393,1,10540,0,46382,49873,46215.53,50230.31,166.47,-357.31,1.080101,83.15,1
770433,1,10580,0,46393,49903,46215.89,50229.66,177.11,-326.66,1.079845,83.15,1
770473,1,10620,0,46417,49962,46216.29,50229.12,200.71,-267.12,1.079587,83.14,1
770513,1,10660,0,46452,50038,46216.76,50228.74,235.24,-190.74,1.079333,83.14,1
770553,1,10700,0,46494,50106,46217.32,50228.50,276.68,-122.50,1.079093,83.13,1
770593,1,10740,0,46529,50155,46217.94,50228.35,311.06,-73.35,1.078872,83.13,1
770633,1,10780,0,46559,50208,46218.62,50228.31,340.37,-20.31,1.078674,83.13,1
770673,1,10820,0,46579,50255,46219.35,50228.37,359.65,26.63,1.078502,83.13,1
770713,1,10860,0,46604,50295,46220.12,50228.50,383.88,66.50,1.078358,83.12,1
770753,1,10900,0,46625,50339,46220.93,50228.72,404.07,110.28,1.078245,83.12,1
770793,1,10940,0,46643,50387,46221.77,50229.04,421.23,157.96,1.078162,83.12,1
770833,1,10980,0,46667,50448,46222.66,50229.48,444.34,218.52,1.078110,83.12,1
770874,1,11021,0,46698,50505,46223.62,50230.03,474.38,274.97,1.078086,83.11,1
770914,1,11061,0,46719,50513,46224.61,50230.59,494.39,282.41,1.078096,83.11,1
770954,1,11101,0,46675,50295,46225.51,50230.72,449.49,64.28,1.078142,83.11,1
770994,1,11141,0,46559,50024,46226.18,50230.31,332.82,-206.31,1.078202,83.11,1
771034,1,11181,0,46460,49900,46226.65,50229.65,233.35,-329.65,1.078251,83.11,1
771074,1,11221,0,46441,49885,46227.08,50228.96,213.92,-343.96,1.078285,83.10,1
771114,1,11261,0,46445,49886,46227.52,50228.28,217.48,-342.28,1.078305,83.10,1
771154,1,11301,0,46451,49891,46227.96,50227.61,223.04,-336.61,1.078314,83.10,1
771194,1,11341,0,46465,49946,46228.44,50227.04,236.56,-281.04,1.078318,83.10,1
771234,1,11381,0,46491,49971,46228.97,50226.53,262.03,-255.53,1.078323,83.10,1
771274,1,11421,0,46502,49964,46229.52,50226.01,272.48,-262.01,1.078329,83.10,1
771314,1,11461,0,46502,49966,46230.06,50225.49,271.94,-259.49,1.078336,83.09,1
771354,1,11501,0,46506,49994,46230.62,50225.03,275.38,-231.03,1.078348,83.09,1
771395,1,11542,0,46529,50046,46231.21,50224.67,297.79,-178.67,1.078370,83.09,1
771435,1,11582,0,46560,50114,46231.87,50224.45,328.12,-110.45,1.078411,83.09,1
771475,1,11622,0,46591,50178,46232.59,50224.36,358.41,-46.36,1.078477,83.09,1
771515,1,11662,0,46622,50236,46233.37,50224.39,388.62,11.61,1.078571,83.09,1
771555,1,11702,0,46652,50288,46234.21,50224.52,417.79,63.48,1.078699,83.08,1
771595,1,11742,0,46676,50343,46235.10,50224.75,440.90,118.25,1.078861,83.08,1
771635,1,11782,0,46704,50395,46236.04,50225.09,467.96,169.91,1.079059,83.08,1
771675,1,11822,0,46731,50437,46237.03,50225.52,493.97,211.48,1.079294,83.08,1
771715,1,11862,0,46755,50482,46238.07,50226.04,516.93,255.96,1.079565,83.08,1
771755,1,11902,0,46772,50534,46239.14,50226.65,532.86,307.35,1.079868,83.07,1
771795,1,11942,0,46799,50585,46240.26,50227.37,558.74,357.63,1.080201,83.07,1
771835,1,11982,0,46825,50596,46241.43,50228.11,583.57,367.89,1.080564,83.07,1
771875,1,12022,0,46788,50394,46242.53,50228.44,545.47,165.56,1.080975,83.07,1
771915,1,12062,0,46663,50112,46243.37,50228.21,419.63,-116.21,1.081414,83.06,1
771956,1,12103,0,46562,49960,46244.01,50227.68,317.99,-267.68,1.081852,83.06,1
771996,1,12143,0,46532,49932,46244.59,50227.09,287.41,-295.09,1.082285,83.06,1
772036,1,12183,0,46526,49939,46245.15,50226.51,280.85,-287.51,1.082711,83.05,1
772076,1,12223,0,46527,49940,46245.71,50225.94,281.29,-285.94,1.083131,83.05,1
772116,1,12263,0,46543,49992,46246.31,50225.48,296.69,-233.48,1.083553,83.05,1
772156,1,12303,0,46572,50029,46246.96,50225.09,325.04,-196.09,1.083984,83.04,1
772196,1,12343,0,46583,50022,46247.64,50224.68,335.36,-202.68,1.084425,83.04,1
772236,1,12383,0,46591,50014,46248.32,50224.26,342.68,-210.26,1.084876,83.03,1
772276,1,12423,0,46596,50049,46249.02,50223.91,346.98,-174.91,1.085340,83.03,1
772316,1,12463,0,46616,50105,46249.75,50223.67,366.25,-118.67,1.085824,83.02,1
772356,1,12503,0,46646,50156,46250.55,50223.54,395.45,-67.54,1.086335,83.02,1
772396,1,12543,0,46672,50218,46251.39,50223.53,420.61,-5.53,1.086876,83.01,1
772436,1,12583,0,46696,50266,46252.28,50223.61,443.72,42.39,1.087452,83.00,1
772476,1,12623,0,46717,50304,46253.21,50223.77,463.79,80.23,1.088064,83.00,1
772517,1,12664,0,46735,50342,46254.18,50224.01,480.82,117.99,1.088714,82.99,1
772557,1,12704,0,46755,50385,46255.18,50224.34,499.82,160.66,1.089401,82.99,1
772597,1,12744,0,46771,50426,46256.21,50224.74,514.79,201.26,1.090124,82.98,1
772637,1,12784,0,46792,50469,46257.29,50225.23,534.71,243.77,1.090880,82.97,1
772677,1,12824,0,46817,50528,46258.41,50225.84,558.59,302.16,1.091665,82.96,1
772717,1,12864,0,46843,50589,46259.58,50226.56,583.42,362.44,1.092471,82.95,1
772757,1,12904,0,46866,50555,46260.79,50227.22,605.21,327.78,1.093310,82.95,1
772797,1,12944,0,46806,50309,46261.88,50227.38,544.12,81.62,1.094196,82.94,1
772837,1,12984,0,46687,50061,46262.73,50227.05,424.27,-166.05,1.095104,82.93,1
772877,1,13024,0,46606,49962,46263.42,50226.52,342.58,-264.52,1.096008,82.92,1
772917,1,13064,0,46589,49945,46264.07,50225.96,324.93,-280.96,1.096906,82.91,1
772957,1,13104,0,46586,49938,46264.72,50225.39,321.28,-287.39,1.097795,82.90,1
772997,1,13144,0,46583,49952,46265.36,50224.84,317.64,-272.84,1.098677,82.89,1
773037,1,13184,0,46598,50005,46266.02,50224.40,331.98,-219.40,1.099562,82.87,1
773078,1,13225,0,46619,50026,46266.73,50224.01,352.27,-198.01,1.100454,82.86,1
773118,1,13265,0,46622,50024,46267.44,50223.61,354.56,-199.61,1.101355,82.85,1
773158,1,13305,0,46624,50033,46268.16,50223.23,355.84,-190.23,1.102264,82.84,1
773198,1,13345,0,46643,50072,46268.91,50222.93,374.09,-150.93,1.103189,82.83,1
773238,1,13385,0,46665,50138,46269.70,50222.76,395.30,-84.76,1.104136,82.81,1
773278,1,13425,0,46699,50209,46270.56,50222.73,428.44,-13.73,1.105113,82.80,1
773318,1,13465,0,46732,50267,46271.48,50222.82,460.52,44.18,1.106124,82.79,1
773358,1,13505,0,46769,50319,46272.48,50223.02,496.52,95.98,1.107173,82.77,1
773398,1,13545,0,46785,50374,46273.51,50223.32,511.49,150.68,1.108258,82.76,1
773438,1,13585,0,46806,50415,46274.57,50223.71,531.43,191.29,1.109378,82.74,1
773478,1,13625,0,46830,50454,46275.69,50224.17,554.31,229.83,1.110531,82.73,1
773518,1,13665,0,46846,50495,46276.83,50224.71,569.17,270.29,1.111713,82.71,1
773558,1,13705,0,46866,50542,46278.01,50225.35,587.99,316.65,1.112918,82.70,1
773599,1,13746,0,46884,50597,46279.22,50226.09,604.78,370.91,1.114136,82.68,1
773639,1,13786,0,46913,50649,46280.49,50226.94,632.51,422.06,1.115359,82.66,1
773679,1,13826,0,46934,50697,46281.80,50227.88,652.20,469.12,1.116577,82.65,1
773719,1,13866,0,46924,50559,46283.09,50228.55,640.91,330.45,1.117823,82.63,1
773759,1,13906,0,46823,50288,46284.17,50228.67,538.83,59.33,1.119110,82.61,1
773799,1,13946,0,46720,50132,46285.04,50228.48,434.96,-96.48,1.120422,82.59,1
773839,1,13986,0,46683,50096,46285.84,50228.21,397.16,-132.21,1.121749,82.57,1
773879,1,14026,0,46681,50093,46286.63,50227.95,394.37,-134.95,1.123092,82.55,1
773919,1,14066,0,46684,50083,46287.43,50227.66,396.57,-144.66,1.124449,82.53,1
773959,1,14106,0,46678,50114,46288.21,50227.43,389.79,-113.43,1.125822,82.51,1
773999,1,14146,0,46706,50158,46289.04,50227.29,416.96,-69.29,1.127217,82.49,1
774039,1,14186,0,46718,50168,46289.90,50227.18,428.10,-59.18,1.128638,82.47,1
774079,1,14226,0,46720,50163,46290.77,50227.05,429.23,-64.05,1.130083,82.45,1
774119,1,14266,0,46722,50181,46291.63,50226.96,430.37,-45.96,1.131554,82.43,1
774160,1,14307,0,46742,50233,46292.53,50226.97,449.47,6.03,1.133055,82.40,1
774200,1,14347,0,46767,50304,46293.48,50227.12,473.52,76.87,1.134586,82.38,1
774240,1,14387,0,46798,50366,46294.49,50227.40,503.51,138.60,1.136147,82.36,1
774280,1,14427,0,46823,50422,46295.55,50227.79,527.45,194.21,1.137736,82.33,1
774320,1,14467,0,46850,50490,46296.66,50228.32,553.34,261.68,1.139343,82.31,1
774360,1,14507,0,46875,50540,46297.82,50228.95,577.18,311.05,1.140963,82.28,1
774400,1,14547,0,46903,50586,46299.03,50229.66,603.97,356.34,1.142588,82.26,1
774440,1,14587,0,46928,50632,46300.29,50230.46,627.71,401.54,1.144208,82.23,1
774480,1,14627,0,46945,50681,46301.57,50231.37,643.43,449.63,1.145813,82.21,1
774520,1,14667,0,46968,50729,46302.91,50232.36,665.09,496.64,1.147389,82.18,1
774560,1,14707,0,46993,50784,46304.29,50233.47,688.71,550.53,1.148925,82.15,1
774600,1,14747,0,47015,50842,46305.71,50234.69,709.29,607.31,1.150404,82.13,1
774640,1,14787,0,47035,50865,46307.18,50235.95,727.82,629.05,1.151826,82.10,1
774681,1,14828,0,47011,50679,46308.59,50236.84,702.41,442.16,1.153251,82.07,1
774721,1,14868,0,46890,50422,46309.75,50237.21,580.25,184.79,1.154708,82.04,1
774761,1,14908,0,46791,50288,46310.71,50237.31,480.29,50.69,1.156191,82.01,1
774801,1,14948,0,46764,50265,46311.62,50237.37,452.38,27.63,1.157699,81.98,1
774841,1,14988,0,46765,50269,46312.53,50237.43,452.47,31.57,1.159230,81.96,1
774881,1,15028,0,46762,50268,46313.43,50237.50,448.57,30.50,1.160784,81.93,1
774921,1,15068,0,46773,50316,46314.35,50237.66,458.65,78.34,1.162361,81.90,1
774961,1,15108,0,46794,50348,46315.31,50237.88,478.69,110.12,1.163962,81.87,1
775001,1,15148,0,46809,50354,46316.30,50238.11,492.70,115.89,1.165587,81.84,1
775041,1,15188,0,46808,50347,46317.28,50238.33,490.72,108.67,1.167238,81.81,1
775081,1,15228,0,46813,50368,46318.27,50238.59,494.73,129.41,1.168912,81.78,1
775121,1,15268,0,46831,50417,46319.30,50238.95,511.70,178.05,1.170608,81.74,1
775161,1,15308,0,46853,50474,46320.37,50239.43,532.63,234.57,1.172318,81.71,1
775202,1,15349,0,46879,50536,46321.49,50240.02,557.51,295.98,1.174035,81.68,1
775242,1,15389,0,46901,50584,46322.65,50240.71,578.35,343.29,1.175752,81.65,1
775282,1,15429,0,46924,50637,46323.85,50241.50,600.15,395.50,1.177456,81.62,1
775322,1,15469,0,46941,50683,46325.09,50242.38,615.91,440.62,1.179139,81.58,1
775362,1,15509,0,46966,50729,46326.37,50243.36,639.63,485.64,1.180791,81.55,1
775402,1,15549,0,46981,50780,46327.68,50244.43,653.32,535.57,1.182397,81.52,1
775442,1,15589,0,47005,50824,46329.03,50245.59,675.97,578.41,1.183950,81.48,1
775482,1,15629,0,47030,50869,46330.43,50246.84,699.57,622.16,1.185440,81.45,1
775522,1,15669,0,47045,50913,46331.86,50248.17,713.14,664.83,1.186859,81.42,1
775562,1,15709,0,47070,50968,46333.34,50249.61,736.66,718.39,1.188195,81.38,1
775602,1,15749,0,47089,50990,46334.85,50251.09,754.15,738.91,1.189451,81.35,1
775642,1,15789,0,47065,50794,46336.31,50252.18,728.69,541.82,1.190691,81.32,1
775682,1,15829,0,46942,50519,46337.52,50252.71,604.48,266.29,1.191951,81.28,1
775722,1,15869,0,46843,50372,46338.54,50252.95,504.46,119.05,1.193232,81.25,1
775763,1,15910,0,46803,50339,46339.46,50253.12,463.54,85.87,1.194532,81.22,1
775803,1,15950,0,46802,50342,46340.39,50253.30,461.61,88.70,1.195850,81.18,1
775843,1,15990,0,46789,50337,46341.29,50253.47,447.71,83.53,1.197185,81.15,1
775883,1,16030,0,46801,50368,46342.21,50253.70,458.79,114.30,1.198537,81.12,1
775923,1,16070,0,46815,50401,46343.16,50254.00,471.84,147.00,1.199904,81.08,1
775963,1,16110,0,46814,50397,46344.10,50254.29,469.90,142.71,1.201288,81.05,1
776003,1,16150,0,46820,50393,46345.05,50254.57,474.95,138.43,1.202688,81.01,1
776043,1,16190,0,46828,50414,46346.02,50254.89,481.98,159.11,1.204104,80.98,1
776083,1,16230,0,46848,50462,46347.02,50255.30,500.98,206.70,1.205533,80.95,1
776123,1,16270,0,46874,50527,46348.08,50255.84,525.92,271.16,1.206970,80.91,1
776163,1,16310,0,46904,50575,46349.19,50256.48,554.81,318.52,1.208409,80.88,1
776203,1,16350,0,46927,50633,46350.35,50257.24,576.65,375.76,1.209844,80.85,1
776243,1,16390,0,46946,50674,46351.54,50258.07,594.46,415.93,1.211266,80.81,1
776283,1,16430,0,46962,50716,46352.76,50258.99,609.24,457.01,1.212669,80.78,1
776324,1,16471,0,46980,50753,46354.02,50259.98,625.98,493.02,1.214046,80.74,1
776364,1,16511,0,46998,50807,46355.30,50261.07,642.70,545.93,1.215386,80.71,1
776404,1,16551,0,47013,50852,46356.62,50262.26,656.38,589.74,1.216681,80.68,1
776444,1,16591,0,47040,50893,46357.99,50263.52,682.01,629.48,1.217924,80.64,1
776484,1,16631,0,47054,50948,46359.38,50264.89,694.62,683.11,1.219105,80.61,1
776524,1,16671,0,47083,51009,46360.83,50266.38,722.17,742.62,1.220211,80.58,1
776564,1,16711,0,47108,51044,46362.33,50267.93,745.67,776.07,1.221243,80.54,1
776604,1,16751,0,47104,50915,46363.81,50269.23,740.19,645.77,1.222240,80.51,1
776644,1,16791,0,47000,50637,46365.09,50269.97,634.91,367.03,1.223247,80.48,1
776684,1,16831,0,46887,50446,46366.13,50270.32,520.87,175.68,1.224270,80.44,1
776724,1,16871,0,46836,50387,46367.07,50270.55,468.93,116.45,1.225309,80.41,1
776764,1,16911,0,46827,50389,46368.00,50270.79,459.00,118.21,1.226363,80.38,1
776804,1,16951,0,46824,50376,46368.91,50271.00,455.09,105.00,1.227431,80.35,1
776844,1,16991,0,46819,50400,46369.81,50271.26,449.19,128.74,1.228513,80.32,1
776885,1,17032,0,46837,50438,46370.75,50271.60,466.25,166.40,1.229606,80.28,1
776925,1,17072,0,46846,50446,46371.70,50271.95,474.30,174.05,1.230713,80.25,1
776965,1,17112,0,46840,50440,46372.64,50272.29,467.36,167.71,1.231831,80.22,1
777005,1,17152,0,46847,50455,46373.59,50272.65,473.41,182.35,1.232962,80.19,1
777045,1,17192,0,46862,50506,46374.57,50273.12,487.43,232.88,1.234101,80.16,1
777085,1,17232,0,46887,50571,46375.59,50273.72,511.41,297.28,1.235243,80.13,1
777125,1,17272,0,46919,50628,46376.68,50274.43,542.32,353.57,1.236383,80.10,1
777165,1,17312,0,46949,50682,46377.83,50275.25,571.17,406.75,1.237515,80.07,1
777205,1,17352,0,46976,50737,46379.03,50276.17,596.97,460.83,1.238633,80.03,1
777245,1,17392,0,46997,50780,46380.27,50277.18,616.73,502.82,1.239730,80.00,1
777285,1,17432,0,47019,50816,46381.54,50278.26,637.46,537.74,1.240802,79.97,1
777325,1,17472,0,47030,50859,46382.84,50279.42,647.16,579.58,1.241841,79.94,1
777365,1,17512,0,47045,50901,46384.16,50280.67,660.84,620.33,1.242840,79.91,1
777406,1,17553,0,47068,50940,46385.53,50281.99,682.47,658.01,1.243795,79.88,1
777446,1,17593,0,47083,50989,46386.93,50283.40,696.07,705.60,1.244698,79.85,1
777486,1,17633,0,47109,51054,46388.37,50284.95,720.63,769.05,1.245538,79.82,1
777526,1,17673,0,47129,51077,46389.86,50286.53,739.14,790.47,1.246315,79.79,1
777566,1,17713,0,47107,50898,46391.29,50287.75,715.71,610.25,1.247073,79.76,1
777606,1,17753,0,46988,50630,46392.48,50288.44,595.52,341.56,1.247840,79.74,1
777646,1,17793,0,46890,50476,46393.48,50288.82,496.52,187.18,1.248620,79.71,1
777686,1,17833,0,46859,50444,46394.41,50289.13,464.59,154.87,1.249412,79.68,1
777726,1,17873,0,46858,50442,46395.34,50289.44,462.66,152.56,1.250216,79.65,1
777766,1,17913,0,46848,50434,46396.25,50289.73,451.75,144.27,1.251032,79.62,1
777806,1,17953,0,46855,50460,46397.17,50290.07,457.83,169.93,1.251859,79.60,1
777846,1,17993,0,46874,50487,46398.12,50290.46,475.88,196.54,1.252696,79.57,1
777886,1,18033,0,46876,50476,46399.08,50290.84,476.92,185.16,1.253545,79.54,1
777926,1,18073,0,46867,50467,46400.02,50291.19,466.98,175.81,1.254406,79.51,1
777967,1,18114,0,46870,50482,46400.96,50291.57,469.04,190.43,1.255276,79.49,1
778007,1,18154,0,46886,50532,46401.93,50292.05,484.07,239.95,1.256155,79.46,1
778047,1,18194,0,46909,50589,46402.95,50292.65,506.05,296.35,1.257038,79.43,1
778087,1,18234,0,46934,50645,46404.01,50293.36,529.99,351.64,1.257920,79.41,1
778127,1,18274,0,46966,50708,46405.13,50294.19,560.87,413.81,1.258797,79.38,1
778167,1,18314,0,46985,50763,46406.29,50295.12,578.71,467.87,1.259661,79.35,1
778207,1,18354,0,47010,50813,46407.50,50296.16,602.50,516.84,1.260507,79.33,1
778247,1,18394,0,47033,50849,46408.75,50297.27,624.25,551.73,1.261330,79.30,1
778287,1,18434,0,47055,50895,46410.05,50298.46,644.95,596.54,1.262125,79.28,1
778327,1,18474,0,47072,50933,46411.37,50299.73,660.63,633.27,1.262887,79.25,1
778367,1,18514,0,47093,50979,46412.73,50301.09,680.27,677.91,1.263610,79.23,1
778407,1,18554,0,47114,51026,46414.14,50302.54,699.86,723.46,1.264289,79.20,1
778447,1,18594,0,47135,51076,46415.58,50304.09,719.42,771.91,1.264916,79.18,1
778487,1,18634,0,47154,51071,46417.05,50305.62,736.95,765.38,1.265500,79.15,1
778528,1,18675,0,47107,50856,46418.44,50306.72,688.56,549.28,1.266075,79.13,1
778568,1,18715,0,46983,50586,46419.57,50307.28,563.43,278.72,1.266663,79.10,1
778608,1,18755,0,46886,50452,46420.50,50307.57,465.50,144.43,1.267263,79.08,1
778648,1,18795,0,46857,50428,46421.37,50307.81,435.62,120.19,1.267875,79.06,1
778688,1,18835,0,46851,50425,46422.23,50308.05,428.77,116.95,1.268497,79.03,1
778728,1,18875,0,46842,50417,46423.07,50308.27,418.93,108.73,1.269130,79.01,1
778768,1,18915,0,46852,50452,46423.93,50308.55,428.07,143.45,1.269772,78.99,1
778808,1,18955,0,46873,50472,46424.83,50308.88,448.17,163.12,1.270425,78.97,1
778848,1,18995,0,46873,50464,46425.73,50309.20,447.27,154.80,1.271089,78.94,1
778888,1,19035,0,46865,50453,46426.61,50309.48,438.39,143.52,1.271763,78.92,1
778928,1,19075,0,46870,50472,46427.50,50309.81,442.50,162.19,1.272447,78.90,1
778968,1,19115,0,46886,50517,46428.41,50310.23,457.59,206.77,1.273140,78.88,1
779008,1,19155,0,46910,50572,46429.38,50310.75,480.62,261.25,1.273839,78.86,1
779049,1,19196,0,46932,50616,46430.39,50311.36,501.61,304.64,1.274542,78.83,1
779089,1,19236,0,46948,50668,46431.42,50312.08,516.58,355.92,1.275244,78.81,1
779129,1,19276,0,46961,50714,46432.48,50312.88,528.52,401.12,1.275942,78.79,1
779169,1,19316,0,46982,50753,46433.58,50313.77,548.42,439.23,1.276631,78.77,1
779209,1,19356,0,47005,50797,46434.73,50314.73,570.27,482.27,1.277309,78.75,1
779249,1,19396,0,47019,50840,46435.89,50315.79,583.11,524.21,1.277968,78.73,1
779289,1,19436,0,47044,50877,46437.11,50316.91,606.89,560.09,1.278607,78.71,1
779329,1,19476,0,47070,50920,46438.38,50318.12,631.62,601.88,1.279220,78.69,1
779369,1,19516,0,47089,50975,46439.68,50319.43,649.32,655.57,1.279801,78.67,1
779409,1,19556,0,47105,51007,46441.01,50320.81,663.99,686.19,1.280346,78.65,1
779449,1,19596,0,47095,50853,46442.32,50321.87,652.68,531.12,1.280883,78.63,1
779489,1,19636,0,46983,50576,46443.40,50322.38,539.60,253.62,1.281432,78.61,1
779529,1,19676,0,46873,50396,46444.26,50322.53,428.74,73.47,1.281993,78.59,1
779569,1,19716,0,46822,50344,46445.02,50322.57,376.98,21.43,1.282564,78.57,1
779610,1,19757,0,46813,50330,46445.76,50322.59,367.24,7.41,1.283143,78.55,1
779650,1,19797,0,46797,50313,46446.46,50322.57,350.54,-9.57,1.283731,78.53,1
779690,1,19837,0,46798,50342,46447.16,50322.61,350.84,19.39,1.284327,78.51,1
779730,1,19877,0,46822,50386,46447.91,50322.74,374.09,63.26,1.284932,78.49,1
779770,1,19917,0,46832,50388,46448.68,50322.87,383.32,65.13,1.285547,78.47,1
779810,1,19957,0,46829,50384,46449.45,50323.00,379.55,61.00,1.286171,78.45,1
779850,1,19997,0,46837,50399,46450.22,50323.15,386.78,75.85,1.286805,78.43,1
779890,1,20037,0,46856,50440,46451.04,50323.38,404.96,116.62,1.287449,78.42,1
779930,1,20077,0,46879,50495,46451.89,50323.73,427.11,171.27,1.288102,78.40,1
779970,1,20117,0,46902,50549,46452.79,50324.18,449.21,224.82,1.288761,78.38,1
780010,1,20157,0,46925,50592,46453.74,50324.71,471.26,267.29,1.289426,78.36,1
780050,1,20197,0,46941,50634,46454.71,50325.34,486.29,308.66,1.290093,78.34,1
780090,1,20237,0,46958,50678,46455.72,50326.04,502.28,351.96,1.290759,78.32,1
780131,1,20278,0,46975,50714,46456.76,50326.82,518.24,387.18,1.291421,78.31,1
780171,1,20318,0,46994,50751,46457.84,50327.67,536.16,423.33,1.292076,78.29,1
780211,1,20358,0,47004,50800,46458.93,50328.62,545.07,471.38,1.292717,78.27,1
780251,1,20398,0,47025,50846,46460.06,50329.65,564.94,516.35,1.293340,78.25,1
780291,1,20438,0,47042,50888,46461.23,50330.77,580.77,557.23,1.293939,78.23,1
780331,1,20478,0,47068,50953,46462.44,50332.02,605.56,620.98,1.294506,78.21,1
780371,1,20518,0,47087,50952,46463.69,50333.26,623.31,618.74,1.295044,78.20,1
780411,1,20558,0,47044,50728,46464.85,50334.05,579.15,393.95,1.295584,78.18,1
780451,1,20598,0,46927,50465,46465.78,50334.31,461.22,130.69,1.296137,78.16,1
780491,1,20638,0,46840,50347,46466.53,50334.34,373.47,12.66,1.296701,78.14,1
780531,1,20678,0,46813,50325,46467.22,50334.32,345.78,-9.32,1.297273,78.13,1
780571,1,20718,0,46809,50308,46467.91,50334.27,341.09,-26.27,1.297853,78.11,1
780611,1,20758,0,46794,50295,46468.56,50334.19,325.44,-39.19,1.298440,78.09,1
780651,1,20798,0,46796,50338,46469.21,50334.20,326.79,3.80,1.299034,78.08,1
780691,1,20838,0,46821,50360,46469.92,50334.25,351.08,25.75,1.299637,78.06,1
780732,1,20879,0,46826,50347,46470.63,50334.28,355.37,12.72,1.300249,78.04,1
780772,1,20919,0,46814,50346,46471.32,50334.30,342.68,11.70,1.300869,78.03,1
780812,1,20959,0,46815,50381,46472.01,50334.40,342.99,46.60,1.301498,78.01,1
780852,1,20999,0,46840,50429,46472.75,50334.59,367.25,94.41,1.302136,77.99,1
780892,1,21039,0,46870,50494,46473.54,50334.91,396.46,159.09,1.302781,77.97,1
780932,1,21079,0,46893,50554,46474.38,50335.35,418.62,218.65,1.303431,77.96,1
780972,1,21119,0,46922,50602,46475.28,50335.89,446.72,266.11,1.304085,77.94,1
781012,1,21159,0,46944,50644,46476.21,50336.50,467.79,307.50,1.304740,77.92,1
781052,1,21199,0,46964,50683,46477.19,50337.20,486.81,345.80,1.305393,77.91,1
781092,1,21239,0,46976,50724,46478.19,50337.97,497.81,386.03,1.306040,77.89,1
781132,1,21279,0,47000,50765,46479.23,50338.83,520.77,426.17,1.306677,77.87,1
781172,1,21319,0,47018,50805,46480.31,50339.76,537.69,465.24,1.307300,77.86,1
781212,1,21359,0,47035,50846,46481.42,50340.78,553.58,505.22,1.307903,77.84,1
781252,1,21399,0,47051,50896,46482.56,50341.89,568.44,554.11,1.308481,77.82,1
781293,1,21440,0,47078,50947,46483.75,50343.10,594.25,603.90,1.309026,77.81,1
781333,1,21480,0,47094,50951,46484.98,50344.32,609.02,606.68,1.309542,77.79,1
781373,1,21520,0,47046,50735,46486.10,50345.10,559.90,389.90,1.310058,77.77,1
781413,1,21560,0,46924,50472,46486.98,50345.36,437.02,126.64,1.310587,77.76,1
781453,1,21600,0,46835,50349,46487.68,50345.36,347.32,3.64,1.311125,77.74,1
781493,1,21640,0,46804,50335,46488.31,50345.34,315.69,-10.34,1.311670,77.73,1
781533,1,21680,0,46807,50325,46488.95,50345.30,318.05,-20.30,1.312222,77.71,1
781573,1,21720,0,46798,50305,46489.57,50345.23,308.43,-40.23,1.312781,77.69,1
781613,1,21760,0,46806,50347,46490.20,50345.23,315.80,1.77,1.313347,77.68,1
781653,1,21800,0,46831,50376,46490.88,50345.29,340.12,30.71,1.313922,77.66,1
781693,1,21840,0,46829,50370,46491.56,50345.34,337.44,24.66,1.314506,77.65,1
781733,1,21880,0,46830,50373,46492.24,50345.40,337.76,27.60,1.315098,77.63,1
781773,1,21920,0,46835,50402,46492.93,50345.51,342.07,56.49,1.315699,77.62,1
781813,1,21960,0,46850,50453,46493.64,50345.73,356.36,107.27,1.316308,77.60,1
781854,1,22001,0,46878,50505,46494.41,50346.05,383.59,158.95,1.316924,77.58,1
781894,1,22041,0,46904,50561,46495.23,50346.48,408.77,214.52,1.317546,77.57,1
781934,1,22081,0,46921,50617,46496.08,50347.02,424.92,269.98,1.318169,77.55,1
781974,1,22121,0,46947,50662,46496.98,50347.65,450.02,314.35,1.318791,77.54,1
782014,1,22161,0,46963,50707,46497.92,50348.37,465.08,358.63,1.319407,77.52,1
782054,1,22201,0,46981,50757,46498.89,50349.19,482.11,407.81,1.320013,77.51,1
782094,1,22241,0,47006,50794,46499.90,50350.08,506.10,443.92,1.320603,77.49,1
782134,1,22281,0,47028,50838,46500.96,50351.06,527.04,486.94,1.321175,77.47,1
782174,1,22321,0,47049,50885,46502.06,50352.13,546.94,532.87,1.321720,77.46,1
782214,1,22361,0,47067,50935,46503.19,50353.30,563.81,581.70,1.322233,77.44,1
782254,1,22401,0,47093,50991,46504.37,50354.57,588.63,636.43,1.322705,77.43,1
782294,1,22441,0,47108,50971,46505.58,50355.81,602.42,615.19,1.323145,77.41,1
782334,1,22481,0,47045,50725,46506.66,50356.55,538.34,368.45,1.323588,77.40,1
782375,1,22522,0,46919,50464,46507.48,50356.76,411.52,107.24,1.324042,77.38,1
782415,1,22562,0,46832,50354,46508.13,50356.76,323.87,-2.76,1.324505,77.37,1
782455,1,22602,0,46806,50345,46508.73,50356.73,297.27,-11.73,1.324974,77.35,1
782495,1,22642,0,46800,50329,46509.31,50356.68,290.69,-27.68,1.325450,77.34,1
782535,1,22682,0,46786,50319,46509.86,50356.61,276.14,-37.61,1.325931,77.32,1
782575,1,22722,0,46800,50370,46510.45,50356.63,289.55,13.37,1.326418,77.31,1
782615,1,22762,0,46825,50405,46511.07,50356.73,313.93,48.27,1.326914,77.30,1
782655,1,22802,0,46832,50399,46511.72,50356.82,320.28,42.18,1.327417,77.28,1
782695,1,22842,0,46836,50399,46512.37,50356.90,323.63,42.10,1.327928,77.27,1
782735,1,22882,0,46839,50434,46513.02,50357.06,325.98,76.94,1.328448,77.25,1
782775,1,22922,0,46864,50490,46513.73,50357.32,350.27,132.68,1.328974,77.24,1
782815,1,22962,0,46891,50545,46514.48,50357.70,376.52,187.30,1.329506,77.22,1
782855,1,23002,0,46912,50596,46515.28,50358.18,396.72,237.82,1.330042,77.21,1
782895,1,23042,0,46931,50642,46516.11,50358.75,414.89,283.25,1.330577,77.20,1
782936,1,23083,0,46951,50677,46516.98,50359.38,434.02,317.62,1.331110,77.18,1
782976,1,23123,0,46966,50722,46517.88,50360.11,448.12,361.89,1.331636,77.17,1
783016,1,23163,0,46983,50762,46518.81,50360.91,464.19,401.09,1.332151,77.15,1
783056,1,23203,0,46996,50802,46519.77,50361.80,476.23,440.20,1.332649,77.14,1
783096,1,23243,0,47021,50847,46520.77,50362.77,500.23,484.23,1.333127,77.12,1
783136,1,23283,0,47040,50908,46521.81,50363.86,518.19,544.14,1.333574,77.11,1
783176,1,23323,0,47067,50966,46522.90,50365.07,544.10,600.93,1.333983,77.10,1
783216,1,23363,0,47082,50904,46524.02,50366.14,557.98,537.86,1.334370,77.08,1
783256,1,23403,0,47010,50640,46524.99,50366.70,485.01,273.30,1.334764,77.07,1
783296,1,23443,0,46880,50410,46525.70,50366.79,354.30,43.21,1.335170,77.06,1
783336,1,23483,0,46803,50314,46526.26,50366.68,276.74,-52.68,1.335581,77.04,1
783376,1,23523,0,46786,50298,46526.78,50366.54,259.22,-68.54,1.335997,77.03,1
783416,1,23563,0,46775,50272,46527.27,50366.36,247.73,-94.36,1.336416,77.02,1
783456,1,23603,0,46764,50276,46527.75,50366.18,236.25,-90.18,1.336837,77.00,1
783497,1,23644,0,46779,50315,46528.25,50366.07,250.75,-51.07,1.337263,76.99,1
783537,1,23684,0,46792,50333,46528.78,50366.01,263.22,-33.01,1.337695,76.98,1
783577,1,23724,0,46791,50332,46529.31,50365.94,261.69,-33.94,1.338132,76.96,1
783617,1,23764,0,46795,50342,46529.84,50365.89,265.16,-23.89,1.338575,76.95,1
783657,1,23804,0,46806,50377,46530.39,50365.92,275.61,11.08,1.339025,76.94,1
783697,1,23844,0,46827,50439,46530.99,50366.07,296.01,72.93,1.339482,76.93,1
783737,1,23884,0,46856,50499,46531.64,50366.33,324.36,132.67,1.339944,76.91,1
783777,1,23924,0,46887,50551,46532.35,50366.70,354.65,184.30,1.340412,76.90,1
783817,1,23964,0,46910,50593,46533.11,50367.16,376.89,225.84,1.340883,76.89,1
783857,1,24004,0,46931,50637,46533.91,50367.70,397.09,269.30,1.341355,76.88,1
783897,1,24044,0,46947,50677,46534.73,50368.32,412.27,308.68,1.341824,76.86,1
783937,1,24084,0,46965,50710,46535.60,50369.00,429.40,341.00,1.342287,76.85,1
783977,1,24124,0,46980,50744,46536.49,50369.75,443.51,374.25,1.342741,76.84,1
784017,1,24164,0,46994,50786,46537.41,50370.58,456.59,415.42,1.343182,76.82,1
784058,1,24205,0,47009,50837,46538.35,50371.52,470.65,465.48,1.343600,76.81,1
784098,1,24245,0,47035,50881,46539.35,50372.54,495.65,508.46,1.343992,76.80,1
784138,1,24285,0,47022,50756,46540.31,50373.30,481.69,382.70,1.344379,76.79,1
784178,1,24325,0,46920,50482,46541.07,50373.52,378.93,108.48,1.344777,76.78,1
784218,1,24365,0,46811,50314,46541.62,50373.41,269.38,-59.41,1.345181,76.76,1
784258,1,24405,0,46764,50272,46542.06,50373.20,221.94,-101.20,1.345587,76.75,1
784298,1,24445,0,46756,50264,46542.49,50372.98,213.51,-108.98,1.345995,76.74,1
784338,1,24485,0,46752,50247,46542.91,50372.73,209.09,-125.73,1.346403,76.73,1
784378,1,24525,0,46756,50280,46543.34,50372.55,212.66,-92.55,1.346812,76.72,1
784418,1,24565,0,46779,50326,46543.81,50372.46,235.19,-46.46,1.347227,76.70,1
784458,1,24605,0,46795,50341,46544.32,50372.40,250.68,-31.40,1.347646,76.69,1
784498,1,24645,0,46793,50330,46544.82,50372.32,248.18,-42.32,1.348071,76.68,1
784538,1,24685,0,46796,50352,46545.32,50372.28,250.68,-20.28,1.348502,76.67,1
784578,1,24725,0,46808,50403,46545.85,50372.34,262.15,30.66,1.348940,76.66,1
784618,1,24765,0,46836,50457,46546.43,50372.51,289.57,84.49,1.349384,76.64,1
784659,1,24806,0,46863,50518,46547.06,50372.80,315.94,145.20,1.349833,76.63,1
784699,1,24846,0,46884,50574,46547.74,50373.21,336.26,200.79,1.350286,76.62,1
784739,1,24886,0,46902,50626,46548.45,50373.71,353.55,252.29,1.350738,76.61,1
784779,1,24926,0,46934,50668,46549.22,50374.30,384.78,293.70,1.351186,76.60,1
784819,1,24966,0,46945,50713,46550.02,50374.98,394.98,338.02,1.351625,76.59,1
784859,1,25006,0,46966,50752,46550.85,50375.74,415.15,376.26,1.352051,76.57,1
784899,1,25046,0,46986,50805,46551.72,50376.60,434.28,428.40,1.352457,76.56,1
784939,1,25086,0,47012,50858,46552.64,50377.56,459.36,480.44,1.352835,76.55,1
784979,1,25126,0,47038,50906,46553.61,50378.62,484.39,527.38,1.353180,76.54,1
785019,1,25166,0,47046,50855,46554.60,50379.57,491.40,475.43,1.353503,76.53,1
785059,1,25206,0,46976,50619,46555.44,50380.05,420.56,238.95,1.353834,76.52,1
785099,1,25246,0,46862,50429,46556.05,50380.15,305.95,48.85,1.354174,76.51,1
785139,1,25286,0,46798,50363,46556.54,50380.12,241.46,-17.12,1.354520,76.50,1
785180,1,25327,0,46787,50349,46557.00,50380.06,230.00,-31.06,1.354870,76.48,1
785220,1,25367,0,46775,50330,46557.44,50379.96,217.56,-49.96,1.355225,76.47,1
785260,1,25407,0,46767,50345,46557.86,50379.89,209.14,-34.89,1.355584,76.46,1
785300,1,25447,0,46790,50397,46558.32,50379.93,231.68,17.07,1.355948,76.45,1
785340,1,25487,0,46808,50421,46558.82,50380.01,249.18,40.99,1.356318,76.44,1
785380,1,25527,0,46813,50429,46559.33,50380.11,253.67,48.89,1.356694,76.43,1
785420,1,25567,0,46820,50449,46559.86,50380.25,260.14,68.75,1.357077,76.42,1
785460,1,25607,0,46839,50490,46560.41,50380.47,278.59,109.53,1.357465,76.41,1
785500,1,25647,0,46863,50537,46561.02,50380.78,301.98,156.22,1.357857,76.40,1
785540,1,25687,0,46883,50595,46561.66,50381.21,321.34,213.79,1.358251,76.39,1
785580,1,25727,0,46910,50649,46562.36,50381.75,347.64,267.25,1.358642,76.38,1
785620,1,25767,0,46929,50698,46563.10,50382.38,365.90,315.62,1.359024,76.37,1
785660,1,25807,0,46948,50744,46563.87,50383.10,384.13,360.90,1.359393,76.36,1
785700,1,25847,0,46964,50789,46564.67,50383.91,399.33,405.09,1.359742,76.35,1
785741,1,25888,0,46986,50829,46565.51,50384.80,420.49,444.20,1.360066,76.33,1
785781,1,25928,0,47002,50881,46566.39,50385.80,435.61,495.20,1.360357,76.32,1
785821,1,25968,0,47027,50948,46567.31,50386.92,459.69,561.08,1.360602,76.31,1
785861,1,26008,0,47053,50996,46568.28,50388.14,484.72,607.86,1.360796,76.30,1
785901,1,26048,0,47054,50917,46569.25,50389.20,484.75,527.80,1.360960,76.29,1
785941,1,26088,0,46968,50715,46570.05,50389.85,397.95,325.15,1.361121,76.28,1
785981,1,26128,0,46889,50582,46570.69,50390.24,318.31,191.76,1.361285,76.28,1
786021,1,26168,0,46855,50534,46571.26,50390.53,283.74,143.47,1.361455,76.27,1
786061,1,26208,0,46841,50514,46571.80,50390.78,269.20,123.22,1.361630,76.26,1
786101,1,26248,0,46827,50496,46572.31,50390.99,254.69,105.01,1.361810,76.25,1
786141,1,26288,0,46829,50521,46572.83,50391.25,256.17,129.75,1.361994,76.24,1
786181,1,26328,0,46848,50562,46573.38,50391.59,274.62,170.41,1.362180,76.23,1
786221,1,26368,0,46860,50572,46573.95,50391.96,286.05,180.04,1.362369,76.22,1
786261,1,26408,0,46858,50576,46574.52,50392.33,283.48,183.67,1.362561,76.21,1
786302,1,26449,0,46857,50601,46575.09,50392.75,281.91,208.25,1.362752,76.20,1
786342,1,26489,0,46877,50650,46575.70,50393.26,301.30,256.74,1.362939,76.20,1
786382,1,26529,0,46898,50706,46576.34,50393.89,321.66,312.11,1.363118,76.19,1
786422,1,26569,0,46921,50764,46577.03,50394.63,343.97,369.37,1.363281,76.18,1
786462,1,26609,0,46949,50824,46577.78,50395.49,371.22,428.51,1.363421,76.17,1
786502,1,26649,0,46975,50886,46578.57,50396.47,396.43,489.53,1.363529,76.16,1
786542,1,26689,0,47006,50938,46579.43,50397.55,426.57,540.45,1.363599,76.16,1
786582,1,26729,0,47025,50978,46580.32,50398.72,444.68,579.28,1.363625,76.15,1
786622,1,26769,0,47048,51032,46581.26,50399.99,466.74,632.01,1.363599,76.14,1
786662,1,26809,0,47065,51090,46582.23,50401.37,482.77,688.63,1.363513,76.13,1
786702,1,26849,0,47096,51140,46583.25,50402.85,512.75,737.15,1.363361,76.13,1
786742,1,26889,0,47113,51165,46584.32,50404.38,528.68,760.62,1.363145,76.12,1
786782,1,26929,0,47086,51024,46585.32,50405.62,500.68,618.38,1.362897,76.12,1
786822,1,26969,0,46994,50847,46586.14,50406.50,407.86,440.50,1.362638,76.11,1
786863,1,27010,0,46927,50756,46586.82,50407.20,340.18,348.80,1.362373,76.11,1
786903,1,27050,0,46906,50734,46587.46,50407.86,318.54,326.14,1.362104,76.10,1
786943,1,27090,0,46889,50714,46588.07,50408.47,300.93,305.53,1.361832,76.10,1
786983,1,27130,0,46879,50700,46588.65,50409.06,290.35,290.94,1.361556,76.09,1
787023,1,27170,0,46885,50744,46589.25,50409.73,295.75,334.27,1.361274,76.09,1
787063,1,27210,0,46905,50778,46589.88,50410.47,315.12,367.53,1.360983,76.09,1
787103,1,27250,0,46913,50780,46590.53,50411.21,322.47,368.79,1.360683,76.08,1
787143,1,27290,0,46916,50792,46591.18,50411.97,324.82,380.03,1.360374,76.08,1
787183,1,27330,0,46928,50824,46591.86,50412.80,336.14,411.20,1.360052,76.08,1
787223,1,27370,0,46943,50868,46592.56,50413.71,350.44,454.29,1.359715,76.07,1
787263,1,27410,0,46966,50911,46593.31,50414.70,372.69,496.30,1.359356,76.07,1
787303,1,27450,0,46983,50961,46594.09,50415.80,388.91,545.20,1.358972,76.07,1
787343,1,27490,0,47000,51013,46594.90,50416.99,405.10,596.01,1.358556,76.07,1
787383,1,27530,0,47024,51057,46595.76,50418.27,428.24,638.73,1.358104,76.07,1
787424,1,27571,0,47039,51100,46596.65,50419.64,442.35,680.36,1.357612,76.07,1
787464,1,27611,0,47057,51146,46597.57,50421.09,459.43,724.91,1.357076,76.07,1
787504,1,27651,0,47072,51195,46598.52,50422.64,473.48,772.36,1.356491,76.07,1
787544,1,27691,0,47095,51247,46599.52,50424.29,495.48,822.71,1.355853,76.07,1
787584,1,27731,0,47124,51307,46600.57,50426.05,523.43,880.95,1.355157,76.07,1
787624,1,27771,0,47136,51318,46601.64,50427.84,534.36,890.16,1.354408,76.07,1
787664,1,27811,0,47104,51161,46602.64,50429.31,501.36,731.69,1.353631,76.08,1
787704,1,27851,0,47023,50999,46603.49,50430.45,419.51,568.55,1.352841,76.08,1
787744,1,27891,0,46961,50930,46604.20,50431.45,356.80,498.55,1.352042,76.08,1
787784,1,27931,0,46945,50903,46604.89,50432.39,340.11,470.61,1.351235,76.09,1
787824,1,27971,0,46931,50868,46605.54,50433.27,325.46,434.73,1.350422,76.09,1
787864,1,28011,0,46912,50859,46606.15,50434.12,305.85,424.88,1.349603,76.10,1
787904,1,28051,0,46918,50892,46606.78,50435.04,311.22,456.96,1.348776,76.10,1
787944,1,28091,0,46931,50915,46607.43,50436.00,323.57,479.00,1.347940,76.11,1
787985,1,28132,0,46935,50913,46608.08,50436.95,326.92,476.05,1.347095,76.12,1
788025,1,28172,0,46928,50934,46608.72,50437.95,319.28,496.05,1.346240,76.12,1
788065,1,28212,0,46934,50966,46609.37,50439.01,324.62,526.99,1.345371,76.13,1
788105,1,28252,0,46950,51013,46610.06,50440.16,339.94,572.84,1.344486,76.14,1
788145,1,28292,0,46973,51071,46610.79,50441.42,362.21,629.58,1.343581,76.15,1
788185,1,28332,0,46996,51127,46611.56,50442.79,384.44,684.21,1.342651,76.15,1
788225,1,28372,0,47022,51178,46612.38,50444.26,409.62,733.74,1.341693,76.16,1
788265,1,28412,0,47044,51218,46613.24,50445.81,430.76,772.19,1.340706,76.17,1
788305,1,28452,0,47061,51259,46614.14,50447.44,446.86,811.56,1.339688,76.18,1
788345,1,28492,0,47072,51301,46615.06,50449.14,456.94,851.86,1.338635,76.19,1
788385,1,28532,0,47091,51338,46616.01,50450.92,474.99,887.08,1.337548,76.20,1
788425,1,28572,0,47107,51389,46617.00,50452.80,490.00,936.20,1.336423,76.22,1
788465,1,28612,0,47123,51429,46618.01,50454.75,504.99,974.25,1.335259,76.23,1
788506,1,28653,0,47129,51364,46619.03,50456.57,509.97,907.43,1.334067,76.24,1
788546,1,28693,0,47054,51191,46619.90,50458.04,434.10,732.96,1.332861,76.25,1
788586,1,28733,0,46977,51077,46620.62,50459.28,356.38,617.72,1.331646,76.27,1
788626,1,28773,0,46940,51032,46621.26,50460.43,318.74,571.57,1.330423,76.28,1
788666,1,28813,0,46935,51021,46621.89,50461.55,313.11,559.45,1.329193,76.30,1
788706,1,28853,0,46922,51002,46622.49,50462.63,299.51,539.37,1.327956,76.31,1
788746,1,28893,0,46919,51018,46623.08,50463.75,295.92,554.25,1.326712,76.33,1
788786,1,28933,0,46937,51049,46623.71,50464.92,313.29,584.08,1.325460,76.34,1
788826,1,28973,0,46947,51056,46624.36,50466.10,322.64,589.90,1.324199,76.36,1
788866,1,29013,0,46944,51062,46625.00,50467.29,319.00,594.71,1.322931,76.38,1
788906,1,29053,0,46950,51080,46625.65,50468.52,324.35,611.48,1.321653,76.39,1
788946,1,29093,0,46954,51111,46626.31,50469.80,327.69,641.20,1.320365,76.41,1
788986,1,29133,0,46970,51155,46627.00,50471.18,343.00,683.82,1.319064,76.43,1
789026,1,29173,0,46985,51205,46627.71,50472.64,357.29,732.36,1.317748,76.45,1
789067,1,29214,0,47009,51249,46628.48,50474.20,380.52,774.80,1.316415,76.47,1
789107,1,29254,0,47022,51295,46629.27,50475.84,392.73,819.16,1.315064,76.49,1
789147,1,29294,0,47033,51333,46630.08,50477.56,402.92,855.44,1.313692,76.51,1
789187,1,29334,0,47055,51372,46630.93,50479.35,424.07,892.65,1.312299,76.53,1
789227,1,29374,0,47073,51427,46631.82,50481.25,441.18,945.75,1.310882,76.55,1
789267,1,29414,0,47091,51480,46632.73,50483.25,458.27,996.75,1.309440,76.57,1
789307,1,29454,0,47111,51460,46633.69,50485.20,477.31,974.80,1.307977,76.59,1
789347,1,29494,0,47067,51307,46634.56,50486.84,432.44,820.16,1.306503,76.62,1
789387,1,29534,0,46988,51187,46635.27,50488.25,352.73,698.75,1.305023,76.64,1
789427,1,29574,0,46954,51137,46635.91,50489.54,318.09,647.46,1.303536,76.66,1
789467,1,29614,0,46941,51126,46636.52,50490.82,304.48,635.18,1.302044,76.68,1
789507,1,29654,0,46932,51111,46637.11,50492.06,294.89,618.94,1.300547,76.71,1
789547,1,29694,0,46923,51120,46637.69,50493.32,285.31,626.68,1.299045,76.73,1
789587,1,29734,0,46935,51150,46638.29,50494.63,296.71,655.37,1.297536,76.76,1
789628,1,29775,0,46947,51166,46638.90,50495.98,308.10,670.02,1.296020,76.78,1
789668,1,29815,0,46948,51174,46639.52,50497.33,308.48,676.67,1.294498,76.81,1
789708,1,29855,0,46945,51193,46640.14,50498.73,304.86,694.27,1.292968,76.84,1
789748,1,29895,0,46960,51229,46640.78,50500.19,319.22,728.81,1.291429,76.86,1
789788,1,29935,0,46984,51279,46641.46,50501.75,342.54,777.25,1.289881,76.89,1
789828,1,29975,0,46997,51337,46642.18,50503.42,354.82,833.58,1.288320,76.92,1
789868,1,30015,0,47024,51392,46642.94,50505.20,381.06,886.80,1.286745,76.94,1
789908,1,30055,1,47048,51432,46643.75,50507.05,404.25,924.95,1.285156,76.97,1
789948,1,30095,1,47066,51468,46644.60,50508.97,421.40,959.03,1.283551,77.00,1
789988,1,30135,1,47078,51513,46645.46,50510.98,432.54,1002.02,1.281931,77.03,1
790028,1,30175,1,47096,51553,46646.37,50513.07,449.63,1039.93,1.280294,77.06,1
790068,1,30215,1,47118,51603,46647.31,50515.25,470.69,1087.75,1.278639,77.09,1
790108,1,30255,1,47131,51637,46648.28,50517.49,482.72,1119.51,1.276967,77.12,1
790148,1,30295,1,47120,51541,46649.23,50519.54,470.77,1021.46,1.275283,77.15,1
790189,1,30336,1,47046,51364,46650.02,50521.23,395.98,842.77,1.273594,77.18,1
790229,1,30376,1,46978,51271,46650.68,50522.73,327.32,748.27,1.271901,77.21,1
790269,1,30416,1,46949,51244,46651.27,50524.18,297.73,719.82,1.270204,77.24,1
790309,1,30456,1,46942,51229,46651.86,50525.59,290.14,703.41,1.268504,77.27,1
790349,1,30496,1,46934,51216,46652.42,50526.97,281.58,689.03,1.266800,77.30,1
790389,1,30536,1,46933,51244,46652.98,50528.40,280.02,715.60,1.265093,77.33,1
790429,1,30576,1,46956,51269,46653.59,50529.89,302.41,739.11,1.263381,77.37,1
790469,1,30616,1,46959,51272,46654.20,50531.37,304.80,740.63,1.261666,77.40,1
790509,1,30656,1,46957,51272,46654.81,50532.86,302.19,739.14,1.259947,77.43,1
790549,1,30696,1,46956,51292,46655.41,50534.37,300.59,757.62,1.258224,77.47,1
790589,1,30736,1,46975,51328,46656.05,50535.96,318.95,792.04,1.256496,77.50,1
790629,1,30776,1,46989,51369,46656.72,50537.63,332.28,831.37,1.254762,77.53,1
790669,1,30816,1,46997,51409,46657.41,50539.37,339.59,869.62,1.253021,77.57,1
790710,1,30857,1,47013,51448,46658.12,50541.20,354.88,906.80,1.251273,77.60,1
790750,1,30897,1,47032,51483,46658.87,50543.08,373.13,939.92,1.249516,77.64,1
790790,1,30937,1,47042,51517,46659.63,50545.03,382.37,971.97,1.247752,77.67,1
790830,1,30977,1,47052,51554,46660.42,50547.05,391.58,1006.95,1.245977,77.71,1
790870,1,31017,1,47070,51601,46661.24,50549.16,408.76,1051.84,1.244193,77.74,1
790910,1,31057,1,47093,51635,46662.10,50551.33,430.90,1083.67,1.242399,77.78,1
790950,1,31097,1,47081,51536,46662.94,50553.30,418.06,982.70,1.240600,77.81,1
790990,1,31137,1,47012,51366,46663.64,50554.93,348.36,811.07,1.238799,77.85,1
791030,1,31177,1,46952,51273,46664.22,50556.36,287.78,716.64,1.236997,77.89,1
791070,1,31217,1,46927,51241,46664.75,50557.73,262.25,683.27,1.235195,77.92,1
791110,1,31257,1,46914,51215,46665.25,50559.05,248.75,655.95,1.233392,77.96,1
791150,1,31297,1,46899,51192,46665.71,50560.32,233.29,631.68,1.231590,78.00,1
791190,1,31337,1,46897,51217,46666.18,50561.63,230.82,655.37,1.229788,78.04,1
791230,1,31377,1,46913,51238,46666.68,50562.99,246.32,675.01,1.227984,78.08,1
791271,1,31418,1,46915,51237,46667.17,50564.34,247.83,672.66,1.226181,78.11,1
791311,1,31458,1,46911,51240,46667.66,50565.69,243.34,674.31,1.224376,78.15,1
791351,1,31498,1,46911,51265,46668.15,50567.09,242.85,697.91,1.222571,78.19,1
791391,1,31538,1,46933,51311,46668.68,50568.57,264.32,742.43,1.220763,78.23,1
791431,1,31578,1,46950,51364,46669.24,50570.17,280.76,793.83,1.218953,78.27,1
791471,1,31618,1,46974,51410,46669.85,50571.85,304.15,838.15,1.217139,78.31,1
791511,1,31658,1,46996,51453,46670.50,50573.61,325.50,879.39,1.215322,78.35,1
791551,1,31698,1,47015,51489,46671.20,50575.44,343.80,913.56,1.213500,78.39,1
791591,1,31738,1,47028,51523,46671.91,50577.34,356.09,945.66,1.211674,78.43,1
791631,1,31778,1,47046,51554,46672.66,50579.29,373.34,974.71,1.209844,78.47,1
791671,1,31818,1,47068,51593,46673.45,50581.32,394.55,1011.68,1.208009,78.51,1
791711,1,31858,1,47080,51640,46674.27,50583.43,405.73,1056.57,1.206168,78.55,1
791751,1,31898,1,47082,51584,46675.08,50585.44,406.92,998.56,1.204325,78.59,1
791792,1,31939,1,47018,51404,46675.77,50587.07,342.23,816.93,1.202482,78.63,1
791832,1,31979,1,46940,51278,46676.30,50588.46,263.70,689.54,1.200640,78.67,1
791872,1,32019,1,46898,51242,46676.75,50589.77,221.25,652.23,1.198799,78.71,1
791912,1,32059,1,46887,51222,46677.17,50591.03,209.83,630.97,1.196958,78.75,1
791952,1,32099,1,46872,51192,46677.56,50592.23,194.44,599.77,1.195119,78.79,1
791992,1,32139,1,46866,51205,46677.94,50593.46,188.06,611.54,1.193281,78.83,1
792032,1,32179,1,46886,51246,46678.36,50594.77,207.64,651.23,1.191443,78.87,1
792072,1,32219,1,46903,51254,46678.80,50596.09,224.20,657.91,1.189606,78.91,1
792112,1,32259,1,46903,51256,46679.25,50597.41,223.75,658.59,1.187770,78.96,1
792152,1,32299,1,46904,51272,46679.70,50598.76,224.30,673.24,1.185935,79.00,1
792192,1,32339,1,46912,51305,46680.17,50600.17,231.83,704.83,1.184099,79.04,1
792232,1,32379,1,46934,51345,46680.68,50601.66,253.32,743.34,1.182263,79.08,1
792272,1,32419,1,46950,51391,46681.21,50603.24,268.79,787.76,1.180425,79.12,1
792312,1,32459,1,46971,51430,46681.80,50604.90,289.20,825.10,1.178587,79.17,1
792353,1,32500,1,46984,51464,46682.40,50606.62,301.60,857.38,1.176747,79.21,1
792393,1,32540,1,46993,51494,46683.02,50608.39,309.98,885.61,1.174905,79.25,1
792433,1,32580,1,47005,51534,46683.67,50610.25,321.33,923.75,1.173060,79.29,1
792473,1,32620,1,47024,51579,46684.35,50612.18,339.65,966.82,1.171212,79.34,1
792513,1,32660,1,47050,51620,46685.09,50614.20,364.91,1005.80,1.169361,79.38,1
792553,1,32700,1,47044,51547,46685.80,50616.07,358.20,930.93,1.167510,79.42,1
792593,1,32740,1,46981,51382,46686.39,50617.60,294.61,764.40,1.165660,79.47,1
792633,1,32780,1,46919,51284,46686.86,50618.93,232.14,665.07,1.163811,79.51,1
792673,1,32820,1,46882,51248,46687.25,50620.19,194.75,627.81,1.161964,79.55,1
792713,1,32860,1,46876,51224,46687.63,50621.40,188.37,602.60,1.160119,79.60,1
792753,1,32900,1,46866,51199,46687.99,50622.55,178.01,576.45,1.158276,79.64,1
792793,1,32940,1,46858,51217,46688.33,50623.75,169.67,593.25,1.156435,79.68,1
792833,1,32980,1,46869,51243,46688.69,50624.98,180.31,618.02,1.154595,79.73,1
792874,1,33021,1,46876,51245,46689.07,50626.23,186.93,618.77,1.152756,79.77,1
792914,1,33061,1,46869,51252,46689.43,50627.48,179.57,624.52,1.150919,79.81,1
792954,1,33101,1,46871,51271,46689.79,50628.77,181.21,642.23,1.149082,79.86,1
792994,1,33141,1,46890,51308,46690.19,50630.13,199.81,677.87,1.147246,79.90,1
793034,1,33181,1,46909,51361,46690.63,50631.59,218.37,729.41,1.145411,79.95,1
793074,1,33221,1,46925,51410,46691.10,50633.15,233.90,776.85,1.143574,79.99,1
793114,1,33261,1,46946,51453,46691.61,50634.79,254.39,818.21,1.141737,80.03,1
793154,1,33301,1,46968,51485,46692.16,50636.50,275.84,848.50,1.139898,80.08,1
793194,1,33341,1,46979,51520,46692.74,50638.27,286.26,881.73,1.138058,80.12,1
793234,1,33381,1,46998,51563,46693.35,50640.12,304.65,922.88,1.136217,80.17,1
793274,1,33421,1,47016,51600,46694.00,50642.04,322.00,957.96,1.134373,80.21,1
793314,1,33461,1,47028,51609,46694.67,50643.97,333.33,965.03,1.132529,80.25,1
793354,1,33501,1,47006,51495,46695.29,50645.68,310.71,849.32,1.130685,80.30,1
793395,1,33542,1,46930,51347,46695.76,50647.08,234.24,699.92,1.128843,80.34,1
793435,1,33582,1,46877,51271,46696.12,50648.33,180.87,622.67,1.127003,80.39,1
793475,1,33622,1,46855,51248,46696.45,50649.53,158.55,598.47,1.125164,80.43,1
793515,1,33662,1,46839,51220,46696.73,50650.67,142.27,569.33,1.123328,80.48,1
793555,1,33702,1,46832,51212,46697.00,50651.79,135.00,560.21,1.121494,80.52,1
793595,1,33742,1,46838,51251,46697.29,50652.99,140.71,598.01,1.119661,80.57,1
793635,1,33782,1,46854,51270,46697.60,50654.23,156.40,615.77,1.117829,80.61,1
793675,1,33822,1,46857,51260,46697.92,50655.44,159.08,604.56,1.115999,80.66,1
793715,1,33862,1,46858,51268,46698.24,50656.66,159.76,611.34,1.114171,80.70,1
793755,1,33902,1,46866,51293,46698.58,50657.94,167.42,635.06,1.112344,80.74,1
793795,1,33942,1,46877,51334,46698.94,50659.29,178.06,674.71,1.110518,80.79,1
793835,1,33982,1,46897,51371,46699.34,50660.71,197.66,710.29,1.108692,80.83,1
793875,1,34022,1,46910,51412,46699.76,50662.22,210.24,749.78,1.106867,80.88,1
793915,1,34062,1,46926,51451,46700.21,50663.80,225.79,787.20,1.105041,80.92,1
793956,1,34103,1,46940,51478,46700.69,50665.43,239.31,812.57,1.103215,80.97,1
793996,1,34143,1,46956,51514,46701.20,50667.12,254.80,846.87,1.101389,81.01,1
794036,1,34183,1,46971,51561,46701.74,50668.91,269.26,892.09,1.099561,81.06,1
794076,1,34223,1,46986,51573,46702.31,50670.72,283.69,902.28,1.097733,81.10,1
794116,1,34263,1,46968,51471,46702.84,50672.32,265.16,798.68,1.095906,81.15,1
794156,1,34303,1,46897,51332,46703.23,50673.64,193.77,658.36,1.094081,81.19,1
794196,1,34343,1,46848,51264,46703.52,50674.83,144.48,589.17,1.092258,81.24,1
794236,1,34383,1,46833,51236,46703.79,50675.95,129.21,560.05,1.090437,81.28,1
794276,1,34423,1,46826,51207,46704.03,50677.02,121.97,529.98,1.088619,81.33,1
794316,1,34463,1,46808,51192,46704.24,50678.05,103.76,513.95,1.086803,81.37,1
794356,1,34503,1,46817,51212,46704.47,50679.12,112.53,532.88,1.084990,81.42,1
794396,1,34543,1,46823,51218,46704.71,50680.20,118.29,537.80,1.083178,81.46,1
794436,1,34583,1,46820,51214,46704.94,50681.27,115.06,532.73,1.081369,81.51,1
794476,1,34623,1,46820,51217,46705.17,50682.34,114.83,534.66,1.079563,81.55,1
794517,1,34664,1,46828,51243,46705.41,50683.46,122.59,559.54,1.077758,81.60,1
794557,1,34704,1,46841,51283,46705.69,50684.66,135.31,598.34,1.075955,81.64,1
794597,1,34744,1,46857,51332,46705.99,50685.96,151.01,646.04,1.074153,81.69,1
794637,1,34784,1,46878,51366,46706.34,50687.32,171.66,678.68,1.072352,81.73,1
794677,1,34824,1,46899,51409,46706.72,50688.77,192.28,720.23,1.070551,81.78,1
794717,1,34864,1,46914,51452,46707.14,50690.29,206.86,761.71,1.068751,81.82,1
794757,1,34904,1,46932,51485,46707.59,50691.88,224.41,793.12,1.066951,81.87,1
794797,1,34944,1,46954,51526,46708.08,50693.55,245.92,832.45,1.065152,81.91,1
794837,1,34984,1,46972,51565,46708.61,50695.30,263.39,869.70,1.063352,81.96,1
794877,1,35024,1,46979,51510,46709.15,50696.93,269.85,813.07,1.061554,82.00,1
794917,1,35064,1,46922,51361,46709.57,50698.25,212.43,662.75,1.059759,82.05,1
794957,1,35104,1,46854,51264,46709.86,50699.39,144.14,564.61,1.057966,82.09,1
794997,1,35144,1,46827,51228,46710.10,50700.45,116.90,527.55,1.056176,82.14,1
795037,1,35184,1,46811,51198,46710.30,50701.44,100.70,496.56,1.054388,82.18,1
795078,1,35225,1,46794,51175,46710.47,50702.39,83.53,472.61,1.052604,82.23,1
795118,1,35265,1,46797,51199,46710.64,50703.39,86.36,495.61,1.050822,82.27,1
795158,1,35305,1,46808,51226,46710.84,50704.43,97.16,521.57,1.049042,82.32,1
795198,1,35345,1,46818,51227,46711.05,50705.48,106.95,521.52,1.047264,82.36,1
795238,1,35385,1,46817,51235,46711.27,50706.54,105.73,528.46,1.045489,82.41,1
795278,1,35425,1,46825,51268,46711.50,50707.66,113.50,560.34,1.043715,82.45,1
795318,1,35465,1,46850,51298,46711.78,50708.85,138.22,589.15,1.041944,82.50,1
795358,1,35505,1,46868,51342,46712.09,50710.12,155.91,631.88,1.040174,82.54,1
795398,1,35545,1,46887,51384,46712.44,50711.46,174.56,672.54,1.038406,82.59,1
795438,1,35585,1,46908,51422,46712.83,50712.89,195.17,709.11,1.036639,82.63,1
795478,1,35625,1,46922,51451,46713.25,50714.36,208.75,736.64,1.034873,82.68,1
795518,1,35665,1,46934,51486,46713.69,50715.91,220.31,770.09,1.033108,82.72,1
795558,1,35705,1,46949,51522,46714.16,50717.52,234.84,804.48,1.031344,82.77,1
795599,1,35746,1,46965,51564,46714.67,50719.21,250.33,844.79,1.029580,82.81,1
795639,1,35786,1,46980,51576,46715.20,50720.93,264.80,855.07,1.027818,82.86,1
795679,1,35826,1,46955,51467,46715.68,50722.42,239.32,744.58,1.026058,82.90,1
795719,1,35866,1,46891,51347,46716.03,50723.67,174.97,623.33,1.024301,82.95,1
795759,1,35906,1,46852,51298,46716.30,50724.82,135.70,573.18,1.022545,82.99,1
795799,1,35946,1,46837,51282,46716.55,50725.94,120.45,556.06,1.020793,83.04,1
795839,1,35986,1,46833,51254,46716.78,50727.00,116.22,527.00,1.019042,83.08,1
795879,1,36026,1,46827,51255,46717.00,50728.05,110.00,526.95,1.017295,83.13,1
795919,1,36066,1,46839,51289,46717.25,50729.18,121.75,559.82,1.015549,83.17,1
795959,1,36106,1,46849,51302,46717.52,50730.33,131.48,571.67,1.013806,83.21,1
795999,1,36146,1,46853,51293,46717.79,50731.45,135.21,561.55,1.012065,83.26,1
796039,1,36186,1,46850,51306,46718.05,50732.61,131.95,573.39,1.010326,83.30,1
796079,1,36226,1,46862,51346,46718.34,50733.83,143.66,612.17,1.008590,83.35,1
796120,1,36267,1,46883,51380,46718.68,50735.12,164.32,644.87,1.006855,83.39,1
796160,1,36307,1,46900,51423,46719.04,50736.50,180.96,686.50,1.005121,83.44,1
796200,1,36347,1,46920,51471,46719.44,50737.97,200.56,733.03,1.003389,83.48,1
796240,1,36387,1,46941,51507,46719.89,50739.51,221.11,767.49,1.001659,83.53,1
796280,1,36427,1,46956,51548,46720.36,50741.13,235.64,806.87,0.999930,83.57,1
796320,1,36467,1,46980,51591,46720.88,50742.83,259.12,848.17,0.998202,83.61,1
796360,1,36507,1,46997,51634,46721.43,50744.61,275.57,889.39,0.996475,83.66,1
796400,1,36547,1,47022,51675,46722.04,50746.48,299.96,928.52,0.994751,83.70,1
796440,1,36587,1,47039,51656,46722.67,50748.30,316.33,907.70,0.993029,83.75,1
796480,1,36627,1,46992,51529,46723.21,50749.86,268.79,779.14,0.991311,83.79,1
796520,1,36667,1,46932,51430,46723.63,50751.22,208.37,678.78,0.989596,83.84,1
796560,1,36707,1,46903,51391,46723.99,50752.50,179.01,638.50,0.987883,83.88,1
796600,1,36747,1,46889,51365,46724.32,50753.73,164.68,611.27,0.986174,83.92,1
796641,1,36788,1,46875,51341,46724.62,50754.91,150.38,586.09,0.984466,83.97,1
796681,1,36828,1,46869,51352,46724.91,50756.10,144.09,595.90,0.982762,84.01,1
796721,1,36868,1,46884,51386,46725.23,50757.36,158.77,628.64,0.981059,84.05,1
796761,1,36908,1,46892,51385,46725.57,50758.62,166.43,626.38,0.979359,84.10,1
796801,1,36948,1,46895,51391,46725.91,50759.89,169.09,631.11,0.977662,84.14,1
796841,1,36988,1,46902,51423,46726.26,50761.21,175.74,661.79,0.975966,84.19,1
796881,1,37028,1,46917,51458,46726.64,50762.61,190.36,695.39,0.974273,84.23,1
796921,1,37068,1,46944,51495,46727.08,50764.07,216.92,730.93,0.972582,84.27,1
796961,1,37108,1,46963,51536,46727.55,50765.62,235.45,770.38,0.970894,84.32,1
797001,1,37148,1,46980,51574,46728.06,50767.24,251.94,806.76,0.969208,84.36,1
797041,1,37188,1,46992,51607,46728.59,50768.92,263.41,838.08,0.967525,84.40,1
797081,1,37228,1,47012,51640,46729.15,50770.66,282.85,869.34,0.965844,84.45,1
797121,1,37268,1,47029,51678,46729.75,50772.48,299.25,905.52,0.964166,84.49,1
797161,1,37308,1,47042,51712,46730.38,50774.36,311.62,937.64,0.962491,84.53,1
797202,1,37349,1,47064,51742,46731.05,50776.29,332.95,965.71,0.960819,84.58,1
797242,1,37389,1,47055,51679,46731.70,50778.10,323.30,900.90,0.959152,84.62,1
797282,1,37429,1,46998,51551,46732.23,50779.65,265.77,771.35,0.957488,84.66,1
797322,1,37469,1,46951,51481,46732.67,50781.05,218.33,699.95,0.955828,84.71,1
797362,1,37509,1,46931,51452,46733.07,50782.39,197.93,669.61,0.954171,84.75,1
797402,1,37549,1,46923,51433,46733.45,50783.70,189.55,649.30,0.952517,84.79,1
797442,1,37589,1,46918,51415,46733.82,50784.96,184.18,630.04,0.950866,84.84,1
797482,1,37629,1,46923,51441,46734.20,50786.27,188.80,654.73,0.949217,84.88,1
797522,1,37669,1,46941,51462,46734.61,50787.62,206.39,674.37,0.947573,84.92,1
797562,1,37709,1,46937,51457,46735.02,50788.96,201.98,668.04,0.945931,84.97,1
797602,1,37749,1,46944,51461,46735.44,50790.31,208.56,670.69,0.944293,85.01,1
797642,1,37789,1,46948,51484,46735.86,50791.70,212.14,692.30,0.942658,85.05,1
797682,1,37829,1,46960,51516,46736.31,50793.15,223.69,722.85,0.941026,85.09,1
797723,1,37870,1,46979,51547,46736.80,50794.66,242.20,752.34,0.939397,85.14,1
797763,1,37910,1,46990,51585,46737.31,50796.24,252.69,788.76,0.937772,85.18,1
797803,1,37950,1,47008,51629,46737.85,50797.91,270.15,831.09,0.936149,85.22,1
797843,1,37990,1,47024,51661,46738.43,50799.63,285.57,861.37,0.934530,85.26,1
797883,1,38030,1,47042,51696,46739.04,50801.43,302.96,894.57,0.932915,85.31,1
797923,1,38070,1,47056,51740,46739.67,50803.30,316.33,936.70,0.931303,85.35,1
797963,1,38110,1,47079,51782,46740.35,50805.26,338.65,976.74,0.929695,85.39,1
798003,1,38150,1,47101,51802,46741.07,50807.26,359.93,994.74,0.928092,85.43,1
798043,1,38190,1,47091,51714,46741.77,50809.07,349.23,904.93,0.926494,85.48,1
798083,1,38230,1,47025,51595,46742.34,50810.65,282.66,784.35,0.924902,85.52,1
798123,1,38270,1,46981,51523,46742.82,50812.07,238.18,710.93,0.923313,85.56,1
798163,1,38310,1,46960,51486,46743.26,50813.42,216.74,672.58,0.921728,85.60,1
798203,1,38350,1,46943,51455,46743.66,50814.71,199.34,640.29,0.920146,85.64,1
798243,1,38390,1,46925,51435,46744.02,50815.95,180.98,619.05,0.918568,85.69,1
798284,1,38431,1,46934,51456,46744.41,50817.23,189.59,638.77,0.916993,85.73,1
798324,1,38471,1,46939,51476,46744.80,50818.55,194.20,657.45,0.915421,85.77,1
798364,1,38511,1,46938,51478,46745.18,50819.87,192.82,658.13,0.913852,85.81,1
798404,1,38551,1,46943,51481,46745.58,50821.20,197.42,659.80,0.912286,85.85,1
798444,1,38591,1,46951,51516,46745.99,50822.59,205.01,693.41,0.910724,85.89,1
798484,1,38631,1,46969,51556,46746.44,50824.05,222.56,731.95,0.909164,85.93,1
798524,1,38671,1,46996,51595,46746.94,50825.60,249.06,769.40,0.907607,85.98,1
798564,1,38711,1,47019,51635,46747.48,50827.22,271.52,807.78,0.906055,86.02,1
798604,1,38751,1,47032,51672,46748.05,50828.91,283.95,843.09,0.904506,86.06,1
798644,1,38791,1,47048,51700,46748.66,50830.65,299.34,869.35,0.902961,86.10,1
798684,1,38831,1,47063,51730,46749.29,50832.45,313.71,897.55,0.901420,86.14,1
798724,1,38871,1,47080,51768,46749.95,50834.32,330.05,933.68,0.899884,86.18,1
798764,1,38911,1,47092,51804,46750.63,50836.27,341.37,967.73,0.898352,86.22,1
798805,1,38952,1,47111,51820,46751.36,50838.23,359.64,981.77,0.896825,86.26,1
798845,1,38992,1,47095,51739,46752.04,50840.04,342.96,898.96,0.895304,86.30,1
798885,1,39032,1,47032,51622,46752.61,50841.61,279.39,780.39,0.893788,86.34,1
798925,1,39072,1,46983,51553,46753.07,50843.03,229.93,709.97,0.892275,86.38,1
798965,1,39112,1,46969,51531,46753.50,50844.41,215.50,686.59,0.890765,86.42,1
799005,1,39152,1,46955,51502,46753.90,50845.73,201.10,656.27,0.889259,86.46,1
799045,1,39192,1,46943,51490,46754.28,50847.02,188.72,642.98,0.887756,86.51,1
799085,1,39232,1,46957,51519,46754.69,50848.36,202.31,670.64,0.886256,86.55,1
799125,1,39272,1,46971,51533,46755.12,50849.73,215.88,683.27,0.884760,86.59,1
799165,1,39312,1,46972,51529,46755.55,50851.09,216.45,677.91,0.883267,86.63,1
799205,1,39352,1,46973,51532,46755.99,50852.45,217.01,679.55,0.881777,86.67,1
799245,1,39392,1,46982,51559,46756.45,50853.87,225.55,705.13,0.880291,86.70,1
799285,1,39432,1,46992,51588,46756.92,50855.34,235.08,732.66,0.878809,86.74,1
799325,1,39472,1,47007,51626,46757.42,50856.88,249.58,769.12,0.877329,86.78,1
799366,1,39513,1,47022,51658,46757.95,50858.48,264.05,799.52,0.875854,86.82,1
799406,1,39553,1,47037,51695,46758.51,50860.16,278.49,834.84,0.874382,86.86,1
799446,1,39593,1,47048,51726,46759.09,50861.89,288.91,864.11,0.872913,86.90,1
799486,1,39633,1,47064,51761,46759.70,50863.70,304.30,897.30,0.871448,86.94,1
799526,1,39673,1,47082,51802,46760.34,50865.57,321.66,936.43,0.869988,86.98,1
799566,1,39713,1,47103,51848,46761.03,50867.54,341.97,980.46,0.868531,87.02,1
799606,1,39753,1,47129,51873,46761.77,50869.55,367.23,1003.45,0.867079,87.06,1
799646,1,39793,1,47125,51810,46762.50,50871.43,362.50,938.57,0.865634,87.10,1
799686,1,39833,1,47068,51687,46763.11,50873.07,304.89,813.93,0.864194,87.14,1
799726,1,39873,1,47019,51611,46763.62,50874.54,255.38,736.46,0.862757,87.18,1
799766,1,39913,1,46991,51575,46764.08,50875.95,226.92,699.05,0.861325,87.22,1
799806,1,39953,1,46972,51537,46764.50,50877.27,207.50,659.73,0.859896,87.25,1
799846,1,39993,1,46958,51522,46764.88,50878.56,193.12,643.44,0.858469,87.29,1
799887,1,40034,1,46962,51543,46765.28,50879.89,196.72,663.11,0.857046,87.33,1
799927,1,40074,1,46970,51562,46765.69,50881.26,204.31,680.74,0.855626,87.37,1
799967,1,40114,1,46972,51559,46766.10,50882.61,205.90,676.39,0.854209,87.41,1
800007,1,40154,1,46972,51567,46766.52,50883.98,205.48,683.02,0.852794,87.45,1
800047,1,40194,1,46984,51596,46766.95,50885.41,217.05,710.59,0.851383,87.48,1
800087,1,40234,1,47001,51637,46767.42,50886.91,233.58,750.09,0.849975,87.52,1
800127,1,40274,1,47021,51675,46767.93,50888.49,253.07,786.51,0.848570,87.56,1
800167,1,40314,1,47041,51708,46768.48,50890.13,272.52,817.87,0.847168,87.60,1
800207,1,40354,1,47060,51747,46769.06,50891.85,290.94,855.15,0.845771,87.64,1
800247,1,40394,1,47075,51771,46769.68,50893.61,305.32,877.39,0.844377,87.67,1
800287,1,40434,1,47085,51796,46770.31,50895.41,314.69,900.59,0.842988,87.71,1
800327,1,40474,1,47100,51828,46770.97,50897.28,329.03,930.72,0.841602,87.75,1
800367,1,40514,1,47111,51866,46771.65,50899.21,339.35,966.79,0.840222,87.79,1
800408,1,40555,1,47126,51896,46772.36,50901.21,353.64,994.79,0.838845,87.82,1
800448,1,40595,1,47135,51882,46773.09,50903.18,361.91,978.82,0.837474,87.86,1
800488,1,40635,1,47096,51773,46773.73,50904.92,322.27,868.08,0.836108,87.90,1
800528,1,40675,1,47037,51681,46774.26,50906.47,262.74,774.53,0.834746,87.93,1
800568,1,40715,1,47010,51640,46774.73,50907.94,235.27,732.06,0.833386,87.97,1
800608,1,40755,1,46992,51614,46775.17,50909.36,216.83,704.64,0.832030,88.01,1
800648,1,40795,1,46977,51592,46775.58,50910.72,201.42,681.28,0.830677,88.04,1
800688,1,40835,1,46974,51604,46775.98,50912.11,198.02,691.89,0.829326,88.08,1
800728,1,40875,1,46996,51630,46776.42,50913.55,219.58,716.45,0.827978,88.12,1
800768,1,40915,1,46996,51629,46776.86,50914.98,219.14,714.02,0.826633,88.15,1
800808,1,40955,1,46998,51623,46777.30,50916.40,220.70,706.60,0.825291,88.19,1
800848,1,40995,1,47003,51643,46777.76,50917.85,225.24,725.15,0.823951,88.23,1
800888,1,41035,1,47012,51674,46778.23,50919.36,233.77,754.64,0.822615,88.26,1
800928,1,41075,1,47024,51710,46778.72,50920.95,245.28,789.05,0.821282,88.30,1
800969,1,41116,1,47040,51739,46779.24,50922.58,260.76,816.42,0.819951,88.34,1
801009,1,41156,1,47056,51774,46779.80,50924.29,276.20,849.71,0.818624,88.37,1
801049,1,41196,1,47067,51808,46780.37,50926.05,286.63,881.95,0.817300,88.41,1
801089,1,41236,1,47083,51836,46780.98,50927.87,302.02,908.12,0.815979,88.44,1
801129,1,41276,1,47102,51873,46781.62,50929.77,320.38,943.23,0.814662,88.48,1
801169,1,41316,1,47112,51912,46782.28,50931.73,329.72,980.27,0.813348,88.51,1
801209,1,41356,1,47133,51952,46782.98,50933.77,350.02,1018.23,0.812038,88.55,1
801249,1,41396,1,47159,51985,46783.74,50935.88,375.26,1049.12,0.810733,88.59,1
801289,1,41436,1,47154,51939,46784.48,50937.89,369.52,1001.11,0.809433,88.62,1
801329,1,41476,1,47106,51826,46785.12,50939.66,320.87,886.34,0.808137,88.66,1
801369,1,41516,1,47055,51745,46785.66,50941.28,269.34,803.72,0.806845,88.69,1
801409,1,41556,1,47027,51715,46786.15,50942.82,240.85,772.18,0.805556,88.73,1
801449,1,41596,1,47012,51682,46786.60,50944.30,225.40,737.70,0.804270,88.76,1
801489,1,41636,1,46995,51660,46787.02,50945.74,207.98,714.26,0.802986,88.80,1
801530,1,41677,1,46999,51679,46787.45,50947.21,211.55,731.79,0.801705,88.83,1
801570,1,41717,1,47010,51699,46787.89,50948.71,222.11,750.29,0.800426,88.87,1
801610,1,41757,1,47004,51692,46788.32,50950.20,215.68,741.80,0.799149,88.90,1
801650,1,41797,1,47012,51700,46788.77,50951.70,223.23,748.30,0.797875,88.94,1
801690,1,41837,1,47018,51728,46789.23,50953.25,228.77,774.75,0.796603,88.97,1
801730,1,41877,1,47034,51770,46789.73,50954.89,244.27,815.11,0.795334,89.00,1
801770,1,41917,1,47059,51802,46790.27,50956.59,268.73,845.41,0.794067,89.04,1
801810,1,41957,1,47076,51836,46790.84,50958.35,285.16,877.65,0.792804,89.07,1
801850,1,41997,1,47090,51862,46791.44,50960.16,298.56,901.84,0.791543,89.11,1
801890,1,42037,1,47102,51894,46792.06,50962.02,309.94,931.98,0.790287,89.14,1
801930,1,42077,1,47120,51922,46792.71,50963.95,327.29,958.05,0.789034,89.17,1
801970,1,42117,1,47126,51950,46793.38,50965.92,332.62,984.08,0.787784,89.21,1
802010,1,42157,1,47142,51983,46794.08,50967.95,347.92,1015.05,0.786539,89.24,1
802051,1,42198,1,47152,52020,46794.80,50970.06,357.20,1049.94,0.785297,89.28,1
802091,1,42238,1,47174,52058,46795.56,50972.23,378.44,1085.77,0.784059,89.31,1
802131,1,42278,1,47179,52054,46796.33,50974.40,382.67,1079.60,0.782826,89.34,1
802171,1,42318,1,47151,51939,46797.04,50976.33,353.96,962.67,0.781598,89.38,1
802211,1,42358,1,47089,51849,46797.62,50978.07,291.37,870.93,0.780373,89.41,1
802251,1,42398,1,47061,51813,46798.15,50979.75,262.85,833.25,0.779151,89.44,1
802291,1,42438,1,47045,51775,46798.65,50981.34,246.35,793.66,0.777931,89.48,1
802331,1,42478,1,47029,51735,46799.11,50982.85,229.89,752.15,0.776714,89.51,1
802371,1,42518,1,47016,51744,46799.54,50984.37,216.46,759.63,0.775500,89.54,1
802411,1,42558,1,47028,51760,46800.00,50985.92,228.00,774.08,0.774287,89.58,1
802451,1,42598,1,47029,51748,46800.46,50987.45,228.54,760.55,0.773078,89.61,1
802491,1,42638,1,47019,51746,46800.90,50988.97,218.10,757.03,0.771870,89.64,1
802531,1,42678,1,47025,51759,46801.35,50990.51,223.65,768.49,0.770665,89.67,1
802572,1,42719,1,47031,51778,46801.81,50992.09,229.19,785.91,0.769462,89.71,1
802612,1,42759,1,47048,51812,46802.30,50993.73,245.70,818.27,0.768261,89.74,1
802652,1,42799,1,47057,51850,46802.81,50995.45,254.19,854.55,0.767062,89.77,1
802692,1,42839,1,47075,51877,46803.36,50997.21,271.64,879.79,0.765866,89.80,1
802732,1,42879,1,47091,51908,46803.94,50999.04,287.06,908.96,0.764673,89.84,1
802772,1,42919,1,47103,51945,46804.54,51000.93,298.46,944.07,0.763482,89.87,1
802812,1,42959,1,47116,51970,46805.16,51002.87,310.84,967.13,0.762294,89.90,1
802852,1,42999,1,47136,51999,46805.82,51004.86,330.18,994.14,0.761110,89.93,1
802892,1,43039,1,47153,52041,46806.52,51006.94,346.48,1034.06,0.759929,89.97,1
802932,1,43079,1,47168,52072,46807.24,51009.07,360.76,1062.93,0.758752,90.00,1
802972,1,43119,1,47176,52065,46807.98,51011.18,368.02,1053.82,0.757578,90.03,1
803012,1,43159,1,47146,51959,46808.66,51013.08,337.34,945.92,0.756410,90.06,1
803052,1,43199,1,47087,51866,46809.21,51014.79,277.79,851.21,0.755244,90.09,1
803093,1,43240,1,47053,51812,46809.70,51016.39,243.30,795.61,0.754081,90.12,1
803133,1,43280,1,47032,51775,46810.15,51017.91,221.85,757.09,0.752920,90.16,1
803173,1,43320,1,47009,51744,46810.55,51019.36,198.45,724.64,0.751762,90.19,1
803213,1,43360,1,46995,51747,46810.92,51020.82,184.08,726.18,0.750605,90.22,1
803253,1,43400,1,47013,51773,46811.32,51022.32,201.68,750.68,0.749449,90.25,1
803293,1,43440,1,47012,51777,46811.73,51023.83,200.27,753.17,0.748296,90.28,1
803333,1,43480,1,47016,51776,46812.14,51025.34,203.86,750.66,0.747144,90.31,1
803373,1,43520,1,47025,51792,46812.56,51026.87,212.44,765.13,0.745995,90.34,1
803413,1,43560,1,47039,51819,46813.02,51028.46,225.98,790.54,0.744847,90.38,1
803453,1,43600,1,47053,51850,46813.50,51030.10,239.50,819.90,0.743702,90.41,1
803493,1,43640,1,47065,51881,46814.00,51031.80,251.00,849.20,0.742558,90.44,1
803533,1,43680,1,47088,51911,46814.55,51033.56,273.45,877.44,0.741418,90.47,1
803573,1,43720,1,47094,51940,46815.11,51035.37,278.89,904.62,0.740280,90.50,1
803613,1,43760,1,47104,51967,46815.69,51037.24,288.31,929.76,0.739144,90.53,1
803654,1,43801,1,47113,51996,46816.29,51039.16,296.71,956.84,0.738011,90.56,1
803694,1,43841,1,47129,52030,46816.91,51041.14,312.09,988.86,0.736881,90.59,1
803734,1,43881,1,47148,52068,46817.57,51043.20,330.43,1024.80,0.735754,90.62,1
803774,1,43921,1,47163,52105,46818.27,51045.32,344.73,1059.68,0.734629,90.65,1
803814,1,43961,1,47180,52123,46818.99,51047.48,361.01,1075.52,0.733509,90.68,1
803854,1,44001,1,47157,52040,46819.67,51049.46,337.33,990.54,0.732392,90.71,1
803894,1,44041,1,47115,51944,46820.26,51051.25,294.74,892.75,0.731278,90.74,1
803934,1,44081,1,47078,51894,46820.78,51052.94,257.22,841.06,0.730168,90.77,1
803974,1,44121,1,47058,51862,46821.25,51054.56,236.75,807.44,0.729059,90.80,1
804014,1,44161,1,47041,51822,46821.70,51056.10,219.30,765.90,0.727952,90.83,1
804054,1,44201,1,47026,51823,46822.11,51057.63,203.89,765.37,0.726848,90.86,1
804094,1,44241,1,47036,51846,46822.54,51059.21,213.46,786.79,0.725744,90.89,1
804134,1,44281,1,47041,51848,46822.97,51060.79,218.03,787.21,0.724643,90.92,1
804175,1,44322,1,47036,51842,46823.40,51062.35,212.60,779.65,0.723544,90.95,1
804215,1,44362,1,47038,51857,46823.83,51063.94,214.17,793.06,0.722446,90.98,1
804255,1,44402,1,47045,51888,46824.27,51065.59,220.73,822.41,0.721350,91.01,1
804295,1,44442,1,47064,51918,46824.75,51067.30,239.25,850.70,0.720256,91.04,1
804335,1,44482,1,47078,51948,46825.26,51069.06,252.74,878.94,0.719164,91.07,1
804375,1,44522,1,47087,51986,46825.79,51070.89,261.21,915.11,0.718073,91.10,1
804415,1,44562,1,47109,52018,46826.35,51072.79,282.65,945.21,0.716985,91.13,1
804455,1,44602,1,47132,52046,46826.96,51074.74,305.04,971.26,0.715899,91.16,1
804495,1,44642,1,47141,52074,46827.59,51076.74,313.41,997.26,0.714817,91.19,1
804535,1,44682,1,47151,52108,46828.24,51078.80,322.76,1029.20,0.713736,91.22,1
804575,1,44722,1,47164,52134,46828.91,51080.91,335.09,1053.09,0.712659,91.24,1
