t_ms,phase,red_raw,ir_raw,red_dc,ir_dc,red_ac,ir_ac,OD_red,OD_ir,R,spo2,spo2_valid
466,0,55451,60403,4981.55,5422.44,50469.45,54980.56,0.000000,0.000000,0.999898,85.00,1
477,0,55459,60400,5082.50,5532.39,50376.50,54867.60,0.000000,0.000000,0.999898,85.00,1
487,0,55463,60406,5183.27,5642.14,50279.73,54763.86,0.000000,0.000000,0.999898,85.00,1
496,0,55463,60407,5283.82,5751.67,50179.17,54655.33,0.000000,0.000000,0.999898,85.00,1
506,0,55464,60426,5384.19,5861.02,50079.81,54564.98,0.000000,0.000000,0.999896,85.00,1
517,0,55464,60423,5484.35,5970.14,49979.66,54452.85,0.000000,0.000000,0.999895,85.00,1
527,0,55463,60433,5584.30,6079.07,49878.69,54353.93,0.000000,0.000000,0.999893,85.00,1
536,0,55467,60437,5684.07,6187.79,49782.93,54249.21,0.000000,0.000000,0.999891,85.00,1
546,0,55470,60443,5783.64,6296.30,49686.36,54146.70,0.000000,0.000000,0.999889,85.00,1
558,0,55477,60456,5883.03,6404.62,49593.97,54051.38,0.000000,0.000000,0.999887,85.00,1
568,0,55475,60471,5982.21,6512.75,49492.79,53958.25,0.000000,0.000000,0.999883,85.00,1
576,0,55479,60484,6081.20,6620.69,49397.80,53863.31,0.000000,0.000000,0.999879,85.00,1
587,0,55485,60490,6180.01,6728.43,49304.99,53761.57,0.000000,0.000000,0.999875,85.00,1
598,0,55496,60512,6278.65,6836.00,49217.35,53676.00,0.000000,0.000000,0.999871,85.00,1
607,0,55499,60525,6377.09,6943.38,49121.91,53581.62,0.000000,0.000000,0.999866,85.00,1
617,0,55503,60533,6475.34,7050.55,49027.66,53482.44,0.000000,0.000000,0.999860,85.00,1
627,0,55504,60547,6573.40,7157.55,48930.60,53389.45,0.000000,0.000000,0.999854,85.00,1
636,0,55507,60550,6671.26,7264.33,48835.74,53285.67,0.000000,0.000000,0.999848,85.00,1
647,0,55519,60562,6768.96,7370.93,48750.04,53191.07,0.000000,0.000000,0.999843,85.00,1
657,0,55514,60569,6866.45,7477.33,48647.55,53091.67,0.000000,0.000000,0.999836,85.00,1
667,0,55526,60592,6963.77,7583.55,48562.23,53008.44,0.000000,0.000000,0.999829,85.00,1
676,0,55526,60613,7060.89,7689.61,48465.10,52923.39,0.000000,0.000000,0.999821,85.00,1
687,0,55530,60620,7157.83,7795.47,48372.17,52824.52,0.000000,0.000000,0.999813,85.00,1
697,0,55536,60632,7254.59,7901.15,48281.41,52730.85,0.000000,0.000000,0.999804,85.00,1
706,0,55547,60651,7351.17,8006.65,48195.83,52644.35,0.000000,0.000000,0.999795,85.01,1
716,0,55554,60670,7447.58,8111.97,48106.42,52558.02,0.000000,0.000000,0.999786,85.01,1
727,0,55555,60678,7543.79,8217.11,48011.21,52460.89,0.000000,0.000000,0.999776,85.01,1
738,0,55562,60691,7639.83,8322.06,47922.17,52368.94,0.000000,0.000000,0.999766,85.01,1
746,0,55570,60715,7735.69,8426.84,47834.31,52288.16,0.000000,0.000000,0.999755,85.01,1
757,0,55573,60724,7831.37,8531.44,47741.63,52192.56,0.000000,0.000000,0.999744,85.01,1
768,0,55579,60738,7926.86,8635.85,47652.14,52102.15,0.000000,0.000000,0.999733,85.01,1
777,0,55582,60745,8022.17,8740.07,47559.83,52004.93,0.000000,0.000000,0.999721,85.01,1
787,0,55579,60759,8117.29,8844.11,47461.71,51914.89,0.000000,0.000000,0.999709,85.01,1
797,0,55592,60767,8212.24,8947.95,47379.76,51819.05,0.000000,0.000000,0.999698,85.01,1
806,0,55591,60783,8306.99,9051.62,47284.01,51731.37,0.000000,0.000000,0.999685,85.01,1
817,0,55598,60792,8401.58,9155.11,47196.42,51636.89,0.000000,0.000000,0.999673,85.01,1
827,0,55600,60785,8495.97,9258.37,47104.03,51526.63,0.000000,0.000000,0.999661,85.01,1
836,0,55590,60791,8590.16,9361.43,46999.84,51429.57,0.000000,0.000000,0.999649,85.01,1
846,0,55602,60802,8684.19,9464.31,46917.81,51337.69,0.000000,0.000000,0.999637,85.01,1
857,0,55606,60793,8778.03,9566.97,46827.97,51226.03,0.000000,0.000000,0.999626,85.01,1
867,0,55603,60802,8871.68,9669.44,46731.32,51132.56,0.000000,0.000000,0.999615,85.01,1
876,0,55609,60818,8965.15,9771.74,46643.84,51046.26,0.000000,0.000000,0.999603,85.01,1
886,0,55600,60810,9058.42,9873.81,46541.57,50936.19,0.000000,0.000000,0.999591,85.01,1
897,0,55615,60834,9151.54,9975.73,46463.46,50858.26,0.000000,0.000000,0.999579,85.01,1
906,0,55614,60837,9244.46,10077.46,46369.53,50759.54,0.000000,0.000000,0.999567,85.01,1
916,0,55613,60844,9337.20,10178.99,46275.80,50665.01,0.000000,0.000000,0.999555,85.01,1
927,0,55611,60848,9429.75,10280.33,46181.25,50567.67,0.000000,0.000000,0.999542,85.01,1
936,0,55611,60857,9522.11,10381.48,46088.89,50475.51,0.000000,0.000000,0.999529,85.01,1
947,0,55618,60854,9614.30,10482.43,46003.69,50371.57,0.000000,0.000000,0.999517,85.01,1
957,0,55624,60869,9706.32,10583.20,45917.67,50285.80,0.000000,0.000000,0.999505,85.01,1
966,0,55631,60881,9798.17,10683.80,45832.83,50197.20,0.000000,0.000000,0.999492,85.01,1
976,0,55627,60891,9889.83,10784.21,45737.17,50106.79,0.000000,0.000000,0.999479,85.01,1
987,0,55634,60902,9981.32,10884.45,45652.68,50017.55,0.000000,0.000000,0.999466,85.01,1
997,0,55638,60910,10072.63,10984.50,45565.37,49925.50,0.000000,0.000000,0.999452,85.01,1
1006,0,55643,60928,10163.78,11084.39,45479.23,49843.61,0.000000,0.000000,0.999438,85.01,1
1016,0,55648,60941,10254.74,11184.10,45393.26,49756.90,0.000000,0.000000,0.999423,85.01,1
1026,0,55655,60960,10345.54,11283.65,45309.45,49676.35,0.000000,0.000000,0.999408,85.01,1
1037,0,55662,60955,10436.18,11383.00,45225.82,49572.00,0.000000,0.000000,0.999394,85.02,1
1047,0,55663,60958,10526.63,11482.15,45136.37,49475.85,0.000000,0.000000,0.999381,85.02,1
1056,0,55661,60952,10616.90,11581.09,45044.10,49370.91,0.000000,0.000000,0.999367,85.02,1
1067,0,55651,60917,10706.97,11679.76,44944.03,49237.24,0.000000,0.000000,0.999357,85.02,1
1076,0,55635,60883,10796.83,11778.16,44838.17,49104.83,0.000000,0.000000,0.999348,85.02,1
1086,0,55621,60842,10886.47,11876.29,44734.52,48965.71,0.000000,0.000000,0.999342,85.02,1
1097,0,55605,60816,10975.91,11974.17,44629.08,48841.83,0.000000,0.000000,0.999336,85.02,1
1106,0,55591,60791,11065.14,12071.81,44525.86,48719.19,0.000000,0.000000,0.999332,85.02,1
1117,0,55581,60773,11154.17,12169.21,44426.82,48603.79,0.000000,0.000000,0.999328,85.02,1
1127,0,55572,60747,11243.01,12266.36,44328.99,48480.64,0.000000,0.000000,0.999326,85.02,1
1136,0,55560,60733,11331.65,12363.30,44228.35,48369.70,0.000000,0.000000,0.999324,85.02,1
1146,0,55561,60731,11420.10,12460.03,44140.89,48270.97,0.000000,0.000000,0.999322,85.02,1
1156,0,55562,60730,11508.39,12556.57,44053.61,48173.42,0.000000,0.000000,0.999320,85.02,1
1167,0,55552,60730,11596.48,12652.92,43955.52,48077.08,0.000000,0.000000,0.999318,85.02,1
1177,0,55550,60728,11684.38,12749.07,43865.62,47978.93,0.000000,0.000000,0.999315,85.02,1
1186,0,55556,60734,11772.13,12845.04,43783.87,47888.96,0.000000,0.000000,0.999313,85.02,1
1197,0,55556,60732,11859.70,12940.81,43696.30,47791.19,0.000000,0.000000,0.999311,85.02,1
1206,0,55549,60743,11947.08,13036.42,43601.92,47706.58,0.000000,0.000000,0.999307,85.02,1
1216,0,55553,60744,12034.29,13131.84,43518.71,47612.16,0.000000,0.000000,0.999304,85.02,1
1227,0,55557,60746,12121.33,13227.06,43435.66,47518.94,0.000000,0.000000,0.999300,85.02,1
1236,0,55555,60743,12208.20,13322.10,43346.80,47420.90,0.000000,0.000000,0.999298,85.02,1
1247,0,55556,60748,12294.90,13416.95,43261.10,47331.05,0.000000,0.000000,0.999294,85.02,1
1256,0,55557,60757,12381.42,13511.63,43175.58,47245.37,0.000000,0.000000,0.999290,85.02,1
1266,0,55552,60746,12467.76,13606.10,43084.23,47139.90,0.000000,0.000000,0.999287,85.02,1
1277,0,55551,60744,12553.93,13700.37,42997.07,47043.62,0.000000,0.000000,0.999284,85.02,1
1286,0,55551,60734,12639.92,13794.44,42911.08,46939.56,0.000000,0.000000,0.999282,85.02,1
1297,0,55553,60746,12725.75,13888.35,42827.25,46857.66,0.000000,0.000000,0.999279,85.02,1
1306,0,55556,60753,12811.41,13982.08,42744.58,46770.92,0.000000,0.000000,0.999275,85.02,1
1316,0,55552,60748,12896.89,14075.61,42655.10,46672.39,0.000000,0.000000,0.999272,85.02,1
1327,0,55551,60762,12982.20,14168.98,42568.80,46593.02,0.000000,0.000000,0.999268,85.02,1
1336,0,55553,60761,13067.35,14262.17,42485.66,46498.83,0.000000,0.000000,0.999263,85.02,1
1347,0,55554,60762,13152.32,14355.17,42401.68,46406.83,0.000000,0.000000,0.999259,85.02,1
1355,0,55555,60769,13237.12,14447.99,42317.87,46321.01,0.000000,0.000000,0.999255,85.02,1
1367,0,55553,60762,13321.76,14540.62,42231.24,46221.37,0.000000,0.000000,0.999251,85.02,1
1377,0,55557,60762,13406.23,14633.07,42150.77,46128.93,0.000000,0.000000,0.999247,85.02,1
1386,0,55546,60769,13490.51,14725.34,42055.49,46043.66,0.000000,0.000000,0.999242,85.02,1
1396,0,55547,60764,13574.62,14817.42,41972.38,45946.58,0.000000,0.000000,0.999237,85.02,1
1405,0,55555,60779,13658.58,14909.34,41896.42,45869.66,0.000000,0.000000,0.999232,85.02,1
1417,0,55554,60774,13742.37,15001.07,41811.62,45772.93,0.000000,0.000000,0.999228,85.02,1
1427,0,55548,60779,13825.99,15092.62,41722.01,45686.37,0.000000,0.000000,0.999222,85.02,1
1436,0,55553,60785,13909.44,15184.01,41643.56,45600.99,0.000000,0.000000,0.999216,85.02,1
1446,0,55550,60779,13992.72,15275.20,41557.28,45503.80,0.000000,0.000000,0.999211,85.02,1
1456,0,55557,60782,14075.85,15366.22,41481.15,45415.78,0.000000,0.000000,0.999206,85.02,1
1466,0,55549,60781,14158.80,15457.04,41390.20,45323.95,0.000000,0.000000,0.999201,85.02,1
1477,0,55550,60771,14241.58,15547.67,41308.42,45223.33,0.000000,0.000000,0.999197,85.02,1
1486,0,55542,60770,14324.18,15638.12,41217.82,45131.88,0.000000,0.000000,0.999192,85.02,1
1497,0,55544,60766,14406.62,15728.37,41137.38,45037.62,0.000000,0.000000,0.999188,85.02,1
1507,0,55542,60759,14488.89,15818.44,41053.11,44940.56,0.000000,0.000000,0.999184,85.02,1
1516,0,55531,60759,14570.98,15908.32,40960.02,44850.68,0.000000,0.000000,0.999179,85.02,1
1526,0,55541,60764,14652.92,15998.03,40888.08,44765.97,0.000000,0.000000,0.999175,85.02,1
1536,0,55534,60764,14734.68,16087.56,40799.32,44676.44,0.000000,0.000000,0.999170,85.02,1
1547,0,55540,60770,14816.29,16176.93,40723.71,44593.07,0.000000,0.000000,0.999166,85.02,1
1557,0,55544,60783,14897.75,16266.14,40646.25,44516.86,0.000000,0.000000,0.999160,85.02,1
1566,0,55537,60787,14979.03,16355.18,40557.97,44431.82,0.000000,0.000000,0.999154,85.02,1
1576,0,55546,60802,15060.16,16444.08,40485.84,44357.92,0.000000,0.000000,0.999147,85.02,1
1586,0,55547,60794,15141.13,16532.78,40405.87,44261.23,0.000000,0.000000,0.999141,85.02,1
1596,0,55554,60795,15221.96,16621.30,40332.04,44173.70,0.000000,0.000000,0.999136,85.02,1
1607,0,55553,60787,15302.62,16709.63,40250.37,44077.37,0.000000,0.000000,0.999131,85.02,1
1616,0,55547,60795,15383.11,16797.81,40163.89,43997.19,0.000000,0.000000,0.999126,85.02,1
1627,0,55543,60790,15463.43,16885.79,40079.57,43904.21,0.000000,0.000000,0.999120,85.02,1
1636,0,55537,60787,15543.58,16973.59,39993.42,43813.41,0.000000,0.000000,0.999114,85.02,1
1646,0,55542,60790,15623.58,17061.23,39918.42,43728.77,0.000000,0.000000,0.999109,85.02,1
1656,0,55544,60797,15703.42,17148.70,39840.58,43648.30,0.000000,0.000000,0.999103,85.02,1
1666,0,55542,60796,15783.10,17235.99,39758.91,43560.01,0.000000,0.000000,0.999097,85.02,1
1677,0,55537,60793,15862.60,17323.11,39674.39,43469.89,0.000000,0.000000,0.999091,85.02,1
1686,0,55537,60777,15941.95,17410.02,39595.05,43366.98,0.000000,0.000000,0.999086,85.02,1
1696,0,55527,60745,16021.12,17496.69,39505.87,43248.31,0.000000,0.000000,0.999084,85.02,1
1707,0,55519,60743,16100.12,17583.18,39418.88,43159.82,0.000000,0.000000,0.999081,85.02,1
1716,0,55508,60720,16178.94,17669.45,39329.06,43050.55,0.000000,0.000000,0.999080,85.02,1
1726,0,55497,60698,16257.57,17755.51,39239.43,42942.49,0.000000,0.000000,0.999079,85.02,1
1735,0,55497,60666,16336.05,17841.33,39160.95,42824.66,0.000000,0.000000,0.999082,85.02,1
1746,0,55478,60632,16414.34,17926.92,39063.66,42705.08,0.000000,0.000000,0.999086,85.02,1
1757,0,55472,60598,16492.45,18012.26,38979.55,42585.74,0.000000,0.000000,0.999093,85.02,1
1766,0,55452,60541,16570.37,18097.32,38881.63,42443.68,0.000000,0.000000,0.999104,85.02,1
1776,0,55415,60482,16648.06,18182.09,38766.94,42299.91,0.000000,0.000000,0.999116,85.02,1
1785,0,55394,60410,16725.55,18266.55,38668.44,42143.45,0.000000,0.000000,0.999133,85.02,1
1796,0,55363,60339,16802.83,18350.69,38560.17,41988.31,0.000000,0.000000,0.999154,85.02,1
1807,0,55339,60281,16879.90,18434.55,38459.10,41846.45,0.000000,0.000000,0.999178,85.02,1
1816,0,55309,60228,16956.76,18518.14,38352.24,41709.86,0.000000,0.000000,0.999203,85.02,1
1826,0,55274,60165,17033.40,18601.43,38240.60,41563.57,0.000000,0.000000,0.999231,85.02,1
1836,0,55256,60105,17109.84,18684.44,38146.16,41420.56,0.000000,0.000000,0.999262,85.02,1
1846,0,55226,60029,17186.07,18767.13,38039.93,41261.87,0.000000,0.000000,0.999298,85.02,1
1856,0,55201,59987,17262.10,18849.57,37938.90,41137.43,0.000000,0.000000,0.999335,85.02,1
1865,0,55173,59945,17337.93,18931.76,37835.07,41013.24,0.000000,0.000000,0.999372,85.02,1
1876,0,55153,59899,17413.56,19013.70,37739.44,40885.30,0.000000,0.000000,0.999411,85.01,1
1886,0,55146,59857,17489.02,19095.39,37656.98,40761.62,0.000000,0.000000,0.999454,85.01,1
1896,0,55124,59823,17564.29,19176.84,37559.71,40646.16,0.000000,0.000000,0.999497,85.01,1
1906,0,55106,59802,17639.38,19258.09,37466.62,40543.91,0.000000,0.000000,0.999539,85.01,1
1915,0,55091,59771,17714.28,19339.12,37376.72,40431.88,0.000000,0.000000,0.999583,85.01,1
1926,0,55081,59751,17789.02,19419.94,37291.98,40331.05,0.000000,0.000000,0.999627,85.01,1
1935,0,55069,59728,17863.58,19500.56,37205.42,40227.44,0.000000,0.000000,0.999671,85.01,1
1946,0,55059,59699,17937.97,19580.96,37121.03,40118.04,0.000000,0.000000,0.999717,85.01,1
1956,0,55051,59691,18012.19,19661.18,37038.80,40029.82,0.000000,0.000000,0.999762,85.01,1
1966,0,55041,59680,18086.25,19741.22,36954.75,39938.78,0.000000,0.000000,0.999807,85.00,1
1976,0,55033,59656,18160.15,19821.05,36872.85,39834.95,0.000000,0.000000,0.999853,85.00,1
1986,0,55025,59649,18233.88,19900.70,36791.12,39748.30,0.000000,0.000000,0.999898,85.00,1
1995,0,55022,59641,18307.46,19980.18,36714.55,39660.82,0.000000,0.000000,0.999943,85.00,1
2007,0,55017,59646,18380.87,20059.52,36636.12,39586.48,0.000000,0.000000,0.999987,85.00,1
2016,0,55012,59650,18454.14,20138.70,36557.87,39511.30,0.000000,0.000000,1.000029,85.00,1
2026,0,55005,59648,18527.24,20217.72,36477.76,39430.28,0.000000,0.000000,1.000070,85.00,1
2036,0,55016,59666,18600.21,20296.62,36415.79,39369.38,0.000000,0.000000,1.000110,85.00,1
2045,0,55019,59688,18673.05,20375.40,36345.95,39312.60,0.000000,0.000000,1.000147,85.00,1
2056,0,55023,59698,18745.75,20454.05,36277.25,39243.95,0.000000,0.000000,1.000183,85.00,1
2065,0,55017,59702,18818.30,20532.54,36198.70,39169.46,0.000000,0.000000,1.000218,84.99,1
2076,0,55022,59693,18890.70,20610.87,36131.30,39082.13,0.000000,0.000000,1.000254,84.99,1
2086,0,55024,59703,18962.97,20689.05,36061.03,39013.95,0.000000,0.000000,1.000289,84.99,1
2096,0,55025,59706,19035.10,20767.09,35989.91,38938.91,0.000000,0.000000,1.000323,84.99,1
2106,0,55024,59721,19107.08,20845.00,35916.92,38876.01,0.000000,0.000000,1.000355,84.99,1
2115,0,55024,59738,19178.91,20922.78,35845.09,38815.22,0.000000,0.000000,1.000385,84.99,1
2125,0,55028,59755,19250.61,21000.45,35777.39,38754.55,0.000000,0.000000,1.000413,84.99,1
2137,0,55040,59783,19322.19,21078.01,35717.81,38704.99,0.000000,0.000000,1.000439,84.99,1
2146,0,55059,59830,19393.66,21155.52,35665.33,38674.48,0.000000,0.000000,1.000462,84.99,1
2156,0,55069,59864,19465.01,21232.93,35603.98,38631.07,0.000000,0.000000,1.000482,84.99,1
2166,0,55083,59913,19536.25,21310.30,35546.75,38602.70,0.000000,0.000000,1.000498,84.99,1
2176,0,55099,59956,19607.38,21387.59,35491.62,38568.41,0.000000,0.000000,1.000511,84.99,1
2186,0,55115,59992,19678.39,21464.80,35436.61,38527.20,0.000000,0.000000,1.000521,84.99,1
2195,0,55134,60035,19749.30,21541.94,35384.69,38493.06,0.000000,0.000000,1.000529,84.99,1
2206,0,55148,60080,19820.10,21619.01,35327.90,38460.98,0.000000,0.000000,1.000533,84.99,1
2216,0,55167,60136,19890.80,21696.05,35276.20,38439.95,0.000000,0.000000,1.000533,84.99,1
2226,0,55185,60180,19961.38,21773.02,35223.62,38406.98,0.000000,0.000000,1.000531,84.99,1
2236,0,55209,60254,20031.88,21849.98,35177.12,38404.02,0.000000,0.000000,1.000522,84.99,1
2245,0,55245,60313,20102.31,21926.91,35142.69,38386.09,0.000000,0.000000,1.000512,84.99,1
2255,0,55260,60368,20172.62,22003.79,35087.37,38364.21,0.000000,0.000000,1.000497,84.99,1
2267,0,55283,60427,20242.84,22080.64,35040.16,38346.37,0.000000,0.000000,1.000478,84.99,1
2276,0,55308,60481,20312.98,22157.44,34995.02,38323.56,0.000000,0.000000,1.000455,84.99,1
2286,0,55334,60525,20383.02,22234.17,34950.98,38290.83,0.000000,0.000000,1.000432,84.99,1
2295,0,55351,60588,20452.95,22310.88,34898.05,38277.12,0.000000,0.000000,1.000403,84.99,1
2306,0,55369,60638,20522.79,22387.54,34846.21,38250.46,0.000000,0.000000,1.000370,84.99,1
2316,0,55393,60689,20592.53,22464.14,34800.48,38224.86,0.000000,0.000000,1.000335,84.99,1
2325,0,55410,60724,20662.16,22540.66,34747.83,38183.34,0.000000,0.000000,1.000298,84.99,1
2336,0,55434,60759,20731.71,22617.10,34702.30,38141.91,0.000000,0.000000,1.000261,84.99,1
2344,0,55444,60785,20801.13,22693.43,34642.87,38091.57,0.000000,0.000000,1.000222,84.99,1
2356,0,55454,60808,20870.44,22769.66,34583.56,38038.34,0.000000,0.000000,1.000182,85.00,1
2366,0,55464,60843,20939.63,22845.81,34524.37,37997.19,0.000000,0.000000,1.000139,85.00,1
2375,0,55472,60883,21008.69,22921.88,34463.31,37961.12,0.000000,0.000000,1.000093,85.00,1
2385,0,55487,60911,21077.65,22997.86,34409.35,37913.14,0.000000,0.000000,1.000046,85.00,1
2395,0,55501,60948,21146.50,23073.76,34354.51,37874.24,0.000000,0.000000,0.999996,85.00,1
2405,0,55518,60988,21215.24,23149.59,34302.76,37838.41,0.000000,0.000000,0.999945,85.00,1
2416,0,55531,61021,21283.87,23225.33,34247.13,37795.66,0.000000,0.000000,0.999891,85.00,1
2425,0,55544,61054,21352.39,23300.99,34191.61,37753.01,0.000000,0.000000,0.999836,85.00,1
2436,0,55554,61085,21420.79,23376.56,34133.21,37708.44,0.000000,0.000000,0.999778,85.01,1
2446,0,55584,61127,21489.12,23452.06,34094.88,37674.94,0.000000,0.000000,0.999720,85.01,1
2455,0,55589,61164,21557.32,23527.49,34031.68,37636.51,0.000000,0.000000,0.999659,85.01,1
2466,0,55600,61188,21625.41,23602.81,33974.59,37585.19,0.000000,0.000000,0.999597,85.01,1
2475,0,55613,61200,21693.38,23678.00,33919.62,37522.00,0.000000,0.000000,0.999535,85.01,1
2486,0,55619,61214,21761.23,23753.08,33857.76,37460.92,0.000000,0.000000,0.999474,85.01,1
2496,0,55618,61213,21828.95,23828.00,33789.05,37385.00,0.000000,0.000000,0.999413,85.01,1
2505,0,55622,61200,21896.53,23902.74,33725.47,37297.26,0.000000,0.000000,0.999354,85.02,1
2515,0,55609,61170,21963.96,23977.28,33645.04,37192.73,0.000000,0.000000,0.999299,85.02,1
2525,0,55592,61133,22031.22,24051.59,33560.78,37081.41,0.000000,0.000000,0.999247,85.02,1
2535,0,55572,61075,22098.30,24125.64,33473.70,36949.37,0.000000,0.000000,0.999200,85.02,1
2546,0,55555,61033,22165.21,24199.45,33389.79,36833.55,0.000000,0.000000,0.999156,85.02,1
2555,0,55539,60985,22231.96,24273.02,33307.04,36711.98,0.000000,0.000000,0.999118,85.02,1
2566,0,55507,60918,22298.51,24346.32,33208.49,36571.69,0.000000,0.000000,0.999083,85.02,1
2575,0,55488,60865,22364.89,24419.35,33123.11,36445.65,0.000000,0.000000,0.999054,85.02,1
2585,0,55469,60813,22431.10,24492.14,33037.90,36320.86,0.000000,0.000000,0.999029,85.02,1
2595,0,55446,60775,22497.13,24564.71,32948.87,36210.29,0.000000,0.000000,0.999006,85.02,1
2605,0,55427,60752,22562.99,24637.08,32864.01,36114.91,0.000000,0.000000,0.998983,85.03,1
2616,0,55417,60723,22628.70,24709.26,32788.30,36013.74,0.000000,0.000000,0.998963,85.03,1
2625,0,55408,60709,22694.26,24781.26,32713.74,35927.74,0.000000,0.000000,0.998944,85.03,1
2635,0,55400,60690,22759.67,24853.08,32640.33,35836.92,0.000000,0.000000,0.998926,85.03,1
2646,0,55395,60694,22824.94,24924.76,32570.06,35769.24,0.000000,0.000000,0.998908,85.03,1
2655,0,55388,60696,22890.07,24996.30,32497.93,35699.70,0.000000,0.000000,0.998888,85.03,1
2665,0,55390,60685,22955.07,25067.68,32434.93,35617.32,0.000000,0.000000,0.998870,85.03,1
2676,0,55387,60675,23019.93,25138.89,32367.07,35536.11,0.000000,0.000000,0.998853,85.03,1
2685,0,55383,60659,23084.66,25209.93,32298.34,35449.07,0.000000,0.000000,0.998838,85.03,1
2696,0,55384,60660,23149.26,25280.83,32234.74,35379.16,0.000000,0.000000,0.998824,85.03,1
2705,0,55378,60643,23213.72,25351.56,32164.29,35291.44,0.000000,0.000000,0.998810,85.03,1
2715,0,55363,60632,23278.01,25422.12,32084.99,35209.88,0.000000,0.000000,0.998796,85.03,1
2725,0,55358,60599,23342.18,25492.47,32015.83,35106.53,0.000000,0.000000,0.998786,85.03,1
2735,0,55349,60577,23406.19,25562.64,31942.81,35014.36,0.000000,0.000000,0.998778,85.03,1
2746,0,55340,60554,23470.06,25632.63,31869.94,34921.37,0.000000,0.000000,0.998771,85.03,1
2755,0,55329,60539,23533.78,25702.44,31795.23,34836.56,0.000000,0.000000,0.998766,85.03,1
2765,0,55322,60510,23597.35,25772.06,31724.65,34737.94,0.000000,0.000000,0.998762,85.03,1
2776,0,55317,60489,23660.80,25841.49,31656.21,34647.51,0.000000,0.000000,0.998762,85.03,1
2785,0,55301,60474,23724.08,25910.76,31576.92,34563.24,0.000000,0.000000,0.998760,85.03,1
2795,0,55299,60443,23787.23,25979.82,31511.77,34463.18,0.000000,0.000000,0.998763,85.03,1
2804,0,55279,60424,23850.21,26048.71,31428.79,34375.29,0.000000,0.000000,0.998765,85.03,1
2816,0,55268,60385,23913.05,26117.38,31354.95,34267.62,0.000000,0.000000,0.998771,85.03,1
2826,0,55253,60362,23975.73,26185.87,31277.27,34176.12,0.000000,0.000000,0.998778,85.03,1
2835,0,55241,60333,24038.26,26254.17,31202.74,34078.83,0.000000,0.000000,0.998787,85.03,1
2845,0,55232,60309,24100.65,26322.28,31131.35,33986.72,0.000000,0.000000,0.998798,85.03,1
2854,0,55221,60284,24162.89,26390.20,31058.11,33893.80,0.000000,0.000000,0.998810,85.03,1
2865,0,55204,60260,24224.97,26457.94,30979.03,33802.06,0.000000,0.000000,0.998823,85.03,1
2876,0,55195,60232,24286.91,26525.49,30908.09,33706.51,0.000000,0.000000,0.998839,85.03,1
2885,0,55182,60216,24348.70,26592.87,30833.30,33623.13,0.000000,0.000000,0.998854,85.03,1
2895,0,55176,60204,24410.36,26660.09,30765.64,33543.91,0.000000,0.000000,0.998870,85.03,1
2906,0,55166,60189,24471.87,26727.15,30694.13,33461.85,0.000000,0.000000,0.998887,85.03,1
2915,0,55164,60182,24533.25,26794.06,30630.75,33387.94,0.000000,0.000000,0.998904,85.03,1
2925,0,55159,60181,24594.51,26860.84,30564.50,33320.16,0.000000,0.000000,0.998920,85.03,1
2934,0,55159,60178,24655.64,26927.47,30503.36,33250.53,0.000000,0.000000,0.998937,85.03,1
2946,0,55161,60177,24716.65,26993.97,30444.35,33183.03,0.000000,0.000000,0.998954,85.03,1
2956,0,55149,60188,24777.51,27060.36,30371.49,33127.64,0.000000,0.000000,0.998967,85.03,1
2965,0,55150,60184,24838.26,27126.61,30311.74,33057.39,0.000000,0.000000,0.998981,85.03,1
2975,0,55153,60191,24898.89,27192.74,30254.11,32998.26,0.000000,0.000000,0.998994,85.03,1
2984,0,55162,60204,24959.42,27258.76,30202.58,32945.23,0.000000,0.000000,0.999007,85.02,1
2995,0,55157,60208,25019.82,27324.66,30137.19,32883.33,0.000000,0.000000,0.999018,85.02,1
3006,0,55153,60202,25080.08,27390.42,30072.92,32811.58,0.000000,0.000000,0.999030,85.02,1
3015,0,55157,60200,25140.24,27456.04,30016.76,32743.96,0.000000,0.000000,0.999042,85.02,1
3025,0,55145,60202,25200.25,27521.53,29944.75,32680.47,0.000000,0.000000,0.999052,85.02,1
3035,0,55153,60200,25260.15,27586.89,29892.85,32613.11,0.000000,0.000000,0.999064,85.02,1
3045,0,55153,60205,25319.94,27652.13,29833.06,32552.88,0.000000,0.000000,0.999074,85.02,1
3055,0,55150,60213,25379.60,27717.25,29770.40,32495.75,0.000000,0.000000,0.999083,85.02,1
3064,0,55157,60223,25439.16,27782.26,29717.84,32440.74,0.000000,0.000000,0.999092,85.02,1
3076,0,55166,60224,25498.61,27847.14,29667.39,32376.86,0.000000,0.000000,0.999101,85.02,1
3085,0,55158,60232,25557.93,27911.91,29600.07,32320.09,0.000000,0.000000,0.999108,85.02,1
3095,0,55162,60218,25617.14,27976.53,29544.86,32241.47,0.000000,0.000000,0.999118,85.02,1
3105,0,55156,60221,25676.22,28041.02,29479.78,32179.99,0.000000,0.000000,0.999127,85.02,1
3115,0,55142,60219,25735.15,28105.37,29406.85,32113.63,0.000000,0.000000,0.999133,85.02,1
3125,0,55146,60201,25793.98,28169.56,29352.02,32031.44,0.000000,0.000000,0.999142,85.02,1
3134,0,55139,60200,25852.67,28233.63,29286.33,31966.38,0.000000,0.000000,0.999151,85.02,1
3145,0,55137,60190,25911.24,28297.54,29225.77,31892.46,0.000000,0.000000,0.999161,85.02,1
3155,0,55138,60198,25969.69,28361.34,29168.31,31836.66,0.000000,0.000000,0.999169,85.02,1
3165,0,55140,60222,26028.03,28425.06,29111.97,31796.94,0.000000,0.000000,0.999174,85.02,1
3175,0,55144,60225,26086.26,28488.66,29057.74,31736.34,0.000000,0.000000,0.999180,85.02,1
3184,0,55152,60244,26144.39,28552.17,29007.61,31691.83,0.000000,0.000000,0.999184,85.02,1
3194,0,55156,60261,26202.42,28615.59,28953.58,31645.41,0.000000,0.000000,0.999186,85.02,1
3206,0,55157,60288,26260.33,28678.94,28896.67,31609.06,0.000000,0.000000,0.999183,85.02,1
3215,0,55164,60307,26318.14,28742.19,28845.87,31564.81,0.000000,0.000000,0.999180,85.02,1
3225,0,55167,60300,26375.83,28805.31,28791.17,31494.69,0.000000,0.000000,0.999178,85.02,1
3235,0,55166,60297,26433.41,28868.29,28732.59,31428.71,0.000000,0.000000,0.999176,85.02,1
3245,0,55163,60270,26490.88,28931.10,28672.13,31338.91,0.000000,0.000000,0.999177,85.02,1
3255,0,55144,60250,26548.18,28993.74,28595.82,31256.27,0.000000,0.000000,0.999179,85.02,1
3264,0,55139,60226,26605.36,29056.20,28533.64,31169.80,0.000000,0.000000,0.999184,85.02,1
3275,0,55123,60185,26662.40,29118.46,28460.60,31066.54,0.000000,0.000000,0.999192,85.02,1
3286,0,55106,60176,26719.29,29180.57,28386.71,30995.43,0.000000,0.000000,0.999198,85.02,1
3295,0,55103,60161,26776.06,29242.53,28326.95,30918.47,0.000000,0.000000,0.999206,85.02,1
3305,0,55103,60160,26832.71,29304.37,28270.29,30855.63,0.000000,0.000000,0.999215,85.02,1
3314,0,55099,60161,26889.24,29366.08,28209.76,30794.92,0.000000,0.000000,0.999222,85.02,1
3324,0,55094,60143,26945.65,29427.64,28148.35,30715.36,0.000000,0.000000,0.999231,85.02,1
3336,0,55096,60135,27001.95,29489.05,28094.05,30645.95,0.000000,0.000000,0.999242,85.02,1
3345,0,55096,60141,27058.14,29550.36,28037.86,30590.64,0.000000,0.000000,0.999252,85.02,1
3355,0,55096,60139,27114.22,29611.54,27981.78,30527.47,0.000000,0.000000,0.999262,85.02,1
3364,0,55088,60132,27170.16,29672.58,27917.84,30459.42,0.000000,0.000000,0.999272,85.02,1
3375,0,55084,60121,27225.99,29733.48,27858.01,30387.53,0.000000,0.000000,0.999282,85.02,1
3385,0,55089,60128,27281.72,29794.26,27807.28,30333.74,0.000000,0.000000,0.999293,85.02,1
3394,0,55086,60132,27337.33,29854.94,27748.67,30277.06,0.000000,0.000000,0.999302,85.02,1
3405,0,55088,60134,27392.83,29915.50,27695.17,30218.50,0.000000,0.000000,0.999311,85.02,1
3415,0,55091,60137,27448.23,29975.94,27642.77,30161.06,0.000000,0.000000,0.999320,85.02,1
3425,0,55087,60121,27503.50,30036.23,27583.50,30084.77,0.000000,0.000000,0.999331,85.02,1
3435,0,55094,60132,27558.69,30096.42,27535.32,30035.58,0.000000,0.000000,0.999341,85.02,1
3444,0,55090,60136,27613.75,30156.50,27476.25,29979.50,0.000000,0.000000,0.999349,85.02,1
3454,0,55092,60116,27668.71,30216.42,27423.30,29899.58,0.000000,0.000000,0.999362,85.02,1
3466,0,55087,60120,27723.54,30276.23,27363.46,29843.77,0.000000,0.000000,0.999372,85.02,1
3475,0,55084,60114,27778.26,30335.91,27305.74,29778.09,0.000000,0.000000,0.999383,85.02,1
3485,0,55088,60112,27832.88,30395.46,27255.12,29716.54,0.000000,0.000000,0.999395,85.02,1
3494,0,55088,60112,27887.39,30454.90,27200.61,29657.10,0.000000,0.000000,0.999407,85.01,1
3505,0,55077,60103,27941.77,30514.19,27135.23,29588.81,0.000000,0.000000,0.999418,85.01,1
3515,0,55074,60093,27996.04,30573.35,27077.96,29519.65,0.000000,0.000000,0.999431,85.01,1
3524,0,55075,60100,28050.20,30632.41,27024.80,29467.60,0.000000,0.000000,0.999442,85.01,1
3534,0,55080,60094,28104.26,30691.33,26975.74,29402.67,0.000000,0.000000,0.999455,85.01,1
3544,0,55078,60097,28158.21,30750.14,26919.79,29346.86,0.000000,0.000000,0.999467,85.01,1
3555,0,55075,60081,28212.04,30808.80,26862.96,29272.20,0.000000,0.000000,0.999481,85.01,1
3565,0,55069,60082,28265.76,30867.35,26803.25,29214.65,0.000000,0.000000,0.999493,85.01,1
3574,0,55060,60066,28319.34,30925.75,26740.66,29140.25,0.000000,0.000000,0.999507,85.01,1
3585,0,55069,60053,28372.84,30984.00,26696.16,29069.00,0.000000,0.000000,0.999524,85.01,1
3594,0,55061,60060,28426.22,31042.15,26634.78,29017.85,0.000000,0.000000,0.999538,85.01,1
3604,0,55062,60038,28479.49,31100.15,26582.51,28937.86,0.000000,0.000000,0.999556,85.01,1
3615,0,55052,60043,28532.64,31158.03,26519.36,28884.97,0.000000,0.000000,0.999572,85.01,1
3624,0,55056,60053,28585.68,31215.82,26470.32,28837.18,0.000000,0.000000,0.999586,85.01,1
3635,0,55059,60057,28638.63,31273.50,26420.37,28783.50,0.000000,0.000000,0.999600,85.01,1
3644,0,55062,60057,28691.48,31331.07,26370.52,28725.93,0.000000,0.000000,0.999615,85.01,1
3654,0,55064,60063,28744.22,31388.54,26319.78,28674.47,0.000000,0.000000,0.999629,85.01,1
3664,0,55062,60073,28796.86,31445.91,26265.14,28627.09,0.000000,0.000000,0.999640,85.01,1
3674,0,55070,60082,28849.41,31503.18,26220.60,28578.82,0.000000,0.000000,0.999652,85.01,1
3685,0,55073,60074,28901.85,31560.32,26171.15,28513.68,0.000000,0.000000,0.999665,85.01,1
3695,0,55069,60083,28954.19,31617.37,26114.81,28465.63,0.000000,0.000000,0.999676,85.01,1
3704,0,55078,60092,29006.44,31674.32,26071.56,28417.68,0.000000,0.000000,0.999687,85.01,1
3715,0,55072,60102,29058.57,31731.17,26013.43,28370.83,0.000000,0.000000,0.999695,85.01,1
3724,0,55085,60112,29110.62,31787.94,25974.38,28324.06,0.000000,0.000000,0.999704,85.01,1
3734,0,55091,60122,29162.58,31844.61,25928.42,28277.39,0.000000,0.000000,0.999712,85.01,1
3745,0,55092,60130,29214.44,31901.18,25877.56,28228.82,0.000000,0.000000,0.999719,85.01,1
3755,0,55100,60144,29266.22,31957.67,25833.79,28186.33,0.000000,0.000000,0.999725,85.01,1
3765,0,55095,60149,29317.87,32014.05,25777.13,28134.95,0.000000,0.000000,0.999729,85.01,1
3774,0,55110,60154,29369.46,32070.33,25740.54,28083.67,0.000000,0.000000,0.999735,85.01,1
3784,0,55105,60164,29420.93,32126.52,25684.07,28037.48,0.000000,0.000000,0.999738,85.01,1
3794,0,55115,60179,29472.32,32182.63,25642.68,27996.38,0.000000,0.000000,0.999740,85.01,1
3804,0,55115,60191,29523.61,32238.64,25591.39,27952.36,0.000000,0.000000,0.999741,85.01,1
3815,0,55114,60199,29574.79,32294.57,25539.21,27904.44,0.000000,0.000000,0.999739,85.01,1
3824,0,55131,60216,29625.90,32350.41,25505.10,27865.59,0.000000,0.000000,0.999739,85.01,1
3834,0,55128,60232,29676.91,32406.17,25451.09,27825.83,0.000000,0.000000,0.999734,85.01,1
3845,0,55141,60251,29727.83,32461.87,25413.17,27789.14,0.000000,0.000000,0.999729,85.01,1
3854,0,55146,60265,29778.67,32517.47,25367.33,27747.53,0.000000,0.000000,0.999723,85.01,1
3864,0,55152,60278,29829.42,32573.00,25322.58,27705.01,0.000000,0.000000,0.999715,85.01,1
3875,0,55159,60291,29880.08,32628.43,25278.92,27662.57,0.000000,0.000000,0.999706,85.01,1
3885,0,55174,60312,29930.67,32683.80,25243.33,27628.20,0.000000,0.000000,0.999697,85.01,1
3895,0,55177,60309,29981.16,32739.05,25195.84,27569.95,0.000000,0.000000,0.999689,85.01,1
3904,0,55173,60323,30031.55,32794.22,25141.46,27528.78,0.000000,0.000000,0.999678,85.01,1
3914,0,55172,60305,30081.83,32849.24,25090.17,27455.76,0.000000,0.000000,0.999669,85.01,1
3924,0,55167,60281,30132.00,32904.10,25035.00,27376.90,0.000000,0.000000,0.999665,85.01,1
3934,0,55156,60238,30182.05,32958.77,24973.95,27279.23,0.000000,0.000000,0.999665,85.01,1
3945,0,55141,60196,30231.97,33013.25,24909.04,27182.75,0.000000,0.000000,0.999671,85.01,1
3954,0,55112,60140,30281.73,33067.50,24830.27,27072.50,0.000000,0.000000,0.999681,85.01,1
3964,0,55092,60082,30331.35,33121.53,24760.65,26960.47,0.000000,0.000000,0.999697,85.01,1
3975,0,55068,60023,30380.82,33175.33,24687.18,26847.66,0.000000,0.000000,0.999719,85.01,1
3984,0,55058,59986,30430.18,33228.96,24627.83,26757.04,0.000000,0.000000,0.999746,85.01,1
3994,0,55038,59949,30479.39,33282.40,24558.61,26666.60,0.000000,0.000000,0.999775,85.01,1
4003,0,55024,59919,30528.49,33335.67,24495.52,26583.33,0.000000,0.000000,0.999806,85.00,1
4015,0,55014,59896,30577.46,33388.80,24436.55,26507.20,0.000000,0.000000,0.999840,85.00,1
4025,0,55001,59884,30626.30,33441.79,24374.70,26442.21,0.000000,0.000000,0.999873,85.00,1
4034,0,55010,59879,30675.07,33494.66,24334.93,26384.34,0.000000,0.000000,0.999908,85.00,1
4044,0,55007,59870,30723.74,33547.41,24283.27,26322.59,0.000000,0.000000,0.999944,85.00,1
4054,0,54998,59868,30772.28,33600.05,24225.72,26267.95,0.000000,0.000000,0.999978,85.00,1
4064,0,54999,59847,30820.74,33652.55,24178.26,26194.45,0.000000,0.000000,1.000017,85.00,1
4075,0,54990,59845,30869.08,33704.94,24120.92,26140.06,0.000000,0.000000,1.000053,85.00,1
4084,0,54991,59845,30917.32,33757.22,24073.68,26087.78,0.000000,0.000000,1.000090,85.00,1
4094,0,54984,59824,30965.46,33809.35,24018.54,26014.65,0.000000,0.000000,1.000128,85.00,1
4104,0,54978,59821,31013.48,33861.38,23964.52,25959.62,0.000000,0.000000,1.000166,85.00,1
4114,0,54978,59806,31061.41,33913.27,23916.59,25892.73,0.000000,0.000000,1.000206,84.99,1
4124,0,54981,59817,31109.25,33965.08,23871.75,25851.92,0.000000,0.000000,1.000244,84.99,1
4133,0,54982,59827,31157.00,34016.80,23825.00,25810.20,0.000000,0.000000,1.000281,84.99,1
4145,0,54986,59833,31204.66,34068.43,23781.34,25764.57,0.000000,0.000000,1.000317,84.99,1
4155,0,54989,59850,31252.23,34120.00,23736.77,25730.00,0.000000,0.000000,1.000350,84.99,1
4164,0,54996,59860,31299.72,34171.48,23696.28,25688.52,0.000000,0.000000,1.000382,84.99,1
4174,0,55006,59866,31347.13,34222.86,23658.87,25643.14,0.000000,0.000000,1.000415,84.99,1
4184,0,55010,59882,31394.46,34274.18,23615.54,25607.82,0.000000,0.000000,1.000446,84.99,1
4194,0,55013,59892,31441.70,34325.42,23571.31,25566.58,0.000000,0.000000,1.000475,84.99,1
4205,0,55017,59912,31488.85,34376.60,23528.16,25535.40,0.000000,0.000000,1.000501,84.99,1
4213,0,55027,59936,31535.92,34427.71,23491.08,25508.29,0.000000,0.000000,1.000524,84.99,1
4225,0,55043,59945,31582.94,34478.75,23460.06,25466.25,0.000000,0.000000,1.000549,84.99,1
4234,0,55041,59964,31629.86,34529.72,23411.15,25434.28,0.000000,0.000000,1.000569,84.99,1
4244,0,55055,59970,31676.71,34580.60,23378.30,25389.40,0.000000,0.000000,1.000591,84.99,1
4254,0,55054,59979,31723.46,34631.40,23330.54,25347.60,0.000000,0.000000,1.000612,84.98,1
4263,0,55063,59990,31770.14,34682.12,23292.86,25307.88,0.000000,0.000000,1.000631,84.98,1
4275,0,55066,60000,31816.74,34732.76,23249.27,25267.24,0.000000,0.000000,1.000649,84.98,1
4283,0,55071,60018,31863.25,34783.33,23207.76,25234.67,0.000000,0.000000,1.000665,84.98,1
4294,0,55080,60041,31909.68,34833.84,23170.32,25207.16,0.000000,0.000000,1.000677,84.98,1
4304,0,55088,60060,31956.04,34884.30,23131.97,25175.70,0.000000,0.000000,1.000688,84.98,1
4314,0,55089,60075,32002.30,34934.67,23086.70,25140.33,0.000000,0.000000,1.000696,84.98,1
4324,0,55105,60078,32048.51,34984.96,23056.49,25093.04,0.000000,0.000000,1.000707,84.98,1
4334,0,55104,60088,32094.62,35035.17,23009.38,25052.83,0.000000,0.000000,1.000715,84.98,1
4343,0,55110,60095,32140.66,35085.29,22969.35,25009.71,0.000000,0.000000,1.000723,84.98,1
4355,0,55110,60103,32186.59,35135.33,22923.41,24967.67,0.000000,0.000000,1.000730,84.98,1
4364,0,55115,60107,32232.45,35185.28,22882.55,24921.72,0.000000,0.000000,1.000737,84.98,1
4374,0,55113,60106,32278.21,35235.12,22834.79,24870.88,0.000000,0.000000,1.000743,84.98,1
4384,0,55122,60123,32323.90,35284.89,22798.10,24838.11,0.000000,0.000000,1.000748,84.98,1
4393,0,55125,60139,32369.51,35334.60,22755.50,24804.40,0.000000,0.000000,1.000751,84.98,1
4404,0,55130,60155,32415.03,35384.24,22714.97,24770.76,0.000000,0.000000,1.000751,84.98,1
4413,0,55138,60158,32460.47,35433.79,22677.53,24724.21,0.000000,0.000000,1.000752,84.98,1
4424,0,55144,60173,32505.84,35483.27,22638.16,24689.73,0.000000,0.000000,1.000752,84.98,1
4434,0,55153,60195,32551.14,35532.70,22601.87,24662.30,0.000000,0.000000,1.000749,84.98,1
4444,0,55158,60215,32596.35,35582.06,22561.65,24632.94,0.000000,0.000000,1.000743,84.98,1
4454,0,55167,60224,32641.49,35631.35,22525.51,24592.65,0.000000,0.000000,1.000738,84.98,1
4463,0,55169,60230,32686.55,35680.55,22482.45,24549.45,0.000000,0.000000,1.000731,84.98,1
4473,0,55176,60236,32731.53,35729.66,22444.47,24506.34,0.000000,0.000000,1.000725,84.98,1
4485,0,55180,60250,32776.42,35778.70,22403.58,24471.30,0.000000,0.000000,1.000718,84.98,1
4494,0,55191,60272,32821.25,35827.69,22369.75,24444.31,0.000000,0.000000,1.000708,84.98,1
4504,0,55185,60269,32865.98,35876.57,22319.02,24392.43,0.000000,0.000000,1.000697,84.98,1
4513,0,55197,60297,32910.64,35925.41,22286.36,24371.59,0.000000,0.000000,1.000683,84.98,1
4524,0,55199,60298,32955.22,35974.16,22243.78,24323.84,0.000000,0.000000,1.000670,84.98,1
4534,0,55212,60320,32999.74,36022.85,22212.26,24297.15,0.000000,0.000000,1.000655,84.98,1
4543,0,55218,60341,33044.17,36071.49,22173.83,24269.51,0.000000,0.000000,1.000637,84.98,1
4554,0,55218,60343,33088.53,36120.04,22129.47,24222.96,0.000000,0.000000,1.000619,84.98,1
4564,0,55219,60348,33132.79,36168.50,22086.21,24179.50,0.000000,0.000000,1.000600,84.98,1
4574,0,55227,60344,33176.98,36216.85,22050.02,24127.15,0.000000,0.000000,1.000584,84.99,1
4584,0,55228,60345,33221.08,36265.10,22006.92,24079.90,0.000000,0.000000,1.000568,84.99,1
4593,0,55223,60339,33265.08,36313.26,21957.91,24025.74,0.000000,0.000000,1.000552,84.99,1
4603,0,55213,60300,33308.98,36361.23,21904.02,23938.77,0.000000,0.000000,1.000543,84.99,1
4615,0,55199,60245,33352.76,36409.00,21846.24,23836.00,0.000000,0.000000,1.000542,84.99,1
4624,0,55171,60187,33396.40,36456.56,21774.60,23730.44,0.000000,0.000000,1.000547,84.99,1
4634,0,55154,60122,33439.92,36503.89,21714.08,23618.11,0.000000,0.000000,1.000562,84.99,1
4643,0,55126,60075,33483.29,36551.03,21642.71,23523.97,0.000000,0.000000,1.000580,84.99,1
4654,0,55106,60013,33526.54,36597.95,21579.46,23415.05,0.000000,0.000000,1.000607,84.98,1
4664,0,55084,59989,33569.66,36644.73,21514.34,23344.27,0.000000,0.000000,1.000633,84.98,1
4673,0,55077,59967,33612.67,36691.38,21464.33,23275.62,0.000000,0.000000,1.000663,84.98,1
4684,0,55068,59951,33655.58,36737.90,21412.41,23213.10,0.000000,0.000000,1.000693,84.98,1
4694,0,55064,59943,33698.41,36784.31,21365.59,23158.69,0.000000,0.000000,1.000724,84.98,1
4704,0,55055,59926,33741.12,36830.59,21313.88,23095.41,0.000000,0.000000,1.000757,84.98,1
4714,0,55055,59929,33783.75,36876.79,21271.25,23052.21,0.000000,0.000000,1.000788,84.98,1
4723,0,55058,59930,33826.30,36922.90,21231.70,23007.10,0.000000,0.000000,1.000820,84.98,1
4733,0,55059,59928,33868.76,36968.91,21190.24,22959.09,0.000000,0.000000,1.000852,84.98,1
4743,0,55063,59934,33911.15,37014.84,21151.85,22919.16,0.000000,0.000000,1.000884,84.98,1
4754,0,55066,59935,33953.46,37060.68,21112.54,22874.32,0.000000,0.000000,1.000916,84.98,1
4764,0,55066,59938,33995.69,37106.44,21070.31,22831.56,0.000000,0.000000,1.000947,84.98,1
4773,0,55062,59937,34037.82,37152.10,21024.18,22784.90,0.000000,0.000000,1.000977,84.98,1
4784,0,55068,59938,34079.89,37197.67,20988.11,22740.33,0.000000,0.000000,1.001008,84.97,1
4794,0,55067,59947,34121.86,37243.17,20945.14,22703.83,0.000000,0.000000,1.001037,84.97,1
4803,0,55071,59945,34163.76,37288.58,20907.24,22656.42,0.000000,0.000000,1.001067,84.97,1
4814,0,55071,59951,34205.57,37333.90,20865.43,22617.10,0.000000,0.000000,1.001095,84.97,1
4824,0,55078,59965,34247.32,37379.16,20830.68,22585.84,0.000000,0.000000,1.001122,84.97,1
4834,0,55085,59958,34289.00,37424.32,20796.00,22533.68,0.000000,0.000000,1.001152,84.97,1
4844,0,55082,59964,34330.58,37469.40,20751.42,22494.60,0.000000,0.000000,1.001179,84.97,1
4853,0,55075,59967,34372.07,37514.40,20702.93,22452.60,0.000000,0.000000,1.001204,84.97,1
4864,0,55075,59969,34413.48,37559.31,20661.52,22409.69,0.000000,0.000000,1.001229,84.97,1
4873,0,55087,59966,34454.83,37604.12,20632.17,22361.88,0.000000,0.000000,1.001256,84.97,1
4884,0,55083,59962,34496.08,37648.84,20586.92,22313.16,0.000000,0.000000,1.001284,84.97,1
4894,0,55083,59975,34537.25,37693.50,20545.75,22281.50,0.000000,0.000000,1.001308,84.97,1
4903,0,55084,59989,34578.35,37738.08,20505.65,22250.91,0.000000,0.000000,1.001330,84.97,1
4914,0,55086,59985,34619.36,37782.58,20466.64,22202.42,0.000000,0.000000,1.001352,84.97,1
4923,0,55094,59980,34660.31,37826.98,20433.69,22153.02,0.000000,0.000000,1.001378,84.97,1
4933,0,55087,59979,34701.17,37871.28,20385.83,22107.72,0.000000,0.000000,1.001401,84.96,1
4944,0,55086,59982,34741.94,37915.50,20344.06,22066.50,0.000000,0.000000,1.001424,84.96,1
4954,0,55096,59982,34782.64,37959.64,20313.36,22022.36,0.000000,0.000000,1.001449,84.96,1
4964,0,55089,59975,34823.26,38003.67,20265.74,21971.33,0.000000,0.000000,1.001474,84.96,1
4973,0,55085,59972,34863.79,38047.61,20221.21,21924.39,0.000000,0.000000,1.001498,84.96,1
4983,0,55090,59969,34904.24,38091.45,20185.76,21877.55,0.000000,0.000000,1.001524,84.96,1
4994,0,55088,59975,34944.61,38135.22,20143.39,21839.78,0.000000,0.000000,1.001548,84.96,1
5003,0,55087,59988,34984.90,38178.92,20102.10,21809.08,0.000000,0.000000,1.001568,84.96,1
5014,0,55097,60002,35025.12,38222.57,20071.88,21779.43,0.000000,0.000000,1.001587,84.96,1
5024,0,55102,60004,35065.28,38266.14,20036.72,21737.86,0.000000,0.000000,1.001608,84.96,1
5033,0,55109,60021,35105.37,38309.65,20003.63,21711.35,0.000000,0.000000,1.001626,84.96,1
5044,0,55116,60042,35145.39,38353.12,19970.61,21688.88,0.000000,0.000000,1.001640,84.96,1
5053,0,55118,60051,35185.33,38396.51,19932.67,21654.49,0.000000,0.000000,1.001653,84.96,1
5063,0,55117,60051,35225.19,38439.82,19891.81,21611.18,0.000000,0.000000,1.001666,84.96,1
5074,0,55132,60065,35265.01,38483.07,19866.99,21581.93,0.000000,0.000000,1.001679,84.96,1
5083,0,55129,60071,35304.74,38526.25,19824.26,21544.75,0.000000,0.000000,1.001689,84.96,1
5094,0,55133,60082,35344.40,38569.36,19788.60,21512.64,0.000000,0.000000,1.001698,84.96,1
5103,0,55139,60101,35383.99,38612.42,19755.01,21488.58,0.000000,0.000000,1.001704,84.96,1
5113,0,55143,60096,35423.51,38655.39,19719.49,21440.61,0.000000,0.000000,1.001712,84.96,1
5124,0,55149,60108,35462.96,38698.30,19686.04,21409.70,0.000000,0.000000,1.001719,84.96,1
5133,0,55155,60113,35502.34,38741.13,19652.66,21371.87,0.000000,0.000000,1.001726,84.96,1
5144,0,55147,60121,35541.63,38783.89,19605.37,21337.11,0.000000,0.000000,1.001729,84.96,1
5152,0,55156,60134,35580.86,38826.60,19575.14,21307.40,0.000000,0.000000,1.001732,84.96,1
5164,0,55154,60128,35620.01,38869.20,19533.99,21258.80,0.000000,0.000000,1.001735,84.96,1
5174,0,55164,60145,35659.10,38911.75,19504.90,21233.25,0.000000,0.000000,1.001736,84.96,1
5183,0,55173,60172,35698.13,38954.27,19474.87,21217.73,0.000000,0.000000,1.001733,84.96,1
5193,0,55176,60179,35737.08,38996.73,19438.91,21182.27,0.000000,0.000000,1.001730,84.96,1
5202,0,55176,60195,35775.96,39039.12,19400.04,21155.88,0.000000,0.000000,1.001722,84.96,1
5213,0,55187,60220,35814.79,39081.49,19372.21,21138.51,0.000000,0.000000,1.001711,84.96,1
5224,0,55199,60229,35853.56,39123.78,19345.44,21105.22,0.000000,0.000000,1.001702,84.96,1
5233,0,55207,60249,35892.26,39166.03,19314.74,21082.97,0.000000,0.000000,1.001689,84.96,1
5243,0,55219,60274,35930.92,39208.25,19288.08,21065.75,0.000000,0.000000,1.001674,84.96,1
5254,0,55223,60289,35969.50,39250.41,19253.50,21038.59,0.000000,0.000000,1.001656,84.96,1
5263,0,55233,60308,36008.03,39292.53,19224.97,21015.47,0.000000,0.000000,1.001636,84.96,1
5273,0,55241,60316,36046.50,39334.58,19194.50,20981.42,0.000000,0.000000,1.001617,84.96,1
5282,0,55242,60312,36084.89,39376.53,19157.11,20935.47,0.000000,0.000000,1.001598,84.96,1
5294,0,55230,60274,36123.18,39418.33,19106.82,20855.67,0.000000,0.000000,1.001587,84.96,1
5304,0,55210,60220,36161.35,39459.93,19048.65,20760.07,0.000000,0.000000,1.001583,84.96,1
5313,0,55190,60169,36199.41,39501.35,18990.59,20667.65,0.000000,0.000000,1.001587,84.96,1
5323,0,55171,60097,36237.36,39542.55,18933.64,20554.45,0.000000,0.000000,1.001605,84.96,1
5332,0,55143,60034,36275.17,39583.53,18867.83,20450.47,0.000000,0.000000,1.001629,84.96,1
5343,0,55115,59967,36312.85,39624.30,18802.15,20342.70,0.000000,0.000000,1.001663,84.96,1
5354,0,55097,59922,36350.42,39664.89,18746.58,20257.11,0.000000,0.000000,1.001704,84.96,1
5363,0,55073,59893,36387.87,39705.35,18685.13,20187.65,0.000000,0.000000,1.001744,84.96,1
5373,0,55064,59874,36425.22,39745.69,18638.78,20128.31,0.000000,0.000000,1.001787,84.96,1
5383,0,55059,59875,36462.49,39785.94,18596.51,20089.06,0.000000,0.000000,1.001828,84.95,1
5393,0,55065,59869,36499.69,39826.11,18565.31,20042.89,0.000000,0.000000,1.001871,84.95,1
5403,0,55063,59874,36536.82,39866.21,18526.18,20007.79,0.000000,0.000000,1.001913,84.95,1
5412,0,55065,59889,36573.87,39906.25,18491.13,19982.75,0.000000,0.000000,1.001951,84.95,1
5424,0,55069,59884,36610.86,39946.21,18458.14,19937.79,0.000000,0.000000,1.001991,84.95,1
5434,0,55074,59900,36647.79,39986.12,18426.21,19913.88,0.000000,0.000000,1.002028,84.95,1
5443,0,55074,59899,36684.64,40025.94,18389.36,19873.06,0.000000,0.000000,1.002065,84.95,1
5453,0,55079,59915,36721.43,40065.72,18357.57,19849.28,0.000000,0.000000,1.002099,84.95,1
5463,0,55080,59929,36758.15,40105.45,18321.85,19823.55,0.000000,0.000000,1.002130,84.95,1
5473,0,55088,59919,36794.81,40145.08,18293.19,19773.92,0.000000,0.000000,1.002165,84.95,1
5484,0,55088,59921,36831.40,40184.64,18256.60,19736.36,0.000000,0.000000,1.002200,84.95,1
5493,0,55080,59921,36867.90,40224.11,18212.10,19696.89,0.000000,0.000000,1.002232,84.94,1
5504,0,55081,59917,36904.32,40263.50,18176.68,19653.50,0.000000,0.000000,1.002265,84.94,1
5513,0,55081,59914,36940.67,40302.80,18140.33,19611.20,0.000000,0.000000,1.002298,84.94,1
5523,0,55082,59900,36976.96,40342.00,18105.04,19558.00,0.000000,0.000000,1.002336,84.94,1
5533,0,55086,59907,37013.18,40381.13,18072.82,19525.87,0.000000,0.000000,1.002372,84.94,1
5542,0,55080,59905,37049.31,40420.17,18030.69,19484.83,0.000000,0.000000,1.002407,84.94,1
5554,0,55074,59908,37085.36,40459.15,17988.64,19448.85,0.000000,0.000000,1.002439,84.94,1
5563,0,55080,59915,37121.35,40498.06,17958.65,19416.94,0.000000,0.000000,1.002471,84.94,1
5573,0,55087,59915,37157.29,40536.89,17929.71,19378.11,0.000000,0.000000,1.002505,84.94,1
5583,0,55089,59929,37193.16,40575.68,17895.84,19353.32,0.000000,0.000000,1.002534,84.94,1
5593,0,55084,59938,37228.94,40614.41,17855.06,19323.59,0.000000,0.000000,1.002561,84.94,1
5603,0,55092,59937,37264.66,40653.05,17827.34,19283.95,0.000000,0.000000,1.002590,84.94,1
5612,0,55090,59941,37300.32,40691.63,17789.68,19249.37,0.000000,0.000000,1.002616,84.93,1
5623,0,55098,59943,37335.91,40730.14,17762.09,19212.86,0.000000,0.000000,1.002645,84.93,1
5634,0,55101,59955,37371.44,40768.58,17729.56,19186.41,0.000000,0.000000,1.002670,84.93,1
5643,0,55101,59964,37406.90,40806.98,17694.10,19157.02,0.000000,0.000000,1.002694,84.93,1
5653,0,55101,59958,37442.29,40845.28,17658.71,19112.72,0.000000,0.000000,1.002718,84.93,1
5662,0,55102,59964,37477.61,40883.52,17624.39,19080.48,0.000000,0.000000,1.002741,84.93,1
5672,0,55113,59971,37512.89,40921.69,17600.11,19049.31,0.000000,0.000000,1.002766,84.93,1
5684,0,55106,59968,37548.07,40959.79,17557.93,19008.21,0.000000,0.000000,1.002789,84.93,1
5693,0,55114,59985,37583.21,40997.84,17530.79,18987.16,0.000000,0.000000,1.002809,84.93,1
5703,0,55113,59979,37618.27,41035.80,17494.73,18943.20,0.000000,0.000000,1.002831,84.93,1
5713,0,55115,59990,37653.26,41073.71,17461.74,18916.29,0.000000,0.000000,1.002850,84.93,1
5723,0,55122,60000,37688.20,41111.57,17433.80,18888.43,0.000000,0.000000,1.002868,84.93,1
5733,0,55118,60010,37723.06,41149.36,17394.94,18860.64,0.000000,0.000000,1.002882,84.93,1
5742,0,55126,60022,37757.87,41187.11,17368.13,18834.89,0.000000,0.000000,1.002895,84.93,1
5753,0,55124,60022,37792.60,41224.78,17331.40,18797.22,0.000000,0.000000,1.002908,84.93,1
5764,0,55132,60032,37827.28,41262.39,17304.72,18769.61,0.000000,0.000000,1.002920,84.93,1
5773,0,55134,60052,37861.90,41299.97,17272.10,18752.03,0.000000,0.000000,1.002927,84.93,1
5783,0,55141,60062,37896.46,41337.50,17244.54,18724.50,0.000000,0.000000,1.002933,84.93,1
5792,0,55155,60083,37930.97,41374.99,17224.03,18708.01,0.000000,0.000000,1.002937,84.93,1
5803,0,55151,60082,37965.41,41412.40,17185.59,18669.60,0.000000,0.000000,1.002941,84.93,1
5814,0,55163,60099,37999.81,41449.78,17163.19,18649.22,0.000000,0.000000,1.002943,84.93,1
5823,0,55167,60109,38034.14,41487.10,17132.86,18621.90,0.000000,0.000000,1.002944,84.93,1
5833,0,55171,60122,38068.42,41524.37,17102.58,18597.63,0.000000,0.000000,1.002942,84.93,1
5842,0,55181,60139,38102.65,41561.60,17078.35,18577.40,0.000000,0.000000,1.002938,84.93,1
5853,0,55180,60131,38136.80,41598.74,17043.20,18532.26,0.000000,0.000000,1.002937,84.93,1
5863,0,55194,60149,38170.92,41635.84,17023.08,18513.16,0.000000,0.000000,1.002934,84.93,1
5872,0,55188,60158,38204.95,41672.89,16983.05,18485.11,0.000000,0.000000,1.002927,84.93,1
5883,0,55198,60178,38238.94,41709.90,16959.06,18468.10,0.000000,0.000000,1.002918,84.93,1
5893,0,55197,60198,38272.85,41746.87,16924.15,18451.13,0.000000,0.000000,1.002902,84.93,1
5903,0,55203,60200,38306.72,41783.78,16896.28,18416.22,0.000000,0.000000,1.002888,84.93,1
5913,0,55215,60218,38340.53,41820.65,16874.47,18397.35,0.000000,0.000000,1.002873,84.93,1
5922,0,55220,60228,38374.30,41857.47,16845.70,18370.53,0.000000,0.000000,1.002856,84.93,1
5933,0,55221,60230,38407.99,41894.21,16813.01,18335.79,0.000000,0.000000,1.002839,84.93,1
5942,0,55227,60247,38441.63,41930.92,16785.37,18316.08,0.000000,0.000000,1.002819,84.93,1
5953,0,55233,60247,38475.21,41967.55,16757.79,18279.45,0.000000,0.000000,1.002801,84.93,1
5963,0,55226,60218,38508.71,42004.05,16717.29,18213.95,0.000000,0.000000,1.002790,84.93,1
5972,0,55217,60191,38542.13,42040.43,16674.87,18150.57,0.000000,0.000000,1.002783,84.93,1
5983,0,55205,60140,38575.46,42076.63,16629.54,18063.37,0.000000,0.000000,1.002789,84.93,1
5993,0,55177,60077,38608.67,42112.63,16568.33,17964.37,0.000000,0.000000,1.002803,84.93,1
6002,0,55145,60013,38641.74,42148.44,16503.26,17864.56,0.000000,0.000000,1.002826,84.93,1
6013,0,55128,59954,38674.72,42184.05,16453.28,17769.95,0.000000,0.000000,1.002861,84.93,1
6023,0,55107,59911,38707.58,42219.50,16399.41,17691.50,0.000000,0.000000,1.002902,84.93,1
6033,0,55083,59864,38740.33,42254.79,16342.66,17609.21,0.000000,0.000000,1.002948,84.93,1
6043,0,55076,59844,38773.01,42289.97,16302.99,17554.03,0.000000,0.000000,1.002998,84.93,1
6052,0,55058,59827,38805.58,42325.04,16252.42,17501.96,0.000000,0.000000,1.003047,84.92,1
6063,0,55061,59824,38838.09,42360.04,16222.91,17463.96,0.000000,0.000000,1.003097,84.92,1
6072,0,55059,59820,38870.53,42394.96,16188.47,17425.04,0.000000,0.000000,1.003148,84.92,1
6083,0,55066,59829,38902.92,42429.83,16163.07,17399.17,0.000000,0.000000,1.003198,84.92,1
6093,0,55065,59845,38935.25,42464.66,16129.75,17380.34,0.000000,0.000000,1.003242,84.92,1
6103,0,55075,59844,38967.53,42499.42,16107.47,17344.58,0.000000,0.000000,1.003290,84.92,1
6113,0,55075,59860,38999.74,42534.14,16075.26,17325.86,0.000000,0.000000,1.003332,84.92,1
6122,0,55080,59859,39031.90,42568.80,16048.10,17290.20,0.000000,0.000000,1.003376,84.92,1
6132,0,55077,59845,39063.99,42603.35,16013.01,17241.65,0.000000,0.000000,1.003423,84.91,1
6144,0,55072,59851,39096.01,42637.85,15975.99,17213.15,0.000000,0.000000,1.003467,84.91,1
6153,0,55078,59861,39127.97,42672.30,15950.03,17188.70,0.000000,0.000000,1.003509,84.91,1
6163,0,55085,59857,39159.89,42706.67,15925.11,17150.33,0.000000,0.000000,1.003554,84.91,1
6172,0,55089,59883,39191.75,42741.02,15897.25,17141.98,0.000000,0.000000,1.003592,84.91,1
6182,0,55101,59901,39223.57,42775.34,15877.43,17125.66,0.000000,0.000000,1.003629,84.91,1
6193,0,55109,59926,39255.34,42809.64,15853.66,17116.36,0.000000,0.000000,1.003660,84.91,1
6202,0,55120,59957,39287.07,42843.94,15832.93,17113.06,0.000000,0.000000,1.003685,84.91,1
6213,0,55122,59966,39318.74,42878.18,15803.26,17087.82,0.000000,0.000000,1.003708,84.91,1
6222,0,55137,59980,39350.38,42912.39,15786.62,17067.61,0.000000,0.000000,1.003732,84.91,1
6233,0,55135,59994,39381.95,42946.55,15753.05,17047.45,0.000000,0.000000,1.003750,84.91,1
6243,0,55140,60015,39413.47,42980.69,15726.53,17034.31,0.000000,0.000000,1.003763,84.91,1
6252,0,55154,60036,39444.95,43014.80,15709.05,17021.20,0.000000,0.000000,1.003775,84.91,1
6262,0,55158,60035,39476.38,43048.85,15681.62,16986.15,0.000000,0.000000,1.003788,84.91,1
6274,0,55164,60054,39507.75,43082.86,15656.25,16971.14,0.000000,0.000000,1.003797,84.91,1
6283,0,55172,60062,39539.08,43116.82,15632.92,16945.18,0.000000,0.000000,1.003806,84.90,1
6293,0,55176,60073,39570.35,43150.73,15605.64,16922.27,0.000000,0.000000,1.003813,84.90,1
6302,0,55181,60092,39601.58,43184.61,15579.42,16907.39,0.000000,0.000000,1.003815,84.90,1
6312,0,55197,60099,39632.77,43218.44,15564.23,16880.56,0.000000,0.000000,1.003821,84.90,1
6323,0,55208,60125,39663.92,43252.26,15544.08,16872.74,0.000000,0.000000,1.003822,84.90,1
6332,0,55212,60137,39695.01,43286.03,15516.98,16850.97,0.000000,0.000000,1.003821,84.90,1
6343,0,55215,60160,39726.05,43319.78,15488.95,16840.22,0.000000,0.000000,1.003813,84.90,1
6352,0,55234,60182,39757.07,43353.50,15476.93,16828.50,0.000000,0.000000,1.003805,84.90,1
6363,0,55237,60183,39788.03,43387.16,15448.96,16795.84,0.000000,0.000000,1.003798,84.91,1
6373,0,55245,60203,39818.95,43420.80,15426.05,16782.20,0.000000,0.000000,1.003787,84.91,1
6382,0,55249,60216,39849.81,43454.39,15399.19,16761.61,0.000000,0.000000,1.003774,84.91,1
6392,0,55257,60235,39880.62,43487.95,15376.37,16747.05,0.000000,0.000000,1.003756,84.91,1
6402,0,55262,60260,39911.39,43521.50,15350.61,16738.50,0.000000,0.000000,1.003733,84.91,1
6413,0,55275,60272,39942.12,43555.00,15332.88,16717.00,0.000000,0.000000,1.003710,84.91,1
6423,0,55277,60285,39972.79,43588.46,15304.21,16696.54,0.000000,0.000000,1.003684,84.91,1
6432,0,55290,60313,40003.42,43621.91,15286.58,16691.09,0.000000,0.000000,1.003654,84.91,1
6443,0,55293,60319,40034.00,43655.30,15259.00,16663.70,0.000000,0.000000,1.003623,84.91,1
6452,0,55294,60336,40064.53,43688.66,15229.47,16647.34,0.000000,0.000000,1.003586,84.91,1
6462,0,55306,60348,40095.01,43721.98,15210.99,16626.02,0.000000,0.000000,1.003550,84.91,1
6473,0,55312,60368,40125.45,43755.28,15186.55,16612.72,0.000000,0.000000,1.003510,84.91,1
6482,0,55324,60390,40155.85,43788.55,15168.15,16601.45,0.000000,0.000000,1.003467,84.91,1
6493,0,55324,60397,40186.18,43821.77,15137.82,16575.23,0.000000,0.000000,1.003422,84.91,1
6503,0,55332,60413,40216.48,43854.95,15115.52,16558.05,0.000000,0.000000,1.003375,84.92,1
6512,0,55343,60431,40246.73,43888.11,15096.27,16542.89,0.000000,0.000000,1.003326,84.92,1
6522,0,55352,60454,40276.94,43921.24,15075.06,16532.76,0.000000,0.000000,1.003273,84.92,1
6532,0,55361,60464,40307.11,43954.33,15053.89,16509.67,0.000000,0.000000,1.003220,84.92,1
6543,0,55360,60477,40337.21,43987.38,15022.79,16489.62,0.000000,0.000000,1.003163,84.92,1
6553,0,55369,60501,40367.28,44020.41,15001.72,16480.59,0.000000,0.000000,1.003101,84.92,1
6562,0,55385,60520,40397.32,44053.41,14987.68,16466.59,0.000000,0.000000,1.003039,84.92,1
6573,0,55391,60544,40427.30,44086.39,14963.70,16457.61,0.000000,0.000000,1.002971,84.93,1
6582,0,55402,60558,40457.25,44119.34,14944.75,16438.66,0.000000,0.000000,1.002903,84.93,1
6592,0,55409,60566,40487.16,44152.23,14921.84,16413.77,0.000000,0.000000,1.002835,84.93,1
6603,0,55412,60570,40517.01,44185.07,14894.99,16384.93,0.000000,0.000000,1.002767,84.93,1
6612,0,55413,60559,40546.80,44217.82,14866.20,16341.18,0.000000,0.000000,1.002704,84.93,1
6623,0,55407,60535,40576.52,44250.46,14830.48,16284.54,0.000000,0.000000,1.002648,84.93,1
6632,0,55391,60495,40606.15,44282.94,14784.85,16212.05,0.000000,0.000000,1.002600,84.93,1
6642,0,55370,60426,40635.67,44315.23,14734.32,16110.77,0.000000,0.000000,1.002569,84.94,1
6652,0,55345,60356,40665.10,44347.31,14679.90,16008.69,0.000000,0.000000,1.002553,84.94,1
6662,0,55316,60272,40694.40,44379.16,14621.60,15892.84,0.000000,0.000000,1.002555,84.94,1
6673,0,55282,60192,40723.58,44410.78,14558.42,15781.21,0.000000,0.000000,1.002573,84.94,1
6682,0,55250,60125,40752.63,44442.21,14497.37,15682.79,0.000000,0.000000,1.002601,84.93,1
6692,0,55225,60069,40781.58,44473.47,14443.42,15595.53,0.000000,0.000000,1.002639,84.93,1
6703,0,55208,60041,40810.43,44504.60,14397.57,15536.39,0.000000,0.000000,1.002680,84.93,1
6712,0,55194,60016,40839.19,44535.63,14354.80,15480.37,0.000000,0.000000,1.002724,84.93,1
6722,0,55185,60013,40867.89,44566.58,14317.11,15446.41,0.000000,0.000000,1.002765,84.93,1
6731,0,55186,60015,40896.53,44597.48,14289.47,15417.52,0.000000,0.000000,1.002806,84.93,1
6743,0,55190,60014,40925.11,44628.32,14264.89,15385.68,0.000000,0.000000,1.002848,84.93,1
6753,0,55196,60018,40953.66,44659.10,14242.34,15358.90,0.000000,0.000000,1.002891,84.93,1
6762,0,55193,60024,40982.14,44689.83,14210.86,15334.17,0.000000,0.000000,1.002931,84.93,1
6772,0,55195,60015,41010.56,44720.48,14184.44,15294.52,0.000000,0.000000,1.002974,84.93,1
6782,0,55187,60014,41038.92,44751.07,14148.08,15262.93,0.000000,0.000000,1.003014,84.92,1
6792,0,55189,60012,41067.22,44781.59,14121.78,15230.41,0.000000,0.000000,1.003055,84.92,1
6803,0,55187,60002,41095.46,44812.03,14091.54,15189.97,0.000000,0.000000,1.003099,84.92,1
6812,0,55182,60007,41123.63,44842.42,14058.37,15164.57,0.000000,0.000000,1.003139,84.92,1
6822,0,55180,59995,41151.75,44872.73,14028.25,15122.27,0.000000,0.000000,1.003182,84.92,1
6833,0,55182,60007,41179.81,44903.00,14002.19,15104.00,0.000000,0.000000,1.003221,84.92,1
6842,0,55184,60013,41207.82,44933.22,13976.18,15079.78,0.000000,0.000000,1.003259,84.92,1
6852,0,55196,60022,41235.79,44963.40,13960.21,15058.60,0.000000,0.000000,1.003297,84.92,1
6861,0,55196,60041,41263.71,44993.55,13932.29,15047.45,0.000000,0.000000,1.003329,84.92,1
6873,0,55201,60037,41291.59,45023.64,13909.41,15013.36,0.000000,0.000000,1.003364,84.92,1
6883,0,55207,60055,41319.42,45053.71,13887.58,15001.29,0.000000,0.000000,1.003395,84.92,1
6892,0,55208,60054,41347.20,45083.71,13860.80,14970.29,0.000000,0.000000,1.003426,84.91,1
6902,0,55202,60057,41374.91,45113.66,13827.09,14943.34,0.000000,0.000000,1.003453,84.91,1
6912,0,55211,60064,41402.58,45143.56,13808.42,14920.44,0.000000,0.000000,1.003482,84.91,1
6922,0,55209,60062,41430.19,45173.40,13778.80,14888.60,0.000000,0.000000,1.003510,84.91,1
6933,0,55220,60074,41457.78,45203.20,13762.22,14870.80,0.000000,0.000000,1.003538,84.91,1
6942,0,55211,60075,41485.28,45232.94,13725.71,14842.05,0.000000,0.000000,1.003562,84.91,1
6952,0,55209,60077,41512.73,45262.63,13696.27,14814.37,0.000000,0.000000,1.003584,84.91,1
6962,0,55221,60075,41540.15,45292.26,13680.85,14782.74,0.000000,0.000000,1.003611,84.91,1
6972,0,55221,60066,41567.51,45321.81,13653.48,14744.19,0.000000,0.000000,1.003642,84.91,1
6982,0,55219,60077,41594.82,45351.32,13624.18,14725.68,0.000000,0.000000,1.003667,84.91,1
6991,0,55223,60087,41622.08,45380.79,13600.92,14706.21,0.000000,0.000000,1.003690,84.91,1
7003,0,55224,60084,41649.28,45410.20,13574.71,14673.80,0.000000,0.000000,1.003715,84.91,1
7013,0,55228,60103,41676.44,45439.58,13551.55,14663.41,0.000000,0.000000,1.003734,84.91,1
7022,0,55237,60118,41703.57,45468.94,13533.43,14649.06,0.000000,0.000000,1.003751,84.91,1
7032,0,55243,60152,41730.64,45498.31,13512.36,14653.69,0.000000,0.000000,1.003757,84.91,1
7042,0,55252,60167,41757.69,45527.65,13494.31,14639.35,0.000000,0.000000,1.003762,84.91,1
7052,0,55258,60174,41784.69,45556.94,13473.31,14617.06,0.000000,0.000000,1.003766,84.91,1
7063,0,55273,60189,41811.67,45586.21,13461.33,14602.79,0.000000,0.000000,1.003771,84.91,1
7072,0,55272,60207,41838.59,45615.45,13433.41,14591.55,0.000000,0.000000,1.003768,84.91,1
7083,0,55288,60223,41865.49,45644.66,13422.51,14578.34,0.000000,0.000000,1.003766,84.91,1
7092,0,55288,60239,41892.33,45673.85,13395.67,14565.15,0.000000,0.000000,1.003758,84.91,1
7102,0,55291,60239,41919.13,45702.98,13371.87,14536.02,0.000000,0.000000,1.003751,84.91,1
7112,0,55301,60250,41945.89,45732.07,13355.11,14517.93,0.000000,0.000000,1.003744,84.91,1
7121,0,55306,60249,41972.62,45761.10,13333.38,14487.89,0.000000,0.000000,1.003739,84.91,1
7133,0,55308,60267,41999.29,45790.12,13308.71,14476.88,0.000000,0.000000,1.003729,84.91,1
7142,0,55317,60282,42025.92,45819.10,13291.07,14462.89,0.000000,0.000000,1.003716,84.91,1
7152,0,55316,60269,42052.51,45848.01,13263.49,14420.99,0.000000,0.000000,1.003709,84.91,1
7162,0,55324,60279,42079.05,45876.87,13244.95,14402.13,0.000000,0.000000,1.003700,84.91,1
7172,0,55320,60304,42105.53,45905.73,13214.46,14398.27,0.000000,0.000000,1.003681,84.91,1
7182,0,55327,60315,42131.98,45934.55,13195.02,14380.45,0.000000,0.000000,1.003660,84.91,1
7191,0,55331,60328,42158.37,45963.33,13172.62,14364.66,0.000000,0.000000,1.003636,84.91,1
7202,0,55337,60335,42184.73,45992.08,13152.27,14342.92,0.000000,0.000000,1.003611,84.91,1
7213,0,55347,60353,42211.06,46020.80,13135.94,14332.20,0.000000,0.000000,1.003585,84.91,1
7222,0,55361,60393,42237.36,46049.55,13123.64,14343.45,0.000000,0.000000,1.003548,84.91,1
7232,0,55364,60410,42263.62,46078.27,13100.38,14331.73,0.000000,0.000000,1.003506,84.91,1
7242,0,55378,60423,42289.85,46106.96,13088.15,14316.04,0.000000,0.000000,1.003465,84.91,1
7251,0,55385,60433,42316.04,46135.62,13068.96,14297.38,0.000000,0.000000,1.003424,84.91,1
7263,0,55387,60439,42342.18,46164.23,13044.82,14274.77,0.000000,0.000000,1.003381,84.92,1
7272,0,55397,60438,42368.29,46192.78,13028.71,14245.22,0.000000,0.000000,1.003344,84.92,1
7282,0,55381,60402,42394.32,46221.20,12986.68,14180.80,0.000000,0.000000,1.003314,84.92,1
7292,0,55366,60349,42420.26,46249.46,12945.74,14099.54,0.000000,0.000000,1.003299,84.92,1
7302,0,55344,60271,42446.10,46277.50,12897.89,13993.50,0.000000,0.000000,1.003306,84.92,1
7312,0,55314,60187,42471.84,46305.32,12842.16,13881.68,0.000000,0.000000,1.003334,84.92,1
7321,0,55275,60113,42497.45,46332.94,12777.55,13780.06,0.000000,0.000000,1.003373,84.92,1
7332,0,55245,60036,42522.95,46360.35,12722.05,13675.65,0.000000,0.000000,1.003430,84.91,1
7343,0,55221,59988,42548.35,46387.60,12672.65,13600.39,0.000000,0.000000,1.003495,84.91,1
7352,0,55205,59935,42573.66,46414.70,12631.34,13520.30,0.000000,0.000000,1.003574,84.91,1
7362,0,55179,59893,42598.88,46441.66,12580.12,13451.34,0.000000,0.000000,1.003658,84.91,1
7371,0,55170,59893,42624.02,46468.56,12545.98,13424.44,0.000000,0.000000,1.003737,84.91,1
7382,0,55164,59870,42649.10,46495.36,12514.89,13374.64,0.000000,0.000000,1.003821,84.90,1
7393,0,55163,59877,42674.13,46522.13,12488.87,13354.87,0.000000,0.000000,1.003903,84.90,1
7401,0,55158,59869,42699.10,46548.82,12458.90,13320.18,0.000000,0.000000,1.003985,84.90,1
7412,0,55161,59869,42724.02,46575.46,12436.98,13293.54,0.000000,0.000000,1.004067,84.90,1
7421,0,55166,59878,42748.91,46602.07,12417.09,13275.93,0.000000,0.000000,1.004148,84.90,1
7432,0,55173,59893,42773.76,46628.66,12399.24,13264.34,0.000000,0.000000,1.004225,84.89,1
7442,0,55172,59894,42798.56,46655.19,12373.44,13238.81,0.000000,0.000000,1.004301,84.89,1
7451,0,55173,59908,42823.31,46681.69,12349.69,13226.30,0.000000,0.000000,1.004372,84.89,1
7462,0,55182,59908,42848.03,46708.15,12333.97,13199.85,0.000000,0.000000,1.004445,84.89,1
7473,0,55186,59917,42872.70,46734.57,12313.30,13182.43,0.000000,0.000000,1.004517,84.89,1
7482,0,55189,59929,42897.33,46760.96,12291.66,13168.04,0.000000,0.000000,1.004585,84.89,1
7492,0,55192,59938,42921.92,46787.32,12270.07,13150.68,0.000000,0.000000,1.004649,84.88,1
7501,0,55195,59950,42946.47,46813.64,12248.53,13136.36,0.000000,0.000000,1.004710,84.88,1
7512,0,55198,59949,42970.98,46839.91,12227.02,13109.09,0.000000,0.000000,1.004772,84.88,1
7522,0,55207,59966,42995.45,46866.17,12211.55,13099.83,0.000000,0.000000,1.004831,84.88,1
7531,0,55211,59981,43019.88,46892.40,12191.12,13088.60,0.000000,0.000000,1.004885,84.88,1
7542,0,55221,59996,43044.28,46918.60,12176.71,13077.39,0.000000,0.000000,1.004937,84.88,1
7552,0,55216,60014,43068.63,46944.80,12147.37,13069.20,0.000000,0.000000,1.004979,84.88,1
7562,0,55235,60020,43092.96,46970.95,12142.04,13049.05,0.000000,0.000000,1.005027,84.87,1
7572,0,55231,60038,43117.24,46997.08,12113.76,13040.92,0.000000,0.000000,1.005065,84.87,1
7581,0,55240,60059,43141.49,47023.21,12098.51,13035.79,0.000000,0.000000,1.005098,84.87,1
7591,0,55245,60062,43165.69,47049.28,12079.30,13012.71,0.000000,0.000000,1.005132,84.87,1
7601,0,55254,60071,43189.87,47075.33,12064.13,12995.67,0.000000,0.000000,1.005167,84.87,1
7612,0,55253,60074,43214.00,47101.33,12039.00,12972.67,0.000000,0.000000,1.005199,84.87,1
7622,0,55259,60085,43238.09,47127.30,12020.91,12957.70,0.000000,0.000000,1.005229,84.87,1
7631,0,55255,60087,43262.13,47153.22,11992.87,12933.78,0.000000,0.000000,1.005256,84.87,1
7642,0,55256,60079,43286.12,47179.07,11969.88,12899.93,0.000000,0.000000,1.005287,84.87,1
7652,0,55261,60092,43310.07,47204.90,11950.93,12887.10,0.000000,0.000000,1.005314,84.87,1
7661,0,55267,60106,43333.99,47230.70,11933.01,12875.30,0.000000,0.000000,1.005338,84.87,1
7672,0,55270,60124,43357.86,47256.48,11912.14,12867.52,0.000000,0.000000,1.005355,84.87,1
7682,0,55280,60144,43381.70,47282.26,11898.30,12861.74,0.000000,0.000000,1.005369,84.87,1
7692,0,55285,60152,43405.51,47308.00,11879.49,12844.00,0.000000,0.000000,1.005381,84.87,1
7702,0,55285,60171,43429.27,47333.73,11855.73,12837.27,0.000000,0.000000,1.005385,84.87,1
7711,0,55302,60182,43453.02,47359.43,11848.98,12822.57,0.000000,0.000000,1.005392,84.87,1
7721,0,55314,60202,43476.74,47385.11,11837.26,12816.89,0.000000,0.000000,1.005395,84.87,1
7731,0,55319,60211,43500.42,47410.76,11818.57,12800.23,0.000000,0.000000,1.005398,84.87,1
7742,0,55317,60228,43524.06,47436.40,11792.94,12791.60,0.000000,0.000000,1.005391,84.87,1
7752,0,55331,60245,43547.67,47462.02,11783.33,12782.98,0.000000,0.000000,1.005384,84.87,1
7761,0,55346,60274,43571.27,47487.64,11774.73,12786.36,0.000000,0.000000,1.005371,84.87,1
7772,0,55348,60290,43594.82,47513.25,11753.18,12776.75,0.000000,0.000000,1.005353,84.87,1
7781,0,55357,60311,43618.35,47538.85,11738.65,12772.15,0.000000,0.000000,1.005329,84.87,1
7791,0,55361,60327,43641.84,47564.42,11719.16,12762.58,0.000000,0.000000,1.005300,84.87,1
7802,0,55368,60348,43665.29,47589.99,11702.71,12758.01,0.000000,0.000000,1.005265,84.87,1
7812,0,55383,60361,43688.73,47615.53,11694.27,12745.47,0.000000,0.000000,1.005231,84.87,1
7822,0,55386,60380,43712.13,47641.06,11673.87,12738.94,0.000000,0.000000,1.005191,84.87,1
7831,0,55386,60405,43735.48,47666.59,11650.52,12738.41,0.000000,0.000000,1.005140,84.87,1
7841,0,55400,60402,43758.81,47692.06,11641.19,12709.94,0.000000,0.000000,1.005097,84.87,1
7852,0,55404,60423,43782.10,47717.53,11621.89,12705.47,0.000000,0.000000,1.005047,84.87,1
7861,0,55411,60440,43805.36,47742.97,11605.64,12697.03,0.000000,0.000000,1.004993,84.88,1
7872,0,55416,60440,43828.58,47768.37,11587.41,12671.63,0.000000,0.000000,1.004942,84.88,1
7881,0,55417,60454,43851.76,47793.74,11565.23,12660.26,0.000000,0.000000,1.004885,84.88,1
7891,0,55422,60462,43874.91,47819.08,11547.09,12642.92,0.000000,0.000000,1.004827,84.88,1
7902,0,55423,60475,43898.00,47844.39,11525.00,12630.61,0.000000,0.000000,1.004764,84.88,1
7911,0,55433,60491,43921.08,47869.68,11511.92,12621.32,0.000000,0.000000,1.004699,84.88,1
7921,0,55446,60497,43944.13,47894.94,11501.87,12602.06,0.000000,0.000000,1.004638,84.88,1
7932,0,55444,60514,43967.13,47920.17,11476.87,12593.82,0.000000,0.000000,1.004569,84.89,1
7942,0,55446,60523,43990.08,47945.38,11455.91,12577.62,0.000000,0.000000,1.004497,84.89,1
7952,0,55455,60539,44013.01,47970.57,11441.98,12568.43,0.000000,0.000000,1.004422,84.89,1
7961,0,55460,60548,44035.91,47995.73,11424.09,12552.27,0.000000,0.000000,1.004346,84.89,1
7971,0,55460,60536,44058.76,48020.81,11401.23,12515.19,0.000000,0.000000,1.004277,84.89,1
7982,0,55460,60500,44081.57,48045.77,11378.43,12454.23,0.000000,0.000000,1.004225,84.89,1
7991,0,55431,60446,44104.27,48070.57,11326.73,12375.43,0.000000,0.000000,1.004184,84.90,1
8002,0,55410,60370,44126.89,48095.17,11283.11,12274.83,0.000000,0.000000,1.004168,84.90,1
8011,0,55380,60293,44149.39,48119.57,11230.61,12173.43,0.000000,0.000000,1.004174,84.90,1
8022,0,55353,60213,44171.80,48143.75,11181.20,12069.25,0.000000,0.000000,1.004203,84.89,1
8032,0,55315,60144,44194.09,48167.76,11120.91,11976.24,0.000000,0.000000,1.004245,84.89,1
8041,0,55288,60085,44216.28,48191.59,11071.72,11893.41,0.000000,0.000000,1.004300,84.89,1
8051,0,55265,60037,44238.38,48215.28,11026.62,11821.71,0.000000,0.000000,1.004365,84.89,1
8060,0,55249,60007,44260.40,48238.87,10988.60,11768.13,0.000000,0.000000,1.004436,84.89,1
8072,0,55238,59986,44282.35,48262.37,10955.64,11723.63,0.000000,0.000000,1.004510,84.89,1
8082,0,55230,59987,44304.25,48285.82,10925.75,11701.18,0.000000,0.000000,1.004579,84.89,1
8091,0,55231,59994,44326.11,48309.23,10904.89,11684.77,0.000000,0.000000,1.004645,84.88,1
8101,0,55236,59991,44347.93,48332.60,10888.07,11658.40,0.000000,0.000000,1.004715,84.88,1
8111,0,55239,59999,44369.71,48355.93,10869.29,11643.07,0.000000,0.000000,1.004782,84.88,1
8121,0,55244,60012,44391.46,48379.24,10852.54,11632.76,0.000000,0.000000,1.004845,84.88,1
8132,0,55248,60030,44413.17,48402.54,10834.82,11627.46,0.000000,0.000000,1.004901,84.88,1
8141,0,55247,60025,44434.84,48425.79,10812.16,11599.21,0.000000,0.000000,1.004958,84.88,1
8152,0,55250,60030,44456.48,48449.00,10793.52,11581.00,0.000000,0.000000,1.005015,84.87,1
8162,0,55255,60039,44478.08,48472.17,10776.92,11566.82,0.000000,0.000000,1.005069,84.87,1
8171,0,55259,60046,44499.64,48495.33,10759.36,11550.67,0.000000,0.000000,1.005122,84.87,1
8181,0,55258,60050,44521.16,48518.44,10736.84,11531.56,0.000000,0.000000,1.005173,84.87,1
8190,0,55254,60064,44542.62,48541.53,10711.37,11522.46,0.000000,0.000000,1.005214,84.87,1
8202,0,55268,60062,44564.07,48564.58,10703.93,11497.42,0.000000,0.000000,1.005263,84.87,1
8212,0,55276,60073,44585.50,48587.59,10690.50,11485.41,0.000000,0.000000,1.005311,84.87,1
8221,0,55271,60077,44606.87,48610.57,10664.13,11466.43,0.000000,0.000000,1.005354,84.87,1
8231,0,55272,60084,44628.20,48633.52,10643.80,11450.48,0.000000,0.000000,1.005393,84.87,1
8241,0,55268,60085,44649.48,48656.42,10618.52,11428.57,0.000000,0.000000,1.005430,84.86,1
8251,0,55280,60076,44670.75,48679.26,10609.25,11396.73,0.000000,0.000000,1.005478,84.86,1
8262,0,55275,60077,44691.96,48702.06,10583.04,11374.94,0.000000,0.000000,1.005522,84.86,1
8271,0,55275,60084,44713.12,48724.83,10561.87,11359.17,0.000000,0.000000,1.005562,84.86,1
8282,0,55274,60073,44734.25,48747.52,10539.75,11325.48,0.000000,0.000000,1.005607,84.86,1
8291,0,55271,60073,44755.32,48770.17,10515.68,11302.82,0.000000,0.000000,1.005650,84.86,1
8301,0,55267,60053,44776.35,48792.74,10490.65,11260.26,0.000000,0.000000,1.005700,84.86,1
8311,0,55267,60053,44797.33,48815.26,10469.67,11237.74,0.000000,0.000000,1.005750,84.86,1
8321,0,55266,60057,44818.27,48837.75,10447.73,11219.25,0.000000,0.000000,1.005797,84.86,1
8332,0,55267,60047,44839.17,48860.16,10427.83,11186.84,0.000000,0.000000,1.005849,84.85,1
8341,0,55262,60042,44860.01,48882.53,10401.98,11159.47,0.000000,0.000000,1.005901,84.85,1
8351,0,55262,60041,44880.82,48904.85,10381.18,11136.15,0.000000,0.000000,1.005953,84.85,1
8361,0,55266,60050,44901.59,48927.14,10364.41,11122.86,0.000000,0.000000,1.006002,84.85,1
8371,0,55263,60062,44922.32,48949.41,10340.68,11112.59,0.000000,0.000000,1.006044,84.85,1
8381,0,55270,60066,44943.01,48971.65,10326.99,11094.35,0.000000,0.000000,1.006086,84.85,1
8392,0,55269,60089,44963.66,48993.89,10305.34,11095.11,0.000000,0.000000,1.006117,84.85,1
8401,0,55286,60102,44984.31,49016.10,10301.69,11085.90,0.000000,0.000000,1.006150,84.85,1
8412,0,55288,60122,45004.91,49038.31,10283.09,11083.69,0.000000,0.000000,1.006174,84.85,1
8421,0,55303,60153,45025.51,49060.54,10277.49,11092.46,0.000000,0.000000,1.006191,84.85,1
8431,0,55304,60159,45046.07,49082.74,10257.93,11076.26,0.000000,0.000000,1.006204,84.84,1
8441,0,55310,60174,45066.60,49104.92,10243.40,11069.08,0.000000,0.000000,1.006213,84.84,1
8451,0,55322,60193,45087.11,49127.10,10234.89,11065.90,0.000000,0.000000,1.006219,84.84,1
8462,0,55333,60195,45107.60,49149.24,10225.39,11045.76,0.000000,0.000000,1.006231,84.84,1
8471,0,55335,60208,45128.06,49171.35,10206.94,11036.64,0.000000,0.000000,1.006236,84.84,1
8481,0,55330,60219,45148.47,49193.45,10181.53,11025.55,0.000000,0.000000,1.006233,84.84,1
8492,0,55340,60229,45168.85,49215.52,10171.15,11013.48,0.000000,0.000000,1.006230,84.84,1
8501,0,55343,60240,45189.20,49237.57,10153.80,11002.43,0.000000,0.000000,1.006223,84.84,1
8511,0,55349,60252,45209.52,49259.60,10139.48,10992.39,0.000000,0.000000,1.006214,84.84,1
8520,0,55361,60266,45229.83,49281.62,10131.17,10984.38,0.000000,0.000000,1.006204,84.84,1
8531,0,55357,60281,45250.08,49303.62,10106.91,10977.38,0.000000,0.000000,1.006184,84.85,1
8542,0,55373,60303,45270.33,49325.62,10102.67,10977.38,0.000000,0.000000,1.006161,84.85,1
8551,0,55382,60316,45290.56,49347.60,10091.44,10968.40,0.000000,0.000000,1.006137,84.85,1
8561,0,55384,60320,45310.75,49369.55,10073.25,10950.45,0.000000,0.000000,1.006112,84.85,1
8570,0,55389,60345,45330.91,49391.50,10058.09,10953.50,0.000000,0.000000,1.006077,84.85,1
8581,0,55395,60342,45351.03,49413.40,10043.96,10928.60,0.000000,0.000000,1.006047,84.85,1
8592,0,55392,60356,45371.12,49435.29,10020.88,10920.71,0.000000,0.000000,1.006008,84.85,1
8601,0,55397,60361,45391.17,49457.14,10005.83,10903.86,0.000000,0.000000,1.005969,84.85,1
8611,0,55399,60373,45411.19,49478.97,9987.81,10894.03,0.000000,0.000000,1.005925,84.85,1
8621,0,55405,60384,45431.17,49500.78,9973.82,10883.21,0.000000,0.000000,1.005879,84.85,1
8631,0,55415,60401,45451.14,49522.58,9963.86,10878.41,0.000000,0.000000,1.005831,84.85,1
8641,0,55415,60408,45471.07,49544.36,9943.93,10863.64,0.000000,0.000000,1.005778,84.86,1
8650,0,55418,60415,45490.96,49566.10,9927.04,10848.90,0.000000,0.000000,1.005724,84.86,1
8660,0,55422,60420,45510.83,49587.81,9911.17,10832.19,0.000000,0.000000,1.005670,84.86,1
8672,0,55426,60434,45530.66,49609.50,9895.34,10824.50,0.000000,0.000000,1.005611,84.86,1
8680,0,55426,60443,45550.45,49631.17,9875.55,10811.83,0.000000,0.000000,1.005547,84.86,1
8691,0,55435,60443,45570.22,49652.79,9864.78,10790.21,0.000000,0.000000,1.005489,84.86,1
8701,0,55437,60437,45589.96,49674.36,9847.04,10762.64,0.000000,0.000000,1.005436,84.86,1
8711,0,55428,60439,45609.63,49695.89,9818.37,10743.11,0.000000,0.000000,1.005377,84.87,1
8721,0,55426,60402,45629.26,49717.31,9796.73,10684.69,0.000000,0.000000,1.005338,84.87,1
8731,0,55406,60352,45648.82,49738.58,9757.18,10613.42,0.000000,0.000000,1.005314,84.87,1
8740,0,55379,60277,45668.28,49759.66,9710.72,10517.34,0.000000,0.000000,1.005316,84.87,1
8751,0,55350,60176,45687.64,49780.49,9662.36,10395.51,0.000000,0.000000,1.005356,84.87,1
8762,0,55311,60081,45706.89,49801.09,9604.11,10279.91,0.000000,0.000000,1.005423,84.86,1
8770,0,55264,59997,45726.00,49821.48,9538.00,10175.52,0.000000,0.000000,1.005508,84.86,1
8781,0,55229,59911,45745.01,49841.66,9483.99,10069.34,0.000000,0.000000,1.005618,84.86,1
8792,0,55193,59840,45763.91,49861.66,9429.09,9978.34,0.000000,0.000000,1.005743,84.86,1
8801,0,55176,59810,45782.73,49881.55,9393.27,9928.45,0.000000,0.000000,1.005874,84.85,1
8811,0,55151,59765,45801.47,49901.32,9349.53,9863.68,0.000000,0.000000,1.006013,84.85,1
8821,0,55134,59741,45820.14,49921.00,9313.86,9820.00,0.000000,0.000000,1.006153,84.85,1
8830,0,55125,59731,45838.75,49940.62,9286.25,9790.37,0.000000,0.000000,1.006294,84.84,1
8841,0,55126,59711,45857.33,49960.17,9268.67,9750.83,0.000000,0.000000,1.006444,84.84,1
8851,0,55124,59713,45875.86,49979.67,9248.14,9733.32,0.000000,0.000000,1.006591,84.84,1
8860,0,55127,59721,45894.36,49999.16,9232.64,9721.84,0.000000,0.000000,1.006736,84.83,1
8870,0,55121,59710,45912.82,50018.58,9208.18,9691.41,0.000000,0.000000,1.006882,84.83,1
8882,0,55128,59718,45931.25,50037.99,9196.75,9680.01,0.000000,0.000000,1.007026,84.82,1
8890,0,55116,59714,45949.62,50057.34,9166.38,9656.66,0.000000,0.000000,1.007165,84.82,1
8901,0,55118,59711,45967.96,50076.65,9150.04,9634.35,0.000000,0.000000,1.007306,84.82,1
8911,0,55118,59718,45986.26,50095.94,9131.74,9622.06,0.000000,0.000000,1.007443,84.81,1
8921,0,55121,59721,46004.53,50115.19,9116.47,9605.81,0.000000,0.000000,1.007578,84.81,1
8931,0,55119,59711,46022.76,50134.38,9096.24,9576.62,0.000000,0.000000,1.007718,84.81,1
8941,0,55116,59716,46040.94,50153.55,9075.05,9562.45,0.000000,0.000000,1.007852,84.80,1
8950,0,55118,59712,46059.10,50172.67,9058.90,9539.33,0.000000,0.000000,1.007989,84.80,1
8961,0,55110,59712,46077.20,50191.75,9032.80,9520.25,0.000000,0.000000,1.008120,84.80,1
8971,0,55108,59711,46095.26,50210.79,9012.74,9500.21,0.000000,0.000000,1.008250,84.79,1
8980,0,55108,59720,46113.29,50229.81,8994.71,9490.19,0.000000,0.000000,1.008374,84.79,1
8990,0,55110,59709,46131.28,50248.77,8978.72,9460.23,0.000000,0.000000,1.008504,84.79,1
9001,0,55116,59709,46149.25,50267.69,8966.75,9441.31,0.000000,0.000000,1.008638,84.78,1
9010,0,55119,59720,46167.19,50286.60,8951.81,9433.40,0.000000,0.000000,1.008767,84.78,1
9021,0,55119,59718,46185.10,50305.46,8933.90,9412.54,0.000000,0.000000,1.008896,84.78,1
9031,0,55117,59711,46202.96,50324.28,8914.04,9386.72,0.000000,0.000000,1.009027,84.77,1
9040,0,55116,59702,46220.79,50343.03,8895.21,9358.97,0.000000,0.000000,1.009161,84.77,1
9051,0,55120,59715,46238.58,50361.78,8881.41,9353.22,0.000000,0.000000,1.009291,84.77,1
9061,0,55121,59712,46256.35,50380.48,8864.65,9331.52,0.000000,0.000000,1.009421,84.76,1
9071,0,55121,59723,46274.08,50399.17,8846.92,9323.83,0.000000,0.000000,1.009545,84.76,1
9080,0,55126,59731,46291.79,50417.83,8834.21,9313.17,0.000000,0.000000,1.009667,84.76,1
9091,0,55129,59727,46309.46,50436.45,8819.54,9290.55,0.000000,0.000000,1.009792,84.76,1
9101,0,55133,59735,46327.11,50455.05,8805.89,9279.95,0.000000,0.000000,1.009914,84.75,1
9110,0,55136,59743,46344.73,50473.62,8791.27,9269.38,0.000000,0.000000,1.010033,84.75,1
9121,0,55129,59740,46362.30,50492.16,8766.70,9247.84,0.000000,0.000000,1.010149,84.75,1
9132,0,55133,59744,46379.85,50510.66,8753.15,9233.34,0.000000,0.000000,1.010264,84.74,1
9141,0,55140,59755,46397.37,50529.15,8742.63,9225.85,0.000000,0.000000,1.010377,84.74,1
9151,0,55145,59751,46414.87,50547.60,8730.13,9203.40,0.000000,0.000000,1.010494,84.74,1
9161,0,55145,59753,46432.33,50566.01,8712.67,9186.99,0.000000,0.000000,1.010610,84.73,1
9170,0,55146,59769,46449.76,50584.42,8696.24,9184.58,0.000000,0.000000,1.010716,84.73,1
9181,0,55148,59767,46467.16,50602.79,8680.84,9164.21,0.000000,0.000000,1.010824,84.73,1
9191,0,55143,59773,46484.51,50621.13,8658.49,9151.87,0.000000,0.000000,1.010925,84.73,1
9200,0,55167,59785,46501.87,50639.46,8665.12,9145.54,0.000000,0.000000,1.011034,84.72,1
9210,0,55164,59793,46519.20,50657.77,8644.80,9135.23,0.000000,0.000000,1.011135,84.72,1
9221,0,55166,59813,46536.49,50676.08,8629.51,9136.92,0.000000,0.000000,1.011226,84.72,1
9230,0,55163,59820,46553.75,50694.37,8609.25,9125.63,0.000000,0.000000,1.011309,84.72,1
9241,0,55171,59826,46570.98,50712.64,8600.02,9113.36,0.000000,0.000000,1.011394,84.72,1
9251,0,55183,59838,46588.21,50730.89,8594.79,9107.11,0.000000,0.000000,1.011478,84.71,1
9261,0,55179,59849,46605.39,50749.12,8573.61,9099.87,0.000000,0.000000,1.011553,84.71,1
9271,0,55181,59854,46622.55,50767.33,8558.45,9086.66,0.000000,0.000000,1.011626,84.71,1
9281,0,55186,59871,46639.67,50785.54,8546.32,9085.46,0.000000,0.000000,1.011692,84.71,1
9290,0,55194,59874,46656.78,50803.72,8537.21,9070.28,0.000000,0.000000,1.011760,84.71,1
9300,0,55195,59874,46673.86,50821.86,8521.14,9052.14,0.000000,0.000000,1.011829,84.70,1
9311,0,55197,59895,46690.91,50840.01,8506.09,9054.99,0.000000,0.000000,1.011886,84.70,1
9320,0,55199,59914,46707.93,50858.16,8491.07,9055.84,0.000000,0.000000,1.011932,84.70,1
9330,0,55208,59926,46724.93,50876.29,8483.07,9049.71,0.000000,0.000000,1.011976,84.70,1
9341,0,55224,59956,46741.93,50894.45,8482.07,9061.55,0.000000,0.000000,1.012012,84.70,1
9350,0,55230,59977,46758.91,50912.62,8471.09,9064.38,0.000000,0.000000,1.012039,84.70,1
9361,0,55241,59994,46775.87,50930.78,8465.13,9063.22,0.000000,0.000000,1.012063,84.70,1
9371,0,55253,60016,46792.83,50948.95,8460.17,9067.05,0.000000,0.000000,1.012081,84.70,1
9380,0,55261,60048,46809.76,50967.15,8451.23,9080.85,0.000000,0.000000,1.012083,84.70,1
9391,0,55269,60045,46826.69,50985.31,8442.31,9059.69,0.000000,0.000000,1.012093,84.70,1
9401,0,55268,60066,46843.57,51003.47,8424.43,9062.53,0.000000,0.000000,1.012089,84.70,1
9410,0,55278,60081,46860.44,51021.63,8417.56,9059.37,0.000000,0.000000,1.012083,84.70,1
9420,0,55279,60096,46877.28,51039.78,8401.72,9056.22,0.000000,0.000000,1.012067,84.70,1
9431,0,55291,60110,46894.10,51057.92,8396.89,9052.08,0.000000,0.000000,1.012050,84.70,1
9440,0,55298,60137,46910.92,51076.08,8387.08,9060.92,0.000000,0.000000,1.012022,84.70,1
9450,0,55311,60158,46927.72,51094.24,8383.28,9063.76,0.000000,0.000000,1.011988,84.70,1
9461,0,55325,60184,46944.51,51112.42,8380.49,9071.58,0.000000,0.000000,1.011948,84.70,1
9469,0,55329,60206,46961.28,51130.61,8367.72,9075.39,0.000000,0.000000,1.011896,84.70,1
9481,0,55331,60213,46978.02,51148.77,8352.98,9064.23,0.000000,0.000000,1.011841,84.70,1
9491,0,55341,60233,46994.75,51166.94,8346.25,9066.06,0.000000,0.000000,1.011781,84.71,1
9500,0,55346,60240,47011.45,51185.09,8334.55,9054.91,0.000000,0.000000,1.011719,84.71,1
9510,0,55347,60221,47028.12,51203.16,8318.87,9017.84,0.000000,0.000000,1.011672,84.71,1
9521,0,55339,60205,47044.75,51221.17,8294.25,8983.83,0.000000,0.000000,1.011630,84.71,1
9530,0,55326,60153,47061.31,51239.03,8264.69,8913.97,0.000000,0.000000,1.011613,84.71,1
9540,0,55303,60085,47077.80,51256.73,8225.20,8828.27,0.000000,0.000000,1.011625,84.71,1
9550,0,55285,60035,47094.21,51274.28,8190.79,8760.71,0.000000,0.000000,1.011657,84.71,1
9560,0,55257,59972,47110.54,51291.68,8146.46,8680.32,0.000000,0.000000,1.011710,84.71,1
9570,0,55226,59901,47126.77,51308.90,8099.23,8592.10,0.000000,0.000000,1.011787,84.71,1
9581,0,55202,59864,47142.92,51326.01,8059.08,8537.99,0.000000,0.000000,1.011871,84.70,1
9590,0,55180,59830,47159.00,51343.02,8021.00,8486.98,0.000000,0.000000,1.011960,84.70,1
9601,0,55176,59806,47175.03,51359.95,8000.97,8446.05,0.000000,0.000000,1.012061,84.70,1
9611,0,55173,59810,47191.03,51376.85,7981.97,8433.15,0.000000,0.000000,1.012158,84.70,1
9620,0,55169,59807,47206.99,51393.71,7962.01,8413.29,0.000000,0.000000,1.012252,84.69,1
9630,0,55169,59813,47222.92,51410.55,7946.08,8402.45,0.000000,0.000000,1.012343,84.69,1
9640,0,55174,59807,47238.82,51427.34,7935.18,8379.66,0.000000,0.000000,1.012440,84.69,1
9650,0,55171,59804,47254.69,51444.10,7916.31,8359.90,0.000000,0.000000,1.012537,84.69,1
9660,0,55175,59821,47270.53,51460.85,7904.47,8360.14,0.000000,0.000000,1.012624,84.68,1
9670,0,55174,59815,47286.34,51477.56,7887.66,8337.44,0.000000,0.000000,1.012714,84.68,1
9679,0,55170,59818,47302.11,51494.25,7867.89,8323.75,0.000000,0.000000,1.012800,84.68,1
9690,0,55174,59828,47317.85,51510.91,7856.14,8317.09,0.000000,0.000000,1.012880,84.68,1
9701,0,55181,59835,47333.58,51527.57,7847.41,8307.43,0.000000,0.000000,1.012961,84.68,1
9710,0,55183,59840,47349.29,51544.19,7833.71,8295.81,0.000000,0.000000,1.013039,84.67,1
9720,0,55184,59857,47364.96,51560.82,7819.04,8296.18,0.000000,0.000000,1.013106,84.67,1
9731,0,55185,59868,47380.60,51577.43,7804.40,8290.57,0.000000,0.000000,1.013167,84.67,1
9740,0,55195,59878,47396.23,51594.04,7798.77,8283.96,0.000000,0.000000,1.013227,84.67,1
9750,0,55191,59876,47411.82,51610.60,7779.18,8265.39,0.000000,0.000000,1.013286,84.67,1
9760,0,55194,59880,47427.38,51627.15,7766.62,8252.85,0.000000,0.000000,1.013343,84.67,1
9769,0,55198,59884,47442.92,51643.66,7755.08,8240.34,0.000000,0.000000,1.013401,84.66,1
9780,0,55199,59895,47458.43,51660.17,7740.57,8234.83,0.000000,0.000000,1.013451,84.66,1
9790,0,55191,59893,47473.90,51676.63,7717.10,8216.37,0.000000,0.000000,1.013496,84.66,1
9799,0,55205,59898,47489.37,51693.08,7715.63,8204.92,0.000000,0.000000,1.013549,84.66,1
9810,0,55204,59902,47504.80,51709.50,7699.20,8192.50,0.000000,0.000000,1.013597,84.66,1
9821,0,55205,59922,47520.20,51725.92,7684.80,8196.08,0.000000,0.000000,1.013632,84.66,1
9830,0,55212,59923,47535.58,51742.32,7676.41,8180.68,0.000000,0.000000,1.013671,84.66,1
9840,0,55212,59934,47550.94,51758.70,7661.06,8175.30,0.000000,0.000000,1.013703,84.66,1
9850,0,55216,59934,47566.27,51775.05,7649.73,8158.95,0.000000,0.000000,1.013737,84.66,1
9860,0,55218,59940,47581.58,51791.39,7636.42,8148.61,0.000000,0.000000,1.013768,84.66,1
9870,0,55219,59950,47596.85,51807.70,7622.14,8142.30,0.000000,0.000000,1.013793,84.66,1
9880,0,55217,59943,47612.10,51823.98,7604.90,8119.02,0.000000,0.000000,1.013821,84.65,1
9889,0,55217,59937,47627.31,51840.20,7589.69,8096.80,0.000000,0.000000,1.013853,84.65,1
9900,0,55222,59937,47642.50,51856.40,7579.50,8080.60,0.000000,0.000000,1.013889,84.65,1
9911,0,55220,59946,47657.66,51872.58,7562.34,8073.42,0.000000,0.000000,1.013916,84.65,1
9919,0,55223,59952,47672.79,51888.74,7550.21,8063.26,0.000000,0.000000,1.013942,84.65,1
9930,0,55222,59954,47687.89,51904.87,7534.11,8049.13,0.000000,0.000000,1.013965,84.65,1
9940,0,55222,59963,47702.96,51920.98,7519.04,8042.02,0.000000,0.000000,1.013981,84.65,1
9951,0,55226,59969,47718.01,51937.08,7507.99,8031.92,0.000000,0.000000,1.013996,84.65,1
9960,0,55229,59981,47733.03,51953.17,7495.97,8027.83,0.000000,0.000000,1.014005,84.65,1
9970,0,55230,59981,47748.03,51969.23,7481.97,8011.77,0.000000,0.000000,1.014015,84.65,1
9980,0,55230,59991,47762.99,51985.27,7467.01,8005.73,0.000000,0.000000,1.014017,84.65,1
9990,0,55239,59998,47777.94,52001.30,7461.05,7996.70,0.000000,0.000000,1.014021,84.65,1
10000,0,55245,60003,47792.88,52017.30,7452.12,7985.70,0.000000,0.000000,1.014026,84.65,1
10011,0,55254,60028,47807.80,52033.32,7446.20,7994.68,0.000000,0.000000,1.014020,84.65,1
10019,0,55252,60038,47822.69,52049.33,7429.31,7988.67,0.000000,0.000000,1.014005,84.65,1
10031,0,55254,60047,47837.55,52065.33,7416.45,7981.67,0.000000,0.000000,1.013985,84.65,1
10040,0,55266,60047,47852.41,52081.29,7413.59,7965.71,0.000000,0.000000,1.013975,84.65,1
10050,0,55267,60053,47867.24,52097.24,7399.76,7955.76,0.000000,0.000000,1.013960,84.65,1
10060,0,55272,60077,47882.05,52113.20,7389.95,7963.80,0.000000,0.000000,1.013933,84.65,1
10070,0,55272,60096,47896.83,52129.16,7375.17,7966.84,0.000000,0.000000,1.013891,84.65,1
10080,0,55276,60091,47911.59,52145.09,7364.41,7945.91,0.000000,0.000000,1.013857,84.65,1
10091,0,55283,60094,47926.33,52160.99,7356.66,7933.01,0.000000,0.000000,1.013826,84.65,1
10100,0,55286,60103,47941.05,52176.87,7344.95,7926.12,0.000000,0.000000,1.013790,84.66,1
10110,0,55290,60122,47955.75,52192.76,7334.25,7929.23,0.000000,0.000000,1.013744,84.66,1
10120,0,55288,60132,47970.41,52208.65,7317.59,7923.35,0.000000,0.000000,1.013689,84.66,1
10130,0,55293,60133,47985.06,52224.50,7307.94,7908.50,0.000000,0.000000,1.013638,84.66,1
10140,0,55302,60157,47999.69,52240.36,7302.30,7916.64,0.000000,0.000000,1.013576,84.66,1
10149,0,55309,60165,48014.31,52256.21,7294.69,7908.79,0.000000,0.000000,1.013514,84.66,1
10160,0,55317,60172,48028.92,52272.04,7288.08,7899.96,0.000000,0.000000,1.013454,84.66,1
10171,0,55310,60182,48043.48,52287.86,7266.52,7894.14,0.000000,0.000000,1.013380,84.67,1
10180,0,55317,60194,48058.03,52303.67,7258.97,7890.32,0.000000,0.000000,1.013304,84.67,1
10190,0,55318,60206,48072.55,52319.48,7245.45,7886.52,0.000000,0.000000,1.013219,84.67,1
10200,0,55341,60228,48087.09,52335.30,7253.91,7892.70,0.000000,0.000000,1.013137,84.67,1
10210,0,55337,60234,48101.60,52351.10,7235.40,7882.90,0.000000,0.000000,1.013048,84.67,1
10220,0,55339,60251,48116.07,52366.91,7222.93,7884.09,0.000000,0.000000,1.012947,84.68,1
10229,0,55339,60253,48130.52,52382.68,7208.48,7870.32,0.000000,0.000000,1.012846,84.68,1
10241,0,55342,60253,48144.94,52398.42,7197.05,7854.58,0.000000,0.000000,1.012747,84.68,1
10251,0,55340,60238,48159.33,52414.10,7180.66,7823.90,0.000000,0.000000,1.012660,84.68,1
10260,0,55333,60218,48173.68,52429.71,7159.32,7788.29,0.000000,0.000000,1.012583,84.69,1
10270,0,55324,60178,48187.98,52445.21,7136.02,7732.79,0.000000,0.000000,1.012530,84.69,1
10279,0,55300,60130,48202.21,52460.58,7097.79,7669.42,0.000000,0.000000,1.012495,84.69,1
10290,0,55282,60063,48216.37,52475.78,7065.63,7587.21,0.000000,0.000000,1.012498,84.69,1
10300,0,55265,60014,48230.47,52490.86,7034.53,7523.14,0.000000,0.000000,1.012523,84.69,1
10309,0,55236,59972,48244.48,52505.83,6991.52,7466.17,0.000000,0.000000,1.012557,84.69,1
10320,0,55210,59916,48258.42,52520.65,6951.58,7395.35,0.000000,0.000000,1.012612,84.68,1
10330,0,55194,59874,48272.29,52535.35,6921.71,7338.64,0.000000,0.000000,1.012686,84.68,1
10340,0,55177,59836,48286.10,52549.96,6890.90,7286.04,0.000000,0.000000,1.012773,84.68,1
10350,0,55162,59823,48299.85,52564.50,6862.14,7258.50,0.000000,0.000000,1.012858,84.68,1
10359,0,55155,59804,48313.57,52578.98,6841.43,7225.02,0.000000,0.000000,1.012951,84.68,1
10370,0,55151,59798,48327.24,52593.42,6823.76,7204.57,0.000000,0.000000,1.013044,84.67,1
10381,0,55146,59797,48340.88,52607.83,6805.12,7189.16,0.000000,0.000000,1.013134,84.67,1
10389,0,55146,59809,48354.50,52622.24,6791.50,7186.76,0.000000,0.000000,1.013213,84.67,1
10400,0,55150,59814,48368.09,52636.62,6781.91,7177.37,0.000000,0.000000,1.013292,84.67,1
10409,0,55163,59837,48381.68,52651.03,6781.32,7185.97,0.000000,0.000000,1.013364,84.67,1
10420,0,55161,59846,48395.24,52665.42,6765.76,7180.58,0.000000,0.000000,1.013427,84.66,1
10430,0,55160,59853,48408.77,52679.80,6751.23,7173.20,0.000000,0.000000,1.013483,84.66,1
10439,0,55170,59863,48422.29,52694.16,6747.71,7168.84,0.000000,0.000000,1.013539,84.66,1
10449,0,55175,59872,48435.80,52708.52,6739.20,7163.48,0.000000,0.000000,1.013592,84.66,1
10461,0,55180,59892,48449.29,52722.89,6730.71,7169.11,0.000000,0.000000,1.013633,84.66,1
10470,0,55191,59914,48462.77,52737.27,6728.23,7176.73,0.000000,0.000000,1.013667,84.66,1
10480,0,55197,59920,48476.24,52751.64,6720.76,7168.36,0.000000,0.000000,1.013700,84.66,1
10489,0,55199,59946,48489.69,52766.03,6709.31,7179.97,0.000000,0.000000,1.013714,84.66,1
10500,0,55221,59954,48503.15,52780.41,6717.85,7173.59,0.000000,0.000000,1.013741,84.66,1
10510,0,55216,59970,48516.58,52794.79,6699.42,7175.21,0.000000,0.000000,1.013750,84.66,1
10519,0,55221,59992,48529.99,52809.18,6691.01,7182.82,0.000000,0.000000,1.013746,84.66,1
10529,0,55225,59995,48543.38,52823.55,6681.62,7171.45,0.000000,0.000000,1.013742,84.66,1
10541,0,55231,60013,48556.76,52837.94,6674.24,7175.06,0.000000,0.000000,1.013730,84.66,1
10550,0,55242,60033,48570.13,52852.33,6671.87,7180.67,0.000000,0.000000,1.013711,84.66,1
10560,0,55248,60042,48583.48,52866.71,6664.52,7175.29,0.000000,0.000000,1.013689,84.66,1
10569,0,55241,60047,48596.80,52881.07,6644.20,7165.93,0.000000,0.000000,1.013658,84.66,1
10579,0,55244,60052,48610.10,52895.42,6633.90,7156.58,0.000000,0.000000,1.013625,84.66,1
10590,0,55257,60061,48623.39,52909.75,6633.61,7151.25,0.000000,0.000000,1.013597,84.66,1
10599,0,55265,60073,48636.68,52924.08,6628.32,7148.92,0.000000,0.000000,1.013566,84.66,1
10610,0,55268,60081,48649.94,52938.39,6618.06,7142.61,0.000000,0.000000,1.013531,84.66,1
10620,0,55264,60098,48663.17,52952.71,6600.83,7145.29,0.000000,0.000000,1.013478,84.66,1
10630,0,55278,60103,48676.40,52967.01,6601.60,7135.98,0.000000,0.000000,1.013434,84.66,1
10640,0,55285,60115,48689.62,52981.31,6595.38,7133.69,0.000000,0.000000,1.013387,84.67,1
10649,0,55284,60126,48702.81,52995.60,6581.19,7130.39,0.000000,0.000000,1.013330,84.67,1
10659,0,55284,60125,48715.97,53009.87,6568.03,7115.13,0.000000,0.000000,1.013274,84.67,1
10670,0,55294,60149,48729.13,53024.14,6564.87,7124.86,0.000000,0.000000,1.013206,84.67,1
10679,0,55299,60168,48742.27,53038.43,6556.73,7129.57,0.000000,0.000000,1.013128,84.67,1
10690,0,55312,60173,48755.41,53052.71,6556.59,7120.29,0.000000,0.000000,1.013058,84.67,1
10700,0,55309,60193,48768.52,53066.99,6540.48,7126.01,0.000000,0.000000,1.012968,84.68,1
10710,0,55323,60197,48781.63,53081.25,6541.37,7115.75,0.000000,0.000000,1.012888,84.68,1
10720,0,55320,60223,48794.71,53095.53,6525.29,7127.46,0.000000,0.000000,1.012783,84.68,1
10729,0,55333,60236,48807.78,53109.82,6525.22,7126.18,0.000000,0.000000,1.012680,84.68,1
10739,0,55343,60243,48820.85,53124.08,6522.14,7118.92,0.000000,0.000000,1.012580,84.69,1
10750,0,55348,60260,48833.91,53138.35,6514.09,7121.64,0.000000,0.000000,1.012471,84.69,1
10759,0,55351,60277,48846.94,53152.64,6504.05,7124.36,0.000000,0.000000,1.012351,84.69,1
10770,0,55350,60280,48859.95,53166.89,6490.05,7113.11,0.000000,0.000000,1.012227,84.69,1
10780,0,55351,60291,48872.94,53181.14,6478.06,7109.86,0.000000,0.000000,1.012096,84.70,1
10789,0,55362,60297,48885.91,53195.37,6476.09,7101.62,0.000000,0.000000,1.011971,84.70,1
10800,0,55366,60307,48898.87,53209.60,6467.12,7097.40,0.000000,0.000000,1.011841,84.70,1
10809,0,55374,60314,48911.82,53223.81,6462.18,7090.19,0.000000,0.000000,1.011714,84.71,1
10819,0,55368,60324,48924.73,53238.01,6443.27,7085.99,0.000000,0.000000,1.011573,84.71,1
10830,0,55376,60345,48937.64,53252.23,6438.36,7092.77,0.000000,0.000000,1.011421,84.71,1
10840,0,55392,60360,48950.55,53266.44,6441.45,7093.56,0.000000,0.000000,1.011272,84.72,1
10850,0,55391,60365,48963.43,53280.64,6427.57,7084.36,0.000000,0.000000,1.011119,84.72,1
10859,0,55393,60364,48976.29,53294.81,6416.71,7069.19,0.000000,0.000000,1.010970,84.73,1
10869,0,55392,60378,48989.12,53308.98,6402.87,7069.02,0.000000,0.000000,1.010808,84.73,1
10880,0,55396,60377,49001.94,53323.11,6394.06,7053.89,0.000000,0.000000,1.010652,84.73,1
10889,0,55399,60398,49014.73,53337.26,6384.27,7060.73,0.000000,0.000000,1.010481,84.74,1
10900,0,55404,60392,49027.51,53351.38,6376.48,7040.62,0.000000,0.000000,1.010321,84.74,1
10910,0,55410,60418,49040.28,53365.51,6369.72,7052.49,0.000000,0.000000,1.010144,84.75,1
10919,0,55412,60427,49053.03,53379.64,6358.97,7047.36,0.000000,0.000000,1.009963,84.75,1
10930,0,55421,60432,49065.76,53393.74,6355.23,7038.26,0.000000,0.000000,1.009786,84.76,1
10939,0,55422,60440,49078.48,53407.83,6343.52,7032.16,0.000000,0.000000,1.009605,84.76,1
10949,0,55431,60433,49091.19,53421.89,6339.81,7011.11,0.000000,0.000000,1.009440,84.76,1
10959,0,55418,60422,49103.84,53435.89,6314.16,6986.11,0.000000,0.000000,1.009274,84.77,1
10969,0,55406,60382,49116.45,53449.78,6289.55,6932.21,0.000000,0.000000,1.009135,84.77,1
10980,0,55390,60320,49129.00,53463.53,6261.00,6856.47,0.000000,0.000000,1.009037,84.77,1
10990,0,55357,60256,49141.46,53477.11,6215.54,6778.89,0.000000,0.000000,1.008967,84.78,1
10999,0,55334,60189,49153.84,53490.54,6180.16,6698.46,0.000000,0.000000,1.008935,84.78,1
11010,0,55307,60125,49166.15,53503.81,6140.85,6621.19,0.000000,0.000000,1.008935,84.78,1
11019,0,55279,60074,49178.38,53516.95,6100.62,6557.05,0.000000,0.000000,1.008953,84.78,1
11029,0,55267,60029,49190.56,53529.98,6076.44,6499.02,0.000000,0.000000,1.008999,84.78,1
11040,0,55244,60014,49202.67,53542.94,6041.33,6471.05,0.000000,0.000000,1.009037,84.77,1
11048,0,55241,59999,49214.75,53555.85,6026.25,6443.14,0.000000,0.000000,1.009084,84.77,1
11060,0,55238,59992,49226.79,53568.73,6011.21,6423.27,0.000000,0.000000,1.009134,84.77,1
11070,0,55236,59986,49238.81,53581.57,5997.19,6404.43,0.000000,0.000000,1.009188,84.77,1
11079,0,55232,59979,49250.80,53594.36,5981.20,6384.64,0.000000,0.000000,1.009243,84.77,1
11089,0,55232,59986,49262.76,53607.15,5969.23,6378.85,0.000000,0.000000,1.009292,84.77,1
11099,0,55232,59993,49274.71,53619.92,5957.29,6373.08,0.000000,0.000000,1.009334,84.77,1
11109,0,55233,59988,49286.62,53632.66,5946.37,6355.34,0.000000,0.000000,1.009382,84.77,1
11120,0,55233,60003,49298.52,53645.40,5934.48,6357.60,0.000000,0.000000,1.009416,84.76,1
11129,0,55239,60025,49310.40,53658.16,5928.60,6366.84,0.000000,0.000000,1.009436,84.76,1
11140,0,55249,60012,49322.27,53670.87,5926.73,6341.13,0.000000,0.000000,1.009477,84.76,1
11150,0,55246,60028,49334.12,53683.58,5911.88,6344.42,0.000000,0.000000,1.009500,84.76,1
11159,0,55255,60042,49345.96,53696.30,5909.04,6345.70,0.000000,0.000000,1.009520,84.76,1
11169,0,55249,60041,49357.77,53708.99,5891.23,6332.01,0.000000,0.000000,1.009534,84.76,1
11179,0,55250,60050,49369.55,53721.67,5880.45,6328.32,0.000000,0.000000,1.009541,84.76,1
11189,0,55256,60057,49381.33,53734.35,5874.67,6322.65,0.000000,0.000000,1.009547,84.76,1
11200,0,55263,60073,49393.09,53747.02,5869.91,6325.98,0.000000,0.000000,1.009546,84.76,1
11209,0,55268,60096,49404.84,53759.72,5863.16,6336.28,0.000000,0.000000,1.009528,84.76,1
11219,0,55271,60097,49416.58,53772.40,5854.42,6324.60,0.000000,0.000000,1.009513,84.76,1
11229,0,55280,60103,49428.30,53785.06,5851.70,6317.94,0.000000,0.000000,1.009501,84.76,1
11239,0,55278,60106,49440.00,53797.70,5838.00,6308.30,0.000000,0.000000,1.009484,84.76,1
11249,0,55288,60117,49451.70,53810.34,5836.30,6306.66,0.000000,0.000000,1.009467,84.76,1
11258,0,55287,60135,49463.37,53822.99,5823.63,6312.01,0.000000,0.000000,1.009432,84.76,1
11270,0,55296,60137,49475.04,53835.62,5820.96,6301.38,0.000000,0.000000,1.009405,84.76,1
11280,0,55303,60135,49486.69,53848.22,5816.30,6286.78,0.000000,0.000000,1.009387,84.77,1
11289,0,55297,60142,49498.32,53860.81,5798.68,6281.19,0.000000,0.000000,1.009356,84.77,1
11299,0,55304,60149,49509.93,53873.39,5794.07,6275.61,0.000000,0.000000,1.009326,84.77,1
11309,0,55306,60156,49521.52,53885.96,5784.48,6270.04,0.000000,0.000000,1.009291,84.77,1
11319,0,55307,60165,49533.09,53898.51,5773.91,6266.48,0.000000,0.000000,1.009250,84.77,1
11329,0,55314,60177,49544.66,53911.07,5769.34,6265.93,0.000000,0.000000,1.009204,84.77,1
11338,0,55314,60197,49556.19,53923.65,5757.80,6273.35,0.000000,0.000000,1.009139,84.77,1
11350,0,55331,60196,49567.75,53936.19,5763.25,6259.81,0.000000,0.000000,1.009093,84.77,1
11360,0,55330,60206,49579.27,53948.73,5750.73,6257.27,0.000000,0.000000,1.009036,84.77,1
11369,0,55329,60205,49590.77,53961.25,5738.23,6243.75,0.000000,0.000000,1.008980,84.78,1
11379,0,55330,60195,49602.25,53973.71,5727.75,6221.29,0.000000,0.000000,1.008935,84.78,1
11388,0,55327,60205,49613.70,53986.18,5713.30,6218.82,0.000000,0.000000,1.008877,84.78,1
11399,0,55327,60209,49625.13,53998.62,5701.87,6210.37,0.000000,0.000000,1.008816,84.78,1
11410,0,55334,60231,49636.55,54011.09,5697.45,6219.91,0.000000,0.000000,1.008741,84.78,1
11418,0,55344,60250,49647.96,54023.57,5696.04,6226.43,0.000000,0.000000,1.008658,84.78,1
11429,0,55345,60254,49659.36,54036.03,5685.64,6217.97,0.000000,0.000000,1.008573,84.79,1
11440,0,55353,60274,49670.75,54048.51,5682.25,6225.49,0.000000,0.000000,1.008477,84.79,1
11449,0,55364,60299,49682.14,54061.01,5681.86,6237.99,0.000000,0.000000,1.008368,84.79,1
11459,0,55370,60314,49693.51,54073.52,5676.49,6240.48,0.000000,0.000000,1.008252,84.79,1
11468,0,55376,60334,49704.88,54086.04,5671.12,6247.96,0.000000,0.000000,1.008122,84.80,1
11479,0,55377,60341,49716.22,54098.55,5660.78,6242.45,0.000000,0.000000,1.007987,84.80,1
11490,0,55397,60364,49727.58,54111.08,5669.41,6252.91,0.000000,0.000000,1.007851,84.80,1
11499,0,55406,60387,49738.94,54123.64,5667.05,6263.36,0.000000,0.000000,1.007703,84.81,1
11509,0,55411,60397,49750.29,54136.18,5660.71,6260.82,0.000000,0.000000,1.007550,84.81,1
11520,0,55420,60425,49761.63,54148.76,5658.37,6276.23,0.000000,0.000000,1.007380,84.82,1
11529,0,55424,60429,49772.95,54161.33,5651.05,6267.67,0.000000,0.000000,1.007211,84.82,1
11539,0,55435,60443,49784.28,54173.89,5650.72,6269.11,0.000000,0.000000,1.007041,84.82,1
11548,0,55436,60455,49795.58,54186.46,5640.41,6268.54,0.000000,0.000000,1.006860,84.83,1
11559,0,55442,60458,49806.88,54199.00,5635.12,6259.00,0.000000,0.000000,1.006685,84.83,1
11570,0,55441,60473,49818.15,54211.55,5622.85,6261.45,0.000000,0.000000,1.006494,84.84,1
11579,0,55446,60490,49829.40,54224.10,5616.60,6265.89,0.000000,0.000000,1.006291,84.84,1
11589,0,55457,60500,49840.66,54236.66,5616.34,6263.34,0.000000,0.000000,1.006093,84.85,1
11598,0,55462,60517,49851.91,54249.22,5610.09,6267.78,0.000000,0.000000,1.005883,84.85,1
11609,0,55470,60533,49863.14,54261.79,5606.86,6271.21,0.000000,0.000000,1.005666,84.86,1
11619,0,55479,60563,49874.37,54274.39,5604.62,6288.61,0.000000,0.000000,1.005430,84.86,1
11628,0,55484,60574,49885.60,54287.00,5598.40,6287.00,0.000000,0.000000,1.005189,84.87,1
11639,0,55490,60580,49896.81,54299.58,5593.19,6280.42,0.000000,0.000000,1.004950,84.88,1
11650,0,55504,60607,49908.02,54312.20,5595.98,6294.80,0.000000,0.000000,1.004699,84.88,1
11659,0,55516,60631,49919.24,54324.84,5596.76,6306.16,0.000000,0.000000,1.004438,84.89,1
11669,0,55511,60631,49930.42,54337.45,5580.57,6293.55,0.000000,0.000000,1.004174,84.90,1
11679,0,55518,60627,49941.60,54350.03,5576.40,6276.96,0.000000,0.000000,1.003924,84.90,1
11688,0,55517,60599,49952.75,54362.53,5564.25,6236.46,0.000000,0.000000,1.003705,84.91,1
11699,0,55499,60558,49963.85,54374.93,5535.15,6183.07,0.000000,0.000000,1.003512,84.91,1
11708,0,55475,60499,49974.87,54387.17,5500.13,6111.82,0.000000,0.000000,1.003356,84.92,1
11719,0,55438,60416,49985.80,54399.23,5452.20,6016.77,0.000000,0.000000,1.003247,84.92,1
11729,0,55419,60347,49996.67,54411.13,5422.33,5935.87,0.000000,0.000000,1.003191,84.92,1
11739,0,55383,60288,50007.44,54422.89,5375.56,5865.11,0.000000,0.000000,1.003155,84.92,1
11749,0,55364,60230,50018.16,54434.50,5345.84,5795.50,0.000000,0.000000,1.003159,84.92,1
11759,0,55344,60198,50028.81,54446.03,5315.19,5751.97,0.000000,0.000000,1.003173,84.92,1
11768,0,55318,60157,50039.39,54457.45,5278.61,5699.55,0.000000,0.000000,1.003200,84.92,1
11780,0,55317,60142,50049.94,54468.82,5267.05,5673.18,0.000000,0.000000,1.003240,84.92,1
11788,0,55309,60126,50060.46,54480.14,5248.54,5645.86,0.000000,0.000000,1.003288,84.92,1
11799,0,55307,60113,50070.96,54491.41,5236.04,5621.59,0.000000,0.000000,1.003347,84.92,1
11809,0,55309,60125,50081.43,54502.68,5227.57,5622.32,0.000000,0.000000,1.003395,84.92,1
11819,0,55298,60126,50091.87,54513.93,5206.13,5612.07,0.000000,0.000000,1.003430,84.91,1
11829,0,55309,60124,50102.30,54525.15,5206.70,5598.85,0.000000,0.000000,1.003479,84.91,1
11838,0,55305,60127,50112.71,54536.35,5192.29,5590.65,0.000000,0.000000,1.003520,84.91,1
11848,0,55304,60135,50123.10,54547.55,5180.90,5587.45,0.000000,0.000000,1.003551,84.91,1
11859,0,55305,60143,50133.46,54558.74,5171.54,5584.26,0.000000,0.000000,1.003575,84.91,1
11869,0,55298,60139,50143.79,54569.90,5154.21,5569.10,0.000000,0.000000,1.003595,84.91,1
11879,0,55306,60135,50154.12,54581.03,5151.88,5553.96,0.000000,0.000000,1.003628,84.91,1
11889,0,55310,60138,50164.43,54592.15,5145.57,5545.85,0.000000,0.000000,1.003662,84.91,1
11898,0,55315,60154,50174.73,54603.28,5140.27,5550.72,0.000000,0.000000,1.003686,84.91,1
11909,0,55316,60168,50185.02,54614.41,5130.98,5553.59,0.000000,0.000000,1.003695,84.91,1
11918,0,55320,60181,50195.29,54625.54,5124.71,5555.46,0.000000,0.000000,1.003695,84.91,1
11928,0,55330,60185,50205.56,54636.66,5124.44,5548.34,0.000000,0.000000,1.003703,84.91,1
11939,0,55329,60200,50215.81,54647.79,5113.19,5552.21,0.000000,0.000000,1.003694,84.91,1
11949,0,55340,60218,50226.06,54658.93,5113.94,5559.07,0.000000,0.000000,1.003678,84.91,1
11959,0,55348,60235,50236.30,54670.08,5111.70,5564.91,0.000000,0.000000,1.003653,84.91,1
11969,0,55353,60249,50246.54,54681.24,5106.46,5567.76,0.000000,0.000000,1.003619,84.91,1
11978,0,55353,60261,50256.75,54692.41,5096.25,5568.59,0.000000,0.000000,1.003572,84.91,1
11988,0,55363,60271,50266.97,54703.57,5096.03,5567.43,0.000000,0.000000,1.003527,84.91,1
12000,0,55367,60277,50277.17,54714.71,5089.83,5562.29,0.000000,0.000000,1.003479,84.91,1
12009,0,55374,60287,50287.36,54725.86,5086.64,5561.14,0.000000,0.000000,1.003430,84.91,1
12019,0,55379,60299,50297.55,54737.01,5081.45,5561.99,0.000000,0.000000,1.003374,84.92,1
12028,0,55379,60309,50307.71,54748.15,5071.29,5560.85,0.000000,0.000000,1.003306,84.92,1
12039,0,55385,60312,50317.87,54759.28,5067.13,5552.72,0.000000,0.000000,1.003244,84.92,1
12049,0,55397,60321,50328.03,54770.41,5068.97,5550.59,0.000000,0.000000,1.003186,84.92,1
12058,0,55383,60324,50338.14,54781.51,5044.86,5542.48,0.000000,0.000000,1.003108,84.92,1
12068,0,55387,60315,50348.23,54792.58,5038.77,5522.42,0.000000,0.000000,1.003045,84.92,1
12080,0,55389,60317,50358.32,54803.63,5030.68,5513.37,0.000000,0.000000,1.002984,84.93,1
12089,0,55397,60333,50368.39,54814.69,5028.61,5518.31,0.000000,0.000000,1.002914,84.93,1
12099,0,55396,60342,50378.45,54825.75,5017.55,5516.25,0.000000,0.000000,1.002833,84.93,1
12108,0,55402,60355,50388.50,54836.81,5013.50,5518.19,0.000000,0.000000,1.002746,84.93,1
12119,0,55401,60355,50398.53,54847.85,5002.47,5507.15,0.000000,0.000000,1.002658,84.93,1
12129,0,55411,60369,50408.55,54858.89,5002.45,5510.11,0.000000,0.000000,1.002567,84.94,1
12138,0,55421,60379,50418.58,54869.93,5002.42,5509.07,0.000000,0.000000,1.002477,84.94,1
12148,0,55423,60390,50428.59,54880.98,4994.41,5509.02,0.000000,0.000000,1.002378,84.94,1
12160,0,55425,60406,50438.58,54892.03,4986.41,5513.97,0.000000,0.000000,1.002264,84.94,1
12169,0,55422,60405,50448.55,54903.05,4973.45,5501.95,0.000000,0.000000,1.002148,84.95,1
12179,0,55431,60410,50458.52,54914.07,4972.48,5495.93,0.000000,0.000000,1.002038,84.95,1
12188,0,55436,60418,50468.48,54925.08,4967.52,5492.92,0.000000,0.000000,1.001925,84.95,1
12198,0,55429,60427,50478.40,54936.08,4950.60,5490.91,0.000000,0.000000,1.001795,84.96,1
12209,0,55446,60439,50488.33,54947.09,4957.66,5491.91,0.000000,0.000000,1.001672,84.96,1
12218,0,55446,60464,50498.25,54958.13,4947.75,5505.87,0.000000,0.000000,1.001522,84.96,1
12229,0,55451,60488,50508.16,54969.19,4942.84,5518.81,0.000000,0.000000,1.001350,84.97,1
12239,0,55463,60502,50518.07,54980.26,4944.93,5521.74,0.000000,0.000000,1.001178,84.97,1
12249,0,55473,60533,50527.98,54991.36,4945.02,5541.64,0.000000,0.000000,1.000983,84.98,1
12259,0,55476,60551,50537.87,55002.48,4938.12,5548.52,0.000000,0.000000,1.000773,84.98,1
12268,0,55482,60579,50547.76,55013.64,4934.23,5565.36,0.000000,0.000000,1.000537,84.99,1
12278,0,55492,60579,50557.66,55024.76,4934.34,5554.23,0.000000,0.000000,1.000316,84.99,1
12289,0,55502,60591,50567.55,55035.90,4934.45,5555.10,0.000000,0.000000,1.000095,85.00,1
12298,0,55509,60615,50577.43,55047.06,4931.57,5567.94,0.000000,0.000000,0.999856,85.00,1
12309,0,55506,60614,50587.29,55058.19,4918.71,5555.80,0.000000,0.000000,0.999615,85.01,1
12319,0,55511,60624,50597.14,55069.33,4913.86,5554.67,0.000000,0.000000,0.999371,85.02,1
12328,0,55520,60642,50606.99,55080.48,4913.01,5561.52,0.000000,0.000000,0.999118,85.02,1
12339,0,55525,60639,50616.83,55091.59,4908.17,5547.41,0.000000,0.000000,0.998878,85.03,1
12348,0,55524,60661,50626.65,55102.73,4897.35,5558.27,0.000000,0.000000,0.998611,85.03,1
12358,0,55529,60661,50636.45,55113.85,4892.55,5547.15,0.000000,0.000000,0.998352,85.04,1
12368,0,55535,60686,50646.25,55124.99,4888.75,5561.01,0.000000,0.000000,0.998073,85.05,1
12378,0,55545,60707,50656.05,55136.16,4888.95,5570.84,0.000000,0.000000,0.997783,85.06,1
12389,0,55549,60726,50665.83,55147.34,4883.17,5578.66,0.000000,0.000000,0.997477,85.06,1
12399,0,55562,60764,50675.62,55158.57,4886.37,5605.43,0.000000,0.000000,0.997142,85.07,1
12408,0,55567,60776,50685.41,55169.81,4881.59,5606.19,0.000000,0.000000,0.996802,85.08,1
12419,0,55577,60796,50695.19,55181.06,4881.81,5614.94,0.000000,0.000000,0.996453,85.09,1
12428,0,55584,60798,50704.96,55192.30,4879.04,5605.70,0.000000,0.000000,0.996113,85.10,1
12438,0,55581,60781,50714.71,55203.48,4866.29,5577.52,0.000000,0.000000,0.995794,85.11,1
12449,0,55576,60763,50724.44,55214.60,4851.56,5548.40,0.000000,0.000000,0.995493,85.11,1
12457,0,55560,60723,50734.11,55225.62,4825.89,5497.38,0.000000,0.000000,0.995224,85.12,1
12469,0,55525,60635,50743.69,55236.44,4781.31,5398.56,0.000000,0.000000,0.995020,85.12,1
12479,0,55511,60575,50753.23,55247.11,4757.77,5327.89,0.000000,0.000000,0.994873,85.13,1
12488,0,55478,60515,50762.68,55257.65,4715.32,5257.35,0.000000,0.000000,0.994757,85.13,1
12498,0,55451,60460,50772.06,55268.06,4678.94,5191.94,0.000000,0.000000,0.994672,85.13,1
12508,0,55431,60409,50781.38,55278.34,4649.62,5130.66,0.000000,0.000000,0.994624,85.13,1
12518,0,55413,60370,50790.64,55288.52,4622.36,5081.48,0.000000,0.000000,0.994598,85.14,1
12529,0,55399,60345,50799.86,55298.64,4599.14,5046.36,0.000000,0.000000,0.994584,85.14,1
12538,0,55392,60332,50809.05,55308.71,4582.95,5023.29,0.000000,0.000000,0.994577,85.14,1
12549,0,55386,60323,50818.21,55318.73,4567.79,5004.27,0.000000,0.000000,0.994572,85.14,1
12559,0,55382,60316,50827.33,55328.73,4554.66,4987.27,0.000000,0.000000,0.994570,85.14,1
12568,0,55377,60320,50836.44,55338.71,4540.56,4981.29,0.000000,0.000000,0.994557,85.14,1
12578,0,55378,60320,50845.52,55348.68,4532.48,4971.32,0.000000,0.000000,0.994546,85.14,1
12588,0,55377,60317,50854.58,55358.62,4522.41,4958.38,0.000000,0.000000,0.994537,85.14,1
12598,0,55370,60306,50863.62,55368.51,4506.38,4937.48,0.000000,0.000000,0.994532,85.14,1
12609,0,55375,60303,50872.64,55378.39,4502.36,4924.61,0.000000,0.000000,0.994537,85.14,1
12618,0,55368,60311,50881.63,55388.25,4486.37,4922.75,0.000000,0.000000,0.994524,85.14,1
12628,0,55375,60305,50890.62,55398.09,4484.38,4906.91,0.000000,0.000000,0.994527,85.14,1
12639,0,55378,60307,50899.60,55407.91,4478.40,4899.09,0.000000,0.000000,0.994531,85.14,1
12648,0,55371,60326,50908.54,55417.75,4462.46,4908.25,0.000000,0.000000,0.994503,85.14,1
12658,0,55382,60324,50917.49,55427.56,4464.51,4896.44,0.000000,0.000000,0.994493,85.14,1
12667,0,55377,60341,50926.41,55437.39,4450.59,4903.61,0.000000,0.000000,0.994455,85.14,1
12678,0,55381,60335,50935.32,55447.19,4445.68,4887.81,0.000000,0.000000,0.994431,85.14,1
12689,0,55392,60362,50944.24,55457.01,4447.76,4904.98,0.000000,0.000000,0.994388,85.14,1
12698,0,55400,60381,50953.15,55466.86,4446.85,4914.14,0.000000,0.000000,0.994333,85.14,1
12708,0,55401,60387,50962.05,55476.70,4438.95,4910.30,0.000000,0.000000,0.994272,85.14,1
12719,0,55404,60401,50970.93,55486.55,4433.07,4914.45,0.000000,0.000000,0.994198,85.15,1
12728,0,55415,60427,50979.82,55496.43,4435.18,4930.57,0.000000,0.000000,0.994108,85.15,1
12738,0,55430,60444,50988.72,55506.33,4441.28,4937.67,0.000000,0.000000,0.994017,85.15,1
12747,0,55436,60469,50997.62,55516.25,4438.38,4952.75,0.000000,0.000000,0.993903,85.15,1
12759,0,55439,60491,51006.50,55526.20,4432.50,4964.80,0.000000,0.000000,0.993767,85.16,1
12769,0,55453,60510,51015.40,55536.17,4437.60,4973.83,0.000000,0.000000,0.993626,85.16,1
12778,0,55461,60521,51024.29,55546.14,4436.71,4974.86,0.000000,0.000000,0.993484,85.16,1
12788,0,55466,60538,51033.17,55556.13,4432.82,4981.87,0.000000,0.000000,0.993327,85.17,1
12798,0,55480,60563,51042.07,55566.14,4437.93,4996.86,0.000000,0.000000,0.993159,85.17,1
12808,0,55484,60593,51050.96,55576.20,4433.04,5016.80,0.000000,0.000000,0.992959,85.18,1
12818,0,55494,60617,51059.84,55586.28,4434.16,5030.71,0.000000,0.000000,0.992743,85.18,1
12827,0,55511,60632,51068.75,55596.38,4442.25,5035.62,0.000000,0.000000,0.992532,85.19,1
12838,0,55522,60656,51077.66,55606.50,4444.34,5049.50,0.000000,0.000000,0.992307,85.19,1
12849,0,55529,60690,51086.56,55616.67,4442.44,5073.33,0.000000,0.000000,0.992048,85.20,1
12858,0,55540,60713,51095.47,55626.86,4444.53,5086.14,0.000000,0.000000,0.991776,85.21,1
12868,0,55547,60718,51104.37,55637.05,4442.63,5080.95,0.000000,0.000000,0.991510,85.21,1
12878,0,55551,60741,51113.26,55647.25,4437.73,5093.75,0.000000,0.000000,0.991220,85.22,1
12888,0,55568,60756,51122.17,55657.47,4445.82,5098.53,0.000000,0.000000,0.990936,85.23,1
12898,0,55571,60767,51131.07,55667.69,4439.93,5099.30,0.000000,0.000000,0.990645,85.23,1
12907,0,55572,60782,51139.96,55677.92,4432.04,5104.07,0.000000,0.000000,0.990336,85.24,1
12918,0,55578,60787,51148.83,55688.14,4429.16,5098.86,0.000000,0.000000,0.990032,85.25,1
12929,0,55585,60811,51157.71,55698.39,4427.29,5112.61,0.000000,0.000000,0.989708,85.26,1
12938,0,55600,60838,51166.60,55708.67,4433.40,5129.33,0.000000,0.000000,0.989371,85.27,1
12948,0,55609,60848,51175.48,55718.95,4433.52,5129.05,0.000000,0.000000,0.989036,85.27,1
12958,0,55611,60873,51184.35,55729.26,4426.64,5143.74,0.000000,0.000000,0.988672,85.28,1
12967,0,55616,60897,51193.22,55739.60,4422.78,5157.40,0.000000,0.000000,0.988286,85.29,1
12979,0,55625,60904,51202.08,55749.93,4422.92,5154.07,0.000000,0.000000,0.987906,85.30,1
12987,0,55636,60916,51210.95,55760.26,4425.05,5155.74,0.000000,0.000000,0.987528,85.31,1
12998,0,55637,60930,51219.80,55770.60,4417.20,5159.40,0.000000,0.000000,0.987135,85.32,1
13008,0,55636,60944,51228.64,55780.95,4407.36,5163.05,0.000000,0.000000,0.986725,85.33,1
13018,0,55641,60962,51237.46,55791.32,4403.54,5170.68,0.000000,0.000000,0.986301,85.34,1
13028,0,55657,60964,51246.30,55801.66,4410.70,5162.34,0.000000,0.000000,0.985901,85.35,1
13038,0,55663,60986,51255.14,55812.03,4407.86,5173.96,0.000000,0.000000,0.985482,85.36,1
13047,0,55668,61005,51263.96,55822.42,4404.04,5182.57,0.000000,0.000000,0.985047,85.37,1
13059,0,55674,61018,51272.78,55832.82,4401.21,5185.18,0.000000,0.000000,0.984607,85.38,1
13068,0,55678,61036,51281.60,55843.22,4396.40,5192.78,0.000000,0.000000,0.984151,85.40,1
13078,0,55679,61031,51290.39,55853.60,4388.61,5177.40,0.000000,0.000000,0.983708,85.41,1
13088,0,55688,61051,51299.19,55864.00,4388.81,5187.00,0.000000,0.000000,0.983253,85.42,1
13097,0,55693,61078,51307.98,55874.42,4385.02,5203.57,0.000000,0.000000,0.982771,85.43,1
13108,0,55698,61087,51316.76,55884.85,4381.24,5202.14,0.000000,0.000000,0.982288,85.44,1
13118,0,55711,61105,51325.55,55895.30,4385.45,5209.70,0.000000,0.000000,0.981803,85.45,1
13127,0,55710,61131,51334.32,55905.77,4375.68,5225.23,0.000000,0.000000,0.981284,85.47,1
13138,0,55727,61147,51343.11,55916.25,4383.89,5230.75,0.000000,0.000000,0.980772,85.48,1
13148,0,55737,61179,51351.90,55926.78,4385.10,5252.22,0.000000,0.000000,0.980232,85.49,1
13158,0,55733,61190,51360.66,55937.31,4372.34,5252.69,0.000000,0.000000,0.979676,85.51,1
13168,0,55746,61218,51369.43,55947.87,4376.57,5270.13,0.000000,0.000000,0.979104,85.52,1
13177,0,55762,61234,51378.22,55958.44,4383.78,5275.55,0.000000,0.000000,0.978538,85.54,1
13188,0,55767,61254,51387.00,55969.04,4380.00,5284.96,0.000000,0.000000,0.977955,85.55,1
13199,0,55767,61277,51395.76,55979.66,4371.24,5297.34,0.000000,0.000000,0.977344,85.57,1
13207,0,55774,61275,51404.52,55990.25,4369.48,5284.75,0.000000,0.000000,0.976754,85.58,1
13218,0,55778,61269,51413.26,56000.81,4364.73,5268.19,0.000000,0.000000,0.976184,85.60,1
13228,0,55773,61249,51421.99,56011.30,4351.01,5237.70,0.000000,0.000000,0.975641,85.61,1
13238,0,55764,61209,51430.67,56021.70,4333.33,5187.30,0.000000,0.000000,0.975150,85.62,1
13248,0,55746,61159,51439.30,56031.98,4306.70,5127.02,0.000000,0.000000,0.974708,85.63,1
13257,0,55726,61097,51447.88,56042.11,4278.12,5054.89,0.000000,0.000000,0.974330,85.64,1
13267,0,55696,61032,51456.37,56052.09,4239.62,4979.91,0.000000,0.000000,0.974002,85.65,1
13279,0,55674,60967,51464.81,56061.92,4209.19,4905.08,0.000000,0.000000,0.973735,85.66,1
13288,0,55652,60928,51473.19,56071.66,4178.81,4856.34,0.000000,0.000000,0.973492,85.66,1
13298,0,55640,60877,51481.52,56081.27,4158.48,4795.73,0.000000,0.000000,0.973303,85.67,1
13307,0,55609,60850,51489.78,56090.81,4119.22,4759.19,0.000000,0.000000,0.973107,85.67,1
13318,0,55602,60822,51498.01,56100.27,4103.99,4721.73,0.000000,0.000000,0.972940,85.68,1
13328,0,55599,60811,51506.21,56109.69,4092.79,4701.30,0.000000,0.000000,0.972785,85.68,1
13337,0,55596,60808,51514.39,56119.09,4081.61,4688.91,0.000000,0.000000,0.972630,85.68,1
13347,0,55590,60792,51522.54,56128.44,4067.46,4663.56,0.000000,0.000000,0.972490,85.69,1
13359,0,55583,60786,51530.66,56137.76,4052.34,4648.24,0.000000,0.000000,0.972348,85.69,1
13368,0,55579,60771,51538.76,56147.03,4040.24,4623.97,0.000000,0.000000,0.972222,85.69,1
13378,0,55571,60763,51546.82,56156.26,4024.18,4606.74,0.000000,0.000000,0.972096,85.70,1
13387,0,55572,60752,51554.87,56165.45,4017.12,4586.55,0.000000,0.000000,0.971987,85.70,1
13398,0,55563,60747,51562.89,56174.62,4000.11,4572.38,0.000000,0.000000,0.971872,85.70,1
13408,0,55558,60749,51570.88,56183.76,3987.12,4565.23,0.000000,0.000000,0.971748,85.71,1
13417,0,55559,60741,51578.86,56192.88,3980.14,4548.12,0.000000,0.000000,0.971637,85.71,1
13428,0,55556,60726,51586.82,56201.95,3969.18,4524.05,0.000000,0.000000,0.971542,85.71,1
13438,0,55560,60730,51594.76,56211.01,3965.23,4518.99,0.000000,0.000000,0.971449,85.71,1
13448,0,55553,60720,51602.68,56220.03,3950.32,4499.97,0.000000,0.000000,0.971360,85.72,1
13458,0,55547,60733,51610.57,56229.05,3936.43,4503.95,0.000000,0.000000,0.971245,85.72,1
13467,0,55552,60730,51618.46,56238.06,3933.54,4491.94,0.000000,0.000000,0.971142,85.72,1
13477,0,55552,60723,51626.33,56247.03,3925.67,4475.97,0.000000,0.000000,0.971049,85.72,1
13488,0,55552,60716,51634.19,56255.97,3917.81,4460.03,0.000000,0.000000,0.970966,85.73,1
13497,0,55549,60712,51642.02,56264.88,3906.98,4447.12,0.000000,0.000000,0.970885,85.73,1
13508,0,55547,60688,51649.83,56273.73,3897.17,4414.27,0.000000,0.000000,0.970834,85.73,1
13518,0,55535,60680,51657.60,56282.54,3877.39,4397.46,0.000000,0.000000,0.970776,85.73,1
13528,0,55540,60667,51665.37,56291.32,3874.63,4375.68,0.000000,0.000000,0.970744,85.73,1
13538,0,55534,60658,51673.11,56300.05,3860.89,4357.95,0.000000,0.000000,0.970715,85.73,1
13547,0,55530,60652,51680.82,56308.76,3849.18,4343.24,0.000000,0.000000,0.970689,85.73,1
13557,0,55512,60635,51688.49,56317.41,3823.51,4317.59,0.000000,0.000000,0.970658,85.73,1
13569,0,55514,60633,51696.14,56326.04,3817.86,4306.96,0.000000,0.000000,0.970633,85.73,1
13577,0,55508,60633,51703.76,56334.66,3804.23,4298.34,0.000000,0.000000,0.970600,85.73,1
13588,0,55511,60637,51711.38,56343.26,3799.62,4293.74,0.000000,0.000000,0.970566,85.74,1
13597,0,55507,60623,51718.98,56351.82,3788.02,4271.18,0.000000,0.000000,0.970544,85.74,1
13607,0,55509,60614,51726.56,56360.35,3782.44,4253.65,0.000000,0.000000,0.970539,85.74,1
13618,0,55499,60607,51734.10,56368.84,3764.90,4238.16,0.000000,0.000000,0.970528,85.74,1
13627,0,55503,60600,51741.64,56377.31,3761.36,4222.69,0.000000,0.000000,0.970532,85.74,1
13637,0,55503,60605,51749.17,56385.76,3753.83,4219.23,0.000000,0.000000,0.970530,85.74,1
13648,0,55499,60616,51756.67,56394.23,3742.33,4221.77,0.000000,0.000000,0.970506,85.74,1
13658,0,55502,60628,51764.16,56402.70,3737.84,4225.30,0.000000,0.000000,0.970471,85.74,1
13668,0,55503,60637,51771.64,56411.17,3731.36,4225.83,0.000000,0.000000,0.970425,85.74,1
13677,0,55513,60652,51779.12,56419.65,3733.87,4232.35,0.000000,0.000000,0.970374,85.74,1
13687,0,55518,60650,51786.60,56428.12,3731.40,4221.88,0.000000,0.000000,0.970334,85.74,1
13698,0,55509,60667,51794.05,56436.60,3714.95,4230.40,0.000000,0.000000,0.970256,85.74,1
13707,0,55516,60667,51801.50,56445.06,3714.50,4221.94,0.000000,0.000000,0.970191,85.75,1
13717,0,55511,60654,51808.92,56453.48,3702.08,4200.52,0.000000,0.000000,0.970135,85.75,1
13728,0,55513,60669,51816.33,56461.92,3696.67,4207.08,0.000000,0.000000,0.970063,85.75,1
13737,0,55518,60676,51823.73,56470.35,3694.27,4205.65,0.000000,0.000000,0.969989,85.75,1
13748,0,55528,60698,51831.14,56478.80,3696.86,4219.20,0.000000,0.000000,0.969899,85.75,1
13757,0,55518,60719,51838.51,56487.28,3679.48,4231.71,0.000000,0.000000,0.969765,85.76,1
13767,0,55539,60741,51845.92,56495.79,3693.08,4245.21,0.000000,0.000000,0.969633,85.76,1
13777,0,55552,60769,51853.33,56504.34,3698.67,4264.66,0.000000,0.000000,0.969482,85.76,1
13787,0,55557,60786,51860.74,56512.91,3696.26,4273.09,0.000000,0.000000,0.969316,85.77,1
13798,0,55569,60803,51868.16,56521.49,3700.84,4281.51,0.000000,0.000000,0.969145,85.77,1
13808,0,55576,60825,51875.57,56530.09,3700.43,4294.91,0.000000,0.000000,0.968954,85.78,1
13817,0,55584,60827,51882.99,56538.69,3701.01,4288.31,0.000000,0.000000,0.968774,85.78,1
13828,0,55586,60840,51890.40,56547.29,3695.60,4292.71,0.000000,0.000000,0.968580,85.79,1
13837,0,55591,60858,51897.80,56555.91,3693.20,4302.09,0.000000,0.000000,0.968368,85.79,1
13847,0,55589,60858,51905.19,56564.52,3683.81,4293.48,0.000000,0.000000,0.968155,85.80,1
13858,0,55591,60869,51912.56,56573.13,3678.44,4295.87,0.000000,0.000000,0.967930,85.80,1
