t_ms,phase,red_raw,ir_raw,red_dc,ir_dc,red_ac,ir_ac,OD_red,OD_ir,R,spo2,spo2_valid
467,0,50677,57584,31057.72,35278.21,19619.29,22305.79,0,0,1.000104,85,1
478,0,50671,57582,31449.98,35724.28,19221.02,21857.72,0,0,1.000107,85,1
487,0,50668,57570,31834.34,36161.2,18833.66,21408.8,0,0,1.000108,85,1
497,0,50659,57563,32210.84,36589.24,18448.16,20973.76,0,0,1.00011,85,1
507,0,50661,57571,32579.84,37008.87,18081.16,20562.13,0,0,1.000112,85,1
517,0,50670,57584,32941.64,37420.38,17728.36,20163.62,0,0,1.000115,85,1
527,0,50667,57575,33296.15,37823.47,17370.85,19751.53,0,0,1.000117,85,1
538,0,50672,57566,33643.67,38218.32,17028.33,19347.68,0,0,1.000117,85,1
547,0,50659,57558,33983.98,38605.12,16675.02,18952.88,0,0,1.000117,85,1
558,0,50662,57541,34317.54,38983.83,16344.46,18557.16,0,0,1.000115,85,1
568,0,50656,57529,34644.31,39354.74,16011.69,18174.26,0,0,1.000112,85,1
577,0,50646,57511,34964.34,39717.86,15681.66,17793.14,0,0,1.000108,85,1
587,0,50643,57500,35277.92,40073.51,15365.08,17426.49,0,0,1.000103,85,1
596,0,50636,57482,35585.08,40421.68,15050.92,17060.32,0,0,1.000097,85,1
607,0,50635,57485,35886.08,40762.94,14748.92,16722.06,0,0,1.000091,85,1
617,0,50630,57466,36180.96,41097.01,14449.04,16368.99,0,0,1.000084,85,1
628,0,50621,57459,36469.76,41424.25,14151.24,16034.75,0,0,1.000077,85,1
636,0,50623,57457,36752.83,41744.91,13870.17,15712.09,0,0,1.000069,85,1
648,0,50617,57441,37030.11,42058.83,13586.89,15382.17,0,0,1.000061,85,1
658,0,50621,57441,37301.93,42366.47,13319.07,15074.53,0,0,1.000052,85,1
667,0,50612,57433,37568.13,42667.8,13043.87,14765.2,0,0,1.000043,85,1
677,0,50618,57433,37829.13,42963.11,12788.87,14469.89,0,0,1.000034,85,1
688,0,50616,57435,38084.87,43252.55,12531.13,14182.45,0,0,1.000025,85,1
697,0,50615,57444,38335.47,43536.37,12279.53,13907.62,0,0,1.000018,85,1
707,0,50605,57432,38580.87,43814.29,12024.13,13617.71,0,0,1.000012,85,1
717,0,50616,57436,38821.57,44086.72,11794.43,13349.28,0,0,1.000004,85,1
727,0,50612,57437,39057.38,44353.73,11554.62,13083.27,0,0,0.999997,85,1
737,0,50604,57423,39288.31,44615.11,11315.69,12807.89,0,0,0.99999,85,1
748,0,50610,57439,39514.74,44871.59,11095.26,12567.41,0,0,0.999984,85,1
756,0,50613,57450,39736.71,45123.16,10876.29,12326.84,0,0,0.99998,85,1
768,0,50609,57431,39954.16,45369.32,10654.84,12061.68,0,0,0.999973,85,1
778,0,50615,57439,40167.37,45610.72,10447.62,11828.28,0,0,0.999967,85,1
787,0,50616,57443,40376.35,45847.36,10239.65,11595.64,0,0,0.999961,85,1
797,0,50617,57431,40581.16,46079.04,10035.84,11351.96,0,0,0.999954,85,1
807,0,50611,57430,40781.76,46306.06,9829.24,11123.94,0,0,0.999947,85,1
817,0,50611,57435,40978.34,46528.64,9632.66,10906.36,0,0,0.999941,85,1
827,0,50611,57434,41171,46746.75,9440,10687.25,0,0,0.999936,85,1
837,0,50612,57439,41359.82,46960.6,9252.18,10478.4,0,0,0.999931,85,1
846,0,50608,57444,41544.78,47170.26,9063.22,10273.73,0,0,0.999928,85,1
857,0,50617,57445,41726.23,47375.76,8890.77,10069.24,0,0,0.999923,85,1
867,0,50616,57445,41904.02,47577.14,8711.98,9867.86,0,0,0.999919,85,1
878,0,50614,57439,42078.23,47774.38,8535.77,9664.62,0,0,0.999914,85,1
886,0,50612,57443,42248.9,47967.75,8363.1,9475.25,0,0,0.99991,85,1
897,0,50616,57441,42416.25,48157.21,8199.75,9283.79,0,0,0.999905,85,1
908,0,50617,57438,42580.26,48342.83,8036.74,9095.17,0,0,0.999899,85,1
918,0,50616,57440,42740.98,48524.78,7875.02,8915.22,0,0,0.999895,85,1
926,0,50617,57446,42898.5,48703.2,7718.5,8742.8,0,0,0.999891,85,1
936,0,50612,57451,43052.76,48878.16,7559.23,8572.84,0,0,0.999889,85,1
948,0,50615,57436,43204.01,49049.32,7410.99,8386.68,0,0,0.999884,85,1
958,0,50615,57446,43352.23,49217.25,7262.77,8228.75,0,0,0.999881,85,1
966,0,50610,57453,43497.39,49381.96,7112.61,8071.04,0,0,0.99988,85,1
976,0,50617,57460,43639.78,49543.53,6977.21,7916.47,0,0,0.999879,85,1
988,0,50623,57451,43779.45,49701.67,6843.55,7749.32,0,0,0.999875,85,1
998,0,50617,57463,43916.2,49856.91,6700.8,7606.09,0,0,0.999875,85,1
1006,0,50621,57471,44050.3,50009.19,6570.7,7461.81,0,0,0.999876,85,1
1017,0,50625,57475,44181.8,50158.5,6443.2,7316.5,0,0,0.999877,85,1
1028,0,50623,57472,44310.62,50304.78,6312.38,7167.22,0,0,0.999877,85,1
1038,0,50629,57481,44436.99,50448.3,6192.01,7032.7,0,0,0.999878,85,1
1047,0,50623,57490,44560.71,50589.14,6062.29,6900.86,0,0,0.999882,85,1
1057,0,50630,57481,44682.1,50726.98,5947.9,6754.02,0,0,0.999882,85,1
1068,0,50630,57491,44801.06,50862.26,5828.94,6628.74,0,0,0.999885,85,1
1077,0,50636,57494,44917.76,50994.89,5718.24,6499.11,0,0,0.999886,85,1
1087,0,50636,57497,45032.12,51124.94,5603.88,6372.06,0,0,0.999889,85,1
1097,0,50640,57510,45144.28,51252.64,5495.72,6257.36,0,0,0.999893,85,1
1107,0,50640,57516,45254.2,51377.91,5385.8,6138.09,0,0,0.999898,85,1
1117,0,50646,57517,45362.04,51500.69,5283.96,6016.31,0,0,0.999902,85,1
1127,0,50644,57510,45467.68,51620.88,5176.32,5889.12,0,0,0.999905,85,1
1137,0,50642,57518,45571.17,51738.82,5070.83,5779.18,0,0,0.99991,85,1
1146,0,50644,57524,45672.62,51854.52,4971.37,5669.48,0,0,0.999915,85,1
1157,0,50645,57532,45772.07,51968.07,4872.93,5563.93,0,0,0.999922,85,1
1167,0,50651,57535,45869.65,52079.41,4781.35,5455.59,0,0,0.999928,85,1
1177,0,50646,57547,45965.18,52188.77,4680.82,5358.23,0,0,0.999938,85,1
1186,0,50657,57550,46059.02,52296,4597.98,5254,0,0,0.999946,85,1
1197,0,50658,57560,46151,52401.28,4507,5158.72,0,0,0.999955,85,1
1207,0,50662,57571,46241.22,52504.67,4420.78,5066.33,0,0,0.999966,85,1
1216,0,50665,57563,46329.69,52605.84,4335.3,4957.16,0,0,0.999974,85,1
1226,0,50659,57560,46416.28,52704.92,4242.72,4855.08,0,0,0.999982,85,1
1238,0,50661,57546,46501.17,52801.74,4159.82,4744.26,0,0,0.999987,85,1
1248,0,50658,57549,46584.31,52896.69,4073.69,4652.31,0,0,0.999993,85,1
1257,0,50660,57535,46665.83,52989.45,3994.17,4545.55,0,0,0.999995,85,1
1267,0,50656,57523,46745.63,53080.12,3910.37,4442.87,0,0,0.999996,85,1
1277,0,50651,57521,46823.74,53168.94,3827.26,4352.05,0,0,0.999997,85,1
1287,0,50647,57503,46900.21,53255.62,3746.79,4247.37,0,0,0.999996,85,1
1297,0,50641,57483,46975.03,53340.17,3665.97,4142.83,0,0,0.999991,85,1
1307,0,50636,57474,47048.25,53422.85,3587.75,4051.15,0,0,0.999986,85,1
1317,0,50632,57465,47119.92,53503.69,3512.08,3961.3,0,0,0.999979,85,1
1327,0,50634,57463,47190.2,53582.88,3443.8,3880.12,0,0,0.999972,85,1
1337,0,50627,57454,47258.94,53660.3,3368.06,3793.7,0,0,0.999965,85,1
1347,0,50622,57454,47326.2,53736.18,3295.8,3717.82,0,0,0.999959,85,1
1356,0,50621,57458,47392.1,53810.62,3228.9,3647.38,0,0,0.999954,85,1
1367,0,50626,57464,47456.78,53883.69,3169.22,3580.31,0,0,0.99995,85,1
1377,0,50624,57455,47520.12,53955.12,3103.87,3499.88,0,0,0.999944,85,1
1387,0,50631,57462,47582.34,54025.25,3048.66,3436.75,0,0,0.999938,85,1
1396,0,50623,57461,47643.16,54093.97,2979.84,3367.03,0,0,0.999934,85,1
1406,0,50628,57454,47702.85,54161.17,2925.14,3292.83,0,0,0.999927,85,1
1418,0,50624,57456,47761.28,54227.07,2862.72,3228.93,0,0,0.999921,85,1
1426,0,50623,57466,47818.51,54291.85,2804.48,3174.15,0,0,0.999919,85,1
1436,0,50628,57472,47874.7,54355.45,2753.3,3116.55,0,0,0.999917,85,1
1447,0,50626,57469,47929.73,54417.72,2696.27,3051.28,0,0,0.999914,85,1
1458,0,50635,57479,47983.83,54478.95,2651.16,3000.05,0,0,0.999912,85,1
1467,0,50630,57484,48036.76,54539.05,2593.24,2944.95,0,0,0.999912,85,1
1477,0,50636,57480,48088.75,54597.87,2547.25,2882.13,0,0,0.999909,85,1
1487,0,50640,57483,48139.77,54655.57,2500.23,2827.43,0,0,0.999907,85,1
1497,0,50639,57484,48189.76,54712.14,2449.24,2771.86,0,0,0.999904,85,1
1507,0,50639,57491,48238.75,54767.72,2400.25,2723.28,0,0,0.999904,85,1
1517,0,50631,57486,48286.6,54822.09,2344.4,2663.91,0,0,0.999904,85,1
1527,0,50634,57495,48333.55,54875.55,2300.45,2619.45,0,0,0.999906,85,1
1537,0,50637,57499,48379.61,54928.01,2257.39,2570.98,0,0,0.999909,85,1
1547,0,50642,57512,48424.86,54979.69,2217.14,2532.3,0,0,0.999912,85,1
1557,0,50647,57501,48469.31,55030.12,2177.69,2470.88,0,0,0.999912,85,1
1567,0,50648,57504,48512.88,55079.6,2135.12,2424.4,0,0,0.999912,85,1
1576,0,50640,57495,48555.42,55127.91,2084.57,2367.09,0,0,0.999912,85,1
1587,0,50643,57491,48597.17,55175.17,2045.82,2315.83,0,0,0.99991,85,1
1597,0,50639,57492,48638.01,55221.5,2000.98,2270.5,0,0,0.99991,85,1
1606,0,50641,57494,48678.08,55266.95,1962.92,2227.05,0,0,0.999909,85,1
1616,0,50630,57497,48717.12,55311.55,1912.88,2185.45,0,0,0.999913,85,1
1627,0,50642,57493,48755.62,55355.18,1886.38,2137.82,0,0,0.999912,85,1
1637,0,50642,57504,48793.34,55398.16,1848.66,2105.84,0,0,0.999914,85,1
1646,0,50644,57508,48830.35,55440.36,1813.64,2067.64,0,0,0.999916,85,1
1656,0,50645,57509,48866.65,55481.73,1778.35,2027.27,0,0,0.999918,85,1
1668,0,50647,57509,48902.26,55522.28,1744.74,1986.72,0,0,0.99992,85,1
1677,0,50645,57519,48937.11,55562.21,1707.89,1956.79,0,0,0.999925,85,1
1687,0,50650,57516,48971.37,55601.29,1678.63,1914.71,0,0,0.999927,85,1
1697,0,50648,57521,49004.91,55639.69,1643.09,1881.31,0,0,0.999931,85,1
1707,0,50647,57527,49037.75,55677.43,1609.25,1849.57,0,0,0.999938,85,1
1717,0,50655,57539,49070.1,55714.67,1584.9,1824.33,0,0,0.999944,85,1
1727,0,50662,57539,49101.93,55751.16,1560.07,1787.84,0,0,0.999949,85,1
1737,0,50660,57551,49133.09,55787.15,1526.91,1763.85,0,0,0.999957,85,1
1746,0,50659,57547,49163.61,55822.35,1495.39,1724.65,0,0,0.999964,85,1
1757,0,50666,57551,49193.66,55856.92,1472.34,1694.07,0,0,0.99997,85,1
1767,0,50660,57558,49222.99,55890.95,1437.01,1667.05,0,0,0.99998,85,1
1776,0,50665,57561,49251.83,55924.35,1413.16,1636.65,0,0,0.999989,85,1
1786,0,50673,57569,49280.26,55957.25,1392.74,1611.75,0,0,0.999997,85,1
1797,0,50668,57567,49308.01,55989.44,1359.98,1577.56,0,0,1.000006,85,1
1807,0,50672,57586,49335.3,56021.37,1336.7,1564.63,0,0,1.000019,85,1
1816,0,50679,57594,49362.17,56052.82,1316.83,1541.18,0,0,1.000032,85,1
1826,0,50679,57591,49388.51,56083.59,1290.49,1507.41,0,0,1.000043,85,1
1838,0,50681,57588,49414.36,56113.68,1266.64,1474.32,0,0,1.000053,85,1
1848,0,50683,57592,49439.73,56143.25,1243.27,1448.75,0,0,1.000064,85,1
1856,0,50683,57598,49464.6,56172.34,1218.4,1425.66,0,0,1.000075,85,1
1867,0,50679,57592,49488.89,56200.74,1190.11,1391.26,0,0,1.000086,85,1
1878,0,50683,57600,49512.77,56228.72,1170.23,1371.28,0,0,1.000098,85,1
1887,0,50691,57611,49536.33,56256.37,1154.66,1354.63,0,0,1.00011,85,1
1897,0,50691,57628,49559.43,56283.8,1131.57,1344.2,0,0,1.000127,85,1
1907,0,50696,57626,49582.16,56310.64,1113.84,1315.36,0,0,1.000141,85,1
1917,0,50693,57628,49604.38,56336.99,1088.62,1291.01,0,0,1.000156,85,1
1927,0,50695,57625,49626.19,56362.75,1068.8,1262.25,0,0,1.00017,85,1
1937,0,50702,57618,49647.71,56387.86,1054.29,1230.14,0,0,1.000179,85,1
1947,0,50702,57615,49668.8,56412.4,1033.2,1202.6,0,0,1.000187,85,1
1956,0,50693,57607,49689.28,56436.3,1003.72,1170.7,0,0,1.000196,85,1
1967,0,50691,57607,49709.32,56459.71,981.68,1147.29,0,0,1.000205,84.99,1
1977,0,50688,57580,49728.89,56482.12,959.11,1097.88,0,0,1.000208,84.99,1
1987,0,50688,57581,49748.08,56504.1,939.92,1076.9,0,0,1.00021,84.99,1
1996,0,50677,57571,49766.66,56525.44,910.34,1045.56,0,0,1.000214,84.99,1
2007,0,50676,57554,49784.84,56546.01,891.16,1007.99,0,0,1.000212,84.99,1
2017,0,50665,57532,49802.45,56565.73,862.55,966.27,0,0,1.000208,84.99,1
2027,0,50663,57516,49819.66,56584.74,843.34,931.26,0,0,1.000201,84.99,1
2036,0,50651,57511,49836.29,56603.26,814.71,907.74,0,0,1.000195,85,1
2046,0,50651,57503,49852.58,56621.26,798.41,881.74,0,0,1.000188,85,1
2057,0,50649,57489,49868.51,56638.61,780.48,850.39,0,0,1.000177,85,1
2067,0,50646,57491,49884.07,56655.66,761.93,835.34,0,0,1.000168,85,1
2077,0,50650,57496,49899.39,56672.47,750.61,823.53,0,0,1.00016,85,1
2086,0,50643,57495,49914.26,56688.92,728.74,806.08,0,0,1.000153,85,1
2097,0,50651,57492,49928.99,56704.98,722.01,787.02,0,0,1.000143,85,1
2107,0,50646,57484,49943.33,56720.56,702.66,763.44,0,0,1.000133,85,1
2117,0,50647,57484,49957.41,56735.83,689.59,748.17,0,0,1.000123,85,1
2126,0,50650,57489,49971.26,56750.9,678.74,738.1,0,0,1.000113,85,1
2137,0,50652,57494,49984.87,56765.76,667.13,728.24,0,0,1.000104,85,1
2147,0,50646,57498,49998.1,56780.41,647.9,717.59,0,0,1.000098,85,1
2157,0,50649,57495,50011.12,56794.7,637.88,700.3,0,0,1.000091,85,1
2167,0,50648,57506,50023.86,56808.93,624.14,697.07,0,0,1.000088,85,1
2177,0,50652,57505,50036.42,56822.85,615.58,682.14,0,0,1.000083,85,1
2187,0,50649,57504,50048.67,56836.48,600.32,667.52,0,0,1.000078,85,1
2197,0,50651,57507,50060.72,56849.89,590.28,657.11,0,0,1.000074,85,1
2207,0,50654,57507,50072.58,56863.03,581.41,643.96,0,0,1.000069,85,1
2217,0,50655,57515,50084.24,56876.08,570.76,638.92,0,0,1.000067,85,1
2226,0,50653,57521,50095.61,56888.98,557.39,632.02,0,0,1.000066,85,1
2236,0,50663,57532,50106.96,56901.84,556.04,630.16,0,0,1.000066,85,1
2246,0,50665,57532,50118.13,56914.44,546.87,617.55,0,0,1.000065,85,1
2256,0,50659,57537,50128.94,56926.89,530.05,610.11,0,0,1.000067,85,1
2267,0,50667,57535,50139.71,56939.06,527.29,595.94,0,0,1.000066,85,1
2276,0,50659,57542,50150.09,56951.12,508.91,590.88,0,0,1.00007,85,1
2286,0,50660,57536,50160.29,56962.82,499.71,573.18,0,0,1.000072,85,1
2296,0,50664,57524,50170.37,56974.04,493.63,549.96,0,0,1.000069,85,1
2307,0,50665,57527,50180.26,56985.1,484.73,541.9,0,0,1.000066,85,1
2317,0,50666,57532,50189.98,56996.04,476.02,535.96,0,0,1.000065,85,1
2326,0,50663,57534,50199.44,57006.8,463.55,527.2,0,0,1.000065,85,1
2336,0,50667,57542,50208.8,57017.51,458.2,524.49,0,0,1.000066,85,1
2347,0,50664,57536,50217.9,57027.88,446.1,508.12,0,0,1.000067,85,1
2357,0,50664,57538,50226.83,57038.08,437.17,499.91,0,0,1.000068,85,1
2367,0,50668,57548,50235.65,57048.28,432.35,499.71,0,0,1.000071,85,1
2376,0,50671,57542,50244.36,57058.16,426.64,483.84,0,0,1.00007,85,1
2386,0,50662,57550,50252.71,57068,409.29,482,0,0,1.000076,85,1
2397,0,50663,57546,50260.92,57077.55,402.08,468.45,0,0,1.000079,85,1
2407,0,50664,57547,50268.98,57086.94,395.02,460.05,0,0,1.000083,85,1
2417,0,50668,57550,50276.96,57096.21,391.04,453.79,0,0,1.000086,85,1
2426,0,50672,57549,50284.87,57105.26,387.13,443.73,0,0,1.000087,85,1
2437,0,50675,57561,50292.67,57114.38,382.33,446.62,0,0,1.000091,85,1
2447,0,50676,57559,50300.34,57123.27,375.66,435.73,0,0,1.000094,85,1
2457,0,50679,57567,50307.91,57132.15,371.09,434.85,0,0,1.000098,85,1
2467,0,50683,57577,50315.42,57141.05,367.58,435.95,0,0,1.000104,85,1
2477,0,50680,57576,50322.71,57149.75,357.29,426.25,0,0,1.00011,85,1
2487,0,50680,57580,50329.86,57158.35,350.14,421.64,0,0,1.000118,85,1
2497,0,50685,57578,50336.96,57166.75,348.04,411.25,0,0,1.000122,85,1
2507,0,50683,57583,50343.88,57175.07,339.12,407.93,0,0,1.00013,85,1
2518,0,50684,57590,50350.69,57183.37,333.31,406.63,0,0,1.000138,85,1
2526,0,50685,57584,50357.37,57191.39,327.63,392.61,0,0,1.000145,85,1
2536,0,50688,57600,50363.99,57199.56,324.01,400.44,0,0,1.000155,85,1
2547,0,50691,57591,50370.53,57207.39,320.47,383.61,0,0,1.000161,85,1
2557,0,50690,57602,50376.92,57215.28,313.08,386.72,0,0,1.000171,85,1
2566,0,50689,57601,50383.16,57223,305.84,378,0,0,1.00018,85,1
2576,0,50683,57606,50389.16,57230.66,293.84,375.34,0,0,1.000193,85,1
2586,0,50691,57602,50395.2,57238.08,295.8,363.91,0,0,1.000202,84.99,1
2596,0,50694,57607,50401.17,57245.46,292.82,361.54,0,0,1.000211,84.99,1
2607,0,50690,57613,50406.95,57252.82,283.05,360.18,0,0,1.000223,84.99,1
2616,0,50695,57615,50412.71,57260.06,282.29,354.94,0,0,1.000234,84.99,1
2626,0,50703,57620,50418.52,57267.26,284.48,352.74,0,0,1.000243,84.99,1
2636,0,50699,57621,50424.13,57274.33,274.87,346.66,0,0,1.000254,84.99,1
2647,0,50700,57624,50429.65,57281.33,270.35,342.67,0,0,1.000265,84.99,1
2657,0,50702,57627,50435.09,57288.25,266.91,338.75,0,0,1.000276,84.99,1
2666,0,50703,57629,50440.45,57295.06,262.55,333.94,0,0,1.000287,84.99,1
2676,0,50704,57623,50445.72,57301.62,258.28,321.38,0,0,1.000296,84.99,1
2686,0,50693,57616,50450.67,57307.91,242.33,308.09,0,0,1.000307,84.99,1
2697,0,50694,57604,50455.53,57313.83,238.46,290.17,0,0,1.000313,84.99,1
2706,0,50693,57604,50460.28,57319.63,232.71,284.37,0,0,1.000319,84.99,1
2716,0,50690,57581,50464.88,57324.86,225.12,256.14,0,0,1.000319,84.99,1
2726,0,50679,57571,50469.16,57329.79,209.84,241.21,0,0,1.00032,84.99,1
2737,0,50685,57548,50473.48,57334.16,211.52,213.84,0,0,1.000311,84.99,1
2747,0,50678,57533,50477.57,57338.13,200.43,194.87,0,0,1.000301,84.99,1
2756,0,50669,57523,50481.4,57341.83,187.6,181.17,0,0,1.00029,84.99,1
2766,0,50662,57525,50485.01,57345.5,176.99,179.5,0,0,1.000283,84.99,1
2777,0,50657,57506,50488.45,57348.71,168.55,157.29,0,0,1.000272,84.99,1
2787,0,50653,57501,50491.74,57351.75,161.26,149.25,0,0,1.000261,84.99,1
2797,0,50655,57498,50495.01,57354.68,159.99,143.32,0,0,1.000248,84.99,1
2806,0,50652,57497,50498.15,57357.53,153.85,139.47,0,0,1.000236,84.99,1
2817,0,50653,57499,50501.25,57360.36,151.75,138.64,0,0,1.000226,84.99,1
2827,0,50648,57498,50504.18,57363.11,143.82,134.89,0,0,1.000216,84.99,1
2837,0,50651,57488,50507.12,57365.61,143.88,122.39,0,0,1.000202,84.99,1
2847,0,50652,57494,50510.02,57368.18,141.98,125.82,0,0,1.000191,85,1
2856,0,50651,57498,50512.84,57370.78,138.16,127.22,0,0,1.000181,85,1
2867,0,50645,57504,50515.48,57373.44,129.52,130.56,0,0,1.000175,85,1
2877,0,50655,57497,50518.28,57375.91,136.72,121.09,0,0,1.000164,85,1
2887,0,50657,57503,50521.05,57378.46,135.95,124.54,0,0,1.000154,85,1
2897,0,50652,57514,50523.67,57381.17,128.33,132.83,0,0,1.00015,85,1
2906,0,50654,57524,50526.28,57384.03,127.72,139.97,0,0,1.000148,85,1
2916,0,50662,57526,50528.99,57386.87,133.01,139.13,0,0,1.000144,85,1
2927,0,50659,57527,50531.59,57389.67,127.41,137.32,0,0,1.000142,85,1
2937,0,50667,57535,50534.3,57392.58,132.7,142.42,0,0,1.000139,85,1
2946,0,50663,57538,50536.88,57395.49,126.12,142.51,0,0,1.000139,85,1
2956,0,50660,57544,50539.34,57398.46,120.66,145.54,0,0,1.000141,85,1
2966,0,50665,57538,50541.85,57401.25,123.14,136.75,0,0,1.000141,85,1
2976,0,50666,57531,50544.34,57403.85,121.66,127.15,0,0,1.000137,85,1
2987,0,50663,57535,50546.71,57406.48,116.29,128.52,0,0,1.000136,85,1
2996,0,50666,57532,50549.1,57408.99,116.9,123.01,0,0,1.000133,85,1
3006,0,50662,57540,50551.36,57411.61,110.64,128.39,0,0,1.000133,85,1
3016,0,50670,57544,50553.73,57414.26,116.27,129.74,0,0,1.000133,85,1
3026,0,50665,57539,50555.96,57416.75,109.04,122.25,0,0,1.000132,85,1
3037,0,50661,57536,50558.06,57419.14,102.94,116.86,0,0,1.000132,85,1
3046,0,50659,57537,50560.08,57421.5,98.92,115.5,0,0,1.000133,85,1
3056,0,50661,57545,50562.1,57423.96,98.9,121.04,0,0,1.000136,85,1
3066,0,50662,57536,50564.09,57426.21,97.91,109.79,0,0,1.000136,85,1
3077,0,50659,57532,50565.99,57428.32,93.01,103.68,0,0,1.000135,85,1
3087,0,50660,57536,50567.87,57430.48,92.13,105.52,0,0,1.000135,85,1
3096,0,50664,57547,50569.8,57432.81,94.2,114.19,0,0,1.000138,85,1
3106,0,50666,57543,50571.72,57435.01,94.28,107.99,0,0,1.000138,85,1
3117,0,50670,57548,50573.69,57437.27,96.31,110.73,0,0,1.000138,85,1
3127,0,50672,57550,50575.66,57439.53,96.34,110.47,0,0,1.000139,85,1
3137,0,50664,57549,50577.42,57441.72,86.57,107.28,0,0,1.000142,85,1
3145,0,50677,57561,50579.42,57444.1,97.58,116.89,0,0,1.000144,85,1
3155,0,50673,57563,50581.29,57446.48,91.71,116.52,0,0,1.000148,85,1
3167,0,50670,57562,50583.07,57448.79,86.93,113.21,0,0,1.000153,85,1
3177,0,50674,57577,50584.89,57451.35,89.11,125.64,0,0,1.000161,85,1
3187,0,50679,57575,50586.77,57453.83,92.23,121.17,0,0,1.000166,85,1
3197,0,50679,57585,50588.61,57456.45,90.39,128.55,0,0,1.000174,85,1
3206,0,50679,57581,50590.42,57458.94,88.58,122.05,0,0,1.000182,85,1
3216,0,50682,57592,50592.25,57461.6,89.75,130.39,0,0,1.000191,85,1
3226,0,50682,57579,50594.05,57463.95,87.95,115.05,0,0,1.000196,85,1
3236,0,50685,57596,50595.87,57466.59,89.13,129.41,0,0,1.000205,84.99,1
3247,0,50683,57601,50597.61,57469.28,85.39,131.72,0,0,1.000216,84.99,1
3256,0,50688,57597,50599.42,57471.84,88.58,125.16,0,0,1.000224,84.99,1
3266,0,50690,57603,50601.23,57474.46,88.77,128.54,0,0,1.000234,84.99,1
3276,0,50690,57601,50603.01,57476.99,86.99,124.01,0,0,1.000242,84.99,1
3287,0,50694,57603,50604.83,57479.51,89.17,123.49,0,0,1.000249,84.99,1
3297,0,50688,57616,50606.5,57482.24,81.5,133.76,0,0,1.000262,84.99,1
3306,0,50697,57616,50608.31,57484.92,88.69,131.08,0,0,1.000272,84.99,1
3316,0,50696,57622,50610.07,57487.66,85.93,134.34,0,0,1.000284,84.99,1
3326,0,50695,57626,50611.77,57490.43,83.23,135.57,0,0,1.000297,84.99,1
3337,0,50697,57623,50613.48,57493.08,83.52,129.92,0,0,1.000309,84.99,1
3347,0,50698,57638,50615.17,57495.98,82.83,142.02,0,0,1.000324,84.99,1
3356,0,50702,57639,50616.91,57498.85,85.09,140.15,0,0,1.000338,84.99,1
3366,0,50706,57650,50618.69,57501.87,87.31,148.13,0,0,1.000354,84.99,1
3377,0,50703,57643,50620.38,57504.69,82.62,138.3,0,0,1.000368,84.99,1
3387,0,50705,57636,50622.07,57507.32,82.93,128.68,0,0,1.000379,84.99,1
3397,0,50711,57641,50623.85,57510,87.15,131,0,0,1.00039,84.99,1
3405,0,50702,57644,50625.41,57512.67,76.59,131.32,0,0,1.000404,84.99,1
3416,0,50703,57638,50626.96,57515.18,76.04,122.82,0,0,1.000416,84.99,1
3426,0,50703,57644,50628.48,57517.76,74.52,126.24,0,0,1.000429,84.99,1
3436,0,50699,57625,50629.89,57519.91,69.11,105.09,0,0,1.000438,84.99,1
3446,0,50698,57609,50631.26,57521.69,66.74,87.31,0,0,1.000442,84.99,1
3457,0,50692,57597,50632.47,57523.19,59.53,73.8,0,0,1.000444,84.99,1
3466,0,50696,57584,50633.75,57524.41,62.25,59.59,0,0,1.00044,84.99,1
3476,0,50684,57572,50634.75,57525.37,49.25,46.63,0,0,1.000437,84.99,1
3486,0,50680,57569,50635.66,57526.24,44.34,42.76,0,0,1.000434,84.99,1
3496,0,50680,57562,50636.55,57526.95,43.45,35.05,0,0,1.000429,84.99,1
3507,0,50675,57548,50637.32,57527.37,37.68,20.62,0,0,1.000422,84.99,1
3517,0,50673,57554,50638.03,57527.91,34.97,26.09,0,0,1.000417,84.99,1
3527,0,50677,57542,50638.81,57528.19,38.19,13.81,0,0,1.000407,84.99,1
3535,0,50675,57540,50639.54,57528.42,35.46,11.57,0,0,1.000397,84.99,1
3546,0,50669,57548,50640.13,57528.82,28.87,19.18,0,0,1.000392,84.99,1
3556,0,50666,57547,50640.65,57529.19,25.35,17.81,0,0,1.000388,84.99,1
3566,0,50669,57559,50641.21,57529.78,27.79,29.21,0,0,1.000388,84.99,1
3576,0,50674,57555,50641.87,57530.29,32.13,24.71,0,0,1.000383,84.99,1
3587,0,50678,57557,50642.59,57530.83,35.41,26.17,0,0,1.000379,84.99,1
3597,0,50682,57568,50643.38,57531.57,38.62,36.43,0,0,1.000376,84.99,1
3606,0,50683,57571,50644.17,57532.36,38.82,38.64,0,0,1.000374,84.99,1
3616,0,50681,57577,50644.91,57533.25,36.09,43.75,0,0,1.000375,84.99,1
3627,0,50688,57581,50645.78,57534.21,42.22,46.79,0,0,1.000375,84.99,1
3637,0,50683,57582,50646.52,57535.17,36.48,46.83,0,0,1.000377,84.99,1
3646,0,50683,57580,50647.25,57536.07,35.75,43.93,0,0,1.000378,84.99,1
3656,0,50687,57585,50648.05,57537.05,38.95,47.95,0,0,1.000379,84.99,1
3666,0,50691,57594,50648.91,57538.19,42.09,55.81,0,0,1.000382,84.99,1
3676,0,50690,57602,50649.73,57539.46,40.27,62.54,0,0,1.000387,84.99,1
3686,0,50696,57608,50650.66,57540.83,45.34,67.16,0,0,1.000393,84.99,1
3696,0,50700,57618,50651.65,57542.38,48.35,75.62,0,0,1.000399,84.99,1
3706,0,50699,57615,50652.6,57543.83,46.4,71.17,0,0,1.000406,84.99,1
3717,0,50703,57608,50653.6,57545.12,49.39,62.88,0,0,1.000408,84.99,1
3727,0,50700,57612,50654.53,57546.45,45.46,65.55,0,0,1.000412,84.99,1
3737,0,50700,57621,50655.44,57547.94,44.55,73.05,0,0,1.00042,84.99,1
3745,0,50700,57606,50656.33,57549.11,43.66,56.89,0,0,1.000422,84.99,1
3756,0,50701,57609,50657.23,57550.31,43.77,58.69,0,0,1.000425,84.99,1
3766,0,50700,57606,50658.08,57551.42,41.91,54.57,0,0,1.000428,84.99,1
3776,0,50698,57603,50658.89,57552.46,39.11,50.54,0,0,1.00043,84.99,1
3786,0,50698,57598,50659.67,57553.37,38.33,44.63,0,0,1.00043,84.99,1
3796,0,50696,57602,50660.4,57554.34,35.6,47.66,0,0,1.000432,84.99,1
3807,0,50699,57612,50661.17,57555.5,37.82,56.5,0,0,1.000437,84.99,1
3816,0,50699,57616,50661.93,57556.71,37.07,59.29,0,0,1.000442,84.99,1
3826,0,50702,57615,50662.73,57557.87,39.27,57.13,0,0,1.000447,84.99,1
3836,0,50705,57632,50663.58,57559.36,41.42,72.64,0,0,1.000455,84.99,1
3847,0,50708,57628,50664.47,57560.73,43.53,67.27,0,0,1.000461,84.99,1
3856,0,50705,57620,50665.28,57561.91,39.71,58.09,0,0,1.000465,84.99,1
3866,0,50714,57630,50666.26,57563.28,47.74,66.72,0,0,1.000469,84.99,1
3876,0,50712,57633,50667.17,57564.67,44.82,68.33,0,0,1.000475,84.99,1
3886,0,50711,57631,50668.05,57566,42.95,65,0,0,1.00048,84.99,1
3896,0,50707,57641,50668.83,57567.5,38.17,73.5,0,0,1.00049,84.99,1
3906,0,50716,57651,50669.78,57569.17,46.22,81.83,0,0,1.000499,84.99,1
3916,0,50714,57659,50670.66,57570.97,43.34,88.03,0,0,1.000512,84.99,1
3927,0,50715,57649,50671.55,57572.53,43.45,76.47,0,0,1.000521,84.99,1
3937,0,50718,57662,50672.48,57574.32,45.52,87.68,0,0,1.000532,84.99,1
3947,0,50720,57662,50673.43,57576.07,46.57,85.93,0,0,1.000543,84.99,1
3955,0,50719,57669,50674.34,57577.93,44.66,91.07,0,0,1.000556,84.99,1
3965,0,50724,57670,50675.33,57579.77,48.66,90.23,0,0,1.000567,84.99,1
3976,0,50726,57679,50676.35,57581.76,49.65,97.24,0,0,1.00058,84.99,1
3986,0,50720,57672,50677.22,57583.57,42.78,88.43,0,0,1.000593,84.99,1
3996,0,50725,57672,50678.18,57585.33,46.82,86.66,0,0,1.000603,84.98,1
4006,0,50725,57662,50679.12,57586.87,45.88,75.13,0,0,1.00061,84.98,1
4017,0,50723,57677,50680,57588.67,43,88.33,0,0,1.000623,84.98,1
4026,0,50735,57681,50681.1,57590.52,53.9,90.48,0,0,1.000632,84.98,1
4036,0,50729,57689,50682.05,57592.49,46.95,96.51,0,0,1.000646,84.98,1
4046,0,50729,57696,50682.99,57594.56,46.01,101.44,0,0,1.000661,84.98,1
4057,0,50733,57702,50683.99,57596.71,49.01,105.29,0,0,1.000677,84.98,1
4067,0,50740,57698,50685.11,57598.74,54.89,99.26,0,0,1.000688,84.98,1
4076,0,50733,57695,50686.07,57600.66,46.93,94.34,0,0,1.000701,84.98,1
4086,0,50737,57691,50687.09,57602.47,49.91,88.53,0,0,1.000711,84.98,1
4096,0,50735,57684,50688.05,57604.1,46.95,79.89,0,0,1.00072,84.98,1
4106,0,50728,57672,50688.84,57605.46,39.16,66.54,0,0,1.000727,84.98,1
4116,0,50720,57660,50689.46,57606.55,30.54,53.45,0,0,1.000733,84.98,1
4126,0,50722,57638,50690.12,57607.19,31.88,30.81,0,0,1.000731,84.98,1
4136,0,50709,57628,50690.5,57607.6,18.5,20.4,0,0,1.000731,84.98,1
4147,0,50711,57618,50690.91,57607.81,20.09,10.19,0,0,1.000726,84.98,1
4157,0,50703,57610,50691.15,57607.85,11.85,2.15,0,0,1.000722,84.98,1
4165,0,50699,57598,50691.31,57607.66,7.69,-9.66,0,0,1.000716,84.98,1
4175,0,50699,57585,50691.46,57607.2,7.54,-22.2,0,0,1.000705,84.98,1
4186,0,50696,57576,50691.56,57606.58,4.44,-30.58,0,0,1.000692,84.98,1
4196,0,50690,57566,50691.53,57605.77,-1.53,-39.77,0,0,1.000678,84.98,1
4206,0,50684,57566,50691.38,57604.98,-7.38,-38.98,0,0,1.000666,84.98,1
4216,0,50680,57562,50691.15,57604.12,-11.15,-42.12,0,0,1.000656,84.98,1
4227,0,50681,57551,50690.95,57603.05,-9.95,-52.05,0,0,1.00064,84.98,1
4237,0,50678,57556,50690.69,57602.12,-12.7,-46.12,0,0,1.000628,84.98,1
4247,0,50670,57562,50690.28,57601.31,-20.28,-39.31,0,0,1.000622,84.98,1
4255,0,50681,57556,50690.1,57600.41,-9.1,-44.41,0,0,1.00061,84.98,1
4265,0,50681,57559,50689.92,57599.58,-8.92,-40.58,0,0,1.000598,84.99,1
4276,0,50678,57562,50689.68,57598.83,-11.68,-36.83,0,0,1.000589,84.99,1
4286,0,50674,57566,50689.37,57598.17,-15.37,-32.17,0,0,1.000584,84.99,1
4296,0,50685,57557,50689.28,57597.35,-4.28,-40.35,0,0,1.000571,84.99,1
4306,0,50681,57566,50689.12,57596.73,-8.12,-30.73,0,0,1.000563,84.99,1
4316,0,50679,57575,50688.91,57596.29,-9.91,-21.29,0,0,1.000559,84.99,1
4326,0,50688,57582,50688.9,57596.01,-0.9,-14.01,0,0,1.000555,84.99,1
4336,0,50687,57588,50688.86,57595.85,-1.86,-7.85,0,0,1.000553,84.99,1
4345,0,50692,57594,50688.92,57595.82,3.08,-1.82,0,0,1.000551,84.99,1
4356,0,50699,57595,50689.12,57595.8,9.88,-0.8,0,0,1.000546,84.99,1
4366,0,50690,57589,50689.14,57595.67,0.86,-6.67,0,0,1.000544,84.99,1
4376,0,50688,57590,50689.12,57595.55,-1.12,-5.55,0,0,1.000542,84.99,1
4386,0,50691,57587,50689.16,57595.38,1.84,-8.38,0,0,1.000539,84.99,1
4397,0,50693,57589,50689.24,57595.26,3.76,-6.26,0,0,1.000535,84.99,1
4407,0,50694,57599,50689.33,57595.33,4.66,3.66,0,0,1.000534,84.99,1
4416,0,50692,57599,50689.39,57595.41,2.61,3.59,0,0,1.000534,84.99,1
4426,0,50694,57598,50689.48,57595.46,4.52,2.54,0,0,1.000534,84.99,1
4435,0,50697,57601,50689.64,57595.58,7.36,5.42,0,0,1.000533,84.99,1
4446,0,50697,57594,50689.78,57595.55,7.21,-1.55,0,0,1.000529,84.99,1
4456,0,50691,57592,50689.81,57595.48,1.19,-3.48,0,0,1.000527,84.99,1
4465,0,50690,57580,50689.82,57595.17,0.18,-15.17,0,0,1.000522,84.99,1
4475,0,50693,57593,50689.88,57595.12,3.12,-2.13,0,0,1.00052,84.99,1
4486,0,50693,57596,50689.94,57595.14,3.06,0.86,0,0,1.000519,84.99,1
4496,0,50698,57601,50690.1,57595.26,7.89,5.74,0,0,1.000518,84.99,1
4506,0,50697,57597,50690.25,57595.3,6.75,1.7,0,0,1.000516,84.99,1
4516,0,50699,57598,50690.42,57595.35,8.58,2.65,0,0,1.000513,84.99,1
4527,0,50694,57596,50690.49,57595.37,3.51,0.63,0,0,1.000512,84.99,1
4537,0,50702,57596,50690.72,57595.38,11.28,0.62,0,0,1.000508,84.99,1
4546,0,50699,57610,50690.89,57595.67,8.11,14.32,0,0,1.000509,84.99,1
4555,0,50703,57615,50691.13,57596.06,11.87,18.94,0,0,1.000511,84.99,1
4566,0,50704,57609,50691.39,57596.32,12.61,12.68,0,0,1.000511,84.99,1
4576,0,50704,57623,50691.64,57596.85,12.36,26.14,0,0,1.000515,84.99,1
4586,0,50703,57631,50691.87,57597.54,11.13,33.46,0,0,1.000522,84.99,1
4596,0,50707,57621,50692.17,57598.01,14.83,22.99,0,0,1.000524,84.99,1
4606,0,50702,57625,50692.37,57598.55,9.63,26.45,0,0,1.000529,84.99,1
4617,0,50710,57630,50692.72,57599.18,17.28,30.82,0,0,1.000533,84.99,1
4627,0,50709,57638,50693.05,57599.96,15.95,38.04,0,0,1.000539,84.99,1
4635,0,50715,57642,50693.49,57600.8,21.51,41.2,0,0,1.000545,84.99,1
4645,0,50714,57646,50693.9,57601.7,20.1,44.3,0,0,1.000551,84.99,1
4656,0,50712,57651,50694.26,57602.69,17.74,48.31,0,0,1.000561,84.99,1
4666,0,50712,57646,50694.62,57603.56,17.38,42.44,0,0,1.000568,84.99,1
4676,0,50718,57649,50695.08,57604.47,22.91,44.53,0,0,1.000574,84.99,1
4686,0,50714,57644,50695.46,57605.26,18.54,38.74,0,0,1.00058,84.99,1
4697,0,50712,57662,50695.79,57606.39,16.21,55.61,0,0,1.000591,84.99,1
4706,0,50718,57664,50696.24,57607.55,21.76,56.45,0,0,1.000601,84.98,1
4716,0,50719,57669,50696.69,57608.78,22.3,60.22,0,0,1.000612,84.98,1
4726,0,50728,57667,50697.32,57609.94,30.68,57.05,0,0,1.000619,84.98,1
4736,0,50720,57674,50697.77,57611.23,22.23,62.77,0,0,1.00063,84.98,1
4746,0,50716,57670,50698.14,57612.4,17.86,57.6,0,0,1.000642,84.98,1
4756,0,50723,57672,50698.64,57613.6,24.36,58.4,0,0,1.000651,84.98,1
4766,0,50718,57665,50699.03,57614.63,18.97,50.37,0,0,1.00066,84.98,1
4775,0,50726,57647,50699.57,57615.28,26.43,31.72,0,0,1.000661,84.98,1
4786,0,50712,57639,50699.81,57615.75,12.19,23.25,0,0,1.000664,84.98,1
4796,0,50701,57626,50699.83,57615.96,1.16,10.04,0,0,1.000667,84.98,1
4806,0,50705,57621,50699.94,57616.06,5.06,4.94,0,0,1.000667,84.98,1
4816,0,50697,57602,50699.89,57615.78,-2.89,-13.78,0,0,1.000663,84.98,1
4826,0,50693,57588,50699.75,57615.23,-6.75,-27.23,0,0,1.000656,84.98,1
4836,0,50694,57572,50699.64,57614.36,-5.64,-42.36,0,0,1.000642,84.98,1
4846,0,50686,57575,50699.36,57613.58,-13.36,-38.58,0,0,1.000633,84.98,1
4855,0,50685,57565,50699.08,57612.61,-14.08,-47.61,0,0,1.000621,84.98,1
4866,0,50679,57556,50698.67,57611.48,-19.68,-55.48,0,0,1.000607,84.98,1
4876,0,50683,57553,50698.36,57610.31,-15.36,-57.31,0,0,1.000591,84.99,1
4886,0,50681,57547,50698.02,57609.05,-17.02,-62.05,0,0,1.000574,84.99,1
4896,0,50676,57550,50697.58,57607.87,-21.58,-57.87,0,0,1.00056,84.99,1
4907,0,50680,57556,50697.23,57606.83,-17.23,-50.83,0,0,1.000548,84.99,1
4917,0,50681,57553,50696.91,57605.75,-15.91,-52.75,0,0,1.000534,84.99,1
4925,0,50675,57561,50696.47,57604.86,-21.47,-43.86,0,0,1.000526,84.99,1
4935,0,50677,57557,50696.08,57603.9,-19.08,-46.9,0,0,1.000516,84.99,1
4945,0,50679,57565,50695.73,57603.12,-16.73,-38.13,0,0,1.000509,84.99,1
4956,0,50682,57563,50695.46,57602.32,-13.46,-39.32,0,0,1.000499,84.99,1
4966,0,50681,57553,50695.17,57601.33,-14.17,-48.34,0,0,1.000486,84.99,1
4976,0,50680,57563,50694.87,57600.57,-14.87,-37.57,0,0,1.000478,84.99,1
4985,0,50687,57566,50694.71,57599.88,-7.71,-33.88,0,0,1.000468,84.99,1
4996,0,50683,57576,50694.48,57599.4,-11.48,-23.4,0,0,1.000465,84.99,1
5006,0,50686,57585,50694.31,57599.11,-8.31,-14.11,0,0,1.000463,84.99,1
5016,0,50684,57580,50694.1,57598.73,-10.11,-18.73,0.000004,0.000007,1.00046,84.99,1
5026,0,50691,57587,50694.04,57598.5,-3.04,-11.5,0.000005,0.000011,1.000457,84.99,1
5036,0,50689,57581,50693.94,57598.15,-4.95,-17.15,0.000007,0.000017,1.000453,84.99,1
5047,0,50688,57591,50693.83,57598.01,-5.83,-7.01,0.00001,0.000019,1.000452,84.99,1
5056,0,50692,57587,50693.79,57597.79,-1.79,-10.79,0.00001,0.000023,1.000449,84.99,1
5066,0,50694,57585,50693.8,57597.53,0.2,-12.54,0.00001,0.000027,1.000445,84.99,1
5076,0,50683,57582,50693.58,57597.23,-10.58,-15.23,0.000014,0.000033,1.000444,84.99,1
5086,0,50686,57583,50693.43,57596.94,-7.43,-13.94,0.000017,0.000038,1.000442,84.99,1
5097,0,50686,57582,50693.28,57596.64,-7.28,-14.64,0.00002,0.000043,1.000439,84.99,1
5106,0,50687,57576,50693.16,57596.23,-6.16,-20.23,0.000023,0.00005,1.000434,84.99,1
5116,0,50686,57577,50693.01,57595.85,-7.01,-18.85,0.000026,0.000057,1.00043,84.99,1
5126,0,50681,57578,50692.77,57595.49,-11.77,-17.49,0.00003,0.000063,1.000429,84.99,1
5137,0,50681,57573,50692.54,57595.04,-11.54,-22.04,0.000035,0.000071,1.000425,84.99,1
5146,0,50679,57564,50692.26,57594.42,-13.27,-30.43,0.00004,0.000081,1.000419,84.99,1
5156,0,50679,57568,50692,57593.9,-13,-25.9,0.000046,0.000091,1.000415,84.99,1
5166,0,50683,57564,50691.82,57593.3,-8.82,-29.3,0.000049,0.000101,1.000408,84.99,1
5177,0,50674,57571,50691.46,57592.86,-17.46,-21.86,0.000056,0.000109,1.000407,84.99,1
5186,0,50685,57573,50691.33,57592.46,-6.34,-19.46,0.000059,0.000115,1.000402,84.99,1
5196,0,50680,57575,50691.11,57592.12,-11.11,-17.12,0.000063,0.000121,1.0004,84.99,1
5207,0,50687,57578,50691.03,57591.83,-4.03,-13.84,0.000065,0.000126,1.000397,84.99,1
5217,0,50686,57582,50690.93,57591.64,-4.93,-9.64,0.000067,0.00013,1.000396,84.99,1
5227,0,50682,57581,50690.75,57591.43,-8.75,-10.43,0.00007,0.000133,1.000395,84.99,1
5236,0,50680,57580,50690.54,57591.2,-10.54,-11.2,0.000074,0.000137,1.000396,84.99,1
5246,0,50690,57590,50690.53,57591.18,-0.54,-1.18,0.000075,0.000138,1.000395,84.99,1
5256,0,50686,57586,50690.44,57591.07,-4.45,-5.07,0.000076,0.00014,1.000395,84.99,1
5267,0,50694,57593,50690.51,57591.11,3.48,1.89,0.000075,0.000139,1.000394,84.99,1
5276,0,50688,57600,50690.47,57591.29,-2.47,8.71,0.000076,0.000136,1.000398,84.99,1
5286,0,50690,57613,50690.46,57591.73,-0.46,21.27,0.000076,0.000128,1.000406,84.99,1
5296,0,50706,57616,50690.77,57592.22,15.23,23.78,0.00007,0.00012,1.000408,84.99,1
5307,0,50700,57613,50690.96,57592.64,9.04,20.36,0.000066,0.000112,1.000411,84.99,1
5316,0,50700,57619,50691.14,57593.16,8.86,25.84,0.000063,0.000103,1.000416,84.99,1
5326,0,50698,57611,50691.28,57593.52,6.72,17.48,0.00006,0.000097,1.000419,84.99,1
5337,0,50696,57617,50691.38,57593.99,4.62,23.01,0.000058,0.000089,1.000425,84.99,1
5346,0,50694,57619,50691.43,57594.49,2.57,24.51,0.000057,0.00008,1.000432,84.99,1
5357,0,50702,57627,50691.64,57595.14,10.36,31.86,0.000053,0.000069,1.000438,84.99,1
5366,0,50703,57629,50691.87,57595.82,11.13,33.18,0.000048,0.000057,1.000445,84.99,1
5377,0,50710,57642,50692.23,57596.74,17.77,45.26,0.000041,0.000041,1.000452,84.99,1
5386,0,50706,57640,50692.51,57597.61,13.49,42.39,0.000036,0.000026,1.00046,84.99,1
5397,0,50711,57641,50692.88,57598.48,18.12,42.52,0.000028,0.000011,1.000466,84.99,1
5406,0,50709,57639,50693.2,57599.29,15.8,39.71,0.000022,-0.000003,1.000472,84.99,1
5416,0,50708,57642,50693.5,57600.15,14.5,41.85,0.000016,-0.000018,1.00048,84.99,1
5426,0,50709,57648,50693.81,57601.11,15.19,46.89,0.00001,-0.000035,1.000488,84.99,1
5436,0,50711,57649,50694.16,57602.07,16.84,46.93,0.000003,-0.000051,1.000496,84.99,1
5446,0,50703,57654,50694.33,57603.11,8.67,50.89,0,-0.000069,1.000508,84.99,1
5456,0,50725,57644,50694.94,57603.92,30.05,40.07,-0.000013,-0.000084,1.00051,84.99,1
5466,0,50718,57638,50695.41,57604.61,22.59,33.39,-0.000022,-0.000095,1.000512,84.99,1
5476,0,50712,57620,50695.74,57604.92,16.26,15.08,-0.000028,-0.000101,1.000511,84.99,1
5486,0,50707,57613,50695.96,57605.08,11.04,7.92,-0.000033,-0.000104,1.000509,84.99,1
5496,0,50699,57589,50696.03,57604.76,2.97,-15.76,-0.000034,-0.000098,1.000502,84.99,1
5507,0,50696,57584,50696.03,57604.35,-0.03,-20.35,-0.000034,-0.000091,1.000494,84.99,1
5516,0,50692,57563,50695.95,57603.52,-3.95,-40.52,-0.000032,-0.000077,1.00048,84.99,1
5527,0,50684,57558,50695.71,57602.61,-11.71,-44.61,-0.000028,-0.000061,1.000466,84.99,1
5536,0,50678,57552,50695.36,57601.6,-17.36,-49.6,-0.000021,-0.000043,1.000453,84.99,1
5547,0,50681,57541,50695.07,57600.39,-14.07,-59.39,-0.000015,-0.000022,1.000434,84.99,1
5556,0,50671,57541,50694.59,57599.2,-23.59,-58.2,-0.000006,-0.000002,1.000419,84.99,1
5567,0,50671,57543,50694.12,57598.08,-23.12,-55.08,0.000004,0.000018,1.000406,84.99,1
5576,0,50678,57529,50693.8,57596.69,-15.8,-67.7,0.00001,0.000042,1.000383,84.99,1
5586,0,50672,57529,50693.37,57595.34,-21.37,-66.34,0.000019,0.000066,1.000363,84.99,1
5596,0,50663,57539,50692.76,57594.21,-29.76,-55.21,0.000031,0.000085,1.000353,84.99,1
5606,0,50672,57535,50692.35,57593.03,-20.35,-58.03,0.000039,0.000106,1.000337,84.99,1
5616,0,50673,57534,50691.96,57591.85,-18.96,-57.85,0.000046,0.000126,1.00032,84.99,1
5626,0,50672,57540,50691.56,57590.82,-19.56,-50.82,0.000054,0.000144,1.000307,84.99,1
5636,0,50667,57550,50691.07,57590,-24.07,-40,0.000064,0.000158,1.000302,84.99,1
5647,0,50673,57548,50690.71,57589.16,-17.71,-41.16,0.000071,0.000173,1.000293,84.99,1
5656,0,50676,57560,50690.42,57588.58,-14.42,-28.58,0.000077,0.000183,1.000288,84.99,1
5666,0,50676,57562,50690.13,57588.05,-14.13,-26.05,0.000083,0.000192,1.000283,84.99,1
5676,0,50682,57569,50689.97,57587.66,-7.97,-18.66,0.000086,0.000199,1.00028,84.99,1
5686,0,50682,57571,50689.81,57587.33,-7.81,-16.33,0.000089,0.000205,1.000276,84.99,1
5696,0,50687,57581,50689.75,57587.2,-2.75,-6.2,0.00009,0.000207,1.000275,84.99,1
5706,0,50688,57573,50689.72,57586.92,-1.72,-13.92,0.000091,0.000212,1.000271,84.99,1
5716,0,50688,57584,50689.69,57586.86,-1.69,-2.86,0.000091,0.000213,1.00027,84.99,1
5726,0,50691,57591,50689.72,57586.95,1.28,4.05,0.000091,0.000211,1.000271,84.99,1
5736,0,50696,57587,50689.85,57586.95,6.15,0.05,0.000088,0.000211,1.000269,84.99,1
5745,0,50693,57591,50689.91,57587.03,3.09,3.97,0.000087,0.00021,1.000269,84.99,1
5756,0,50690,57584,50689.91,57586.97,0.09,-2.97,0.000087,0.000211,1.000268,84.99,1
5767,0,50686,57582,50689.83,57586.87,-3.84,-4.88,0.000088,0.000213,1.000268,84.99,1
5776,0,50691,57578,50689.86,57586.69,1.14,-8.7,0.000088,0.000216,1.000264,84.99,1
5786,0,50687,57579,50689.8,57586.54,-2.8,-7.54,0.000089,0.000218,1.000262,84.99,1
5795,0,50684,57592,50689.68,57586.65,-5.68,5.35,0.000091,0.000216,1.000267,84.99,1
5807,0,50691,57581,50689.71,57586.54,1.29,-5.54,0.000091,0.000218,1.000264,84.99,1
5817,0,50689,57587,50689.7,57586.55,-0.7,0.45,0.000091,0.000218,1.000265,84.99,1
5826,0,50697,57587,50689.85,57586.55,7.15,0.45,0.000088,0.000218,1.000262,84.99,1
5836,0,50690,57590,50689.85,57586.62,0.15,3.38,0.000088,0.000217,1.000263,84.99,1
5846,0,50692,57583,50689.89,57586.55,2.11,-3.55,0.000087,0.000218,1.000261,84.99,1
5856,0,50685,57581,50689.8,57586.44,-4.8,-5.45,0.000089,0.00022,1.000261,84.99,1
5865,0,50687,57581,50689.74,57586.34,-2.74,-5.34,0.00009,0.000222,1.00026,84.99,1
5876,0,50689,57578,50689.73,57586.17,-0.73,-8.17,0.00009,0.000225,1.000257,84.99,1
5886,0,50690,57594,50689.73,57586.33,0.27,7.67,0.00009,0.000222,1.00026,84.99,1
5896,0,50688,57585,50689.7,57586.3,-1.7,-1.3,0.000091,0.000222,1.00026,84.99,1
5906,0,50690,57596,50689.71,57586.49,0.29,9.51,0.000091,0.000219,1.000263,84.99,1
5915,0,50695,57605,50689.82,57586.86,5.18,18.14,0.000089,0.000213,1.000267,84.99,1
5926,0,50694,57603,50689.9,57587.19,4.1,15.81,0.000087,0.000207,1.00027,84.99,1
5937,0,50693,57605,50689.96,57587.55,3.04,17.45,0.000086,0.000201,1.000275,84.99,1
5946,0,50696,57610,50690.08,57588,5.91,22,0.000083,0.000193,1.00028,84.99,1
5956,0,50697,57613,50690.23,57588.5,6.77,24.5,0.000081,0.000184,1.000284,84.99,1
5965,0,50701,57624,50690.44,57589.21,10.56,34.79,0.000076,0.000172,1.00029,84.99,1
5977,0,50701,57620,50690.65,57589.83,10.35,30.17,0.000072,0.000161,1.000296,84.99,1
5986,0,50701,57631,50690.86,57590.65,10.14,40.35,0.000068,0.000147,1.000303,84.99,1
5996,0,50700,57626,50691.04,57591.36,8.96,34.64,0.000064,0.000135,1.00031,84.99,1
6005,0,50705,57630,50691.32,57592.14,13.68,37.86,0.000059,0.000121,1.000315,84.99,1
6017,0,50713,57641,50691.76,57593.12,21.24,47.88,0.00005,0.000104,1.00032,84.99,1
6026,0,50712,57650,50692.16,57594.26,19.84,55.74,0.000042,0.000084,1.000327,84.99,1
6036,0,50712,57648,50692.56,57595.33,19.44,52.66,0.000035,0.000066,1.000333,84.99,1
6045,0,50717,57663,50693.05,57596.69,23.95,66.31,0.000025,0.000042,1.00034,84.99,1
6056,0,50719,57659,50693.57,57597.94,25.43,61.06,0.000015,0.00002,1.000345,84.99,1
6066,0,50722,57666,50694.14,57599.3,27.86,66.7,0.000003,-0.000003,1.00035,84.99,1
6076,0,50721,57659,50694.67,57600.5,26.32,58.5,-0.000007,-0.000024,1.000355,84.99,1
6086,0,50720,57661,50695.18,57601.71,24.82,59.29,-0.000017,-0.000045,1.00036,84.99,1
6096,0,50723,57659,50695.74,57602.85,27.26,56.14,-0.000028,-0.000065,1.000365,84.99,1
6107,0,50726,57667,50696.35,57604.14,29.65,62.86,-0.00004,-0.000087,1.000369,84.99,1
6116,0,50722,57665,50696.86,57605.36,25.14,59.64,-0.00005,-0.000108,1.000374,84.99,1
6126,0,50725,57673,50697.42,57606.71,27.57,66.29,-0.000061,-0.000132,1.000379,84.99,1
6136,0,50725,57669,50697.98,57607.96,27.02,61.04,-0.000072,-0.000154,1.000383,84.99,1
6147,0,50726,57679,50698.54,57609.38,27.46,69.62,-0.000083,-0.000178,1.000388,84.99,1
6156,0,50732,57682,50699.21,57610.83,32.79,71.16,-0.000097,-0.000203,1.000392,84.99,1
6166,0,50729,57681,50699.8,57612.24,29.2,68.76,-0.000108,-0.000228,1.000396,84.99,1
6176,0,50726,57690,50700.33,57613.8,25.67,76.2,-0.000119,-0.000255,1.000401,84.99,1
6187,0,50732,57671,50700.96,57614.94,31.04,56.05,-0.000131,-0.000275,1.000404,84.99,1
6196,0,50729,57667,50701.52,57615.99,27.48,51.01,-0.000142,-0.000293,1.000407,84.99,1
6206,0,50725,57656,50701.99,57616.79,23.01,39.21,-0.000152,-0.000307,1.00041,84.99,1
6216,0,50711,57647,50702.17,57617.39,8.83,29.61,-0.000155,-0.000317,1.000415,84.99,1
6226,0,50708,57638,50702.29,57617.81,5.71,20.19,-0.000157,-0.000325,1.000419,84.99,1
6236,0,50707,57620,50702.39,57617.85,4.61,2.15,-0.000159,-0.000325,1.000418,84.99,1
6246,0,50703,57597,50702.4,57617.44,0.6,-20.44,-0.000159,-0.000318,1.00041,84.99,1
6255,0,50694,57598,50702.23,57617.05,-8.23,-19.05,-0.000156,-0.000311,1.000406,84.99,1
6266,0,50695,57581,50702.08,57616.33,-7.09,-35.33,-0.000153,-0.000299,1.000393,84.99,1
6277,0,50687,57566,50701.78,57615.33,-14.79,-49.33,-0.000147,-0.000281,1.000376,84.99,1
6286,0,50683,57554,50701.41,57614.1,-18.41,-60.1,-0.00014,-0.00026,1.000354,84.99,1
6296,0,50680,57558,50700.98,57612.98,-20.98,-54.98,-0.000132,-0.000241,1.000336,84.99,1
6306,0,50680,57539,50700.57,57611.5,-20.57,-72.5,-0.000123,-0.000215,1.000306,84.99,1
6317,0,50676,57541,50700.07,57610.09,-24.07,-69.09,-0.000114,-0.000191,1.000281,84.99,1
6326,0,50671,57540,50699.5,57608.69,-28.5,-68.7,-0.000102,-0.000166,1.000258,84.99,1
6336,0,50666,57538,50698.83,57607.28,-32.83,-69.29,-0.000089,-0.000142,1.000237,84.99,1
6346,0,50669,57541,50698.23,57605.96,-29.23,-64.96,-0.000077,-0.000119,1.000218,84.99,1
6356,0,50674,57547,50697.75,57604.78,-23.75,-57.79,-0.000068,-0.000098,1.000199,85,1
6366,0,50672,57553,50697.23,57603.75,-25.23,-50.75,-0.000058,-0.00008,1.000187,85,1
6376,0,50675,57548,50696.79,57602.64,-21.79,-54.64,-0.000049,-0.000061,1.000169,85,1
6386,0,50678,57550,50696.41,57601.58,-18.41,-51.59,-0.000041,-0.000043,1.000152,85,1
6396,0,50677,57565,50696.03,57600.85,-19.03,-35.86,-0.000034,-0.00003,1.000145,85,1
6406,0,50687,57563,50695.85,57600.1,-8.85,-37.1,-0.00003,-0.000017,1.000131,85,1
6416,0,50680,57562,50695.53,57599.34,-15.54,-37.34,-0.000024,-0.000004,1.000121,85,1
6426,0,50676,57562,50695.14,57598.59,-19.14,-36.59,-0.000016,0.000009,1.000113,85,1
6436,0,50685,57566,50694.94,57597.94,-9.94,-31.94,-0.000012,0.00002,1.000103,85,1
6446,0,50684,57577,50694.72,57597.52,-10.72,-20.52,-0.000008,0.000028,1.0001,85,1
6456,0,50684,57572,50694.51,57597.01,-10.51,-25.02,-0.000004,0.000036,1.000093,85,1
6465,0,50684,57582,50694.3,57596.72,-10.3,-14.72,0,0.000042,1.000092,85,1
6476,0,50686,57576,50694.13,57596.3,-8.13,-20.3,0.000004,0.000049,1.000087,85,1
6487,0,50685,57585,50693.94,57596.08,-8.95,-11.08,0.000007,0.000053,1.000087,85,1
6496,0,50685,57577,50693.76,57595.69,-8.77,-18.7,0.000011,0.000059,1.000083,85,1
6506,0,50687,57578,50693.63,57595.34,-6.63,-17.34,0.000013,0.000066,1.000079,85,1
6515,0,50687,57571,50693.5,57594.85,-6.5,-23.85,0.000016,0.000074,1.000071,85,1
6526,0,50683,57571,50693.29,57594.37,-10.29,-23.37,0.00002,0.000082,1.000066,85,1
6536,0,50681,57575,50693.05,57593.99,-12.05,-18.99,0.000025,0.000089,1.000063,85,1
6546,0,50685,57567,50692.89,57593.45,-7.89,-26.45,0.000028,0.000098,1.000055,85,1
6555,0,50681,57570,50692.65,57592.98,-11.65,-22.98,0.000033,0.000106,1.00005,85,1
6566,0,50681,57569,50692.42,57592.5,-11.42,-23.5,0.000037,0.000115,1.000045,85,1
6577,0,50675,57566,50692.07,57591.97,-17.07,-25.97,0.000044,0.000124,1.000042,85,1
6586,0,50683,57562,50691.89,57591.37,-8.89,-29.37,0.000048,0.000134,1.000032,85,1
6596,0,50677,57569,50691.6,57590.92,-14.6,-21.92,0.000054,0.000142,1.000029,85,1
6605,0,50682,57564,50691.41,57590.39,-9.41,-26.39,0.000057,0.000152,1.000022,85,1
6617,0,50687,57578,50691.32,57590.14,-4.32,-12.14,0.000059,0.000156,1.000019,85,1
6626,0,50679,57572,50691.07,57589.78,-12.07,-17.78,0.000064,0.000162,1.000017,85,1
6636,0,50678,57583,50690.81,57589.65,-12.81,-6.65,0.000069,0.000164,1.00002,85,1
6645,0,50680,57583,50690.59,57589.51,-10.59,-6.52,0.000073,0.000167,1.000023,85,1
6657,0,50682,57583,50690.42,57589.39,-8.42,-6.39,0.000077,0.000169,1.000024,85,1
6666,0,50685,57593,50690.31,57589.46,-5.31,3.54,0.000079,0.000168,1.000028,85,1
6676,0,50688,57595,50690.27,57589.57,-2.27,5.43,0.00008,0.000166,1.00003,85,1
6686,0,50690,57604,50690.26,57589.86,-0.27,14.14,0.00008,0.000161,1.000035,85,1
6695,0,50695,57608,50690.36,57590.22,4.64,17.78,0.000078,0.000154,1.000038,85,1
6707,0,50694,57621,50690.43,57590.83,3.57,30.16,0.000077,0.000144,1.000043,85,1
6716,0,50701,57624,50690.64,57591.5,10.36,32.5,0.000072,0.000132,1.000047,85,1
6726,0,50702,57620,50690.87,57592.07,11.13,27.93,0.000068,0.000122,1.00005,85,1
6735,0,50697,57629,50691,57592.81,6,36.19,0.000065,0.000109,1.000056,85,1
6746,0,50702,57621,50691.21,57593.37,10.79,27.62,0.000061,0.0001,1.000058,85,1
6757,0,50704,57624,50691.47,57593.99,12.53,30.01,0.000056,0.000089,1.000061,85,1
6766,0,50701,57625,50691.66,57594.61,9.34,30.39,0.000052,0.000078,1.000065,85,1
6776,0,50699,57633,50691.81,57595.38,7.19,37.62,0.000049,0.000065,1.00007,85,1
6786,0,50703,57633,50692.03,57596.13,10.97,36.87,0.000045,0.000052,1.000073,85,1
6797,0,50707,57642,50692.33,57597.05,14.67,44.95,0.000039,0.000036,1.000076,85,1
6806,0,50711,57654,50692.71,57598.19,18.29,55.81,0.000032,0.000016,1.000076,85,1
6816,0,50715,57661,50693.16,57599.44,21.84,61.55,0.000023,-0.000006,1.000075,85,1
6825,0,50714,57657,50693.57,57600.6,20.43,56.4,0.000015,-0.000026,1.000075,85,1
6836,0,50714,57662,50693.98,57601.82,20.02,60.18,0.000006,-0.000047,1.000074,85,1
6845,0,50716,57668,50694.42,57603.15,21.57,64.85,-0.000002,-0.00007,1.000072,85,1
6856,0,50716,57661,50694.86,57604.3,21.14,56.7,-0.000011,-0.00009,1.000072,85,1
6866,0,50714,57663,50695.25,57605.48,18.75,57.52,-0.000018,-0.000111,1.000071,85,1
6876,0,50718,57658,50695.7,57606.53,22.3,51.47,-0.000027,-0.000129,1.000071,85,1
6887,0,50718,57666,50696.15,57607.72,21.85,58.28,-0.000036,-0.000149,1.00007,85,1
6896,0,50718,57669,50696.58,57608.95,21.41,60.05,-0.000045,-0.000171,1.000068,85,1
6906,0,50722,57681,50697.1,57610.39,24.9,70.61,-0.000055,-0.000196,1.000063,85,1
6916,0,50719,57689,50697.53,57611.96,21.46,77.04,-0.000064,-0.000223,1.000056,85,1
6926,0,50729,57691,50698.16,57613.55,30.84,77.45,-0.000076,-0.000251,1.000047,85,1
6936,0,50727,57695,50698.74,57615.17,28.26,79.82,-0.000087,-0.000279,1.000037,85,1
6946,0,50741,57694,50699.59,57616.75,41.41,77.25,-0.000104,-0.000306,1.000029,85,1
6956,0,50729,57689,50700.17,57618.2,28.82,70.8,-0.000116,-0.000331,1.000023,85,1
6966,0,50732,57690,50700.81,57619.64,31.19,70.36,-0.000128,-0.000356,1.000016,85,1
6976,0,50729,57674,50701.37,57620.73,27.62,53.27,-0.000139,-0.000375,1.000014,85,1
6986,0,50721,57676,50701.77,57621.83,19.23,54.16,-0.000147,-0.000394,1.000013,85,1
6995,0,50718,57655,50702.09,57622.5,15.91,32.5,-0.000154,-0.000406,1.000014,85,1
7006,0,50718,57652,50702.41,57623.09,15.59,28.91,-0.00016,-0.000416,1.000015,85,1
7015,0,50710,57641,50702.57,57623.45,7.43,17.55,-0.000163,-0.000422,1.000017,85,1
7026,0,50704,57630,50702.59,57623.58,1.41,6.42,-0.000163,-0.000425,1.000019,85,1
7035,0,50704,57618,50702.62,57623.47,1.38,-5.47,-0.000164,-0.000423,1.000016,85,1
7046,0,50699,57599,50702.55,57622.98,-3.55,-23.98,-0.000162,-0.000414,1.000006,85,1
7057,0,50700,57594,50702.5,57622.41,-2.5,-28.41,-0.000162,-0.000404,0.999993,85,1
7066,0,50697,57587,50702.39,57621.7,-5.39,-34.7,-0.000159,-0.000392,0.999976,85,1
7076,0,50689,57577,50702.12,57620.8,-13.13,-43.8,-0.000154,-0.000377,0.999956,85,1
7086,0,50685,57570,50701.78,57619.79,-16.78,-49.79,-0.000147,-0.000359,0.999933,85,1
7096,0,50684,57568,50701.42,57618.75,-17.43,-50.75,-0.00014,-0.000341,0.999909,85,1
7106,0,50680,57572,50701,57617.82,-21,-45.82,-0.000132,-0.000325,0.999892,85,1
7116,0,50686,57575,50700.7,57616.96,-14.7,-41.96,-0.000126,-0.00031,0.999875,85,1
7126,0,50684,57575,50700.37,57616.12,-16.37,-41.13,-0.000119,-0.000295,0.999858,85,1
7136,0,50685,57574,50700.06,57615.28,-15.06,-41.29,-0.000113,-0.000281,0.999841,85,1
7146,0,50687,57586,50699.8,57614.7,-12.8,-28.7,-0.000108,-0.000271,0.999833,85,1
7156,0,50686,57587,50699.52,57614.14,-13.52,-27.14,-0.000103,-0.000261,0.999825,85,1
7165,0,50694,57594,50699.41,57613.74,-5.41,-19.74,-0.000101,-0.000254,0.999818,85,1
7176,0,50692,57593,50699.26,57613.33,-7.26,-20.33,-0.000098,-0.000247,0.999812,85,1
7185,0,50690,57591,50699.08,57612.88,-9.08,-21.88,-0.000094,-0.000239,0.999805,85,1
7196,0,50690,57588,50698.9,57612.39,-8.9,-24.39,-0.00009,-0.00023,0.999797,85.01,1
7205,0,50691,57605,50698.74,57612.24,-7.74,-7.24,-0.000087,-0.000228,0.999798,85.01,1
7216,0,50695,57600,50698.67,57612,-3.67,-12,-0.000086,-0.000224,0.999794,85.01,1
7226,0,50697,57608,50698.64,57611.92,-1.64,-3.92,-0.000085,-0.000222,0.999793,85.01,1
7236,0,50695,57613,50698.56,57611.94,-3.56,1.05,-0.000084,-0.000223,0.999796,85.01,1
7246,0,50695,57616,50698.49,57612.03,-3.49,3.97,-0.000082,-0.000224,0.999798,85.01,1
7256,0,50698,57618,50698.48,57612.15,-0.48,5.85,-0.000082,-0.000226,0.9998,85,1
7266,0,50704,57616,50698.59,57612.23,5.41,3.77,-0.000084,-0.000228,0.9998,85.01,1
7275,0,50699,57621,50698.6,57612.41,0.4,8.59,-0.000085,-0.000231,0.999802,85,1
7285,0,50697,57612,50698.57,57612.4,-1.57,-0.4,-0.000084,-0.000231,0.999803,85,1
7297,0,50700,57610,50698.6,57612.35,1.4,-2.35,-0.000085,-0.00023,0.999801,85,1
7306,0,50705,57611,50698.73,57612.32,6.27,-1.32,-0.000087,-0.000229,0.999798,85.01,1
7316,0,50698,57611,50698.72,57612.3,-0.72,-1.3,-0.000087,-0.000229,0.999798,85.01,1
7325,0,50694,57613,50698.62,57612.31,-4.63,0.69,-0.000085,-0.000229,0.9998,85,1
7335,0,50697,57611,50698.59,57612.28,-1.59,-1.29,-0.000084,-0.000229,0.999801,85,1
7347,0,50696,57610,50698.54,57612.24,-2.54,-2.24,-0.000083,-0.000228,0.999801,85,1
7356,0,50690,57611,50698.37,57612.21,-8.38,-1.21,-0.00008,-0.000227,0.999804,85,1
7366,0,50698,57605,50698.37,57612.07,-0.37,-7.07,-0.00008,-0.000225,0.999802,85,1
7375,0,50699,57615,50698.39,57612.13,0.61,2.87,-0.00008,-0.000226,0.999802,85,1
7386,0,50699,57619,50698.4,57612.27,0.6,6.73,-0.000081,-0.000228,0.999804,85,1
7395,0,50698,57627,50698.39,57612.56,-0.39,14.44,-0.00008,-0.000234,0.999808,85,1
7406,0,50705,57617,50698.53,57612.65,6.47,4.35,-0.000083,-0.000235,0.999807,85,1
7416,0,50710,57625,50698.76,57612.9,11.24,12.1,-0.000088,-0.000239,0.999807,85,1
7426,0,50708,57631,50698.94,57613.26,9.05,17.73,-0.000091,-0.000246,0.999808,85,1
7436,0,50713,57638,50699.23,57613.76,13.77,24.24,-0.000097,-0.000254,0.999808,85,1
7445,0,50708,57631,50699.41,57614.11,8.59,16.89,-0.0001,-0.00026,0.999809,85,1
7456,0,50708,57641,50699.58,57614.65,8.42,26.35,-0.000104,-0.00027,0.99981,85,1
7465,0,50714,57653,50699.87,57615.41,14.13,37.59,-0.00011,-0.000283,0.999808,85,1
7476,0,50714,57655,50700.15,57616.21,13.85,38.79,-0.000115,-0.000297,0.999805,85,1
7485,0,50714,57666,50700.43,57617.2,13.57,48.8,-0.000121,-0.000314,0.999798,85.01,1
7496,0,50715,57680,50700.72,57618.46,14.28,61.54,-0.000126,-0.000336,0.999784,85.01,1
7505,0,50728,57674,50701.27,57619.57,26.73,54.43,-0.000137,-0.000355,0.999774,85.01,1
7516,0,50724,57675,50701.73,57620.68,22.27,54.32,-0.000146,-0.000374,0.999764,85.01,1
7525,0,50721,57688,50702.11,57622.03,18.89,65.97,-0.000154,-0.000398,0.999745,85.01,1
7536,0,50723,57683,50702.53,57623.25,20.47,59.75,-0.000162,-0.000419,0.99973,85.01,1
7545,0,50738,57701,50703.24,57624.8,34.76,76.2,-0.000176,-0.000446,0.999704,85.01,1
7556,0,50733,57695,50703.84,57626.21,29.16,68.79,-0.000188,-0.00047,0.999683,85.01,1
7565,0,50724,57693,50704.25,57627.54,19.75,65.46,-0.000196,-0.000493,0.999663,85.01,1
7576,0,50732,57694,50704.8,57628.87,27.2,65.13,-0.000207,-0.000517,0.999644,85.01,1
7586,0,50727,57699,50705.25,57630.27,21.75,68.73,-0.000216,-0.000541,0.99962,85.01,1
7596,0,50732,57698,50705.78,57631.63,26.21,66.37,-0.000226,-0.000564,0.999599,85.01,1
7607,0,50731,57693,50706.29,57632.85,24.71,60.14,-0.000236,-0.000586,0.999583,85.01,1
7616,0,50732,57688,50706.81,57633.96,25.19,54.04,-0.000246,-0.000605,0.999571,85.01,1
7626,0,50732,57706,50707.31,57635.4,24.69,70.6,-0.000256,-0.00063,0.999545,85.01,1
7635,0,50739,57703,50707.95,57636.75,31.05,66.25,-0.000269,-0.000653,0.999524,85.01,1
7647,0,50740,57713,50708.59,57638.28,31.41,74.72,-0.000282,-0.00068,0.999494,85.01,1
7656,0,50739,57713,50709.2,57639.78,29.8,73.22,-0.000294,-0.000706,0.999465,85.01,1
7666,0,50741,57721,50709.84,57641.41,31.16,79.59,-0.000306,-0.000734,0.999429,85.01,1
7675,0,50748,57712,50710.6,57642.82,37.39,69.18,-0.000321,-0.000758,0.999407,85.01,1
7687,0,50746,57721,50711.32,57644.38,34.68,76.62,-0.000335,-0.000786,0.999375,85.02,1
7696,0,50743,57714,50711.95,57645.78,31.05,68.22,-0.000348,-0.00081,0.99935,85.02,1
7706,0,50742,57718,50712.55,57647.22,29.45,70.78,-0.00036,-0.000835,0.999321,85.02,1
7715,0,50748,57712,50713.26,57648.52,34.74,63.48,-0.000374,-0.000857,0.999303,85.02,1
7727,0,50736,57708,50713.71,57649.71,22.29,58.29,-0.000383,-0.000878,0.999285,85.02,1
7736,0,50741,57686,50714.26,57650.44,26.74,35.56,-0.000393,-0.000891,0.999283,85.02,1
7746,0,50734,57679,50714.66,57651.01,19.34,27.99,-0.000401,-0.000901,0.999281,85.02,1
7755,0,50726,57666,50714.88,57651.31,11.12,14.69,-0.000406,-0.000906,0.999281,85.02,1
7766,0,50722,57649,50715.03,57651.26,6.97,-2.27,-0.000409,-0.000905,0.999279,85.02,1
7775,0,50715,57644,50715.03,57651.12,-0.03,-7.12,-0.000409,-0.000902,0.999276,85.02,1
7786,0,50708,57623,50714.89,57650.56,-6.89,-27.56,-0.000406,-0.000893,0.99926,85.02,1
7795,0,50706,57615,50714.71,57649.85,-8.71,-34.85,-0.000402,-0.00088,0.999239,85.02,1
7805,0,50700,57604,50714.42,57648.93,-14.42,-44.93,-0.000397,-0.000865,0.999207,85.02,1
7817,0,50697,57603,50714.07,57648.01,-17.07,-45.02,-0.00039,-0.000849,0.999179,85.02,1
7826,0,50689,57589,50713.57,57646.83,-24.57,-57.84,-0.00038,-0.000828,0.999137,85.02,1
7836,0,50696,57602,50713.22,57645.94,-17.22,-43.94,-0.000373,-0.000813,0.99911,85.02,1
7845,0,50697,57592,50712.9,57644.86,-15.9,-52.86,-0.000367,-0.000794,0.999067,85.02,1
7857,0,50691,57595,50712.46,57643.86,-21.46,-48.86,-0.000358,-0.000777,0.999036,85.02,1
7866,0,50691,57585,50712.03,57642.69,-21.04,-57.69,-0.00035,-0.000756,0.998989,85.03,1
7876,0,50691,57590,50711.62,57641.64,-20.62,-51.64,-0.000341,-0.000738,0.998952,85.03,1
7885,0,50692,57587,50711.23,57640.54,-19.23,-53.54,-0.000334,-0.000719,0.99891,85.03,1
7897,0,50689,57591,50710.78,57639.55,-21.79,-48.55,-0.000325,-0.000702,0.998879,85.03,1
7906,0,50694,57597,50710.45,57638.71,-16.45,-41.71,-0.000318,-0.000687,0.998853,85.03,1
7916,0,50684,57604,50709.92,57638.01,-25.92,-34.01,-0.000308,-0.000675,0.998847,85.03,1
7925,0,50695,57606,50709.62,57637.37,-14.62,-31.37,-0.000302,-0.000664,0.998832,85.03,1
7936,0,50690,57607,50709.23,57636.77,-19.23,-29.77,-0.000294,-0.000654,0.998824,85.03,1
7946,0,50693,57614,50708.91,57636.32,-15.91,-22.32,-0.000288,-0.000646,0.99882,85.03,1
7956,0,50697,57610,50708.67,57635.79,-11.67,-25.79,-0.000283,-0.000636,0.998809,85.03,1
7965,0,50697,57612,50708.44,57635.31,-11.44,-23.31,-0.000279,-0.000628,0.9988,85.03,1
7975,0,50700,57618,50708.27,57634.96,-8.27,-16.96,-0.000275,-0.000622,0.998795,85.03,1
7985,0,50701,57629,50708.13,57634.84,-7.13,-5.84,-0.000272,-0.00062,0.998796,85.03,1
7996,0,50699,57626,50707.95,57634.67,-8.95,-8.67,-0.000269,-0.000617,0.998797,85.03,1
8006,0,50700,57631,50707.79,57634.6,-7.79,-3.6,-0.000266,-0.000616,0.9988,85.03,1
8015,0,50701,57630,50707.66,57634.51,-6.66,-4.51,-0.000263,-0.000614,0.998801,85.03,1
8026,0,50700,57638,50707.5,57634.58,-7.5,3.42,-0.00026,-0.000616,0.998806,85.03,1
8035,0,50709,57633,50707.53,57634.55,1.46,-1.55,-0.000261,-0.000615,0.998806,85.03,1
8046,0,50710,57634,50707.58,57634.54,2.41,-0.54,-0.000262,-0.000615,0.998804,85.03,1
8055,0,50707,57633,50707.57,57634.51,-0.57,-1.51,-0.000262,-0.000614,0.998804,85.03,1
8066,0,50706,57623,50707.54,57634.28,-1.54,-11.28,-0.000261,-0.00061,0.998799,85.03,1
8076,0,50707,57632,50707.53,57634.24,-0.54,-2.24,-0.000261,-0.00061,0.998798,85.03,1
8085,0,50705,57632,50707.49,57634.19,-2.49,-2.2,-0.00026,-0.000609,0.998798,85.03,1
8096,0,50705,57637,50707.44,57634.25,-2.44,2.75,-0.000259,-0.00061,0.9988,85.03,1
8105,0,50709,57645,50707.47,57634.46,1.53,10.54,-0.00026,-0.000614,0.998802,85.03,1
8116,0,50713,57635,50707.58,57634.48,5.41,0.52,-0.000262,-0.000614,0.9988,85.03,1
8125,0,50709,57635,50707.61,57634.49,1.39,0.51,-0.000262,-0.000614,0.9988,85.03,1
8135,0,50713,57629,50707.72,57634.38,5.28,-5.38,-0.000264,-0.000612,0.998796,85.03,1
8146,0,50709,57641,50707.75,57634.51,1.25,6.49,-0.000265,-0.000614,0.998797,85.03,1
8156,0,50707,57634,50707.74,57634.5,-0.74,-0.5,-0.000265,-0.000614,0.998797,85.03,1
8166,0,50708,57635,50707.75,57634.51,0.25,0.48,-0.000265,-0.000614,0.998797,85.03,1
8175,0,50705,57645,50707.69,57634.73,-2.7,10.27,-0.000264,-0.000618,0.9988,85.03,1
8185,0,50711,57647,50707.76,57634.97,3.24,12.03,-0.000265,-0.000622,0.998801,85.03,1
8195,0,50710,57639,50707.81,57635.05,2.19,3.95,-0.000266,-0.000624,0.998801,85.03,1
8206,0,50713,57641,50707.91,57635.17,5.09,5.82,-0.000268,-0.000626,0.998801,85.03,1
8216,0,50713,57654,50708.02,57635.55,4.98,18.45,-0.00027,-0.000632,0.9988,85.03,1
8225,0,50711,57659,50708.08,57636.02,2.92,22.98,-0.000272,-0.000641,0.998798,85.03,1
8236,0,50716,57658,50708.24,57636.46,7.76,21.54,-0.000275,-0.000648,0.998795,85.03,1
8245,0,50714,57660,50708.35,57636.93,5.64,23.07,-0.000277,-0.000656,0.998792,85.03,1
8256,0,50717,57663,50708.53,57637.46,8.47,25.54,-0.00028,-0.000665,0.998787,85.03,1
8265,0,50722,57673,50708.8,57638.17,13.2,34.83,-0.000286,-0.000678,0.998776,85.03,1
8275,0,50721,57671,50709.05,57638.83,11.95,32.17,-0.000291,-0.000689,0.998766,85.03,1
8287,0,50723,57681,50709.33,57639.67,13.67,41.33,-0.000296,-0.000704,0.998747,85.03,1
8296,0,50723,57682,50709.6,57640.52,13.4,41.48,-0.000302,-0.000719,0.998727,85.03,1
8306,0,50726,57680,50709.93,57641.31,16.07,38.69,-0.000308,-0.000732,0.998712,85.03,1
8315,0,50717,57679,50710.07,57642.07,6.93,36.93,-0.000311,-0.000745,0.998696,85.03,1
8327,0,50722,57676,50710.31,57642.75,11.69,33.25,-0.000316,-0.000757,0.998685,85.03,1
8336,0,50722,57677,50710.55,57643.43,11.45,33.57,-0.00032,-0.000769,0.998673,85.03,1
8346,0,50725,57692,50710.83,57644.4,14.16,47.6,-0.000326,-0.000786,0.998643,85.03,1
8355,0,50726,57690,50711.14,57645.32,14.86,44.68,-0.000332,-0.000802,0.998618,85.03,1
8366,0,50727,57691,50711.46,57646.23,15.54,44.77,-0.000338,-0.000818,0.998592,85.04,1
8376,0,50726,57691,50711.75,57647.13,14.25,43.87,-0.000344,-0.000833,0.998567,85.04,1
8386,0,50728,57700,50712.07,57648.19,15.93,51.81,-0.00035,-0.000852,0.998529,85.04,1
8395,0,50738,57704,50712.59,57649.3,25.41,54.7,-0.000361,-0.000871,0.998492,85.04,1
8406,0,50725,57704,50712.84,57650.4,12.16,53.6,-0.000365,-0.00089,0.998448,85.04,1
8415,0,50732,57703,50713.23,57651.45,18.77,51.55,-0.000373,-0.000908,0.99841,85.04,1
8426,0,50736,57701,50713.68,57652.44,22.32,48.56,-0.000382,-0.000925,0.998381,85.04,1
8435,0,50729,57700,50713.99,57653.39,15.01,46.61,-0.000388,-0.000942,0.998349,85.04,1
8445,0,50729,57679,50714.29,57653.91,14.71,25.09,-0.000394,-0.000951,0.998344,85.04,1
8455,0,50726,57681,50714.52,57654.45,11.48,26.55,-0.000399,-0.00096,0.998337,85.04,1
8466,0,50721,57657,50714.66,57654.5,6.34,2.5,-0.000401,-0.000961,0.998336,85.04,1
8475,0,50716,57648,50714.68,57654.37,1.32,-6.38,-0.000402,-0.000959,0.998333,85.04,1
8485,0,50708,57630,50714.55,57653.89,-6.55,-23.89,-0.000399,-0.000951,0.998315,85.04,1
8497,0,50704,57614,50714.34,57653.09,-10.34,-39.09,-0.000395,-0.000937,0.998272,85.04,1
8506,0,50700,57603,50714.05,57652.09,-14.05,-49.09,-0.000389,-0.000919,0.998209,85.04,1
8516,0,50691,57594,50713.59,57650.93,-22.59,-56.93,-0.00038,-0.000899,0.998136,85.05,1
8525,0,50696,57588,50713.25,57649.67,-17.25,-61.68,-0.000373,-0.000877,0.998037,85.05,1
8536,0,50685,57577,50712.68,57648.22,-27.68,-71.22,-0.000362,-0.000852,0.997923,85.05,1
8546,0,50679,57567,50712,57646.6,-33,-79.6,-0.000349,-0.000824,0.997786,85.06,1
8556,0,50678,57561,50711.32,57644.89,-33.32,-83.89,-0.000336,-0.000794,0.997629,85.06,1
8565,0,50666,57557,50710.42,57643.13,-44.42,-86.13,-0.000318,-0.000764,0.997493,85.06,1
8576,0,50672,57557,50709.65,57641.41,-37.65,-84.41,-0.000303,-0.000734,0.997343,85.07,1
8586,0,50669,57554,50708.84,57639.66,-39.84,-85.66,-0.000287,-0.000704,0.997193,85.07,1
8596,0,50674,57558,50708.14,57638.02,-34.14,-80.02,-0.000273,-0.000675,0.99705,85.07,1
8605,0,50674,57561,50707.46,57636.48,-33.46,-75.48,-0.000259,-0.000649,0.996926,85.08,1
8615,0,50674,57565,50706.8,57635.05,-32.8,-70.05,-0.000246,-0.000624,0.996821,85.08,1
8625,0,50680,57572,50706.26,57633.8,-26.26,-61.8,-0.000236,-0.000602,0.996731,85.08,1
8636,0,50678,57562,50705.69,57632.36,-27.7,-70.36,-0.000225,-0.000577,0.99661,85.08,1
8645,0,50679,57572,50705.16,57631.16,-26.16,-59.16,-0.000214,-0.000556,0.996528,85.09,1
8655,0,50674,57564,50704.54,57629.82,-30.54,-65.82,-0.000202,-0.000533,0.996431,85.09,1
8665,0,50678,57574,50704.01,57628.7,-26.01,-54.7,-0.000191,-0.000514,0.996363,85.09,1
8676,0,50676,57576,50703.45,57627.65,-27.45,-51.65,-0.00018,-0.000495,0.996308,85.09,1
8685,0,50686,57578,50703.1,57626.66,-17.1,-48.66,-0.000173,-0.000478,0.996242,85.09,1
8695,0,50679,57585,50702.62,57625.82,-23.62,-40.82,-0.000164,-0.000464,0.99621,85.09,1
8706,0,50687,57596,50702.3,57625.23,-15.3,-29.23,-0.000158,-0.000453,0.996189,85.1,1
8716,0,50684,57588,50701.94,57624.48,-17.94,-36.48,-0.00015,-0.00044,0.996157,85.1,1
8725,0,50685,57594,50701.6,57623.87,-16.6,-29.87,-0.000144,-0.00043,0.996137,85.1,1
8735,0,50686,57590,50701.28,57623.2,-15.29,-33.2,-0.000138,-0.000418,0.996108,85.1,1
8744,0,50688,57602,50701.02,57622.78,-13.02,-20.78,-0.000132,-0.000411,0.9961,85.1,1
8756,0,50685,57596,50700.7,57622.24,-15.7,-26.24,-0.000126,-0.000401,0.996085,85.1,1
8765,0,50691,57604,50700.51,57621.87,-9.51,-17.87,-0.000122,-0.000395,0.996077,85.1,1
8775,0,50686,57587,50700.22,57621.17,-14.22,-34.18,-0.000117,-0.000383,0.996042,85.1,1
8786,0,50683,57596,50699.88,57620.67,-16.88,-24.67,-0.00011,-0.000374,0.996032,85.1,1
8796,0,50686,57587,50699.6,57620,-13.6,-33,-0.000104,-0.000362,0.995999,85.1,1
8806,0,50678,57600,50699.17,57619.6,-21.17,-19.6,-0.000096,-0.000356,0.996008,85.1,1
8815,0,50685,57587,50698.89,57618.94,-13.89,-31.95,-0.00009,-0.000344,0.995977,85.1,1
8826,0,50687,57597,50698.65,57618.51,-11.65,-21.51,-0.000085,-0.000337,0.995965,85.1,1
8836,0,50683,57587,50698.33,57617.88,-15.34,-30.88,-0.000079,-0.000326,0.995938,85.1,1
8846,0,50686,57604,50698.09,57617.6,-12.09,-13.6,-0.000075,-0.000321,0.995939,85.1,1
8855,0,50684,57597,50697.81,57617.19,-13.81,-20.19,-0.000069,-0.000314,0.995932,85.1,1
8866,0,50689,57592,50697.63,57616.69,-8.63,-24.69,-0.000065,-0.000305,0.995909,85.1,1
8876,0,50691,57600,50697.5,57616.35,-6.5,-16.36,-0.000063,-0.000299,0.995899,85.1,1
8886,0,50688,57602,50697.31,57616.07,-9.31,-14.07,-0.000059,-0.000294,0.995894,85.1,1
8895,0,50691,57611,50697.19,57615.97,-6.19,-4.97,-0.000057,-0.000293,0.995896,85.1,1
8906,0,50695,57623,50697.14,57616.11,-2.14,6.89,-0.000056,-0.000295,0.995898,85.1,1
8915,0,50695,57634,50697.1,57616.47,-2.1,17.53,-0.000055,-0.000301,0.995894,85.1,1
8926,0,50697,57633,50697.1,57616.8,-0.1,16.2,-0.000055,-0.000307,0.99589,85.1,1
8935,0,50701,57635,50697.18,57617.17,3.82,17.83,-0.000057,-0.000313,0.995884,85.1,1
8945,0,50698,57628,50697.2,57617.38,0.8,10.62,-0.000057,-0.000317,0.995883,85.1,1
8956,0,50702,57639,50697.3,57617.82,4.7,21.18,-0.000059,-0.000325,0.995873,85.1,1
8966,0,50703,57639,50697.41,57618.24,5.59,20.76,-0.000061,-0.000332,0.995864,85.1,1
8976,0,50709,57649,50697.64,57618.86,11.36,30.14,-0.000066,-0.000343,0.995841,85.1,1
8985,0,50706,57641,50697.81,57619.3,8.19,21.7,-0.000069,-0.000351,0.995831,85.1,1
8995,0,50708,57652,50698.01,57619.96,9.98,32.04,-0.000073,-0.000362,0.995804,85.1,1
9006,0,50708,57660,50698.21,57620.76,9.79,39.24,-0.000077,-0.000376,0.995758,85.11,1
9016,0,50709,57658,50698.43,57621.5,10.57,36.5,-0.000081,-0.000389,0.99572,85.11,1
9025,0,50712,57665,50698.7,57622.37,13.3,42.63,-0.000087,-0.000404,0.995666,85.11,1
9035,0,50713,57663,50698.99,57623.19,14.01,39.81,-0.000092,-0.000418,0.995621,85.11,1
9044,0,50712,57671,50699.25,57624.15,12.75,46.85,-0.000097,-0.000435,0.995551,85.11,1
9056,0,50722,57682,50699.7,57625.31,22.3,56.69,-0.000106,-0.000455,0.995457,85.11,1
9065,0,50716,57679,50700.03,57626.38,15.97,52.62,-0.000113,-0.000473,0.995367,85.12,1
9075,0,50720,57680,50700.43,57627.46,19.57,52.54,-0.000121,-0.000492,0.995283,85.12,1
9084,0,50719,57682,50700.8,57628.55,18.2,53.45,-0.000128,-0.000511,0.995192,85.12,1
9096,0,50722,57690,50701.23,57629.78,20.77,60.22,-0.000136,-0.000532,0.995074,85.12,1
9105,0,50724,57694,50701.68,57631.07,22.32,62.93,-0.000145,-0.000555,0.994944,85.13,1
9115,0,50722,57692,50702.09,57632.28,19.91,59.71,-0.000154,-0.000576,0.994824,85.13,1
9124,0,50725,57702,50702.55,57633.68,22.45,68.32,-0.000163,-0.0006,0.994662,85.13,1
9136,0,50727,57695,50703.04,57634.91,23.96,60.09,-0.000172,-0.000621,0.994547,85.14,1
9145,0,50729,57706,50703.56,57636.33,25.44,69.67,-0.000182,-0.000646,0.994381,85.14,1
9155,0,50730,57711,50704.09,57637.82,25.91,73.18,-0.000193,-0.000672,0.994193,85.15,1
9166,0,50728,57715,50704.57,57639.37,23.43,75.63,-0.000202,-0.000699,0.993982,85.15,1
9176,0,50734,57705,50705.16,57640.69,28.84,64.31,-0.000214,-0.000722,0.993852,85.15,1
9186,0,50737,57716,50705.8,57642.19,31.2,73.8,-0.000226,-0.000748,0.993671,85.16,1
9195,0,50732,57702,50706.32,57643.39,25.68,58.61,-0.000237,-0.000768,0.99356,85.16,1
9206,0,50731,57710,50706.82,57644.72,24.18,65.28,-0.000247,-0.000791,0.993407,85.16,1
9216,0,50728,57689,50707.24,57645.61,20.76,43.39,-0.000255,-0.000807,0.993351,85.17,1
9226,0,50722,57674,50707.54,57646.18,14.46,27.82,-0.000261,-0.000817,0.993331,85.17,1
9235,0,50717,57658,50707.73,57646.42,9.27,11.58,-0.000265,-0.000821,0.99333,85.17,1
9246,0,50715,57644,50707.88,57646.37,7.12,-2.37,-0.000268,-0.00082,0.993329,85.17,1
9255,0,50703,57634,50707.78,57646.12,-4.78,-12.13,-0.000266,-0.000816,0.993321,85.17,1
9266,0,50708,57621,50707.78,57645.62,0.21,-24.62,-0.000266,-0.000807,0.993282,85.17,1
9275,0,50699,57609,50707.61,57644.89,-8.61,-35.89,-0.000262,-0.000794,0.993212,85.17,1
9286,0,50689,57601,50707.24,57644.01,-18.24,-43.02,-0.000255,-0.000779,0.993132,85.17,1
9295,0,50691,57597,50706.91,57643.08,-15.91,-46.08,-0.000249,-0.000763,0.993029,85.17,1
9306,0,50688,57579,50706.54,57641.8,-18.54,-62.8,-0.000241,-0.000741,0.992831,85.18,1
9315,0,50683,57576,50706.07,57640.48,-23.07,-64.48,-0.000232,-0.000718,0.992634,85.18,1
9326,0,50684,57573,50705.63,57639.13,-21.63,-66.13,-0.000223,-0.000695,0.992418,85.19,1
9335,0,50677,57570,50705.05,57637.75,-28.05,-67.75,-0.000212,-0.000671,0.992214,85.19,1
9346,0,50682,57573,50704.59,57636.46,-22.59,-63.46,-0.000203,-0.000648,0.992018,85.2,1
9355,0,50683,57583,50704.16,57635.39,-21.16,-52.39,-0.000194,-0.00063,0.991889,85.2,1
9366,0,50679,57590,50703.66,57634.48,-24.66,-44.48,-0.000184,-0.000614,0.991818,85.2,1
9375,0,50686,57594,50703.31,57633.67,-17.31,-39.68,-0.000177,-0.0006,0.991745,85.21,1
9385,0,50687,57583,50702.98,57632.66,-15.98,-49.66,-0.000171,-0.000582,0.991613,85.21,1
9395,0,50684,57595,50702.6,57631.91,-18.6,-36.91,-0.000164,-0.000569,0.991556,85.21,1
9406,0,50682,57582,50702.19,57630.91,-20.19,-48.91,-0.000155,-0.000552,0.991439,85.21,1
9415,0,50684,57591,50701.83,57630.12,-17.83,-39.12,-0.000148,-0.000538,0.991368,85.22,1
9425,0,50687,57587,50701.53,57629.25,-14.53,-42.25,-0.000142,-0.000523,0.99127,85.22,1
9435,0,50690,57603,50701.3,57628.73,-11.3,-25.73,-0.000138,-0.000514,0.991236,85.22,1
9446,0,50689,57598,50701.06,57628.12,-12.06,-30.12,-0.000133,-0.000503,0.991187,85.22,1
9455,0,50680,57607,50700.64,57627.69,-20.64,-20.7,-0.000125,-0.000496,0.991197,85.22,1
9465,0,50689,57595,50700.41,57627.04,-11.41,-32.04,-0.00012,-0.000485,0.991137,85.22,1
9475,0,50688,57602,50700.16,57626.54,-12.16,-24.54,-0.000115,-0.000476,0.991108,85.22,1
9486,0,50685,57595,50699.86,57625.91,-14.86,-30.91,-0.000109,-0.000465,0.991062,85.22,1
9496,0,50692,57601,50699.7,57625.41,-7.7,-24.41,-0.000106,-0.000456,0.991024,85.22,1
9505,0,50687,57597,50699.45,57624.84,-12.45,-27.84,-0.000101,-0.000447,0.990983,85.23,1
9516,0,50685,57591,50699.16,57624.17,-14.16,-33.17,-0.000096,-0.000435,0.990923,85.23,1
9526,0,50689,57591,50698.96,57623.51,-9.96,-32.51,-0.000092,-0.000423,0.990855,85.23,1
9536,0,50684,57591,50698.66,57622.86,-14.66,-31.86,-0.000086,-0.000412,0.990802,85.23,1
9545,0,50685,57587,50698.39,57622.14,-13.39,-35.14,-0.00008,-0.0004,0.990728,85.23,1
9555,0,50685,57589,50698.12,57621.48,-13.12,-32.48,-0.000075,-0.000388,0.990667,85.23,1
9565,0,50680,57581,50697.76,57620.67,-17.76,-39.67,-0.000068,-0.000374,0.990582,85.24,1
9576,0,50685,57586,50697.51,57619.98,-12.51,-33.98,-0.000063,-0.000362,0.99051,85.24,1
9585,0,50679,57583,50697.14,57619.24,-18.14,-36.24,-0.000056,-0.000349,0.990444,85.24,1
9595,0,50679,57591,50696.77,57618.67,-17.77,-27.68,-0.000049,-0.00034,0.990417,85.24,1
9605,0,50677,57585,50696.38,57618,-19.38,-33,-0.000041,-0.000328,0.990371,85.24,1
9616,0,50678,57595,50696.01,57617.54,-18.01,-22.54,-0.000033,-0.00032,0.990365,85.24,1
9625,0,50686,57591,50695.81,57617.01,-9.81,-26.01,-0.00003,-0.000311,0.99032,85.24,1
9635,0,50677,57593,50695.44,57616.53,-18.44,-23.53,-0.000022,-0.000302,0.990312,85.24,1
9645,0,50682,57599,50695.17,57616.18,-13.17,-17.18,-0.000017,-0.000296,0.990306,85.24,1
9656,0,50682,57596,50694.91,57615.78,-12.91,-19.78,-0.000012,-0.000289,0.990292,85.24,1
9665,0,50686,57615,50694.73,57615.76,-8.73,-0.77,-0.000008,-0.000289,0.990302,85.24,1
9675,0,50690,57624,50694.64,57615.93,-4.64,8.07,-0.000006,-0.000292,0.990304,85.24,1
9684,0,50698,57631,50694.71,57616.24,3.29,14.76,-0.000008,-0.000297,0.990293,85.24,1
9696,0,50699,57631,50694.79,57616.53,4.21,14.46,-0.00001,-0.000302,0.990282,85.24,1
9706,0,50701,57647,50694.92,57617.15,6.08,29.85,-0.000012,-0.000313,0.990224,85.24,1
9715,0,50701,57643,50695.04,57617.66,5.96,25.34,-0.000014,-0.000322,0.990184,85.25,1
9725,0,50703,57649,50695.2,57618.29,7.8,30.71,-0.000018,-0.000333,0.990123,85.25,1
9735,0,50705,57655,50695.4,57619.03,9.6,35.97,-0.000021,-0.000346,0.990038,85.25,1
9746,0,50710,57662,50695.69,57619.89,14.31,42.11,-0.000027,-0.000361,0.989926,85.25,1
9755,0,50714,57661,50696.06,57620.71,17.94,40.29,-0.000034,-0.000375,0.989835,85.25,1
9765,0,50713,57666,50696.4,57621.62,16.6,44.38,-0.000041,-0.000391,0.989712,85.26,1
9775,0,50712,57689,50696.71,57622.97,15.29,66.03,-0.000047,-0.000414,0.989392,85.27,1
9786,0,50715,57677,50697.08,57624.05,17.92,52.95,-0.000055,-0.000433,0.989204,85.27,1
9795,0,50716,57690,50697.46,57625.37,18.54,64.63,-0.000062,-0.000456,0.988904,85.28,1
9805,0,50727,57686,50698.05,57626.58,28.95,59.42,-0.000074,-0.000477,0.988706,85.28,1
9815,0,50724,57700,50698.57,57628.05,25.43,71.95,-0.000084,-0.000502,0.988349,85.29,1
9826,0,50732,57699,50699.24,57629.47,32.76,69.53,-0.000097,-0.000527,0.988063,85.3,1
9836,0,50727,57706,50699.79,57631,27.21,75,-0.000108,-0.000553,0.987671,85.31,1
9845,0,50728,57703,50700.35,57632.44,27.64,70.55,-0.000119,-0.000578,0.987333,85.32,1
9856,0,50732,57718,50700.99,57634.16,31.01,83.84,-0.000132,-0.000608,0.986837,85.33,1
9866,0,50737,57711,50701.71,57635.69,35.29,75.31,-0.000146,-0.000635,0.986487,85.34,1
9876,0,50737,57723,50702.41,57637.44,34.59,85.56,-0.00016,-0.000665,0.985983,85.35,1
9885,0,50740,57720,50703.17,57639.09,36.83,80.91,-0.000175,-0.000694,0.985562,85.36,1
9895,0,50742,57727,50703.94,57640.85,38.05,86.15,-0.00019,-0.000724,0.98507,85.37,1
9905,0,50737,57728,50704.6,57642.59,32.39,85.41,-0.000203,-0.000755,0.984538,85.39,1
9916,0,50745,57743,50705.41,57644.6,39.59,98.4,-0.000219,-0.000789,0.983844,85.4,1
9925,0,50743,57737,50706.17,57646.45,36.83,90.55,-0.000234,-0.000821,0.983257,85.42,1
9935,0,50749,57755,50707.03,57648.62,41.97,106.38,-0.000251,-0.000859,0.982425,85.44,1
9945,0,50747,57741,50707.83,57650.47,39.17,90.53,-0.000267,-0.000891,0.981851,85.45,1
9956,0,50751,57752,50708.69,57652.5,42.31,99.5,-0.000284,-0.000926,0.981144,85.47,1
9965,0,50755,57741,50709.62,57654.27,45.38,86.73,-0.000302,-0.000957,0.980693,85.48,1
9975,0,50749,57741,50710.41,57656,38.59,85,-0.000318,-0.000987,0.980194,85.5,1
9985,0,50746,57730,50711.12,57657.49,34.88,72.51,-0.000332,-0.001013,0.979847,85.5,1
9996,0,50745,57723,50711.8,57658.8,33.2,64.2,-0.000345,-0.001036,0.979593,85.51,1
10005,0,50738,57704,50712.33,57659.7,25.67,44.3,-0.000355,-0.001051,0.979489,85.51,1
10015,0,50743,57699,50712.94,57660.49,30.06,38.51,-0.000367,-0.001065,0.979464,85.51,1
10025,0,50730,57675,50713.28,57660.78,16.71,14.21,-0.000374,-0.00107,0.97948,85.51,1
10036,0,50724,57671,50713.5,57660.99,10.5,10.01,-0.000378,-0.001074,0.979485,85.51,1
10045,0,50720,57655,50713.63,57660.87,6.37,-5.88,-0.000381,-0.001072,0.979482,85.51,1
10055,0,50715,57643,50713.66,57660.52,1.34,-17.52,-0.000382,-0.001066,0.979443,85.51,1
10065,0,50707,57634,50713.52,57659.99,-6.52,-25.99,-0.000379,-0.001056,0.979371,85.52,1
10076,0,50708,57633,50713.41,57659.45,-5.41,-26.45,-0.000377,-0.001047,0.979292,85.52,1
10085,0,50709,57619,50713.33,57658.64,-4.33,-39.64,-0.000375,-0.001033,0.979111,85.52,1
10095,0,50708,57625,50713.22,57657.97,-5.22,-32.97,-0.000373,-0.001021,0.978986,85.53,1
10105,0,50711,57634,50713.18,57657.49,-2.18,-23.49,-0.000372,-0.001013,0.978918,85.53,1
10116,0,50703,57636,50712.98,57657.06,-9.98,-21.06,-0.000368,-0.001006,0.97888,85.53,1
10125,0,50708,57627,50712.88,57656.46,-4.88,-29.46,-0.000366,-0.000995,0.978777,85.53,1
10136,0,50706,57638,50712.74,57656.09,-6.74,-18.09,-0.000364,-0.000989,0.978743,85.53,1
10145,0,50709,57637,50712.67,57655.71,-3.67,-18.71,-0.000362,-0.000982,0.9787,85.53,1
10156,0,50703,57641,50712.47,57655.41,-9.47,-14.41,-0.000358,-0.000977,0.978688,85.53,1
10165,0,50709,57637,50712.4,57655.05,-3.4,-18.05,-0.000357,-0.000971,0.978647,85.53,1
10176,0,50710,57643,50712.35,57654.8,-2.36,-11.8,-0.000356,-0.000966,0.978628,85.53,1
10185,0,50707,57650,50712.25,57654.71,-5.25,-4.71,-0.000354,-0.000965,0.97863,85.53,1
10195,0,50713,57648,50712.27,57654.58,0.73,-6.58,-0.000354,-0.000963,0.978622,85.53,1
10205,0,50714,57656,50712.3,57654.61,1.7,1.39,-0.000355,-0.000963,0.978622,85.53,1
10215,0,50715,57658,50712.36,57654.68,2.64,3.32,-0.000356,-0.000964,0.978622,85.53,1
10224,0,50717,57660,50712.45,57654.78,4.55,5.21,-0.000358,-0.000966,0.978622,85.53,1
10235,0,50711,57661,50712.42,57654.91,-1.42,6.09,-0.000357,-0.000968,0.978621,85.53,1
10246,0,50713,57659,50712.44,57654.99,0.56,4.01,-0.000357,-0.00097,0.97862,85.53,1
10255,0,50710,57657,50712.39,57655.03,-2.39,1.96,-0.000356,-0.00097,0.978622,85.53,1
10265,0,50715,57666,50712.44,57655.26,2.55,10.74,-0.000358,-0.000974,0.978611,85.53,1
10275,0,50717,57662,50712.54,57655.39,4.46,6.61,-0.000359,-0.000977,0.978609,85.53,1
10286,0,50721,57668,50712.71,57655.64,8.29,12.36,-0.000363,-0.000981,0.978602,85.53,1
10295,0,50723,57669,50712.92,57655.91,10.08,13.09,-0.000367,-0.000986,0.978598,85.54,1
10305,0,50721,57666,50713.08,57656.11,7.92,9.89,-0.00037,-0.000989,0.978596,85.54,1
10314,0,50713,57666,50713.08,57656.31,-0.08,9.69,-0.00037,-0.000993,0.978587,85.54,1
10326,0,50720,57663,50713.22,57656.45,6.78,6.55,-0.000373,-0.000995,0.978589,85.54,1
10335,0,50722,57667,50713.4,57656.66,8.6,10.34,-0.000376,-0.000999,0.978588,85.54,1
10345,0,50719,57660,50713.51,57656.73,5.49,3.27,-0.000379,-0.001,0.978592,85.54,1
10354,0,50722,57668,50713.68,57656.95,8.32,11.05,-0.000382,-0.001004,0.978588,85.54,1
10365,0,50722,57660,50713.85,57657.01,8.15,2.98,-0.000385,-0.001005,0.978597,85.54,1
10376,0,50721,57667,50714,57657.21,7,9.79,-0.000388,-0.001008,0.978594,85.54,1
10385,0,50719,57664,50714.1,57657.35,4.9,6.65,-0.00039,-0.001011,0.978592,85.54,1
10395,0,50722,57670,50714.26,57657.6,7.74,12.39,-0.000393,-0.001015,0.978583,85.54,1
10404,0,50727,57673,50714.51,57657.91,12.49,15.09,-0.000398,-0.00102,0.978581,85.54,1
10416,0,50720,57670,50714.62,57658.16,5.38,11.84,-0.000401,-0.001025,0.978567,85.54,1
10425,0,50725,57683,50714.83,57658.66,10.17,24.34,-0.000405,-0.001033,0.978502,85.54,1
10435,0,50726,57674,50715.05,57658.96,10.95,15.04,-0.000409,-0.001039,0.978493,85.54,1
10445,0,50724,57681,50715.23,57659.41,8.77,21.59,-0.000412,-0.001046,0.978441,85.54,1
10456,0,50727,57695,50715.46,57660.12,11.54,34.88,-0.000417,-0.001058,0.978285,85.54,1
10465,0,50733,57688,50715.82,57660.67,17.18,27.32,-0.000424,-0.001068,0.978232,85.54,1
10476,0,50730,57697,50716.1,57661.41,13.9,35.59,-0.00043,-0.001081,0.978077,85.55,1
10485,0,50732,57693,50716.42,57662.04,15.58,30.96,-0.000436,-0.001092,0.977979,85.55,1
10496,0,50731,57699,50716.71,57662.78,14.29,36.22,-0.000442,-0.001105,0.977816,85.55,1
10505,0,50729,57703,50716.96,57663.58,12.04,39.41,-0.000447,-0.001119,0.9776,85.56,1
10516,0,50741,57717,50717.44,57664.66,23.56,52.34,-0.000456,-0.001137,0.977277,85.57,1
10525,0,50739,57710,50717.87,57665.56,21.12,44.44,-0.000465,-0.001153,0.977053,85.57,1
10535,0,50737,57715,50718.26,57666.55,18.74,48.45,-0.000472,-0.00117,0.976744,85.58,1
10545,0,50739,57716,50718.67,57667.55,20.32,48.45,-0.00048,-0.001187,0.976446,85.59,1
10556,0,50739,57723,50719.08,57668.66,19.91,54.34,-0.000489,-0.001207,0.976039,85.6,1
10565,0,50743,57715,50719.57,57669.58,23.43,45.41,-0.000498,-0.001223,0.975816,85.6,1
10575,0,50746,57727,50720.1,57670.73,25.9,56.27,-0.000509,-0.001243,0.975428,85.61,1
10585,0,50742,57715,50720.53,57671.62,21.46,43.38,-0.000517,-0.001258,0.975211,85.62,1
10596,0,50747,57722,50721.07,57672.63,25.93,49.37,-0.000528,-0.001276,0.974945,85.63,1
10605,0,50742,57725,50721.48,57673.68,20.52,51.32,-0.000536,-0.001294,0.974582,85.64,1
10615,0,50743,57732,50721.91,57674.85,21.09,57.15,-0.000544,-0.001314,0.974108,85.65,1
10626,0,50747,57730,50722.42,57675.95,24.58,54.05,-0.000554,-0.001333,0.973731,85.66,1
10636,0,50747,57736,50722.91,57677.15,24.09,58.85,-0.000564,-0.001354,0.973246,85.67,1
10645,0,50747,57738,50723.39,57678.37,23.61,59.63,-0.000573,-0.001375,0.972734,85.68,1
10656,0,50751,57753,50723.94,57679.86,27.05,73.14,-0.000584,-0.001401,0.971929,85.7,1
10665,0,50752,57748,50724.51,57681.23,27.49,66.77,-0.000596,-0.001425,0.971291,85.72,1
10676,0,50756,57761,50725.14,57682.82,30.86,78.18,-0.000608,-0.001452,0.970386,85.74,1
10685,0,50753,57756,50725.7,57684.28,27.3,71.71,-0.000619,-0.001478,0.969607,85.76,1
10694,0,50755,57760,50726.29,57685.8,28.71,74.2,-0.000631,-0.001504,0.968773,85.78,1
10705,0,50763,57761,50727.03,57687.3,35.97,73.7,-0.000645,-0.00153,0.968072,85.8,1
10715,0,50758,57751,50727.65,57688.58,30.35,62.42,-0.000657,-0.001552,0.967565,85.81,1
10725,0,50755,57742,50728.2,57689.65,26.8,52.35,-0.000668,-0.001571,0.967225,85.82,1
10734,0,50748,57740,50728.6,57690.66,19.4,49.34,-0.000676,-0.001588,0.966851,85.83,1
10745,0,50741,57717,50728.85,57691.18,12.15,25.82,-0.000681,-0.001597,0.966762,85.83,1
10755,0,50746,57710,50729.19,57691.56,16.8,18.44,-0.000688,-0.001604,0.966772,85.83,1
10765,0,50739,57692,50729.39,57691.57,9.61,0.43,-0.000692,-0.001604,0.966795,85.83,1
10774,0,50733,57676,50729.47,57691.26,3.53,-15.26,-0.000693,-0.001599,0.966743,85.83,1
10785,0,50724,57658,50729.36,57690.59,-5.36,-32.59,-0.000691,-0.001587,0.966519,85.84,1
10795,0,50720,57658,50729.17,57689.94,-9.17,-31.94,-0.000687,-0.001576,0.96632,85.84,1
10805,0,50714,57644,50728.87,57689.02,-14.87,-45.02,-0.000682,-0.00156,0.965942,85.85,1
10815,0,50712,57634,50728.53,57687.92,-16.53,-53.92,-0.000675,-0.001541,0.965384,85.87,1
10825,0,50711,57622,50728.18,57686.6,-17.18,-64.61,-0.000668,-0.001518,0.96455,85.89,1
10834,0,50701,57626,50727.64,57685.39,-26.64,-59.39,-0.000657,-0.001497,0.963983,85.9,1
10846,0,50705,57619,50727.19,57684.07,-22.19,-65.07,-0.000648,-0.001474,0.963185,85.92,1
10855,0,50706,57626,50726.76,57682.91,-20.77,-56.91,-0.00064,-0.001454,0.962587,85.94,1
10865,0,50703,57626,50726.29,57681.77,-23.29,-55.77,-0.000631,-0.001434,0.962049,85.95,1
10874,0,50697,57632,50725.71,57680.78,-28.71,-48.78,-0.000619,-0.001417,0.961766,85.96,1
10886,0,50707,57618,50725.33,57679.52,-18.34,-61.52,-0.000612,-0.001395,0.960996,85.98,1
10895,0,50699,57624,50724.81,57678.41,-25.81,-54.41,-0.000601,-0.001376,0.960521,85.99,1
10905,0,50702,57623,50724.35,57677.31,-22.36,-54.31,-0.000592,-0.001357,0.95999,86,1
10914,0,50707,57623,50724.01,57676.22,-17.01,-53.22,-0.000586,-0.001338,0.959412,86.01,1
10926,0,50712,57630,50723.77,57675.3,-11.77,-45.3,-0.000581,-0.001322,0.958963,86.03,1
10935,0,50710,57633,50723.5,57674.46,-13.5,-41.46,-0.000575,-0.001307,0.958607,86.03,1
10945,0,50711,57647,50723.25,57673.91,-12.25,-26.91,-0.000571,-0.001298,0.958479,86.04,1
10955,0,50711,57651,50723,57673.45,-12,-22.45,-0.000566,-0.00129,0.958404,86.04,1
10966,0,50711,57652,50722.76,57673.02,-11.76,-21.02,-0.000561,-0.001282,0.95834,86.04,1
10975,0,50717,57648,50722.64,57672.52,-5.64,-24.52,-0.000559,-0.001274,0.958197,86.05,1
10986,0,50719,57646,50722.57,57671.99,-3.57,-25.99,-0.000557,-0.001264,0.958026,86.05,1
10995,0,50710,57640,50722.32,57671.35,-12.32,-31.36,-0.000552,-0.001253,0.957826,86.05,1
11005,0,50710,57649,50722.07,57670.91,-12.07,-21.91,-0.000547,-0.001246,0.957754,86.06,1
11015,0,50708,57649,50721.79,57670.47,-13.79,-21.47,-0.000542,-0.001238,0.957702,86.06,1
11026,0,50714,57649,50721.64,57670.04,-7.64,-21.04,-0.000539,-0.001231,0.957605,86.06,1
11035,0,50713,57654,50721.47,57669.72,-8.47,-15.72,-0.000536,-0.001225,0.957564,86.06,1
11045,0,50714,57649,50721.32,57669.31,-7.32,-20.31,-0.000533,-0.001218,0.957471,86.06,1
11055,0,50713,57643,50721.16,57668.78,-8.16,-25.78,-0.000529,-0.001209,0.957313,86.07,1
11066,0,50711,57647,50720.95,57668.35,-9.95,-21.35,-0.000525,-0.001201,0.957225,86.07,1
11075,0,50706,57638,50720.66,57667.74,-14.66,-29.74,-0.000519,-0.001191,0.957062,86.07,1
11085,0,50708,57639,50720.4,57667.17,-12.4,-28.17,-0.000514,-0.001181,0.956899,86.08,1
11096,0,50710,57648,50720.19,57666.78,-10.2,-18.79,-0.00051,-0.001174,0.95684,86.08,1
11105,0,50713,57655,50720.05,57666.55,-7.05,-11.55,-0.000508,-0.00117,0.956821,86.08,1
11115,0,50710,57650,50719.85,57666.22,-9.86,-16.22,-0.000504,-0.001164,0.956784,86.08,1
11125,0,50724,57655,50719.94,57666,4.06,-11,-0.000505,-0.001161,0.956751,86.08,1
11136,0,50715,57657,50719.84,57665.82,-4.84,-8.82,-0.000504,-0.001157,0.956736,86.08,1
11146,0,50713,57659,50719.71,57665.68,-6.71,-6.68,-0.000501,-0.001155,0.956742,86.08,1
11155,0,50718,57660,50719.67,57665.57,-1.68,-5.57,-0.0005,-0.001153,0.956733,86.08,1
11165,0,50720,57663,50719.68,57665.52,0.32,-2.52,-0.0005,-0.001152,0.95673,86.08,1
11174,0,50719,57665,50719.67,57665.51,-0.67,-0.52,-0.0005,-0.001152,0.95673,86.08,1
11186,0,50724,57675,50719.76,57665.71,4.24,9.29,-0.000502,-0.001156,0.956714,86.08,1
11195,0,50722,57677,50719.8,57665.93,2.2,11.07,-0.000503,-0.001159,0.956681,86.08,1
11205,0,50728,57681,50719.97,57666.24,8.03,14.76,-0.000506,-0.001165,0.956644,86.08,1
11214,0,50725,57691,50720.07,57666.73,4.93,24.27,-0.000508,-0.001173,0.956477,86.09,1
11226,0,50728,57694,50720.23,57667.28,7.77,26.72,-0.000511,-0.001183,0.956285,86.09,1
11235,0,50733,57706,50720.48,57668.06,12.52,37.94,-0.000516,-0.001196,0.955906,86.1,1
11245,0,50737,57702,50720.81,57668.74,16.19,33.26,-0.000523,-0.001208,0.955675,86.11,1
11254,0,50734,57712,50721.08,57669.6,12.92,42.4,-0.000528,-0.001223,0.955179,86.12,1
11266,0,50737,57711,50721.39,57670.43,15.61,40.57,-0.000534,-0.001237,0.954762,86.13,1
11275,0,50735,57715,50721.67,57671.32,13.33,43.68,-0.00054,-0.001253,0.954227,86.14,1
11285,0,50740,57720,50722.03,57672.3,17.96,47.7,-0.000547,-0.00127,0.953633,86.16,1
11294,0,50741,57731,50722.41,57673.47,18.59,57.53,-0.000554,-0.00129,0.952704,86.18,1
11305,0,50745,57721,50722.86,57674.42,22.14,46.58,-0.000563,-0.001307,0.952216,86.19,1
11315,0,50740,57727,50723.21,57675.47,16.79,51.53,-0.00057,-0.001325,0.951462,86.21,1
11325,0,50749,57726,50723.72,57676.48,25.28,49.52,-0.00058,-0.001342,0.950943,86.23,1
11334,0,50748,57733,50724.21,57677.62,23.79,55.38,-0.00059,-0.001362,0.950176,86.25,1
11345,0,50744,57736,50724.6,57678.78,19.39,57.21,-0.000597,-0.001382,0.949239,86.27,1
11355,0,50747,57731,50725.05,57679.83,21.95,51.17,-0.000606,-0.0014,0.948575,86.29,1
11365,0,50743,57739,50725.41,57681.02,17.59,57.98,-0.000613,-0.001421,0.947563,86.31,1
11375,0,50752,57744,50725.94,57682.28,26.05,61.72,-0.000624,-0.001443,0.946572,86.34,1
11385,0,50753,57741,50726.48,57683.45,26.52,57.55,-0.000634,-0.001463,0.945763,86.36,1
11395,0,50753,57740,50727.01,57684.58,25.98,55.41,-0.000645,-0.001483,0.945021,86.37,1
11406,0,50748,57749,50727.44,57685.87,20.56,63.13,-0.000653,-0.001505,0.943817,86.4,1
11415,0,50754,57741,50727.97,57686.98,26.03,54.02,-0.000664,-0.001524,0.943123,86.42,1
11425,0,50752,57745,50728.45,57688.14,23.55,56.86,-0.000673,-0.001544,0.942246,86.44,1
11435,0,50751,57743,50728.9,57689.24,22.1,53.76,-0.000682,-0.001564,0.941454,86.46,1
11446,0,50749,57742,50729.3,57690.29,19.7,51.71,-0.00069,-0.001582,0.940682,86.48,1
11455,0,50754,57742,50729.8,57691.33,24.2,50.67,-0.0007,-0.0016,0.940051,86.5,1
11465,0,50754,57742,50730.28,57692.34,23.72,49.66,-0.000709,-0.001617,0.939441,86.51,1
11474,0,50746,57721,50730.6,57692.91,15.4,28.09,-0.000715,-0.001627,0.939277,86.52,1
11486,0,50747,57710,50730.93,57693.26,16.07,16.74,-0.000722,-0.001633,0.939314,86.52,1
11495,0,50738,57690,50731.07,57693.19,6.93,-3.2,-0.000725,-0.001632,0.939334,86.52,1
11505,0,50730,57675,50731.05,57692.83,-1.05,-17.83,-0.000725,-0.001626,0.939205,86.52,1
11514,0,50725,57667,50730.93,57692.32,-5.93,-25.32,-0.000722,-0.001617,0.938966,86.53,1
11526,0,50717,57650,50730.66,57691.47,-13.66,-41.47,-0.000717,-0.001602,0.938382,86.54,1
11535,0,50712,57640,50730.28,57690.44,-18.28,-50.45,-0.000709,-0.001584,0.937549,86.56,1
11545,0,50715,57627,50729.98,57689.17,-14.98,-62.18,-0.000703,-0.001562,0.936109,86.6,1
11554,0,50708,57619,50729.54,57687.77,-21.54,-68.77,-0.000695,-0.001538,0.934456,86.64,1
11566,0,50698,57614,50728.91,57686.3,-30.91,-72.3,-0.000682,-0.001513,0.932894,86.68,1
11575,0,50703,57608,50728.39,57684.73,-25.39,-76.73,-0.000672,-0.001485,0.930867,86.73,1
11585,0,50697,57605,50727.76,57683.14,-30.77,-78.14,-0.00066,-0.001458,0.928934,86.78,1
11594,0,50697,57600,50727.15,57681.48,-30.15,-81.48,-0.000648,-0.001429,0.926756,86.83,1
11606,0,50705,57602,50726.71,57679.89,-21.71,-77.89,-0.000639,-0.001401,0.924538,86.89,1
11615,0,50700,57609,50726.17,57678.47,-26.18,-69.47,-0.000628,-0.001377,0.922963,86.93,1
11625,0,50697,57610,50725.59,57677.1,-28.59,-67.11,-0.000617,-0.001353,0.921602,86.96,1
11635,0,50707,57608,50725.22,57675.73,-18.22,-67.73,-0.00061,-0.001329,0.91989,87,1
11645,0,50695,57615,50724.62,57674.51,-29.62,-59.52,-0.000598,-0.001308,0.918963,87.03,1
11655,0,50698,57608,50724.08,57673.19,-26.09,-65.19,-0.000587,-0.001285,0.917605,87.06,1
11666,0,50701,57621,50723.62,57672.15,-22.62,-51.15,-0.000578,-0.001267,0.916823,87.08,1
11675,0,50701,57626,50723.17,57671.23,-22.17,-45.23,-0.000569,-0.001251,0.916269,87.09,1
11685,0,50708,57636,50722.87,57670.52,-14.87,-34.52,-0.000563,-0.001239,0.915898,87.1,1
11695,0,50710,57640,50722.61,57669.91,-12.61,-29.91,-0.000558,-0.001228,0.915612,87.11,1
11704,0,50716,57649,50722.48,57669.5,-6.48,-20.5,-0.000555,-0.001221,0.915452,87.11,1
11715,0,50713,57646,50722.29,57669.02,-9.29,-23.02,-0.000552,-0.001213,0.915273,87.12,1
11724,0,50718,57655,50722.21,57668.75,-4.21,-13.75,-0.00055,-0.001208,0.915198,87.12,1
11735,0,50712,57650,50722,57668.37,-10,-18.37,-0.000546,-0.001202,0.915114,87.12,1
11745,0,50711,57657,50721.78,57668.14,-10.79,-11.14,-0.000542,-0.001198,0.915139,87.12,1
11755,0,50717,57652,50721.69,57667.82,-4.69,-15.82,-0.00054,-0.001192,0.915037,87.12,1
11764,0,50717,57653,50721.6,57667.52,-4.6,-14.52,-0.000538,-0.001187,0.914951,87.13,1
11776,0,50713,57649,50721.43,57667.16,-8.43,-18.16,-0.000535,-0.001181,0.914846,87.13,1
11785,0,50720,57656,50721.4,57666.93,-1.4,-10.93,-0.000534,-0.001177,0.914788,87.13,1
11795,0,50713,57653,50721.24,57666.66,-8.24,-13.66,-0.000531,-0.001172,0.914747,87.13,1
11804,0,50722,57654,50721.26,57666.4,0.74,-12.4,-0.000531,-0.001168,0.914669,87.13,1
11815,0,50720,57648,50721.23,57666.03,-1.23,-18.04,-0.000531,-0.001161,0.914507,87.14,1
11825,0,50722,57648,50721.25,57665.67,0.75,-17.68,-0.000531,-0.001155,0.914348,87.14,1
11835,0,50716,57648,50721.14,57665.32,-5.14,-17.32,-0.000529,-0.001149,0.914216,87.14,1
11844,0,50714,57650,50721,57665.02,-7,-15.02,-0.000526,-0.001144,0.914139,87.15,1
11855,0,50717,57652,50720.92,57664.76,-3.93,-12.76,-0.000525,-0.001139,0.914066,87.15,1
11865,0,50718,57649,50720.87,57664.44,-2.87,-15.45,-0.000524,-0.001134,0.913947,87.15,1
11875,0,50722,57660,50720.89,57664.35,1.11,-4.36,-0.000524,-0.001132,0.913937,87.15,1
11884,0,50720,57662,50720.87,57664.31,-0.87,-2.31,-0.000524,-0.001131,0.913934,87.15,1
11895,0,50718,57660,50720.81,57664.22,-2.81,-4.22,-0.000523,-0.00113,0.913931,87.15,1
11905,0,50715,57658,50720.7,57664.1,-5.7,-6.1,-0.00052,-0.001128,0.913938,87.15,1
11915,0,50717,57662,50720.62,57664.05,-3.63,-2.05,-0.000519,-0.001127,0.913947,87.15,1
11924,0,50715,57670,50720.51,57664.17,-5.52,5.83,-0.000517,-0.001129,0.913958,87.15,1
11935,0,50715,57672,50720.41,57664.33,-5.41,7.67,-0.000515,-0.001132,0.913955,87.15,1
11944,0,50726,57684,50720.52,57664.73,5.48,19.27,-0.000517,-0.001139,0.91378,87.16,1
11955,0,50727,57682,50720.65,57665.07,6.35,16.93,-0.000519,-0.001144,0.913658,87.16,1
11965,0,50734,57694,50720.92,57665.65,13.08,28.35,-0.000525,-0.001155,0.91336,87.17,1
11975,0,50731,57692,50721.12,57666.18,9.88,25.82,-0.000529,-0.001164,0.913072,87.17,1
11984,0,50732,57703,50721.34,57666.91,10.66,36.09,-0.000533,-0.001176,0.912435,87.19,1
11995,0,50733,57699,50721.57,57667.56,11.43,31.44,-0.000538,-0.001188,0.911988,87.2,1
12004,0,50739,57711,50721.92,57668.42,17.07,42.57,-0.000545,-0.001203,0.911205,87.22,1
12015,0,50739,57710,50722.27,57669.26,16.73,40.74,-0.000551,-0.001217,0.910496,87.24,1
12024,0,50743,57726,50722.68,57670.39,20.32,55.61,-0.00056,-0.001237,0.909066,87.27,1
12035,0,50749,57722,50723.21,57671.43,25.79,50.57,-0.00057,-0.001255,0.908176,87.3,1
12044,0,50748,57730,50723.71,57672.6,24.29,57.39,-0.00058,-0.001275,0.906777,87.33,1
12055,0,50757,57734,50724.37,57673.83,32.63,60.16,-0.000593,-0.001296,0.905624,87.36,1
12064,0,50758,57743,50725.05,57675.22,32.95,67.78,-0.000606,-0.00132,0.903909,87.4,1
12075,0,50757,57735,50725.69,57676.41,31.31,58.59,-0.000619,-0.001341,0.902787,87.43,1
12085,0,50755,57742,50726.28,57677.73,28.72,64.27,-0.00063,-0.001364,0.901097,87.47,1
12095,0,50754,57737,50726.83,57678.91,27.17,58.09,-0.000641,-0.001384,0.899776,87.51,1
12104,0,50749,57740,50727.28,57680.13,21.72,59.87,-0.00065,-0.001406,0.89807,87.55,1
12115,0,50752,57746,50727.77,57681.45,24.23,64.55,-0.00066,-0.001429,0.896119,87.6,1
12125,0,50756,57760,50728.34,57683.02,27.66,76.98,-0.000671,-0.001456,0.893277,87.67,1
12135,0,50755,57764,50728.87,57684.64,26.12,79.36,-0.000682,-0.001484,0.890138,87.75,1
12144,0,50762,57757,50729.53,57686.09,32.46,70.91,-0.000695,-0.001509,0.88814,87.8,1
12155,0,50762,57765,50730.18,57687.67,31.82,77.33,-0.000707,-0.001536,0.88553,87.86,1
12165,0,50761,57769,50730.8,57689.3,30.2,79.7,-0.00072,-0.001564,0.882605,87.93,1
12175,0,50767,57771,50731.53,57690.93,35.47,80.07,-0.000734,-0.001593,0.880003,88,1
12184,0,50762,57769,50732.14,57692.49,29.86,76.51,-0.000746,-0.00162,0.877379,88.07,1
12195,0,50765,57774,50732.8,57694.12,32.2,79.87,-0.000759,-0.001648,0.874595,88.14,1
12205,0,50775,57784,50733.64,57695.92,41.36,88.08,-0.000776,-0.001679,0.871683,88.21,1
12215,0,50775,57788,50734.47,57697.76,40.53,90.23,-0.000792,-0.001711,0.868497,88.29,1
12224,0,50777,57777,50735.32,57699.35,41.68,77.65,-0.000809,-0.001739,0.866686,88.33,1
12235,0,50769,57779,50735.99,57700.94,33.01,78.05,-0.000822,-0.001766,0.864182,88.4,1
12244,0,50768,57758,50736.63,57702.08,31.37,55.91,-0.000834,-0.001786,0.863338,88.42,1
12255,0,50761,57748,50737.12,57703.01,23.88,44.99,-0.000844,-0.001802,0.862721,88.43,1
12264,0,50757,57737,50737.52,57703.69,19.48,33.31,-0.000852,-0.001814,0.862451,88.44,1
12275,0,50756,57723,50737.89,57704.07,18.11,18.93,-0.000859,-0.001821,0.862581,88.44,1
12284,0,50749,57707,50738.11,57704.13,10.89,2.87,-0.000864,-0.001822,0.8627,88.43,1
12295,0,50751,57699,50738.37,57704.03,12.63,-5.03,-0.000869,-0.00182,0.862851,88.43,1
12304,0,50749,57696,50738.58,57703.87,10.41,-7.88,-0.000873,-0.001817,0.862925,88.43,1
12315,0,50738,57674,50738.58,57703.28,-0.58,-29.28,-0.000873,-0.001807,0.862371,88.44,1
12324,0,50732,57671,50738.45,57702.63,-6.45,-31.63,-0.00087,-0.001796,0.861768,88.46,1
12335,0,50724,57654,50738.16,57701.66,-14.16,-47.66,-0.000865,-0.001779,0.860517,88.49,1
12344,0,50725,57651,50737.9,57700.65,-12.9,-49.65,-0.000859,-0.001761,0.859096,88.52,1
12355,0,50722,57638,50737.58,57699.4,-15.58,-61.4,-0.000853,-0.00174,0.856906,88.58,1
12364,0,50721,57637,50737.25,57698.15,-16.25,-61.15,-0.000847,-0.001718,0.854759,88.63,1
12375,0,50718,57645,50736.87,57697.08,-18.87,-52.09,-0.000839,-0.0017,0.853388,88.67,1
12385,0,50721,57645,50736.55,57696.04,-15.55,-51.04,-0.000833,-0.001681,0.851949,88.7,1
12395,0,50713,57647,50736.08,57695.07,-23.09,-48.07,-0.000824,-0.001664,0.851045,88.72,1
12404,0,50722,57644,50735.8,57694.05,-13.8,-50.05,-0.000818,-0.001647,0.849599,88.76,1
12414,0,50720,57653,50735.49,57693.23,-15.49,-40.23,-0.000812,-0.001633,0.848799,88.78,1
12425,0,50728,57648,50735.34,57692.32,-7.34,-44.32,-0.000809,-0.001617,0.847535,88.81,1
12435,0,50722,57652,50735.07,57691.52,-13.07,-39.52,-0.000804,-0.001603,0.846681,88.83,1
12444,0,50720,57662,50734.77,57690.93,-14.77,-28.93,-0.000798,-0.001593,0.846376,88.84,1
12455,0,50725,57657,50734.58,57690.25,-9.58,-33.25,-0.000794,-0.001581,0.845725,88.86,1
12465,0,50731,57659,50734.51,57689.63,-3.51,-30.63,-0.000793,-0.00157,0.845084,88.87,1
12475,0,50724,57667,50734.3,57689.17,-10.3,-22.18,-0.000788,-0.001562,0.844872,88.88,1
12484,0,50718,57677,50733.98,57688.93,-15.98,-11.93,-0.000782,-0.001558,0.845099,88.87,1
12495,0,50734,57677,50733.98,57688.69,0.02,-11.7,-0.000782,-0.001554,0.844998,88.88,1
12505,0,50735,57674,50734,57688.4,1,-14.4,-0.000783,-0.001549,0.844846,88.88,1
12515,0,50734,57686,50734,57688.35,0,-2.36,-0.000783,-0.001548,0.844841,88.88,1
12524,0,50737,57688,50734.05,57688.35,2.95,-0.35,-0.000784,-0.001548,0.844852,88.88,1
12534,0,50732,57688,50734.01,57688.35,-2.02,-0.35,-0.000783,-0.001548,0.844858,88.88,1
12544,0,50734,57686,50734.01,57688.3,-0.02,-2.3,-0.000783,-0.001547,0.844853,88.88,1
12555,0,50736,57681,50734.05,57688.16,1.95,-7.16,-0.000784,-0.001545,0.844817,88.88,1
12565,0,50736,57686,50734.09,57688.11,1.91,-2.11,-0.000784,-0.001544,0.844817,88.88,1
12574,0,50737,57689,50734.15,57688.13,2.85,0.87,-0.000786,-0.001544,0.844827,88.88,1
12584,0,50734,57688,50734.15,57688.13,-0.15,-0.13,-0.000786,-0.001544,0.844827,88.88,1
12595,0,50737,57681,50734.2,57687.99,2.8,-6.99,-0.000787,-0.001542,0.844797,88.88,1
12605,0,50737,57677,50734.26,57687.77,2.74,-10.77,-0.000788,-0.001538,0.844712,88.88,1
12614,0,50728,57678,50734.13,57687.58,-6.13,-9.58,-0.000785,-0.001535,0.844692,88.88,1
12624,0,50727,57675,50733.99,57687.33,-6.99,-12.33,-0.000782,-0.00153,0.844639,88.88,1
12634,0,50736,57676,50734.03,57687.1,1.97,-11.1,-0.000783,-0.001526,0.844541,88.89,1
12645,0,50729,57680,50733.92,57686.96,-4.93,-6.96,-0.000781,-0.001524,0.844537,88.89,1
12654,0,50732,57687,50733.89,57686.96,-1.89,0.04,-0.00078,-0.001524,0.844543,88.89,1
12664,0,50734,57684,50733.89,57686.9,0.11,-2.9,-0.000781,-0.001523,0.844535,88.89,1
12676,0,50736,57693,50733.94,57687.02,2.06,5.98,-0.000781,-0.001525,0.844512,88.89,1
12685,0,50738,57682,50734.02,57686.92,3.98,-4.93,-0.000783,-0.001523,0.844513,88.89,1
12695,0,50734,57693,50734.02,57687.05,-0.02,5.95,-0.000783,-0.001525,0.844484,88.89,1
12704,0,50737,57684,50734.08,57686.99,2.92,-2.99,-0.000784,-0.001524,0.844488,88.89,1
12715,0,50734,57701,50734.08,57687.27,-0.08,13.73,-0.000784,-0.001529,0.844325,88.89,1
12724,0,50745,57709,50734.3,57687.7,10.7,21.3,-0.000788,-0.001537,0.844109,88.9,1
12735,0,50743,57717,50734.47,57688.29,8.53,28.71,-0.000792,-0.001547,0.843492,88.91,1
12744,0,50750,57722,50734.78,57688.96,15.21,33.04,-0.000798,-0.001559,0.84289,88.93,1
12754,0,50747,57725,50735.03,57689.69,11.97,35.31,-0.000803,-0.001571,0.841997,88.95,1
12764,0,50745,57728,50735.23,57690.45,9.77,37.55,-0.000807,-0.001585,0.840872,88.98,1
12775,0,50753,57735,50735.58,57691.34,17.41,43.66,-0.000814,-0.0016,0.839634,89.01,1
12784,0,50751,57733,50735.89,57692.18,15.11,40.82,-0.00082,-0.001614,0.838486,89.04,1
12794,0,50756,57736,50736.3,57693.05,19.7,42.95,-0.000828,-0.00163,0.837441,89.06,1
12804,0,50753,57741,50736.63,57694.01,16.37,46.98,-0.000834,-0.001646,0.83585,89.1,1
12815,0,50757,57742,50737.04,57694.98,19.96,47.02,-0.000842,-0.001663,0.834477,89.14,1
12824,0,50758,57757,50737.46,57696.22,20.54,60.78,-0.000851,-0.001684,0.831759,89.21,1
12834,0,50760,57753,50737.91,57697.35,22.09,55.64,-0.00086,-0.001704,0.829721,89.26,1
12845,0,50764,57759,50738.43,57698.59,25.57,60.41,-0.00087,-0.001726,0.827463,89.31,1
12855,0,50765,57758,50738.96,57699.78,26.04,58.22,-0.00088,-0.001746,0.825497,89.36,1
12864,0,50760,57761,50739.39,57701,20.61,60,-0.000889,-0.001767,0.822894,89.43,1
12874,0,50767,57758,50739.94,57702.14,27.06,55.86,-0.0009,-0.001787,0.821291,89.47,1
12884,0,50759,57763,50740.32,57703.36,18.68,59.64,-0.000907,-0.001808,0.818601,89.53,1
12895,0,50768,57760,50740.88,57704.5,27.12,55.5,-0.000918,-0.001828,0.817055,89.57,1
12904,0,50769,57772,50741.44,57705.85,27.56,66.15,-0.000929,-0.001851,0.814353,89.64,1
12915,0,50774,57775,50742.09,57707.23,31.91,67.77,-0.000942,-0.001875,0.811937,89.7,1
12924,0,50771,57777,50742.67,57708.62,28.32,68.37,-0.000954,-0.001899,0.809073,89.77,1
12935,0,50767,57783,50743.16,57710.11,23.84,72.89,-0.000963,-0.001925,0.805223,89.87,1
12944,0,50771,57782,50743.72,57711.55,27.28,70.45,-0.000974,-0.00195,0.802047,89.95,1
12955,0,50778,57783,50744.41,57712.98,33.59,70.02,-0.000988,-0.001975,0.799657,90.01,1
12964,0,50778,57789,50745.08,57714.51,32.92,74.49,-0.001001,-0.002001,0.796625,90.08,1
12975,0,50776,57787,50745.69,57715.96,30.3,71.04,-0.001013,-0.002027,0.793772,90.16,1
12984,0,50778,57793,50746.34,57717.5,31.66,75.5,-0.001026,-0.002053,0.790519,90.24,1
12995,0,50781,57803,50747.03,57719.21,33.96,83.79,-0.001039,-0.002083,0.786419,90.34,1
13004,0,50783,57801,50747.75,57720.85,35.25,80.15,-0.001054,-0.002111,0.783068,90.42,1
13015,0,50785,57794,50748.5,57722.31,36.5,71.69,-0.001068,-0.002137,0.781044,90.47,1
13024,0,50783,57784,50749.19,57723.55,33.81,60.45,-0.001082,-0.002158,0.779977,90.5,1
13035,0,50775,57775,50749.71,57724.58,25.29,50.42,-0.001092,-0.002176,0.778949,90.53,1
13044,0,50764,57755,50750,57725.19,14,29.81,-0.001098,-0.002186,0.778539,90.54,1
13054,0,50764,57744,50750.28,57725.56,13.72,18.44,-0.001103,-0.002193,0.778595,90.54,1
13065,0,50762,57731,50750.51,57725.67,11.49,5.33,-0.001108,-0.002195,0.778819,90.53,1
13075,0,50758,57718,50750.66,57725.52,7.34,-7.52,-0.001111,-0.002192,0.778868,90.53,1
13084,0,50755,57708,50750.75,57725.17,4.25,-17.17,-0.001113,-0.002186,0.778627,90.53,1
13094,0,50749,57689,50750.72,57724.45,-1.72,-35.45,-0.001112,-0.002174,0.777466,90.56,1
13105,0,50749,57682,50750.69,57723.6,-1.69,-41.6,-0.001111,-0.002159,0.775859,90.6,1
13115,0,50735,57668,50750.37,57722.49,-15.38,-54.49,-0.001105,-0.00214,0.773568,90.66,1
13124,0,50735,57666,50750.07,57721.36,-15.07,-55.36,-0.001099,-0.00212,0.771173,90.72,1
13135,0,50733,57662,50749.73,57720.17,-16.73,-58.17,-0.001093,-0.0021,0.768593,90.79,1
13145,0,50730,57659,50749.33,57718.95,-19.34,-59.95,-0.001085,-0.002078,0.766019,90.85,1
13155,0,50725,57660,50748.85,57717.77,-23.85,-57.77,-0.001075,-0.002058,0.76409,90.9,1
13164,0,50729,57664,50748.45,57716.69,-19.45,-52.7,-0.001067,-0.002039,0.762293,90.94,1
13175,0,50733,57667,50748.14,57715.7,-15.14,-48.7,-0.001061,-0.002022,0.760564,90.99,1
13185,0,50733,57668,50747.84,57714.75,-14.84,-46.75,-0.001055,-0.002006,0.758987,91.03,1
13195,0,50736,57667,50747.6,57713.8,-11.61,-46.8,-0.001051,-0.001989,0.757224,91.07,1
13204,0,50732,57672,50747.3,57712.96,-15.3,-40.96,-0.001045,-0.001975,0.756145,91.1,1
13215,0,50730,57662,50746.95,57711.94,-16.95,-49.95,-0.001038,-0.001957,0.754413,91.14,1
13224,0,50724,57666,50746.5,57711.03,-22.5,-45.03,-0.001029,-0.001941,0.753586,91.16,1
13235,0,50727,57676,50746.1,57710.33,-19.11,-34.33,-0.001021,-0.001929,0.753255,91.17,1
13244,0,50734,57673,50745.86,57709.58,-11.86,-36.58,-0.001016,-0.001916,0.752284,91.19,1
13255,0,50736,57690,50745.66,57709.19,-9.66,-19.19,-0.001012,-0.001909,0.752134,91.2,1
13264,0,50729,57688,50745.33,57708.77,-16.33,-20.77,-0.001006,-0.001902,0.752305,91.19,1
13275,0,50740,57698,50745.22,57708.55,-5.22,-10.55,-0.001004,-0.001898,0.752256,91.19,1
13285,0,50739,57689,50745.1,57708.16,-6.1,-19.16,-0.001001,-0.001891,0.751976,91.2,1
13295,0,50741,57696,50745.02,57707.92,-4.02,-11.92,-0.001,-0.001887,0.751869,91.2,1
13304,0,50744,57688,50745,57707.53,-1,-19.53,-0.000999,-0.00188,0.751485,91.21,1
13315,0,50738,57688,50744.86,57707.14,-6.86,-19.14,-0.000997,-0.001874,0.751222,91.22,1
13324,0,50743,57686,50744.83,57706.72,-1.83,-20.72,-0.000996,-0.001866,0.750788,91.23,1
13335,0,50738,57696,50744.69,57706.51,-6.7,-10.51,-0.000993,-0.001863,0.750779,91.23,1
13344,0,50743,57692,50744.66,57706.22,-1.66,-14.22,-0.000993,-0.001858,0.750573,91.24,1
13355,0,50745,57693,50744.67,57705.95,0.33,-12.95,-0.000993,-0.001853,0.750394,91.24,1
13365,0,50736,57681,50744.5,57705.46,-8.5,-24.46,-0.000989,-0.001845,0.749934,91.25,1
13375,0,50742,57695,50744.44,57705.25,-2.45,-10.25,-0.000988,-0.001841,0.749835,91.25,1
13384,0,50743,57680,50744.42,57704.74,-1.42,-24.74,-0.000988,-0.001832,0.749176,91.27,1
13395,0,50738,57684,50744.29,57704.33,-6.29,-20.33,-0.000985,-0.001825,0.748824,91.28,1
13405,0,50740,57690,50744.21,57704.04,-4.21,-14.04,-0.000984,-0.00182,0.748651,91.28,1
13415,0,50745,57706,50744.22,57704.08,0.78,1.91,-0.000984,-0.001821,0.748649,91.28,1
13424,0,50746,57700,50744.26,57704,1.74,-4,-0.000985,-0.001819,0.748637,91.28,1
13434,0,50740,57708,50744.18,57704.08,-4.18,3.91,-0.000983,-0.001821,0.748667,91.28,1
13444,0,50746,57722,50744.22,57704.44,1.78,17.55,-0.000984,-0.001827,0.74833,91.29,1
13455,0,50749,57721,50744.32,57704.78,4.68,16.22,-0.000986,-0.001833,0.74809,91.3,1
13464,0,50758,57730,50744.59,57705.29,13.41,24.71,-0.000991,-0.001842,0.747867,91.3,1
13474,0,50757,57739,50744.84,57705.96,12.16,33.04,-0.000996,-0.001853,0.747001,91.32,1
13484,0,50758,57747,50745.1,57706.79,12.89,40.21,-0.001001,-0.001868,0.74557,91.36,1
13495,0,50761,57749,50745.42,57707.64,15.58,41.36,-0.001008,-0.001882,0.744235,91.39,1
13504,0,50760,57759,50745.71,57708.66,14.29,50.34,-0.001013,-0.0019,0.741835,91.45,1
13514,0,50769,57755,50746.18,57709.59,22.82,45.41,-0.001023,-0.001916,0.740859,91.48,1
13524,0,50770,57762,50746.66,57710.64,23.34,51.36,-0.001032,-0.001934,0.739279,91.52,1
13535,0,50773,57769,50747.18,57711.81,25.82,57.19,-0.001042,-0.001955,0.737307,91.57,1
13544,0,50773,57778,50747.7,57713.13,25.3,64.87,-0.001053,-0.001978,0.734194,91.65,1
13555,0,50776,57784,50748.27,57714.55,27.73,69.45,-0.001064,-0.002002,0.730772,91.73,1
13564,0,50779,57788,50748.88,57716.02,30.12,71.98,-0.001076,-0.002028,0.727381,91.82,1
13575,0,50789,57800,50749.69,57717.7,39.31,82.3,-0.001092,-0.002057,0.724031,91.9,1
13584,0,50793,57808,50750.55,57719.51,42.45,88.49,-0.001109,-0.002088,0.720312,91.99,1
13595,0,50786,57811,50751.26,57721.34,34.74,89.66,-0.001123,-0.00212,0.714884,92.13,1
13604,0,50792,57816,50752.08,57723.23,39.92,92.77,-0.001139,-0.002153,0.710066,92.25,1
13615,0,50793,57818,50752.9,57725.13,40.1,92.87,-0.001155,-0.002185,0.705429,92.36,1
13624,0,50793,57810,50753.7,57726.83,39.3,83.17,-0.001171,-0.002215,0.702492,92.44,1
13635,0,50799,57831,50754.6,57728.91,44.39,102.09,-0.001189,-0.002251,0.697288,92.57,1
13644,0,50801,57823,50755.53,57730.8,45.46,92.2,-0.001207,-0.002284,0.694385,92.64,1
13655,0,50800,57831,50756.42,57732.8,43.57,98.2,-0.001224,-0.002318,0.690071,92.75,1
13664,0,50803,57830,50757.35,57734.75,45.64,95.25,-0.001243,-0.002352,0.686906,92.83,1
13675,0,50802,57835,50758.25,57736.75,43.75,98.25,-0.00126,-0.002387,0.682899,92.93,1
13684,0,50801,57835,50759.1,57738.72,41.89,96.28,-0.001277,-0.002421,0.678975,93.03,1
13694,0,50808,57840,50760.08,57740.75,47.91,99.25,-0.001297,-0.002456,0.676005,93.1,1
13705,0,50811,57849,50761.1,57742.91,49.89,106.09,-0.001317,-0.002493,0.672421,93.19,1
13715,0,50814,57852,50762.16,57745.1,51.84,106.9,-0.001338,-0.002531,0.669313,93.27,1
13724,0,50815,57866,50763.22,57747.51,51.78,118.48,-0.001358,-0.002573,0.664217,93.39,1
13735,0,50816,57867,50764.28,57749.91,51.72,117.09,-0.001379,-0.002615,0.659614,93.51,1
13745,0,50818,57861,50765.35,57752.13,52.64,108.87,-0.0014,-0.002653,0.656858,93.58,1
13754,0,50814,57855,50766.33,57754.19,47.67,100.81,-0.00142,-0.002689,0.654347,93.64,1
13765,0,50815,57843,50767.31,57755.96,47.69,87.04,-0.001439,-0.00272,0.653834,93.65,1
13774,0,50803,57822,50768.02,57757.29,34.98,64.71,-0.001453,-0.002742,0.65348,93.66,1
13785,0,50799,57817,50768.64,57758.48,30.36,58.52,-0.001465,-0.002763,0.653015,93.67,1
13794,0,50792,57808,50769.11,57759.48,22.89,48.52,-0.001474,-0.00278,0.652449,93.69,1
13805,0,50797,57797,50769.67,57760.23,27.33,36.77,-0.001485,-0.002793,0.653141,93.67,1
13814,0,50789,57788,50770.06,57760.79,18.94,27.21,-0.001493,-0.002803,0.653406,93.66,1
13825,0,50788,57790,50770.42,57761.37,17.57,28.62,-0.0015,-0.002813,0.653497,93.66,1
13834,0,50789,57768,50770.8,57761.51,18.2,6.49,-0.001508,-0.002815,0.654237,93.64,1
13845,0,50782,57754,50771.03,57761.35,10.97,-7.36,-0.001512,-0.002813,0.654475,93.64,1
13854,0,50782,57751,50771.25,57761.15,10.75,-10.15,-0.001517,-0.002809,0.654664,93.63,1
13864,0,50771,57743,50771.25,57760.78,-0.25,-17.79,-0.001517,-0.002803,0.654408,93.64,1
13874,0,50773,57740,50771.28,57760.37,1.72,-20.37,-0.001517,-0.002796,0.654076,93.65,1
13885,0,50775,57738,50771.35,57759.92,3.64,-21.93,-0.001519,-0.002788,0.653713,93.66,1
13894,0,50767,57738,50771.27,57759.49,-4.27,-21.49,-0.001517,-0.002781,0.653376,93.67,1
13904,0,50774,57740,50771.32,57759.1,2.68,-19.1,-0.001518,-0.002774,0.653088,93.67,1
13915,0,50776,57757,50771.42,57759.06,4.58,-2.06,-0.00152,-0.002773,0.653136,93.67,1
13925,0,50775,57754,50771.49,57758.96,3.51,-4.96,-0.001521,-0.002771,0.653144,93.67,1
13934,0,50778,57746,50771.62,57758.7,6.38,-12.7,-0.001524,-0.002767,0.653108,93.67,1
13944,0,50780,57754,50771.79,57758.61,8.21,-4.61,-0.001527,-0.002765,0.653262,93.67,1
13954,0,50776,57755,50771.88,57758.54,4.12,-3.54,-0.001529,-0.002764,0.653293,93.67,1
13965,0,50778,57758,50772,57758.53,6,-0.53,-0.001531,-0.002764,0.653387,93.67,1
13974,0,50772,57766,50772,57758.68,0,7.32,-0.001531,-0.002766,0.653341,93.67,1
13984,0,50781,57765,50772.19,57758.81,8.81,6.19,-0.001535,-0.002769,0.653517,93.66,1
13993,0,50785,57773,50772.44,57759.1,12.55,13.9,-0.00154,-0.002774,0.653773,93.66,1
14005,0,50777,57773,50772.53,57759.38,4.46,13.62,-0.001542,-0.002779,0.653661,93.66,1
14015,0,50784,57785,50772.76,57759.89,11.23,25.11,-0.001546,-0.002787,0.653436,93.66,1
14024,0,50785,57777,50773.01,57760.23,11.99,16.77,-0.001551,-0.002793,0.65358,93.66,1
14035,0,50785,57785,50773.25,57760.73,11.75,24.27,-0.001556,-0.002802,0.653423,93.66,1
14045,0,50786,57782,50773.5,57761.16,12.5,20.84,-0.001561,-0.002809,0.653461,93.66,1
14054,0,50784,57787,50773.71,57761.67,10.29,25.33,-0.001565,-0.002818,0.653159,93.67,1
14064,0,50786,57771,50773.96,57761.86,12.04,9.14,-0.00157,-0.002822,0.653499,93.66,1
14073,0,50783,57783,50774.14,57762.28,8.86,20.71,-0.001574,-0.002829,0.653316,93.67,1
14085,0,50785,57781,50774.36,57762.66,10.64,18.34,-0.001578,-0.002835,0.653324,93.67,1
14094,0,50787,57781,50774.62,57763.03,12.38,17.97,-0.001583,-0.002842,0.653465,93.66,1
14104,0,50788,57779,50774.89,57763.35,13.11,15.65,-0.001588,-0.002847,0.65374,93.66,1
14113,0,50786,57786,50775.11,57763.8,10.89,22.2,-0.001593,-0.002855,0.653608,93.66,1
14125,0,50788,57783,50775.37,57764.19,12.63,18.81,-0.001598,-0.002862,0.65374,93.66,1
14134,0,50788,57786,50775.62,57764.62,12.38,21.37,-0.001603,-0.002869,0.653749,93.66,1
14144,0,50789,57780,50775.89,57764.93,13.11,15.07,-0.001608,-0.002875,0.654051,93.65,1
14154,0,50787,57789,50776.12,57765.42,10.88,23.58,-0.001612,-0.002883,0.653848,93.65,1
14164,0,50787,57782,50776.33,57765.75,10.66,16.25,-0.001617,-0.002889,0.653933,93.65,1
14174,0,50792,57794,50776.65,57766.32,15.35,27.68,-0.001623,-0.002899,0.653879,93.65,1
14185,0,50792,57800,50776.96,57766.99,15.04,33.01,-0.001629,-0.00291,0.653452,93.66,1
14194,0,50801,57811,50777.44,57767.87,23.56,43.13,-0.001638,-0.002926,0.653266,93.67,1
14204,0,50801,57813,50777.91,57768.78,23.09,44.22,-0.001648,-0.002941,0.652907,93.68,1
14214,0,50802,57819,50778.39,57769.78,23.61,49.22,-0.001657,-0.002959,0.652128,93.7,1
14225,0,50801,57820,50778.84,57770.78,22.16,49.21,-0.001666,-0.002976,0.651136,93.72,1
14234,0,50807,57826,50779.41,57771.89,27.59,54.11,-0.001677,-0.002995,0.650492,93.74,1
14244,0,50808,57826,50779.98,57772.97,28.02,53.03,-0.001688,-0.003014,0.650056,93.75,1
14254,0,50813,57842,50780.65,57774.35,32.35,67.64,-0.001702,-0.003038,0.6486,93.79,1
14265,0,50809,57833,50781.21,57775.53,27.79,57.47,-0.001713,-0.003058,0.647619,93.81,1
14274,0,50822,57849,50782.03,57777,39.97,72,-0.001729,-0.003084,0.647358,93.82,1
14284,0,50820,57846,50782.79,57778.38,37.21,67.62,-0.001744,-0.003107,0.647054,93.82,1
14294,0,50819,57852,50783.51,57779.85,35.49,72.14,-0.001758,-0.003133,0.645695,93.86,1
14305,0,50818,57858,50784.2,57781.42,33.8,76.58,-0.001772,-0.00316,0.643311,93.92,1
14314,0,50815,57861,50784.82,57783.01,30.18,77.99,-0.001784,-0.003188,0.640025,94,1
14324,0,50820,57858,50785.52,57784.51,34.48,73.49,-0.001798,-0.003213,0.638379,94.04,1
14333,0,50826,57862,50786.33,57786.06,39.67,75.94,-0.001814,-0.00324,0.637622,94.06,1
14345,0,50822,57863,50787.05,57787.6,34.95,75.4,-0.001828,-0.003267,0.63586,94.1,1
14354,0,50820,57867,50787.71,57789.19,32.29,77.81,-0.001841,-0.003295,0.63322,94.17,1
14364,0,50826,57864,50788.47,57790.69,37.53,73.31,-0.001856,-0.003321,0.63243,94.19,1
14374,0,50827,57866,50789.24,57792.2,37.76,73.8,-0.001871,-0.003347,0.631641,94.21,1
14385,0,50827,57875,50790,57793.85,37,81.14,-0.001886,-0.003375,0.629622,94.26,1
14394,0,50833,57884,50790.85,57795.66,42.14,88.34,-0.001903,-0.003407,0.627766,94.31,1
14404,0,50830,57889,50791.64,57797.53,38.36,91.47,-0.001918,-0.003439,0.624541,94.39,1
14414,0,50837,57880,50792.55,57799.18,44.45,80.82,-0.001936,-0.003468,0.624574,94.39,1
14425,0,50830,57885,50793.3,57800.9,36.7,84.1,-0.001951,-0.003497,0.622259,94.44,1
14434,0,50840,57883,50794.23,57802.54,45.77,80.46,-0.001969,-0.003526,0.622733,94.43,1
14445,0,50835,57897,50795.05,57804.43,39.95,92.57,-0.001985,-0.003558,0.619921,94.5,1
14454,0,50836,57901,50795.87,57806.37,40.13,94.63,-0.002001,-0.003592,0.616916,94.58,1
14465,0,50846,57896,50796.87,57808.16,49.13,87.84,-0.002021,-0.003623,0.61734,94.57,1
14474,0,50847,57887,50797.88,57809.74,49.12,77.26,-0.002041,-0.00365,0.619203,94.52,1
14485,0,50839,57884,50798.7,57811.22,40.3,72.78,-0.002057,-0.003676,0.619365,94.52,1
14494,0,50832,57874,50799.37,57812.48,32.63,61.52,-0.00207,-0.003697,0.619212,94.52,1
14504,0,50837,57856,50800.12,57813.35,36.88,42.65,-0.002085,-0.003713,0.621532,94.46,1
14514,0,50819,57836,50800.5,57813.8,18.5,22.2,-0.002092,-0.00372,0.622087,94.45,1
14525,0,50814,57830,50800.77,57814.13,13.23,15.87,-0.002098,-0.003726,0.622374,94.44,1
14534,0,50817,57809,50801.1,57814.03,15.9,-5.03,-0.002104,-0.003724,0.623078,94.42,1
14544,0,50810,57801,50801.28,57813.77,8.72,-12.77,-0.002108,-0.00372,0.623152,94.42,1
14554,0,50802,57782,50801.29,57813.14,0.71,-31.14,-0.002108,-0.003709,0.622292,94.44,1
14565,0,50801,57780,50801.29,57812.48,-0.29,-32.48,-0.002108,-0.003697,0.621349,94.47,1
14574,0,50794,57763,50801.14,57811.49,-7.14,-48.49,-0.002105,-0.00368,0.619401,94.51,1
14584,0,50783,57753,50800.78,57810.32,-17.78,-57.32,-0.002098,-0.00366,0.617425,94.56,1
14594,0,50781,57736,50800.39,57808.83,-19.39,-72.83,-0.00209,-0.003634,0.613866,94.65,1
14605,0,50781,57743,50800,57807.51,-19,-64.51,-0.002083,-0.003612,0.611305,94.72,1
14614,0,50779,57733,50799.58,57806.02,-20.58,-73.02,-0.002074,-0.003586,0.607947,94.8,1
14624,0,50777,57737,50799.12,57804.64,-22.12,-67.64,-0.002065,-0.003562,0.605483,94.86,1
14635,0,50777,57734,50798.68,57803.23,-21.68,-69.23,-0.002057,-0.003537,0.602805,94.93,1
14645,0,50784,57749,50798.39,57802.15,-14.39,-53.15,-0.002051,-0.003519,0.601025,94.97,1
14654,0,50777,57746,50797.96,57801.02,-20.96,-55.02,-0.002042,-0.003499,0.599787,95.01,1
14665,0,50786,57746,50797.72,57799.92,-11.72,-53.92,-0.002038,-0.00348,0.597732,95.06,1
14674,0,50777,57739,50797.31,57798.71,-20.31,-59.71,-0.00203,-0.003459,0.595976,95.1,1
14685,0,50778,57755,50796.92,57797.83,-18.92,-42.84,-0.002022,-0.003444,0.595523,95.11,1
14694,0,50779,57752,50796.56,57796.92,-17.56,-44.92,-0.002015,-0.003428,0.594761,95.13,1
14705,0,50785,57761,50796.33,57796.2,-11.33,-35.2,-0.00201,-0.003416,0.5941,95.15,1
14714,0,50778,57766,50795.96,57795.6,-17.96,-29.6,-0.002003,-0.003405,0.594363,95.14,1
14725,0,50786,57767,50795.76,57795.03,-9.77,-28.03,-0.001999,-0.003396,0.593982,95.15,1
14734,0,50790,57774,50795.65,57794.61,-5.65,-20.61,-0.001997,-0.003388,0.59371,95.16,1
14745,0,50787,57773,50795.48,57794.18,-8.48,-21.18,-0.001994,-0.003381,0.593546,95.16,1
14754,0,50796,57776,50795.49,57793.82,0.51,-17.82,-0.001994,-0.003375,0.593261,95.17,1
14765,0,50789,57783,50795.36,57793.6,-6.36,-10.6,-0.001991,-0.003371,0.593293,95.17,1
14774,0,50791,57773,50795.28,57793.19,-4.28,-20.19,-0.00199,-0.003364,0.592982,95.18,1
14785,0,50791,57774,50795.19,57792.81,-4.19,-18.81,-0.001988,-0.003357,0.592716,95.18,1
14794,0,50790,57779,50795.09,57792.53,-5.09,-13.53,-0.001986,-0.003352,0.592634,95.18,1
14804,0,50792,57784,50795.03,57792.36,-3.03,-8.36,-0.001985,-0.00335,0.592599,95.19,1
14814,0,50793,57774,50794.99,57792,-1.99,-18,-0.001984,-0.003343,0.592306,95.19,1
14825,0,50790,57779,50794.89,57791.73,-4.89,-12.73,-0.001982,-0.003339,0.592235,95.19,1
14834,0,50798,57775,50794.95,57791.4,3.05,-16.4,-0.001983,-0.003333,0.592006,95.2,1
14844,0,50798,57771,50795.01,57790.99,2.98,-19.99,-0.001985,-0.003326,0.591649,95.21,1
14854,0,50788,57774,50794.88,57790.65,-6.88,-16.65,-0.001982,-0.00332,0.591547,95.21,1
14865,0,50794,57780,50794.86,57790.44,-0.86,-10.44,-0.001981,-0.003316,0.591441,95.21,1
14874,0,50788,57780,50794.73,57790.23,-6.73,-10.23,-0.001979,-0.003313,0.591503,95.21,1
14884,0,50790,57782,50794.63,57790.07,-4.63,-8.07,-0.001977,-0.00331,0.591516,95.21,1
14894,0,50794,57790,50794.62,57790.07,-0.62,-0.07,-0.001977,-0.00331,0.591518,95.21,1
14905,0,50795,57790,50794.63,57790.07,0.37,-0.07,-0.001977,-0.00331,0.591518,95.21,1
14914,0,50802,57799,50794.78,57790.25,7.22,8.75,-0.00198,-0.003313,0.591638,95.21,1
14924,0,50804,57795,50794.96,57790.34,9.04,4.66,-0.001983,-0.003314,0.591929,95.2,1
14934,0,50805,57796,50795.16,57790.46,9.84,5.54,-0.001987,-0.003316,0.59227,95.19,1
14944,0,50800,57805,50795.26,57790.75,4.74,14.25,-0.001989,-0.003322,0.592145,95.2,1
14955,0,50810,57808,50795.56,57791.1,14.44,16.9,-0.001995,-0.003328,0.592663,95.18,1
14964,0,50803,57812,50795.71,57791.52,7.29,20.48,-0.001998,-0.003335,0.592424,95.19,1
14974,0,50802,57817,50795.83,57792.03,6.17,24.97,-0.002001,-0.003344,0.591902,95.2,1
14984,0,50814,57816,50796.2,57792.51,17.8,23.49,-0.002008,-0.003352,0.592581,95.19,1
14995,0,50810,57820,50796.48,57793.06,13.52,26.94,-0.002013,-0.003362,0.592526,95.19,1
15004,0,50810,57819,50796.75,57793.58,13.25,25.42,-0.002019,-0.003371,0.59253,95.19,1
15014,0,50811,57824,50797.03,57794.19,13.97,29.81,-0.002024,-0.003381,0.592343,95.19,1
15024,0,50815,57833,50797.39,57794.97,17.61,38.03,-0.002031,-0.003395,0.592007,95.2,1
15035,0,50819,57836,50797.82,57795.79,21.18,40.21,-0.00204,-0.003409,0.592054,95.2,1
15044,0,50819,57836,50798.25,57796.59,20.75,39.41,-0.002048,-0.003423,0.592101,95.2,1
15054,0,50816,57845,50798.6,57797.56,17.4,47.44,-0.002055,-0.003439,0.590818,95.23,1
15064,0,50818,57835,50798.99,57798.31,19.01,36.69,-0.002063,-0.003452,0.590815,95.23,1
15075,0,50819,57843,50799.39,57799.21,19.61,43.79,-0.002071,-0.003468,0.590259,95.24,1
15084,0,50822,57840,50799.84,57800.02,22.16,39.98,-0.002079,-0.003482,0.590521,95.24,1
15094,0,50819,57843,50800.22,57800.88,18.78,42.12,-0.002087,-0.003497,0.589991,95.25,1
15104,0,50819,57851,50800.6,57801.89,18.4,49.11,-0.002094,-0.003514,0.588671,95.28,1
15115,0,50817,57853,50800.92,57802.91,16.07,50.09,-0.002101,-0.003532,0.586904,95.33,1
15124,0,50823,57855,50801.37,57803.95,21.63,51.05,-0.00211,-0.00355,0.58594,95.35,1
15134,0,50824,57865,50801.82,57805.17,22.18,59.82,-0.002118,-0.003571,0.583984,95.4,1
15144,0,50831,57859,50802.41,57806.25,28.59,52.75,-0.00213,-0.00359,0.584351,95.39,1
15155,0,50822,57869,50802.8,57807.51,19.2,61.49,-0.002138,-0.003611,0.581664,95.46,1
15164,0,50833,57869,50803.41,57808.74,29.59,60.26,-0.00215,-0.003633,0.581356,95.47,1
15175,0,50837,57873,50804.08,57810.03,32.92,62.97,-0.002163,-0.003655,0.581568,95.46,1
15184,0,50827,57859,50804.54,57811.01,22.46,47.99,-0.002172,-0.003672,0.581158,95.47,1
15194,0,50828,57856,50805.01,57811.91,22.99,44.09,-0.002181,-0.003688,0.581254,95.47,1
15204,0,50823,57844,50805.37,57812.55,17.63,31.45,-0.002188,-0.003699,0.581483,95.46,1
15213,0,50823,57834,50805.73,57812.98,17.27,21.02,-0.002195,-0.003706,0.582276,95.44,1
15224,0,50815,57823,50805.91,57813.18,9.09,9.82,-0.002199,-0.00371,0.582527,95.44,1
15234,0,50813,57812,50806.06,57813.16,6.94,-1.16,-0.002202,-0.003709,0.582736,95.43,1
15244,0,50807,57789,50806.08,57812.68,0.92,-23.68,-0.002202,-0.003701,0.58208,95.45,1
15255,0,50797,57779,50805.9,57812,-8.9,-33,-0.002199,-0.003689,0.581153,95.47,1
15264,0,50799,57756,50805.76,57810.89,-6.76,-54.89,-0.002196,-0.00367,0.577822,95.55,1
15275,0,50796,57752,50805.57,57809.71,-9.57,-57.71,-0.002192,-0.00365,0.574361,95.64,1
15284,0,50781,57733,50805.08,57808.18,-24.08,-75.18,-0.002183,-0.003623,0.570505,95.74,1
15294,0,50772,57725,50804.42,57806.51,-32.42,-81.52,-0.00217,-0.003594,0.567756,95.81,1
15304,0,50777,57722,50803.87,57804.83,-26.87,-82.83,-0.002159,-0.003565,0.563428,95.91,1
15314,0,50779,57731,50803.37,57803.35,-24.37,-72.36,-0.002149,-0.00354,0.560409,95.99,1
15324,0,50778,57722,50802.87,57801.73,-24.87,-79.73,-0.002139,-0.003512,0.556399,96.09,1
