t_ms,phase,red_raw,ir_raw,red_dc,ir_dc,red_ac,ir_ac,OD_red,OD_ir,R,spo2,spo2_valid
478,0,51369,56909,31893.62,35329.99,19475.38,21579.01,0,0,1.00006,85,1
487,0,51367,56910,32283.09,35761.59,19083.91,21148.41,0,0,1.000061,85,1
497,0,51368,56917,32664.79,36184.7,18703.22,20732.3,0,0,1.000063,85,1
507,0,51365,56920,33038.79,36599.41,18326.21,20320.59,0,0,1.000065,85,1
517,0,51375,56916,33405.51,37005.74,17969.49,19910.26,0,0,1.000065,85,1
527,0,51372,56915,33764.85,37403.92,17607.15,19511.08,0,0,1.000065,85,1
538,0,51376,56917,34117.07,37794.19,17258.93,19122.81,0,0,1.000065,85,1
547,0,51364,56915,34462.01,38176.6,16901.99,18738.4,0,0,1.000067,85,1
558,0,51365,56922,34800.07,38551.51,16564.93,18370.49,0,0,1.00007,85,1
567,0,51375,56918,35131.57,38918.84,16243.43,17999.16,0,0,1.00007,85,1
577,0,51374,56907,35456.42,39278.61,15917.57,17628.39,0,0,1.000069,85,1
587,0,51369,56909,35774.67,39631.22,15594.32,17277.78,0,0,1.000069,85,1
596,0,51363,56909,36086.44,39976.77,15276.55,16932.23,0,0,1.00007,85,1
608,0,51357,56889,36391.86,40315.02,14965.14,16573.98,0,0,1.000068,85,1
616,0,51363,56886,36691.28,40646.44,14671.71,16239.56,0,0,1.000066,85,1
627,0,51369,56878,36984.84,40971.07,14384.16,15906.93,0,0,1.000061,85,1
637,0,51364,56876,37272.42,41289.16,14091.57,15586.84,0,0,1.000056,85,1
647,0,51358,56882,37554.14,41601.02,13803.86,15280.98,0,0,1.000054,85,1
657,0,51360,56880,37830.25,41906.6,13529.75,14973.39,0,0,1.000052,85,1
667,0,51358,56878,38100.81,42206.03,13257.19,14671.97,0,0,1.000049,85,1
676,0,51363,56875,38366.05,42499.41,12996.95,14375.59,0,0,1.000045,85,1
688,0,51366,56892,38626.05,42787.26,12739.95,14104.74,0,0,1.000044,85,1
697,0,51368,56897,38880.89,43069.46,12487.11,13827.54,0,0,1.000043,85,1
707,0,51363,56890,39130.54,43345.87,12232.46,13544.13,0,0,1.000042,85,1
717,0,51369,56897,39375.31,43616.89,11993.69,13280.11,0,0,1.00004,85,1
727,0,51366,56901,39615.12,43882.58,11750.87,13018.42,0,0,1.000041,85,1
737,0,51369,56902,39850.2,44142.96,11518.8,12759.04,0,0,1.00004,85,1
746,0,51368,56901,40080.56,44398.12,11287.44,12502.87,0,0,1.00004,85,1
757,0,51363,56901,40306.21,44648.18,11056.79,12252.82,0,0,1.000041,85,1
768,0,51364,56901,40527.37,44893.24,10836.63,12007.76,0,0,1.000041,85,1
777,0,51375,56905,40744.32,45133.48,10630.68,11771.52,0,0,1.00004,85,1
787,0,51368,56905,40956.79,45368.91,10411.21,11536.09,0,0,1.000041,85,1
797,0,51368,56911,41165.01,45599.75,10202.98,11311.25,0,0,1.000042,85,1
806,0,51363,56902,41368.98,45825.8,9994.02,11076.2,0,0,1.000043,85,1
817,0,51375,56911,41569.1,46047.5,9805.9,10863.5,0,0,1.000043,85,1
826,0,51375,56909,41765.21,46264.73,9609.79,10644.27,0,0,1.000043,85,1
837,0,51372,56910,41957.35,46477.64,9414.65,10432.36,0,0,1.000044,85,1
847,0,51372,56918,42145.65,46686.44,9226.35,10231.55,0,0,1.000046,85,1
857,0,51380,56929,42330.33,46891.3,9049.66,10037.7,0,0,1.000048,85,1
867,0,51372,56914,42511.17,47091.75,8860.83,9822.25,0,0,1.000049,85,1
877,0,51377,56912,42688.49,47288.16,8688.51,9623.84,0,0,1.000049,85,1
886,0,51371,56918,42862.14,47480.75,8508.86,9437.25,0,0,1.000051,85,1
897,0,51372,56909,43032.34,47669.32,8339.66,9239.68,0,0,1.000051,85,1
907,0,51368,56920,43199.05,47854.33,8168.95,9065.67,0,0,1.000054,85,1
916,0,51366,56914,43362.39,48035.53,8003.61,8878.47,0,0,1.000057,85,1
926,0,51374,56913,43522.63,48213.08,7851.37,8699.92,0,0,1.000057,85,1
937,0,51372,56910,43679.62,48387.01,7692.38,8522.98,0,0,1.000057,85,1
948,0,51371,56918,43833.44,48557.64,7537.55,8360.36,0,0,1.000059,85,1
956,0,51372,56914,43984.22,48724.76,7387.78,8189.23,0,0,1.00006,85,1
967,0,51368,56902,44131.89,48888.31,7236.11,8013.69,0,0,1.00006,85,1
977,0,51375,56916,44276.76,49048.86,7098.24,7867.14,0,0,1.00006,85,1
987,0,51374,56908,44418.7,49206.05,6955.3,7701.95,0,0,1.00006,85,1
997,0,51372,56914,44557.77,49360.21,6814.23,7553.79,0,0,1.000061,85,1
1007,0,51373,56917,44694.07,49511.34,6678.93,7405.66,0,0,1.000062,85,1
1016,0,51371,56924,44827.62,49659.6,6543.38,7264.4,0,0,1.000065,85,1
1027,0,51382,56916,44958.71,49804.73,6423.29,7111.27,0,0,1.000064,85,1
1037,0,51373,56922,45087,49947.07,6286,6974.93,0,0,1.000066,85,1
1046,0,51371,56923,45212.68,50086.59,6158.32,6836.41,0,0,1.000069,85,1
1056,0,51369,56923,45335.8,50223.32,6033.2,6699.68,0,0,1.000073,85,1
1068,0,51367,56919,45456.43,50357.24,5910.57,6561.76,0,0,1.000076,85,1
1077,0,51374,56920,45574.78,50488.49,5799.22,6431.51,0,0,1.000077,85,1
1087,0,51369,56914,45690.66,50617,5678.34,6297,0,0,1.000078,85,1
1097,0,51365,56920,45804.15,50743.06,5560.85,6176.94,0,0,1.000082,85,1
1106,0,51365,56924,45915.37,50866.68,5449.63,6057.32,0,0,1.000086,85,1
1117,0,51367,56912,46024.41,50987.59,5342.59,5924.41,0,0,1.000087,85,1
1127,0,51369,56918,46131.3,51106.2,5237.7,5811.8,0,0,1.000089,85,1
1136,0,51370,56926,46236.07,51222.6,5133.93,5703.4,0,0,1.000093,85,1
1146,0,51366,56911,46338.67,51336.37,5027.33,5574.63,0,0,1.000094,85,1
1158,0,51367,56919,46439.24,51448.02,4927.76,5470.98,0,0,1.000097,85,1
1166,0,51371,56926,46537.87,51557.58,4833.12,5368.42,0,0,1.0001,85,1
1177,0,51371,56912,46634.54,51664.66,4736.46,5247.34,0,0,1.000099,85,1
1187,0,51369,56921,46729.23,51769.79,4639.77,5151.21,0,0,1.000102,85,1
1197,0,51375,56922,46822.14,51872.83,4552.86,5049.16,0,0,1.000103,85,1
1207,0,51369,56917,46913.08,51973.72,4455.92,4943.28,0,0,1.000104,85,1
1217,0,51374,56920,47002.3,52072.64,4371.7,4847.36,0,0,1.000105,85,1
1226,0,51371,56924,47089.67,52169.67,4281.33,4754.33,0,0,1.000108,85,1
1236,0,51372,56931,47175.32,52264.9,4196.68,4666.1,0,0,1.000111,85,1
1248,0,51377,56930,47259.35,52358.21,4117.64,4571.79,0,0,1.000114,85,1
1256,0,51365,56925,47341.47,52449.54,4023.53,4475.46,0,0,1.000118,85,1
1267,0,51380,56933,47422.24,52539.21,3957.76,4393.79,0,0,1.00012,85,1
1276,0,51376,56932,47501.32,52627.07,3874.68,4304.93,0,0,1.000123,85,1
1287,0,51385,56931,47578.99,52713.15,3806.01,4217.85,0,0,1.000123,85,1
1297,0,51376,56932,47654.93,52797.53,3721.07,4134.47,0,0,1.000126,85,1
1306,0,51371,56929,47729.25,52880.16,3641.75,4048.84,0,0,1.000129,85,1
1316,0,51371,56919,47802.08,52960.94,3568.91,3958.06,0,0,1.00013,85,1
1327,0,51369,56931,47873.42,53040.34,3495.57,3890.66,0,0,1.000134,85,1
1336,0,51376,56931,47943.48,53118.16,3432.52,3812.84,0,0,1.000137,85,1
1346,0,51369,56925,48011.99,53194.29,3357.01,3730.71,0,0,1.000139,85,1
1357,0,51372,56927,48079.19,53268.94,3292.81,3658.05,0,0,1.000141,85,1
1367,0,51371,56930,48145.03,53342.17,3225.97,3587.83,0,0,1.000145,85,1
1377,0,51375,56923,48209.63,53413.78,3165.37,3509.21,0,0,1.000145,85,1
1387,0,51380,56930,48273.04,53484.11,3106.96,3445.89,0,0,1.000146,85,1
1396,0,51371,56933,48335,53553.09,3036,3379.91,0,0,1.00015,85,1
1406,0,51372,56916,48395.74,53620.35,2976.26,3295.65,0,0,1.000149,85,1
1417,0,51368,56917,48455.19,53686.28,2912.81,3230.71,0,0,1.00015,85,1
1426,0,51367,56903,48513.42,53750.62,2853.57,3152.38,0,0,1.000148,85,1
1436,0,51363,56892,48570.42,53813.44,2792.58,3078.55,0,0,1.000144,85,1
1447,0,51361,56894,48626.23,53875.05,2734.77,3018.95,0,0,1.000141,85,1
1457,0,51365,56889,48681.01,53935.33,2683.99,2953.66,0,0,1.000136,85,1
1467,0,51360,56883,48734.58,53994.29,2625.41,2888.71,0,0,1.000131,85,1
1477,0,51359,56885,48787.07,54052.1,2571.93,2832.89,0,0,1.000126,85,1
1486,0,51363,56887,48838.59,54108.8,2524.41,2778.2,0,0,1.000121,85,1
1497,0,51355,56890,48888.92,54164.42,2466.07,2725.57,0,0,1.00012,85,1
1506,0,51370,56897,48938.55,54219.08,2431.45,2677.92,0,0,1.000115,85,1
1516,0,51365,56888,48987.08,54272.46,2377.92,2615.54,0,0,1.00011,85,1
1527,0,51367,56904,49034.67,54325.09,2332.32,2578.91,0,0,1.000109,85,1
1536,0,51368,56904,49081.34,54376.67,2286.66,2527.33,0,0,1.000108,85,1
1547,0,51364,56894,49127,54427.01,2237,2466.98,0,0,1.000105,85,1
1557,0,51362,56897,49171.7,54476.42,2190.3,2420.58,0,0,1.000103,85,1
1566,0,51357,56896,49215.41,54524.81,2141.59,2371.19,0,0,1.000102,85,1
1576,0,51365,56903,49258.4,54572.37,2106.6,2330.62,0,0,1.000102,85,1
1587,0,51370,56906,49300.63,54619.05,2069.37,2286.95,0,0,1.0001,85,1
1596,0,51367,56915,49341.96,54664.97,2025.04,2250.03,0,0,1.000102,85,1
1606,0,51366,56904,49382.44,54709.75,1983.56,2194.25,0,0,1.000101,85,1
1616,0,51368,56917,49422.15,54753.9,1945.85,2163.1,0,0,1.000103,85,1
1626,0,51371,56923,49461.12,54797.28,1909.88,2125.72,0,0,1.000106,85,1
1636,0,51369,56911,49499.28,54839.55,1869.72,2071.45,0,0,1.000105,85,1
1647,0,51372,56920,49536.74,54881.16,1835.26,2038.84,0,0,1.000107,85,1
1656,0,51368,56916,49573.36,54921.86,1794.64,1994.14,0,0,1.000109,85,1
1667,0,51365,56910,49609.2,54961.62,1755.8,1948.38,0,0,1.000109,85,1
1677,0,51365,56919,49644.32,55000.77,1720.68,1918.23,0,0,1.000112,85,1
1686,0,51367,56925,49678.77,55039.26,1688.23,1885.74,0,0,1.000117,85,1
1696,0,51361,56917,49712.41,55076.81,1648.59,1840.19,0,0,1.00012,85,1
1707,0,51367,56916,49745.51,55113.6,1621.49,1802.4,0,0,1.000122,85,1
1716,0,51367,56917,49777.94,55149.67,1589.06,1767.33,0,0,1.000124,85,1
1727,0,51368,56909,49809.74,55184.85,1558.26,1724.14,0,0,1.000123,85,1
1735,0,51367,56921,49840.88,55219.58,1526.12,1701.42,0,0,1.000126,85,1
1746,0,51361,56908,49871.28,55253.35,1489.71,1654.65,0,0,1.000127,85,1
1757,0,51363,56912,49901.12,55286.52,1461.88,1625.48,0,0,1.000129,85,1
1766,0,51364,56912,49930.38,55319.03,1433.62,1592.97,0,0,1.00013,85,1
1776,0,51367,56908,49959.12,55350.81,1407.88,1557.19,0,0,1.000129,85,1
1786,0,51367,56921,49987.28,55382.21,1379.72,1538.79,0,0,1.000132,85,1
1796,0,51364,56921,50014.81,55412.98,1349.19,1508.02,0,0,1.000136,85,1
1806,0,51363,56904,50041.78,55442.8,1321.22,1461.2,0,0,1.000135,85,1
1817,0,51363,56918,50068.2,55472.31,1294.8,1445.69,0,0,1.000138,85,1
1826,0,51363,56925,50094.1,55501.36,1268.9,1423.64,0,0,1.000143,85,1
1837,0,51369,56918,50119.6,55529.69,1249.4,1388.3,0,0,1.000144,85,1
1847,0,51359,56920,50144.39,55557.5,1214.61,1362.5,0,0,1.000149,85,1
1856,0,51370,56920,50168.9,55584.75,1201.1,1335.25,0,0,1.00015,85,1
1866,0,51366,56912,50192.84,55611.29,1173.16,1300.71,0,0,1.000151,85,1
1876,0,51368,56919,50216.34,55637.44,1151.66,1281.55,0,0,1.000152,85,1
1886,0,51367,56927,50239.36,55663.24,1127.64,1263.76,0,0,1.000156,85,1
1896,0,51364,56919,50261.85,55688.35,1102.14,1230.65,0,0,1.000159,85,1
1905,0,51367,56924,50283.96,55713.07,1083.04,1210.93,0,0,1.000162,85,1
1916,0,51362,56915,50305.52,55737.1,1056.48,1177.89,0,0,1.000164,85,1
1927,0,51366,56924,50326.73,55760.84,1039.27,1163.16,0,0,1.000168,85,1
1936,0,51370,56925,50347.59,55784.13,1022.41,1140.87,0,0,1.00017,85,1
1946,0,51367,56916,50367.98,55806.77,999.02,1109.23,0,0,1.000171,85,1
1956,0,51357,56915,50387.76,55828.94,969.23,1086.06,0,0,1.000174,85,1
1966,0,51367,56919,50407.35,55850.74,959.65,1068.26,0,0,1.000176,85,1
1976,0,51370,56913,50426.6,55871.98,943.39,1041.02,0,0,1.000174,85,1
1986,0,51362,56929,50445.31,55893.12,916.69,1035.88,0,0,1.00018,85,1
1995,0,51365,56921,50463.71,55913.68,901.29,1007.32,0,0,1.000183,85,1
2006,0,51366,56919,50481.75,55933.78,884.25,985.21,0,0,1.000184,85,1
2017,0,51369,56919,50499.5,55953.49,869.5,965.51,0,0,1.000185,85,1
2027,0,51364,56918,50516.79,55972.78,847.21,945.22,0,0,1.000187,85,1
2035,0,51363,56923,50533.72,55991.78,829.28,931.21,0,0,1.00019,85,1
2046,0,51365,56915,50550.35,56010.25,814.65,904.75,0,0,1.000191,85,1
2057,0,51361,56925,50566.56,56028.55,794.44,896.45,0,0,1.000196,85,1
2066,0,51365,56919,50582.53,56046.35,782.47,872.64,0,0,1.000197,85,1
2076,0,51374,56927,50598.36,56063.97,775.64,863.03,0,0,1.000198,85,1
2086,0,51370,56926,50613.79,56081.21,756.21,844.79,0,0,1.0002,84.99,1
2097,0,51364,56933,50628.8,56098.25,735.2,834.75,0,0,1.000206,84.99,1
2106,0,51367,56930,50643.57,56114.88,723.43,815.12,0,0,1.00021,84.99,1
2116,0,51365,56924,50658,56131.07,707,792.93,0,0,1.000213,84.99,1
2126,0,51369,56931,50672.21,56147.07,696.79,783.93,0,0,1.000217,84.99,1
2136,0,51365,56930,50686.07,56162.73,678.93,767.27,0,0,1.000221,84.99,1
2146,0,51366,56922,50699.67,56177.91,666.32,744.09,0,0,1.000223,84.99,1
2156,0,51365,56924,50712.98,56192.83,652.02,731.16,0,0,1.000226,84.99,1
2166,0,51364,56920,50726.01,56207.38,637.99,712.62,0,0,1.000227,84.99,1
2176,0,51375,56929,50738.99,56221.81,636.01,707.19,0,0,1.000228,84.99,1
2186,0,51366,56924,50751.53,56235.85,614.47,688.14,0,0,1.00023,84.99,1
2196,0,51364,56926,50763.78,56249.66,600.22,676.34,0,0,1.000234,84.99,1
2205,0,51364,56929,50775.79,56263.25,588.21,665.75,0,0,1.000238,84.99,1
2215,0,51367,56917,50787.61,56276.32,579.39,640.68,0,0,1.000237,84.99,1
2227,0,51367,56918,50799.2,56289.16,567.8,628.84,0,0,1.000237,84.99,1
2237,0,51363,56917,50810.48,56301.71,552.52,615.29,0,0,1.000238,84.99,1
2245,0,51367,56914,50821.61,56313.96,545.39,600.04,0,0,1.000237,84.99,1
2256,0,51361,56896,50832.4,56325.6,528.6,570.4,0,0,1.000232,84.99,1
2267,0,51357,56901,50842.89,56337.11,514.11,563.89,0,0,1.00023,84.99,1
2276,0,51364,56898,50853.32,56348.33,510.68,549.67,0,0,1.000225,84.99,1
2286,0,51360,56901,50863.45,56359.38,496.55,541.62,0,0,1.000223,84.99,1
2296,0,51358,56894,50873.34,56370.07,484.66,523.93,0,0,1.000218,84.99,1
2307,0,51354,56898,50882.96,56380.63,471.04,517.37,0,0,1.000217,84.99,1
2316,0,51367,56896,50892.64,56390.94,474.36,505.06,0,0,1.000211,84.99,1
2326,0,51360,56886,50901.99,56400.84,458.01,485.16,0,0,1.000203,84.99,1
2336,0,51361,56896,50911.17,56410.74,449.83,485.26,0,0,1.000199,85,1
2345,0,51357,56896,50920.08,56420.44,436.91,475.55,0,0,1.000197,85,1
2356,0,51362,56895,50928.92,56429.94,433.08,465.06,0,0,1.000192,85,1
2366,0,51358,56894,50937.5,56439.22,420.5,454.78,0,0,1.000189,85,1
2376,0,51364,56897,50946.03,56448.37,417.96,448.63,0,0,1.000184,85,1
2385,0,51359,56907,50954.3,56457.55,404.7,449.45,0,0,1.000184,85,1
2396,0,51360,56904,50962.41,56466.48,397.59,437.52,0,0,1.000183,85,1
2406,0,51361,56905,50970.38,56475.25,390.62,429.75,0,0,1.000182,85,1
2415,0,51366,56903,50978.3,56483.81,387.7,419.19,0,0,1.000179,85,1
2425,0,51363,56912,50985.99,56492.37,377.01,419.63,0,0,1.00018,85,1
2436,0,51359,56895,50993.45,56500.42,365.55,394.58,0,0,1.000176,85,1
2446,0,51355,56916,51000.69,56508.73,354.31,407.27,0,0,1.000181,85,1
2455,0,51357,56911,51007.82,56516.78,349.18,394.22,0,0,1.000183,85,1
2465,0,51362,56906,51014.9,56524.57,347.1,381.43,0,0,1.000182,85,1
2477,0,51366,56911,51021.92,56532.29,344.08,378.71,0,0,1.000181,85,1
2487,0,51366,56913,51028.8,56539.91,337.2,373.09,0,0,1.000181,85,1
2495,0,51353,56907,51035.29,56547.25,317.71,359.75,0,0,1.000184,85,1
2506,0,51358,56904,51041.75,56554.39,316.25,349.61,0,0,1.000183,85,1
2516,0,51357,56904,51048.05,56561.38,308.95,342.62,0,0,1.000183,85,1
2525,0,51364,56912,51054.37,56568.39,309.63,343.61,0,0,1.000184,85,1
2536,0,51360,56907,51060.49,56575.16,299.51,331.84,0,0,1.000184,85,1
2546,0,51356,56901,51066.4,56581.68,289.6,319.32,0,0,1.000183,85,1
2556,0,51359,56904,51072.25,56588.12,286.75,315.88,0,0,1.000182,85,1
2566,0,51353,56905,51077.87,56594.46,275.13,310.54,0,0,1.000184,85,1
2576,0,51356,56898,51083.43,56600.54,272.57,297.46,0,0,1.000183,85,1
2586,0,51357,56900,51088.91,56606.53,268.09,293.47,0,0,1.000182,85,1
2595,0,51352,56897,51094.17,56612.34,257.83,284.66,0,0,1.000182,85,1
2606,0,51355,56896,51099.39,56618.01,255.61,277.98,0,0,1.00018,85,1
2616,0,51352,56891,51104.44,56623.48,247.56,267.52,0,0,1.000177,85,1
2626,0,51349,56896,51109.33,56628.93,239.67,267.07,0,0,1.000178,85,1
2635,0,51349,56893,51114.12,56634.21,234.88,258.79,0,0,1.000177,85,1
2646,0,51348,56886,51118.8,56639.25,229.2,246.75,0,0,1.000175,85,1
2656,0,51346,56890,51123.35,56644.26,222.65,245.74,0,0,1.000175,85,1
2666,0,51355,56886,51127.99,56649.1,227.01,236.9,0,0,1.00017,85,1
2675,0,51353,56892,51132.49,56653.96,220.51,238.04,0,0,1.000168,85,1
2685,0,51351,56891,51136.86,56658.7,214.14,232.3,0,0,1.000167,85,1
2696,0,51345,56891,51141.02,56663.35,203.98,227.65,0,0,1.000167,85,1
2705,0,51345,56896,51145.1,56668,199.9,228,0,0,1.000169,85,1
2715,0,51356,56890,51149.32,56672.44,206.68,217.56,0,0,1.000165,85,1
2725,0,51351,56894,51153.35,56676.87,197.64,217.13,0,0,1.000165,85,1
2736,0,51350,56901,51157.29,56681.35,192.71,219.64,0,0,1.000167,85,1
2745,0,51348,56897,51161.1,56685.67,186.89,211.33,0,0,1.000168,85,1
2755,0,51346,56898,51164.8,56689.92,181.2,208.08,0,0,1.00017,85,1
2765,0,51347,56888,51168.45,56693.89,178.55,194.11,0,0,1.000169,85,1
2776,0,51349,56900,51172.06,56698.01,176.94,201.99,0,0,1.000171,85,1
2785,0,51353,56895,51175.68,56701.95,177.32,193.05,0,0,1.00017,85,1
2795,0,51349,56907,51179.15,56706.05,169.85,200.95,0,0,1.000174,85,1
2805,0,51352,56887,51182.6,56709.67,169.39,177.33,0,0,1.000171,85,1
2817,0,51353,56902,51186.01,56713.51,166.99,188.48,0,0,1.000172,85,1
2825,0,51353,56905,51189.35,56717.35,163.65,187.65,0,0,1.000174,85,1
2835,0,51357,56909,51192.71,56721.18,164.29,187.82,0,0,1.000176,85,1
2845,0,51347,56903,51195.8,56724.82,151.2,178.18,0,0,1.000179,85,1
2856,0,51354,56906,51198.96,56728.44,155.04,177.56,0,0,1.000181,85,1
2865,0,51357,56913,51202.12,56732.14,154.88,180.86,0,0,1.000184,85,1
2875,0,51364,56912,51205.36,56735.73,158.64,176.27,0,0,1.000185,85,1
2886,0,51359,56913,51208.44,56739.28,150.56,173.72,0,0,1.000187,85,1
2894,0,51353,56918,51211.33,56742.85,141.67,175.14,0,0,1.000193,85,1
2906,0,51359,56910,51214.28,56746.2,144.72,163.8,0,0,1.000194,85,1
2916,0,51351,56916,51217.01,56749.6,133.98,166.4,0,0,1.0002,84.99,1
2926,0,51363,56916,51219.94,56752.92,143.06,163.07,0,0,1.000201,84.99,1
2935,0,51360,56919,51222.74,56756.25,137.26,162.75,0,0,1.000205,84.99,1
2946,0,51359,56926,51225.46,56759.64,133.54,166.36,0,0,1.000211,84.99,1
2956,0,51362,56914,51228.19,56762.73,133.8,151.27,0,0,1.000212,84.99,1
2966,0,51364,56922,51230.91,56765.92,133.09,156.08,0,0,1.000215,84.99,1
2975,0,51364,56930,51233.58,56769.2,130.42,160.8,0,0,1.00022,84.99,1
2985,0,51366,56921,51236.23,56772.24,129.77,148.76,0,0,1.000222,84.99,1
2996,0,51355,56916,51238.6,56775.12,116.39,140.88,0,0,1.000226,84.99,1
3006,0,51360,56918,51241.03,56777.98,118.96,140.02,0,0,1.000229,84.99,1
3015,0,51364,56917,51243.5,56780.76,120.5,136.24,0,0,1.00023,84.99,1
3025,0,51357,56912,51245.77,56783.38,111.23,128.62,0,0,1.000231,84.99,1
3036,0,51355,56902,51247.96,56785.75,107.04,116.25,0,0,1.00023,84.99,1
3045,0,51353,56891,51250.06,56787.86,102.94,103.14,0,0,1.000227,84.99,1
3055,0,51353,56892,51252.12,56789.94,100.88,102.06,0,0,1.000223,84.99,1
3065,0,51352,56871,51254.11,56791.56,97.89,79.44,0,0,1.000214,84.99,1
3076,0,51348,56870,51255.99,56793.13,92.01,76.87,0,0,1.000205,84.99,1
3085,0,51333,56865,51257.53,56794.57,75.46,70.43,0,0,1.0002,84.99,1
3095,0,51334,56861,51259.07,56795.89,74.93,65.11,0,0,1.000194,85,1
3105,0,51340,56860,51260.69,56797.17,79.31,62.82,0,0,1.000185,85,1
3116,0,51338,56852,51262.24,56798.27,75.76,53.73,0,0,1.000175,85,1
3126,0,51340,56864,51263.8,56799.59,76.2,64.41,0,0,1.000168,85,1
3136,0,51340,56873,51265.32,56801.06,74.68,71.94,0,0,1.000164,85,1
3145,0,51341,56879,51266.84,56802.62,74.16,76.38,0,0,1.000162,85,1
3155,0,51343,56880,51268.36,56804.17,74.64,75.83,0,0,1.00016,85,1
3166,0,51355,56874,51270.1,56805.57,84.9,68.43,0,0,1.000151,85,1
3176,0,51356,56885,51271.82,56807.16,84.18,77.84,0,0,1.000146,85,1
3186,0,51345,56883,51273.28,56808.67,71.72,74.32,0,0,1.000144,85,1
3194,0,51343,56886,51274.67,56810.22,68.32,75.78,0,0,1.000145,85,1
3205,0,51342,56891,51276.02,56811.84,65.98,79.16,0,0,1.000147,85,1
3215,0,51351,56887,51277.52,56813.34,73.48,73.66,0,0,1.000144,85,1
3225,0,51348,56890,51278.93,56814.88,69.07,75.12,0,0,1.000144,85,1
3235,0,51353,56900,51280.41,56816.58,72.59,83.42,0,0,1.000145,85,1
3245,0,51352,56900,51281.85,56818.25,70.15,81.75,0,0,1.000146,85,1
3255,0,51352,56902,51283.25,56819.92,68.75,82.07,0,0,1.000148,85,1
3265,0,51357,56897,51284.73,56821.47,72.27,75.53,0,0,1.000146,85,1
3275,0,51353,56892,51286.09,56822.88,66.91,69.12,0,0,1.000145,85,1
3286,0,51347,56907,51287.31,56824.56,59.69,82.44,0,0,1.00015,85,1
3295,0,51348,56896,51288.52,56825.99,59.48,70.01,0,0,1.000152,85,1
3305,0,51344,56898,51289.63,56827.43,54.37,70.57,0,0,1.000155,85,1
3315,0,51354,56896,51290.92,56828.8,63.08,67.2,0,0,1.000154,85,1
3325,0,51350,56890,51292.1,56830.03,57.9,59.97,0,0,1.000153,85,1
3336,0,51349,56899,51293.24,56831.41,55.76,67.59,0,0,1.000155,85,1
3346,0,51347,56901,51294.32,56832.8,52.68,68.2,0,0,1.000158,85,1
3355,0,51348,56895,51295.39,56834.05,52.61,60.95,0,0,1.000159,85,1
3365,0,51361,56906,51296.71,56835.49,64.29,70.51,0,0,1.000159,85,1
3376,0,51350,56900,51297.77,56836.78,52.23,63.22,0,0,1.000161,85,1
3386,0,51351,56904,51298.84,56838.12,52.16,65.87,0,0,1.000163,85,1
3396,0,51356,56908,51299.98,56839.52,56.02,68.48,0,0,1.000166,85,1
3404,0,51356,56919,51301.1,56841.11,54.89,77.89,0,0,1.000171,85,1
3415,0,51357,56915,51302.23,56842.59,54.77,72.41,0,0,1.000175,85,1
3425,0,51362,56916,51303.42,56844.06,58.58,71.94,0,0,1.000178,85,1
3435,0,51354,56914,51304.43,56845.46,49.57,68.54,0,0,1.000182,85,1
3445,0,51352,56919,51305.39,56846.93,46.61,72.07,0,0,1.000189,85,1
3454,0,51358,56914,51306.44,56848.28,51.56,65.72,0,0,1.000192,85,1
3465,0,51359,56912,51307.49,56849.55,51.51,62.45,0,0,1.000194,85,1
3475,0,51364,56927,51308.62,56851.1,55.38,75.9,0,0,1.000199,85,1
3485,0,51359,56919,51309.63,56852.46,49.37,66.54,0,0,1.000203,84.99,1
3495,0,51367,56917,51310.78,56853.75,56.22,63.25,0,0,1.000203,84.99,1
3505,0,51358,56919,51311.73,56855.06,46.27,63.94,0,0,1.000208,84.99,1
3515,0,51360,56919,51312.69,56856.33,47.31,62.66,0,0,1.000211,84.99,1
3525,0,51359,56926,51313.62,56857.73,45.38,68.27,0,0,1.000217,84.99,1
3535,0,51359,56913,51314.53,56858.84,44.47,54.16,0,0,1.000219,84.99,1
3546,0,51352,56916,51315.28,56859.98,36.72,56.02,0,0,1.000224,84.99,1
3555,0,51355,56910,51316.07,56860.98,38.93,49.02,0,0,1.000226,84.99,1
3565,0,51357,56912,51316.89,56862,40.11,50,0,0,1.000228,84.99,1
3575,0,51358,56909,51317.72,56862.94,40.28,46.05,0,0,1.000229,84.99,1
3586,0,51353,56909,51318.42,56863.87,34.57,45.13,0,0,1.000231,84.99,1
3596,0,51350,56910,51319.06,56864.79,30.94,45.21,0,0,1.000235,84.99,1
3606,0,51353,56904,51319.74,56865.57,33.26,38.43,0,0,1.000235,84.99,1
3614,0,51355,56909,51320.44,56866.44,34.55,42.55,0,0,1.000237,84.99,1
3624,0,51352,56907,51321.08,56867.26,30.92,39.74,0,0,1.000238,84.99,1
3635,0,51344,56906,51321.53,56868.03,22.46,37.96,0,0,1.000243,84.99,1
3645,0,51353,56908,51322.16,56868.83,30.84,39.16,0,0,1.000245,84.99,1
3655,0,51352,56906,51322.76,56869.58,29.24,36.42,0,0,1.000246,84.99,1
3664,0,51353,56912,51323.37,56870.43,29.63,41.57,0,0,1.000249,84.99,1
3675,0,51356,56915,51324.02,56871.32,31.98,43.68,0,0,1.000252,84.99,1
3685,0,51347,56908,51324.48,56872.06,22.52,35.94,0,0,1.000256,84.99,1
3695,0,51350,56911,51325,56872.83,25,38.16,0,0,1.000259,84.99,1
3705,0,51355,56909,51325.6,56873.56,29.4,35.44,0,0,1.00026,84.99,1
3715,0,51357,56910,51326.23,56874.29,30.77,35.71,0,0,1.000261,84.99,1
3725,0,51361,56916,51326.92,56875.12,34.08,40.88,0,0,1.000262,84.99,1
3735,0,51355,56912,51327.48,56875.86,27.52,36.14,0,0,1.000264,84.99,1
3745,0,51349,56915,51327.92,56876.65,21.08,38.35,0,0,1.000269,84.99,1
3756,0,51355,56908,51328.46,56877.28,26.54,30.72,0,0,1.00027,84.99,1
3765,0,51357,56907,51329.03,56877.87,27.96,29.12,0,0,1.000269,84.99,1
3775,0,51356,56923,51329.58,56878.78,26.42,44.22,0,0,1.000274,84.99,1
3785,0,51357,56910,51330.13,56879.41,26.87,30.59,0,0,1.000274,84.99,1
3795,0,51351,56909,51330.55,56880,20.45,29,0,0,1.000277,84.99,1
3806,0,51354,56906,51331.01,56880.52,22.98,25.48,0,0,1.000277,84.99,1
3814,0,51351,56900,51331.41,56880.91,19.59,19.09,0,0,1.000276,84.99,1
3825,0,51349,56891,51331.76,56881.12,17.23,9.88,0,0,1.000273,84.99,1
3834,0,51349,56884,51332.11,56881.17,16.89,2.82,0,0,1.000267,84.99,1
3846,0,51340,56869,51332.27,56880.93,7.73,-11.93,0,0,1.00026,84.99,1
3856,0,51335,56852,51332.33,56880.35,2.67,-28.36,0,0,1.000248,84.99,1
3864,0,51337,56852,51332.42,56879.79,4.58,-27.79,0,0,1.000236,84.99,1
3874,0,51332,56857,51332.41,56879.33,-0.41,-22.34,0,0,1.000228,84.99,1
3885,0,51327,56843,51332.3,56878.61,-5.3,-35.61,0,0,1.000217,84.99,1
3895,0,51333,56853,51332.32,56878.1,0.68,-25.1,0,0,1.000208,84.99,1
3905,0,51328,56849,51332.23,56877.51,-4.23,-28.52,0,0,1.000199,85,1
3914,0,51339,56859,51332.37,56877.14,6.63,-18.14,0,0,1.00019,85,1
3924,0,51335,56871,51332.42,56877.02,2.57,-6.02,0,0,1.000187,85,1
3935,0,51331,56875,51332.4,56876.98,-1.4,-1.98,0,0,1.000187,85,1
3945,0,51332,56870,51332.39,56876.84,-0.39,-6.84,0,0,1.000184,85,1
3955,0,51336,56868,51332.46,56876.67,3.54,-8.67,0,0,1.00018,85,1
3965,0,51339,56872,51332.59,56876.58,6.41,-4.58,0,0,1.000176,85,1
3974,0,51339,56880,51332.72,56876.65,6.28,3.35,0,0,1.000174,85,1
3984,0,51338,56883,51332.83,56876.78,5.17,6.22,0,0,1.000174,85,1
3994,0,51337,56882,51332.91,56876.88,4.09,5.12,0,0,1.000175,85,1
4004,0,51348,56883,51333.22,56877.01,14.78,5.99,0,0,1.000171,85,1
4015,0,51349,56881,51333.53,56877.09,15.46,3.91,0,0,1.000166,85,1
4025,0,51350,56882,51333.87,56877.19,16.13,4.81,0,0,1.000162,85,1
4035,0,51343,56893,51334.05,56877.51,8.95,15.49,0,0,1.000164,85,1
4044,0,51343,56900,51334.23,56877.96,8.77,22.04,0,0,1.000168,85,1
4055,0,51344,56897,51334.42,56878.34,9.57,18.66,0,0,1.000171,85,1
4065,0,51348,56904,51334.7,56878.85,13.3,25.15,0,0,1.000174,85,1
4075,0,51346,56896,51334.93,56879.19,11.07,16.8,0,0,1.000176,85,1
4085,0,51345,56891,51335.13,56879.43,9.87,11.57,0,0,1.000176,85,1
4096,0,51343,56894,51335.28,56879.73,7.71,14.27,0,0,1.000178,85,1
4104,0,51340,56888,51335.38,56879.89,4.62,8.11,0,0,1.000179,85,1
4114,0,51345,56890,51335.57,56880.1,9.43,9.9,0,0,1.000179,85,1
4124,0,51344,56889,51335.74,56880.28,8.26,8.72,0,0,1.000179,85,1
4134,0,51340,56894,51335.83,56880.55,4.17,13.45,0,0,1.000182,85,1
4145,0,51349,56888,51336.09,56880.7,12.91,7.3,0,0,1.00018,85,1
4155,0,51347,56893,51336.31,56880.95,10.69,12.05,0,0,1.00018,85,1
4165,0,51350,56889,51336.58,56881.11,13.41,7.89,0,0,1.000177,85,1
4174,0,51344,56900,51336.73,56881.49,7.27,18.51,0,0,1.000181,85,1
4185,0,51341,56900,51336.82,56881.86,4.18,18.14,0,0,1.000186,85,1
4195,0,51342,56894,51336.92,56882.1,5.07,11.89,0,0,1.000188,85,1
4205,0,51348,56894,51337.15,56882.34,10.85,11.66,0,0,1.000188,85,1
4215,0,51341,56900,51337.23,56882.7,3.77,17.3,0,0,1.000192,85,1
4224,0,51350,56902,51337.48,56883.08,12.52,18.91,0,0,1.000194,85,1
4234,0,51343,56909,51337.59,56883.6,5.41,25.39,0,0,1.000201,84.99,1
4244,0,51348,56907,51337.8,56884.07,10.2,22.93,0,0,1.000205,84.99,1
4254,0,51354,56902,51338.13,56884.43,15.87,17.57,0,0,1.000205,84.99,1
4264,0,51351,56907,51338.39,56884.89,12.61,22.11,0,0,1.000208,84.99,1
4274,0,51351,56914,51338.64,56885.47,12.36,28.53,0,0,1.000213,84.99,1
4284,0,51348,56915,51338.83,56886.07,9.17,28.93,0,0,1.000219,84.99,1
4294,0,51350,56915,51339.05,56886.65,10.95,28.35,0,0,1.000225,84.99,1
4304,0,51349,56901,51339.25,56886.94,9.75,14.06,0,0,1.000226,84.99,1
4315,0,51350,56918,51339.46,56887.56,10.54,30.44,0,0,1.000233,84.99,1
4325,0,51357,56917,51339.82,56888.15,17.18,28.85,0,0,1.000236,84.99,1
4334,0,51354,56913,51340.1,56888.65,13.9,24.35,0,0,1.000239,84.99,1
4344,0,51350,56917,51340.3,56889.21,9.7,27.79,0,0,1.000245,84.99,1
4355,0,51345,56907,51340.39,56889.57,4.61,17.43,0,0,1.000249,84.99,1
4365,0,51353,56909,51340.64,56889.96,12.36,19.04,0,0,1.000251,84.99,1
4375,0,51342,56914,51340.67,56890.44,1.33,23.55,0,0,1.000259,84.99,1
4384,0,51343,56910,51340.71,56890.83,2.29,19.16,0,0,1.000265,84.99,1
4395,0,51339,56914,51340.68,56891.3,-1.68,22.7,0,0,1.000274,84.99,1
4405,0,51350,56920,51340.87,56891.87,9.13,28.12,0,0,1.00028,84.99,1
4415,0,51362,56913,51341.29,56892.3,20.71,20.7,0,0,1.000279,84.99,1
4425,0,51354,56922,51341.55,56892.9,12.45,29.1,0,0,1.000284,84.99,1
4433,0,51347,56912,51341.66,56893.28,5.34,18.72,0,0,1.000289,84.99,1
4444,0,51344,56919,51341.71,56893.8,2.29,25.2,0,0,1.000296,84.99,1
4454,0,51347,56922,51341.82,56894.36,5.18,27.64,0,0,1.000304,84.99,1
4464,0,51356,56915,51342.1,56894.78,13.9,20.22,0,0,1.000306,84.99,1
4474,0,51356,56911,51342.38,56895.1,13.62,15.9,0,0,1.000306,84.99,1
4485,0,51355,56919,51342.64,56895.58,12.36,23.42,0,0,1.000309,84.99,1
4494,0,51353,56918,51342.84,56896.03,10.16,21.97,0,0,1.000313,84.99,1
4504,0,51353,56910,51343.05,56896.31,9.95,13.69,0,0,1.000314,84.99,1
4514,0,51348,56922,51343.15,56896.82,4.85,25.18,0,0,1.000321,84.99,1
4525,0,51356,56904,51343.41,56896.97,12.59,7.03,0,0,1.000318,84.99,1
4535,0,51347,56913,51343.48,56897.29,3.52,15.71,0,0,1.000323,84.99,1
4544,0,51345,56919,51343.51,56897.73,1.49,21.27,0,0,1.000329,84.99,1
4554,0,51353,56915,51343.7,56898.07,9.3,16.93,0,0,1.000332,84.99,1
4564,0,51352,56922,51343.87,56898.55,8.13,23.45,0,0,1.000337,84.99,1
4575,0,51354,56914,51344.07,56898.87,9.93,15.13,0,0,1.000338,84.99,1
4585,0,51352,56914,51344.23,56899.17,7.77,14.83,0,0,1.00034,84.99,1
4595,0,51344,56909,51344.23,56899.37,-0.23,9.63,0,0,1.000344,84.99,1
4603,0,51343,56910,51344.2,56899.58,-1.2,10.42,0,0,1.000348,84.99,1
4614,0,51352,56917,51344.36,56899.93,7.64,17.07,0,0,1.000351,84.99,1
4624,0,51353,56908,51344.53,56900.09,8.47,7.91,0,0,1.000351,84.99,1
4634,0,51347,56902,51344.58,56900.13,2.42,1.87,0,0,1.00035,84.99,1
4644,0,51345,56887,51344.59,56899.87,0.41,-12.87,0,0,1.000345,84.99,1
4655,0,51343,56884,51344.56,56899.55,-1.56,-15.55,0,0,1.00034,84.99,1
4664,0,51342,56875,51344.51,56899.07,-2.51,-24.07,0,0,1.000332,84.99,1
4674,0,51334,56871,51344.3,56898.51,-10.3,-27.51,0,0,1.000326,84.99,1
4684,0,51330,56851,51344.01,56897.56,-14.01,-46.56,0,0,1.000314,84.99,1
4695,0,51330,56850,51343.73,56896.61,-13.73,-46.61,0,0,1.000302,84.99,1
4705,0,51333,56847,51343.52,56895.62,-10.52,-48.62,0,0,1.000288,84.99,1
4714,0,51329,56854,51343.23,56894.79,-14.23,-40.79,0,0,1.000278,84.99,1
4724,0,51329,56861,51342.94,56894.11,-13.94,-33.11,0,0,1.000271,84.99,1
4734,0,51334,56856,51342.76,56893.35,-8.76,-37.35,0,0,1.00026,84.99,1
4745,0,51333,56859,51342.57,56892.66,-9.57,-33.66,0,0,1.000252,84.99,1
4755,0,51340,56870,51342.51,56892.21,-2.52,-22.21,0,0,1.000244,84.99,1
4764,0,51334,56866,51342.35,56891.69,-8.35,-25.69,0,0,1.000238,84.99,1
4774,0,51337,56881,51342.24,56891.48,-5.24,-10.48,0,0,1.000236,84.99,1
4785,0,51326,56874,51341.91,56891.13,-15.91,-17.13,0,0,1.000237,84.99,1
4795,0,51329,56875,51341.66,56890.81,-12.66,-15.81,0,0,1.000236,84.99,1
4805,0,51337,56876,51341.56,56890.51,-4.56,-14.51,0,0,1.000232,84.99,1
4813,0,51336,56878,51341.45,56890.26,-5.45,-12.26,0,0,1.00023,84.99,1
4824,0,51341,56886,51341.44,56890.17,-0.44,-4.18,0,0,1.000229,84.99,1
4834,0,51335,56877,51341.31,56889.91,-6.31,-12.91,0,0,1.000227,84.99,1
4844,0,51337,56868,51341.23,56889.48,-4.23,-21.48,0,0,1.00022,84.99,1
4854,0,51335,56884,51341.1,56889.37,-6.1,-5.37,0,0,1.000221,84.99,1
4864,0,51338,56875,51341.04,56889.08,-3.04,-14.08,0,0,1.000217,84.99,1
4874,0,51340,56895,51341.02,56889.2,-1.02,5.8,0,0,1.000219,84.99,1
4884,0,51340,56897,51341,56889.36,-1,7.64,0,0,1.000223,84.99,1
4894,0,51338,56894,51340.94,56889.45,-2.95,4.55,0,0,1.000225,84.99,1
4904,0,51335,56882,51340.83,56889.3,-5.83,-7.3,0,0,1.000225,84.99,1
4915,0,51335,56888,51340.71,56889.28,-5.71,-1.28,0,0,1.000227,84.99,1
4925,0,51332,56888,51340.54,56889.26,-8.54,-1.26,0,0,1.00023,84.99,1
4933,0,51331,56885,51340.35,56889.17,-9.35,-4.17,0,0,1.000232,84.99,1
4943,0,51334,56880,51340.23,56888.99,-6.23,-8.99,0,0,1.000231,84.99,1
4954,0,51338,56886,51340.18,56888.93,-2.18,-2.93,0,0,1.000231,84.99,1
4964,0,51341,56885,51340.2,56888.85,0.8,-3.86,0,0,1.000229,84.99,1
4974,0,51338,56883,51340.16,56888.74,-2.16,-5.74,0,0,1.000228,84.99,1
4984,0,51332,56883,51340,56888.62,-8,-5.63,0,0,1.000229,84.99,1
4995,0,51330,56882,51339.8,56888.5,-9.8,-6.5,0,0,1.000231,84.99,1
5004,0,51337,56884,51339.74,56888.41,-2.74,-4.41,0,0,1.000231,84.99,1
5014,0,51336,56887,51339.67,56888.38,-3.67,-1.38,0.000001,0,1.000231,84.99,1
5024,0,51332,56884,51339.51,56888.29,-7.52,-4.29,0.000004,0.000002,1.000233,84.99,1
5036,0,51332,56886,51339.37,56888.25,-7.37,-2.25,0.000007,0.000003,1.000235,84.99,1
5045,0,51326,56884,51339.1,56888.16,-13.1,-4.16,0.000012,0.000004,1.000239,84.99,1
5055,0,51336,56886,51339.04,56888.12,-3.04,-2.12,0.000014,0.000005,1.000239,84.99,1
5064,0,51334,56885,51338.94,56888.05,-4.94,-3.05,0.000016,0.000006,1.00024,84.99,1
5074,0,51335,56891,51338.86,56888.11,-3.86,2.89,0.000017,0.000005,1.000243,84.99,1
5084,0,51336,56891,51338.8,56888.17,-2.8,2.83,0.000018,0.000004,1.000245,84.99,1
5095,0,51336,56896,51338.75,56888.33,-2.75,7.67,0.000019,0.000001,1.000249,84.99,1
5104,0,51338,56897,51338.73,56888.5,-0.73,8.5,0.00002,-0.000002,1.000252,84.99,1
5114,0,51342,56902,51338.8,56888.77,3.2,13.23,0.000018,-0.000006,1.000255,84.99,1
5124,0,51339,56896,51338.81,56888.92,0.19,7.08,0.000018,-0.000009,1.000258,84.99,1
5135,0,51329,56896,51338.61,56889.06,-9.61,6.94,0.000022,-0.000012,1.000264,84.99,1
5144,0,51343,56899,51338.7,56889.26,4.3,9.74,0.00002,-0.000015,1.000266,84.99,1
5154,0,51338,56891,51338.69,56889.3,-0.69,1.7,0.00002,-0.000016,1.000267,84.99,1
5165,0,51339,56884,51338.7,56889.19,0.3,-5.19,0.00002,-0.000014,1.000265,84.99,1
5174,0,51336,56891,51338.64,56889.23,-2.64,1.77,0.000021,-0.000015,1.000266,84.99,1
5185,0,51336,56898,51338.59,56889.41,-2.59,8.59,0.000022,-0.000018,1.00027,84.99,1
5194,0,51333,56895,51338.48,56889.52,-5.48,5.48,0.000025,-0.00002,1.000275,84.99,1
5204,0,51337,56894,51338.45,56889.61,-1.45,4.39,0.000025,-0.000021,1.000277,84.99,1
5214,0,51333,56898,51338.34,56889.78,-5.34,8.22,0.000027,-0.000024,1.000282,84.99,1
5225,0,51332,56900,51338.21,56889.98,-6.21,10.02,0.00003,-0.000028,1.000288,84.99,1
5234,0,51336,56902,51338.17,56890.23,-2.17,11.77,0.000031,-0.000032,1.000293,84.99,1
5244,0,51333,56895,51338.07,56890.32,-5.07,4.68,0.000033,-0.000034,1.000297,84.99,1
5254,0,51335,56897,51338.01,56890.46,-3.01,6.54,0.000034,-0.000036,1.0003,84.99,1
5265,0,51336,56901,51337.97,56890.67,-1.97,10.33,0.000035,-0.00004,1.000305,84.99,1
5274,0,51339,56903,51337.99,56890.91,1.01,12.09,0.000034,-0.000044,1.000308,84.99,1
5284,0,51336,56897,51337.95,56891.04,-1.95,5.96,0.000035,-0.000046,1.000311,84.99,1
5294,0,51340,56895,51338,56891.12,2,3.88,0.000034,-0.000048,1.000312,84.99,1
5304,0,51338,56890,51338,56891.1,0,-1.1,0.000034,-0.000047,1.000311,84.99,1
5315,0,51339,56894,51338.02,56891.16,0.98,2.84,0.000033,-0.000048,1.000312,84.99,1
5324,0,51334,56889,51337.94,56891.12,-3.95,-2.12,0.000035,-0.000048,1.000313,84.99,1
5335,0,51327,56897,51337.73,56891.24,-10.73,5.76,0.000039,-0.00005,1.000319,84.99,1
5344,0,51335,56888,51337.67,56891.17,-2.67,-3.18,0.00004,-0.000049,1.000319,84.99,1
5355,0,51341,56898,51337.74,56891.31,3.26,6.69,0.000039,-0.000051,1.00032,84.99,1
5364,0,51331,56894,51337.6,56891.37,-6.61,2.63,0.000042,-0.000052,1.000324,84.99,1
5374,0,51336,56908,51337.57,56891.7,-1.57,16.3,0.000042,-0.000058,1.00033,84.99,1
5384,0,51336,56890,51337.54,56891.67,-1.54,-1.67,0.000043,-0.000057,1.00033,84.99,1
5395,0,51339,56898,51337.57,56891.8,1.43,6.2,0.000042,-0.00006,1.000332,84.99,1
5404,0,51344,56899,51337.7,56891.94,6.3,7.06,0.00004,-0.000062,1.000332,84.99,1
5414,0,51341,56907,51337.77,56892.25,3.23,14.75,0.000038,-0.000067,1.000336,84.99,1
5424,0,51339,56905,51337.8,56892.5,1.2,12.5,0.000038,-0.000072,1.000339,84.99,1
5435,0,51339,56901,51337.82,56892.67,1.18,8.32,0.000037,-0.000075,1.000342,84.99,1
5444,0,51344,56901,51337.95,56892.84,6.05,8.16,0.000035,-0.000078,1.000342,84.99,1
5454,0,51338,56900,51337.95,56892.99,0.05,7.01,0.000035,-0.000081,1.000345,84.99,1
5464,0,51340,56906,51338,56893.25,2,12.75,0.000034,-0.000085,1.000348,84.99,1
5474,0,51340,56902,51338.04,56893.42,1.96,8.57,0.000033,-0.000088,1.000351,84.99,1
5484,0,51332,56892,51337.92,56893.4,-5.92,-1.4,0.000036,-0.000088,1.000352,84.99,1
5494,0,51338,56877,51337.92,56893.07,0.08,-16.07,0.000035,-0.000082,1.000346,84.99,1
5504,0,51332,56875,51337.8,56892.71,-5.8,-17.71,0.000038,-0.000076,1.000342,84.99,1
5514,0,51325,56866,51337.55,56892.18,-12.55,-26.18,0.000043,-0.000066,1.000337,84.99,1
5524,0,51321,56860,51337.22,56891.53,-16.22,-31.54,0.000049,-0.000055,1.000331,84.99,1
5534,0,51318,56854,51336.83,56890.78,-18.84,-36.79,0.000057,-0.000042,1.000324,84.99,1
5543,0,51323,56850,51336.56,56889.97,-13.56,-39.97,0.000062,-0.000027,1.000314,84.99,1
5555,0,51331,56852,51336.45,56889.21,-5.45,-37.21,0.000064,-0.000014,1.000301,84.99,1
5564,0,51325,56846,51336.23,56888.35,-11.23,-42.35,0.000068,0.000001,1.000288,84.99,1
5574,0,51316,56858,51335.82,56887.75,-19.82,-29.75,0.000076,0.000012,1.000285,84.99,1
5583,0,51323,56855,51335.57,56887.09,-12.57,-32.09,0.000081,0.000023,1.000277,84.99,1
5595,0,51326,56862,51335.38,56886.59,-9.38,-24.59,0.000085,0.000032,1.000271,84.99,1
5604,0,51330,56858,51335.27,56886.02,-5.27,-28.02,0.000087,0.000042,1.000262,84.99,1
5614,0,51329,56876,51335.15,56885.82,-6.15,-9.82,0.000089,0.000045,1.000261,84.99,1
5624,0,51324,56869,51334.92,56885.48,-10.93,-16.48,0.000094,0.000051,1.000259,84.99,1
5635,0,51328,56870,51334.78,56885.17,-6.79,-15.18,0.000097,0.000057,1.000257,84.99,1
5644,0,51322,56866,51334.53,56884.79,-12.53,-18.79,0.000102,0.000064,1.000254,84.99,1
5655,0,51325,56866,51334.34,56884.42,-9.34,-18.42,0.000105,0.00007,1.000251,84.99,1
5664,0,51336,56859,51334.37,56883.91,1.63,-24.91,0.000105,0.000079,1.000241,84.99,1
5675,0,51325,56869,51334.18,56883.61,-9.18,-14.61,0.000108,0.000084,1.000239,84.99,1
5684,0,51326,56871,51334.02,56883.36,-8.02,-12.36,0.000111,0.000089,1.000238,84.99,1
5695,0,51322,56881,51333.78,56883.31,-11.78,-2.31,0.000116,0.00009,1.000242,84.99,1
5704,0,51332,56877,51333.75,56883.19,-1.75,-6.19,0.000117,0.000092,1.00024,84.99,1
5713,0,51327,56884,51333.61,56883.2,-6.61,0.8,0.000119,0.000091,1.000243,84.99,1
5724,0,51322,56879,51333.38,56883.12,-11.38,-4.12,0.000124,0.000093,1.000247,84.99,1
5735,0,51329,56887,51333.29,56883.19,-4.29,3.8,0.000126,0.000092,1.00025,84.99,1
5744,0,51332,56881,51333.26,56883.15,-1.27,-2.15,0.000126,0.000092,1.000249,84.99,1
5754,0,51331,56874,51333.22,56882.97,-2.22,-8.97,0.000127,0.000095,1.000247,84.99,1
5764,0,51325,56880,51333.06,56882.91,-8.06,-2.91,0.00013,0.000097,1.000249,84.99,1
5775,0,51322,56884,51332.84,56882.94,-10.84,1.06,0.000134,0.000096,1.000254,84.99,1
5784,0,51326,56873,51332.7,56882.74,-6.7,-9.74,0.000137,0.0001,1.000253,84.99,1
5794,0,51325,56880,51332.55,56882.69,-7.55,-2.69,0.00014,0.0001,1.000255,84.99,1
5804,0,51330,56880,51332.5,56882.64,-2.5,-2.64,0.000141,0.000101,1.000255,84.99,1
5815,0,51324,56889,51332.33,56882.77,-8.34,6.23,0.000144,0.000099,1.000261,84.99,1
5824,0,51323,56882,51332.15,56882.75,-9.15,-0.75,0.000148,0.000099,1.000264,84.99,1
5834,0,51324,56875,51331.99,56882.6,-7.99,-7.6,0.000151,0.000102,1.000265,84.99,1
5843,0,51330,56884,51331.95,56882.63,-1.95,1.37,0.000152,0.000102,1.000266,84.99,1
5855,0,51331,56885,51331.94,56882.67,-0.94,2.32,0.000152,0.000101,1.000267,84.99,1
5864,0,51339,56882,51332.08,56882.66,6.92,-0.66,0.000149,0.000101,1.000264,84.99,1
5874,0,51330,56892,51332.04,56882.85,-2.04,9.15,0.00015,0.000098,1.000268,84.99,1
5883,0,51334,56888,51332.08,56882.96,1.92,5.04,0.000149,0.000096,1.00027,84.99,1
5895,0,51333,56890,51332.1,56883.1,0.9,6.9,0.000149,0.000093,1.000272,84.99,1
5904,0,51339,56896,51332.24,56883.36,6.76,12.64,0.000146,0.000089,1.000273,84.99,1
5914,0,51334,56903,51332.28,56883.75,1.72,19.25,0.000145,0.000082,1.000279,84.99,1
5923,0,51334,56902,51332.31,56884.11,1.69,17.89,0.000145,0.000075,1.000284,84.99,1
5935,0,51337,56902,51332.41,56884.47,4.59,17.53,0.000143,0.000069,1.000288,84.99,1
5944,0,51341,56898,51332.58,56884.75,8.42,13.25,0.00014,0.000064,1.000289,84.99,1
5954,0,51346,56901,51332.84,56885.07,13.16,15.93,0.000134,0.000059,1.00029,84.99,1
5963,0,51341,56899,51333.01,56885.35,7.99,13.65,0.000131,0.000054,1.000291,84.99,1
5975,0,51337,56906,51333.08,56885.76,3.91,20.23,0.00013,0.000046,1.000296,84.99,1
5984,0,51333,56900,51333.08,56886.05,-0.09,13.95,0.00013,0.000041,1.000301,84.99,1
5994,0,51341,56904,51333.25,56886.41,7.75,17.59,0.000127,0.000035,1.000304,84.99,1
6003,0,51336,56900,51333.3,56886.68,2.7,13.32,0.000125,0.00003,1.000307,84.99,1
6014,0,51341,56911,51333.46,56887.17,7.54,23.83,0.000122,0.000022,1.000312,84.99,1
6024,0,51338,56910,51333.55,56887.62,4.45,22.37,0.000121,0.000014,1.000317,84.99,1
6034,0,51335,56914,51333.58,56888.16,1.42,25.84,0.00012,0.000004,1.000324,84.99,1
6043,0,51339,56909,51333.69,56888.57,5.31,20.43,0.000118,-0.000003,1.000329,84.99,1
6054,0,51342,56907,51333.85,56888.94,8.14,18.05,0.000115,-0.000009,1.000331,84.99,1
6064,0,51340,56917,51333.98,56889.51,6.02,27.49,0.000112,-0.000019,1.000337,84.99,1
6074,0,51341,56913,51334.12,56889.98,6.88,23.02,0.000109,-0.000028,1.000342,84.99,1
6083,0,51340,56918,51334.24,56890.54,5.76,27.46,0.000107,-0.000038,1.000348,84.99,1
6094,0,51341,56905,51334.38,56890.83,6.62,14.16,0.000104,-0.000043,1.00035,84.99,1
6104,0,51345,56911,51334.59,56891.24,10.41,19.76,0.0001,-0.00005,1.000352,84.99,1
6114,0,51338,56913,51334.66,56891.67,3.34,21.32,0.000099,-0.000057,1.000358,84.99,1
6123,0,51340,56917,51334.77,56892.18,5.23,24.82,0.000097,-0.000066,1.000363,84.99,1
6134,0,51341,56912,51334.89,56892.58,6.11,19.42,0.000094,-0.000073,1.000367,84.99,1
6144,0,51342,56918,51335.04,56893.08,6.96,24.91,0.000092,-0.000082,1.000372,84.99,1
6154,0,51345,56906,51335.24,56893.35,9.76,12.65,0.000088,-0.000087,1.000373,84.99,1
6163,0,51347,56920,51335.48,56893.88,11.52,26.12,0.000083,-0.000096,1.000376,84.99,1
6174,0,51349,56917,51335.75,56894.34,13.25,22.66,0.000078,-0.000104,1.000378,84.99,1
6183,0,51345,56911,51335.93,56894.67,9.07,16.32,0.000074,-0.00011,1.00038,84.99,1
6194,0,51347,56910,51336.16,56894.98,10.84,15.02,0.00007,-0.000116,1.000381,84.99,1
6203,0,51347,56906,51336.37,56895.21,10.63,10.79,0.000066,-0.00012,1.000381,84.99,1
6214,0,51341,56915,51336.47,56895.6,4.53,19.39,0.000064,-0.000127,1.000385,84.99,1
6223,0,51342,56908,51336.58,56895.85,5.42,12.14,0.000062,-0.000131,1.000387,84.99,1
6234,0,51342,56913,51336.69,56896.2,5.31,16.8,0.000059,-0.000137,1.00039,84.99,1
6244,0,51343,56911,51336.82,56896.5,6.18,14.5,0.000057,-0.000142,1.000392,84.99,1
6254,0,51344,56921,51336.96,56896.98,7.04,24.02,0.000054,-0.000151,1.000397,84.99,1
6263,0,51346,56913,51337.14,56897.31,8.86,15.69,0.000051,-0.000157,1.000399,84.99,1
6275,0,51338,56909,51337.16,56897.54,0.84,11.46,0.00005,-0.000161,1.000402,84.99,1
6284,0,51336,56909,51337.14,56897.77,-1.14,11.23,0.000051,-0.000165,1.000406,84.99,1
6294,0,51343,56911,51337.25,56898.04,5.75,12.96,0.000048,-0.000169,1.000408,84.99,1
6303,0,51342,56899,51337.35,56898.06,4.65,0.94,0.000047,-0.00017,1.000407,84.99,1
6313,0,51338,56900,51337.37,56898.1,0.63,1.9,0.000046,-0.00017,1.000407,84.99,1
6323,0,51339,56896,51337.4,56898.05,1.6,-2.05,0.000046,-0.00017,1.000406,84.99,1
6334,0,51333,56888,51337.32,56897.85,-4.32,-9.86,0.000047,-0.000166,1.000404,84.99,1
6343,0,51333,56878,51337.23,56897.46,-4.23,-19.46,0.000049,-0.000159,1.000397,84.99,1
6353,0,51333,56866,51337.15,56896.83,-4.15,-30.83,0.000051,-0.000148,1.000385,84.99,1
6363,0,51325,56871,51336.91,56896.31,-11.91,-25.31,0.000055,-0.000139,1.00038,84.99,1
6374,0,51324,56860,51336.65,56895.58,-12.65,-35.59,0.00006,-0.000126,1.000369,84.99,1
6383,0,51322,56862,51336.36,56894.91,-14.36,-32.91,0.000066,-0.000114,1.00036,84.99,1
6394,0,51323,56862,51336.09,56894.25,-13.09,-32.25,0.000071,-0.000103,1.000351,84.99,1
6404,0,51328,56859,51335.93,56893.55,-7.93,-34.55,0.000074,-0.00009,1.000339,84.99,1
6414,0,51326,56870,51335.73,56893.08,-9.73,-23.08,0.000078,-0.000082,1.000333,84.99,1
6423,0,51326,56872,51335.53,56892.66,-9.54,-20.66,0.000082,-0.000075,1.000329,84.99,1
6434,0,51330,56878,51335.42,56892.37,-5.43,-14.37,0.000084,-0.00007,1.000325,84.99,1
6444,0,51332,56873,51335.36,56891.98,-3.36,-18.98,0.000085,-0.000063,1.000318,84.99,1
6454,0,51335,56895,51335.35,56892.04,-0.35,2.96,0.000086,-0.000064,1.000319,84.99,1
6463,0,51339,56889,51335.42,56891.98,3.57,-2.98,0.000084,-0.000063,1.000317,84.99,1
6474,0,51341,56899,51335.54,56892.12,5.46,6.88,0.000082,-0.000065,1.000317,84.99,1
6483,0,51337,56897,51335.57,56892.22,1.43,4.78,0.000081,-0.000067,1.000318,84.99,1
6494,0,51339,56893,51335.64,56892.24,3.36,0.76,0.00008,-0.000067,1.000317,84.99,1
6503,0,51334,56900,51335.6,56892.39,-1.61,7.61,0.000081,-0.00007,1.000321,84.99,1
6514,0,51344,56903,51335.77,56892.6,8.23,10.39,0.000077,-0.000074,1.000321,84.99,1
6523,0,51329,56901,51335.64,56892.77,-6.64,8.23,0.00008,-0.000077,1.000326,84.99,1
6534,0,51340,56909,51335.73,56893.1,4.27,15.9,0.000078,-0.000082,1.00033,84.99,1
6543,0,51339,56900,51335.79,56893.24,3.21,6.76,0.000077,-0.000085,1.000331,84.99,1
6554,0,51341,56909,51335.9,56893.55,5.1,15.45,0.000075,-0.00009,1.000333,84.99,1
6563,0,51339,56912,51335.96,56893.92,3.04,18.08,0.000074,-0.000097,1.000338,84.99,1
6574,0,51343,56905,51336.1,56894.14,6.9,10.86,0.000071,-0.000101,1.000339,84.99,1
6583,0,51336,56905,51336.1,56894.36,-0.1,10.64,0.000071,-0.000105,1.000342,84.99,1
6594,0,51338,56910,51336.14,56894.67,1.86,15.32,0.00007,-0.00011,1.000346,84.99,1
6603,0,51342,56909,51336.25,56894.96,5.75,14.04,0.000068,-0.000115,1.000348,84.99,1
6614,0,51339,56901,51336.31,56895.08,2.69,5.91,0.000067,-0.000117,1.000349,84.99,1
6623,0,51340,56910,51336.39,56895.38,3.61,14.62,0.000065,-0.000123,1.000352,84.99,1
6634,0,51341,56909,51336.48,56895.66,4.52,13.34,0.000064,-0.000127,1.000355,84.99,1
6643,0,51345,56908,51336.65,56895.91,8.35,12.09,0.00006,-0.000132,1.000355,84.99,1
6653,0,51344,56913,51336.8,56896.25,7.2,16.75,0.000057,-0.000138,1.000358,84.99,1
6663,0,51342,56908,51336.9,56896.48,5.1,11.52,0.000055,-0.000142,1.000359,84.99,1
6674,0,51337,56903,51336.9,56896.61,0.1,6.39,0.000055,-0.000144,1.000362,84.99,1
6683,0,51337,56914,51336.9,56896.96,0.1,17.04,0.000055,-0.00015,1.000367,84.99,1
6693,0,51343,56907,51337.02,56897.17,5.98,9.83,0.000053,-0.000154,1.000367,84.99,1
6703,0,51341,56920,51337.1,56897.62,3.89,22.37,0.000051,-0.000162,1.000372,84.99,1
6714,0,51348,56911,51337.32,56897.89,10.68,13.11,0.000047,-0.000167,1.000372,84.99,1
6723,0,51339,56924,51337.36,56898.41,1.64,25.59,0.000046,-0.000176,1.000378,84.99,1
6733,0,51349,56912,51337.59,56898.68,11.41,13.32,0.000042,-0.000181,1.000378,84.99,1
6743,0,51345,56914,51337.74,56898.99,7.26,15.01,0.000039,-0.000186,1.00038,84.99,1
6754,0,51349,56921,51337.97,56899.43,11.03,21.57,0.000035,-0.000194,1.000382,84.99,1
6763,0,51343,56912,51338.07,56899.68,4.93,12.32,0.000033,-0.000198,1.000384,84.99,1
6773,0,51339,56917,51338.09,56900.03,0.91,16.97,0.000032,-0.000204,1.000388,84.99,1
6782,0,51336,56914,51338.05,56900.31,-2.05,13.69,0.000033,-0.000209,1.000393,84.99,1
6794,0,51341,56919,51338.1,56900.68,2.89,18.32,0.000032,-0.000216,1.000397,84.99,1
6803,0,51346,56922,51338.26,56901.11,7.73,20.89,0.000029,-0.000223,1.0004,84.99,1
6813,0,51342,56921,51338.34,56901.51,3.66,19.48,0.000027,-0.00023,1.000404,84.99,1
6822,0,51340,56926,51338.37,56902.01,1.63,23.99,0.000027,-0.000239,1.00041,84.99,1
6834,0,51338,56915,51338.37,56902.27,-0.37,12.73,0.000027,-0.000244,1.000414,84.99,1
6843,0,51340,56915,51338.41,56902.53,1.59,12.47,0.000026,-0.000248,1.000417,84.99,1
6853,0,51346,56921,51338.56,56902.9,7.44,18.1,0.000023,-0.000255,1.000419,84.99,1
6862,0,51343,56921,51338.65,56903.26,4.35,17.74,0.000021,-0.000261,1.000422,84.99,1
6874,0,51340,56917,51338.68,56903.53,1.32,13.46,0.000021,-0.000266,1.000426,84.99,1
6883,0,51344,56923,51338.78,56903.92,5.21,19.07,0.000019,-0.000273,1.000429,84.99,1
6893,0,51348,56915,51338.97,56904.15,9.03,10.85,0.000015,-0.000277,1.000429,84.99,1
6902,0,51347,56928,51339.14,56904.62,7.86,23.37,0.000012,-0.000285,1.000432,84.99,1
6914,0,51342,56922,51339.19,56904.98,2.8,17.02,0.000011,-0.000291,1.000435,84.99,1
6923,0,51341,56921,51339.23,56905.3,1.77,15.7,0.00001,-0.000297,1.000439,84.99,1
6933,0,51344,56920,51339.33,56905.59,4.67,14.41,0.000008,-0.000302,1.000441,84.99,1
6944,0,51349,56923,51339.52,56905.94,9.48,17.06,0.000004,-0.000308,1.000443,84.99,1
6953,0,51351,56928,51339.75,56906.38,11.25,21.62,0,-0.000316,1.000445,84.99,1
6964,0,51346,56928,51339.88,56906.82,6.12,21.18,-0.000003,-0.000324,1.000447,84.99,1
6973,0,51346,56926,51340.01,56907.2,5.99,18.8,-0.000005,-0.00033,1.00045,84.99,1
6984,0,51345,56931,51340.1,56907.67,4.89,23.32,-0.000007,-0.000339,1.000454,84.99,1
6993,0,51347,56921,51340.25,56907.94,6.75,13.05,-0.00001,-0.000343,1.000455,84.99,1
7004,0,51343,56932,51340.3,56908.43,2.7,23.57,-0.000011,-0.000352,1.00046,84.99,1
7013,0,51344,56917,51340.37,56908.6,3.63,8.4,-0.000012,-0.000355,1.000461,84.99,1
7024,0,51344,56926,51340.45,56908.95,3.55,17.05,-0.000014,-0.000361,1.000464,84.99,1
7033,0,51341,56916,51340.46,56909.09,0.54,6.91,-0.000014,-0.000364,1.000466,84.99,1
7044,0,51346,56922,51340.57,56909.35,5.43,12.65,-0.000016,-0.000368,1.000468,84.99,1
7053,0,51344,56913,51340.64,56909.42,3.36,3.57,-0.000018,-0.000369,1.000468,84.99,1
7063,0,51349,56925,51340.81,56909.74,8.19,15.26,-0.000021,-0.000375,1.000469,84.99,1
7073,0,51344,56918,51340.87,56909.9,3.13,8.1,-0.000022,-0.000378,1.00047,84.99,1
7084,0,51343,56927,51340.91,56910.25,2.09,16.75,-0.000023,-0.000384,1.000474,84.99,1
7093,0,51348,56927,51341.06,56910.58,6.94,16.42,-0.000026,-0.00039,1.000476,84.99,1
7103,0,51345,56923,51341.14,56910.83,3.86,12.17,-0.000027,-0.000394,1.000478,84.99,1
7112,0,51343,56923,51341.17,56911.08,1.82,11.92,-0.000028,-0.000398,1.000481,84.99,1
7123,0,51342,56917,51341.19,56911.2,0.81,5.8,-0.000028,-0.000401,1.000483,84.99,1
7133,0,51342,56910,51341.21,56911.17,0.79,-1.18,-0.000028,-0.0004,1.000482,84.99,1
7143,0,51341,56904,51341.2,56911.03,-0.2,-7.03,-0.000028,-0.000398,1.000479,84.99,1
7152,0,51339,56894,51341.16,56910.69,-2.16,-16.69,-0.000028,-0.000392,1.000472,84.99,1
7163,0,51330,56890,51340.94,56910.28,-10.94,-20.28,-0.000023,-0.000384,1.000468,84.99,1
7174,0,51335,56889,51340.82,56909.86,-5.82,-20.86,-0.000021,-0.000377,1.00046,84.99,1
7183,0,51325,56880,51340.51,56909.26,-15.51,-29.27,-0.000015,-0.000367,1.000452,84.99,1
7192,0,51332,56881,51340.34,56908.7,-8.34,-27.7,-0.000012,-0.000357,1.000441,84.99,1
7203,0,51330,56876,51340.14,56908.05,-10.14,-32.05,-0.000008,-0.000345,1.000427,84.99,1
7213,0,51326,56877,51339.85,56907.43,-13.86,-30.43,-0.000002,-0.000334,1.000417,84.99,1
7223,0,51323,56880,51339.52,56906.88,-16.52,-26.88,0.000004,-0.000325,1.000411,84.99,1
7233,0,51325,56878,51339.23,56906.3,-14.23,-28.3,0.00001,-0.000315,1.000403,84.99,1
7243,0,51331,56882,51339.07,56905.82,-8.07,-23.82,0.000013,-0.000306,1.000394,84.99,1
7252,0,51335,56880,51338.98,56905.3,-3.98,-25.3,0.000015,-0.000297,1.000383,84.99,1
7264,0,51337,56896,51338.94,56905.12,-1.95,-9.12,0.000015,-0.000294,1.000379,84.99,1
7273,0,51334,56884,51338.85,56904.69,-4.85,-20.7,0.000017,-0.000286,1.000371,84.99,1
7283,0,51334,56894,51338.75,56904.48,-4.75,-10.48,0.000019,-0.000282,1.000369,84.99,1
7292,0,51331,56893,51338.6,56904.25,-7.6,-11.25,0.000022,-0.000278,1.000367,84.99,1
7304,0,51334,56904,51338.51,56904.25,-4.51,-0.25,0.000024,-0.000278,1.000369,84.99,1
7313,0,51339,56902,51338.52,56904.2,0.48,-2.2,0.000024,-0.000278,1.000368,84.99,1
7323,0,51330,56900,51338.35,56904.12,-8.35,-4.12,0.000027,-0.000276,1.00037,84.99,1
7332,0,51331,56906,51338.21,56904.16,-7.21,1.84,0.00003,-0.000277,1.000374,84.99,1
7343,0,51339,56910,51338.23,56904.28,0.77,5.72,0.00003,-0.000279,1.000376,84.99,1
7353,0,51342,56912,51338.3,56904.43,3.7,7.57,0.000028,-0.000282,1.000376,84.99,1
7363,0,51337,56908,51338.28,56904.5,-1.28,3.5,0.000029,-0.000283,1.000378,84.99,1
7372,0,51339,56913,51338.29,56904.67,0.71,8.32,0.000028,-0.000286,1.00038,84.99,1
7383,0,51333,56902,51338.19,56904.62,-5.19,-2.62,0.00003,-0.000285,1.000382,84.99,1
7394,0,51340,56913,51338.23,56904.79,1.77,8.21,0.00003,-0.000288,1.000383,84.99,1
7403,0,51335,56907,51338.16,56904.84,-3.16,2.16,0.000031,-0.000289,1.000385,84.99,1
7413,0,51341,56915,51338.22,56905.04,2.78,9.96,0.00003,-0.000292,1.000387,84.99,1
7422,0,51335,56908,51338.16,56905.1,-3.16,2.9,0.000031,-0.000293,1.000389,84.99,1
7434,0,51333,56911,51338.06,56905.22,-5.06,5.78,0.000033,-0.000295,1.000393,84.99,1
7443,0,51338,56907,51338.06,56905.26,-0.06,1.74,0.000033,-0.000296,1.000394,84.99,1
7453,0,51339,56913,51338.08,56905.41,0.92,7.59,0.000032,-0.000299,1.000396,84.99,1
7462,0,51337,56910,51338.05,56905.51,-1.05,4.49,0.000033,-0.000301,1.000398,84.99,1
7474,0,51330,56916,51337.89,56905.72,-7.89,10.28,0.000036,-0.000304,1.000405,84.99,1
7483,0,51342,56909,51337.98,56905.78,4.02,3.21,0.000034,-0.000305,1.000404,84.99,1
7493,0,51344,56917,51338.1,56906.01,5.9,10.99,0.000032,-0.000309,1.000405,84.99,1
7502,0,51341,56921,51338.16,56906.31,2.84,14.69,0.000031,-0.000315,1.000407,84.99,1
7514,0,51347,56916,51338.33,56906.51,8.66,9.49,0.000027,-0.000318,1.000407,84.99,1
7523,0,51340,56917,51338.37,56906.72,1.63,10.28,0.000027,-0.000322,1.00041,84.99,1
7533,0,51339,56914,51338.39,56906.87,0.61,7.13,0.000026,-0.000324,1.000411,84.99,1
7542,0,51348,56921,51338.58,56907.15,9.42,13.85,0.000023,-0.000329,1.000412,84.99,1
7553,0,51342,56920,51338.65,56907.41,3.35,12.59,0.000021,-0.000334,1.000414,84.99,1
7562,0,51340,56928,51338.68,56907.82,1.32,20.18,0.000021,-0.000341,1.000416,84.99,1
7573,0,51335,56919,51338.6,56908.04,-3.61,10.96,0.000022,-0.000345,1.000421,84.99,1
7582,0,51338,56927,51338.6,56908.42,-0.6,18.58,0.000022,-0.000352,1.000424,84.99,1
7592,0,51345,56916,51338.73,56908.57,6.27,7.43,0.00002,-0.000354,1.000424,84.99,1
7602,0,51341,56930,51338.77,56909,2.23,21,0.000019,-0.000362,1.000427,84.99,1
7613,0,51344,56920,51338.88,56909.22,5.12,10.78,0.000017,-0.000366,1.000427,84.99,1
7623,0,51343,56922,51338.96,56909.48,4.04,12.52,0.000015,-0.00037,1.000429,84.99,1
7632,0,51346,56916,51339.1,56909.61,6.9,6.39,0.000012,-0.000373,1.000429,84.99,1
7644,0,51348,56927,51339.28,56909.96,8.72,17.04,0.000009,-0.000379,1.000429,84.99,1
7653,0,51344,56913,51339.37,56910.02,4.63,2.98,0.000007,-0.00038,1.000429,84.99,1
7663,0,51346,56925,51339.51,56910.32,6.49,14.68,0.000005,-0.000385,1.00043,84.99,1
7672,0,51345,56926,51339.62,56910.63,5.38,15.37,0.000002,-0.000391,1.000431,84.99,1
7684,0,51345,56915,51339.72,56910.72,5.28,4.28,0,-0.000392,1.000431,84.99,1
7693,0,51349,56920,51339.91,56910.91,9.09,9.09,-0.000003,-0.000395,1.00043,84.99,1
7703,0,51348,56927,51340.07,56911.23,7.93,15.77,-0.000006,-0.000401,1.000431,84.99,1
7712,0,51349,56926,51340.25,56911.52,8.75,14.48,-0.00001,-0.000406,1.000431,84.99,1
7723,0,51336,56926,51340.17,56911.81,-4.17,14.19,-0.000008,-0.000411,1.000436,84.99,1
7733,0,51337,56920,51340.1,56911.98,-3.11,8.02,-0.000007,-0.000414,1.00044,84.99,1
7743,0,51351,56931,51340.32,56912.36,10.68,18.64,-0.000011,-0.000421,1.00044,84.99,1
7752,0,51346,56928,51340.44,56912.67,5.56,15.33,-0.000014,-0.000426,1.000441,84.99,1
7762,0,51337,56923,51340.37,56912.88,-3.37,10.12,-0.000012,-0.00043,1.000445,84.99,1
7773,0,51337,56934,51340.3,56913.3,-3.3,20.7,-0.000011,-0.000438,1.000448,84.99,1
7783,0,51343,56924,51340.35,56913.51,2.64,10.48,-0.000012,-0.000441,1.00045,84.99,1
7792,0,51348,56931,51340.51,56913.87,7.49,17.13,-0.000015,-0.000447,1.00045,84.99,1
7802,0,51350,56931,51340.7,56914.21,9.3,16.79,-0.000019,-0.000453,1.00045,84.99,1
7813,0,51342,56935,51340.73,56914.63,1.27,20.37,-0.000019,-0.000461,1.000452,84.99,1
7823,0,51345,56941,51340.82,56915.16,4.18,25.84,-0.000021,-0.00047,1.000452,84.99,1
7832,0,51350,56939,51341,56915.64,9,23.36,-0.000025,-0.000479,1.000451,84.99,1
7842,0,51343,56928,51341.04,56915.88,1.96,12.12,-0.000025,-0.000483,1.000453,84.99,1
7852,0,51345,56928,51341.12,56916.12,3.88,11.88,-0.000027,-0.000487,1.000454,84.99,1
7863,0,51340,56926,51341.1,56916.32,-1.1,9.68,-0.000026,-0.000491,1.000457,84.99,1
7872,0,51336,56924,51341,56916.48,-5,7.52,-0.000024,-0.000493,1.000461,84.99,1
7882,0,51339,56922,51340.96,56916.59,-1.96,5.41,-0.000024,-0.000495,1.000464,84.99,1
7894,0,51348,56931,51341.1,56916.88,6.9,14.12,-0.000026,-0.0005,1.000464,84.99,1
7903,0,51346,56926,51341.2,56917.07,4.8,8.93,-0.000028,-0.000504,1.000464,84.99,1
7913,0,51339,56928,51341.16,56917.28,-2.16,10.71,-0.000028,-0.000507,1.000468,84.99,1
7922,0,51336,56917,51341.06,56917.28,-5.06,-0.28,-0.000026,-0.000507,1.00047,84.99,1
7933,0,51335,56926,51340.94,56917.46,-5.94,8.54,-0.000023,-0.000511,1.000475,84.99,1
7943,0,51339,56918,51340.9,56917.47,-1.9,0.53,-0.000023,-0.000511,1.000476,84.99,1
7953,0,51339,56921,51340.87,56917.54,-1.87,3.46,-0.000022,-0.000512,1.000478,84.99,1
7962,0,51342,56919,51340.89,56917.57,1.11,1.43,-0.000022,-0.000512,1.000478,84.99,1
7972,0,51336,56905,51340.79,56917.32,-4.79,-12.32,-0.000021,-0.000508,1.000473,84.99,1
7983,0,51335,56891,51340.67,56916.79,-5.68,-25.79,-0.000018,-0.000499,1.000457,84.99,1
7993,0,51332,56891,51340.5,56916.28,-8.5,-25.28,-0.000015,-0.00049,1.000443,84.99,1
8002,0,51333,56894,51340.35,56915.83,-7.36,-21.83,-0.000012,-0.000482,1.000432,84.99,1
8012,0,51334,56892,51340.23,56915.35,-6.23,-23.36,-0.00001,-0.000474,1.000419,84.99,1
8023,0,51325,56889,51339.92,56914.83,-14.93,-25.83,-0.000004,-0.000464,1.000409,84.99,1
8033,0,51333,56881,51339.79,56914.16,-6.79,-33.16,-0.000001,-0.000453,1.000384,84.99,1
8042,0,51328,56877,51339.55,56913.41,-11.55,-36.41,0.000004,-0.00044,1.000358,84.99,1
8053,0,51336,56881,51339.48,56912.77,-3.48,-31.77,0.000005,-0.000428,1.000332,84.99,1
8062,0,51330,56889,51339.3,56912.3,-9.3,-23.3,0.000009,-0.00042,1.000321,84.99,1
8073,0,51332,56893,51339.15,56911.91,-7.15,-18.91,0.000012,-0.000413,1.000312,84.99,1
8082,0,51333,56897,51339.03,56911.61,-6.03,-14.61,0.000014,-0.000408,1.000306,84.99,1
8093,0,51341,56901,51339.07,56911.4,1.93,-10.4,0.000013,-0.000404,1.0003,84.99,1
8102,0,51339,56899,51339.07,56911.16,-0.07,-12.16,0.000013,-0.0004,1.000293,84.99,1
8113,0,51333,56914,51338.95,56911.21,-5.95,2.79,0.000015,-0.000401,1.000297,84.99,1
8122,0,51338,56904,51338.93,56911.07,-0.93,-7.07,0.000016,-0.000398,1.000294,84.99,1
8133,0,51342,56904,51339,56910.93,3,-6.93,0.000015,-0.000396,1.00029,84.99,1
8142,0,51338,56909,51338.98,56910.89,-0.98,-1.89,0.000015,-0.000395,1.00029,84.99,1
8153,0,51344,56912,51339.08,56910.91,4.92,1.09,0.000013,-0.000396,1.000288,84.99,1
8162,0,51338,56919,51339.06,56911.07,-1.06,7.93,0.000013,-0.000398,1.000291,84.99,1
8172,0,51334,56912,51338.96,56911.09,-4.96,0.91,0.000015,-0.000399,1.000294,84.99,1
8183,0,51341,56911,51339,56911.09,2,-0.09,0.000014,-0.000399,1.000293,84.99,1
8193,0,51346,56914,51339.15,56911.15,6.85,2.85,0.000012,-0.0004,1.000292,84.99,1
8203,0,51344,56930,51339.25,56911.53,4.75,18.47,0.00001,-0.000406,1.000291,84.99,1
8212,0,51339,56920,51339.24,56911.69,-0.24,8.3,0.00001,-0.000409,1.000293,84.99,1
8223,0,51343,56920,51339.32,56911.86,3.68,8.14,0.000008,-0.000412,1.000293,84.99,1
8232,0,51346,56925,51339.45,56912.12,6.55,12.88,0.000006,-0.000417,1.000293,84.99,1
8243,0,51344,56926,51339.54,56912.4,4.46,13.6,0.000004,-0.000422,1.000293,84.99,1
8252,0,51348,56926,51339.71,56912.67,8.29,13.32,0.000001,-0.000427,1.000293,84.99,1
8262,0,51341,56919,51339.74,56912.8,1.26,6.2,0,-0.000429,1.000293,84.99,1
8271,0,51338,56926,51339.71,56913.07,-1.71,12.93,0.000001,-0.000433,1.000296,84.99,1
8283,0,51340,56911,51339.72,56913.02,0.28,-2.02,0,-0.000433,1.000295,84.99,1
8292,0,51345,56921,51339.82,56913.19,5.18,7.81,-0.000002,-0.000435,1.000295,84.99,1
8302,0,51343,56922,51339.89,56913.37,3.11,8.63,-0.000003,-0.000439,1.000295,84.99,1
8313,0,51339,56918,51339.87,56913.46,-0.87,4.54,-0.000003,-0.00044,1.000297,84.99,1
8323,0,51345,56905,51339.97,56913.29,5.03,-8.29,-0.000005,-0.000437,1.000291,84.99,1
8333,0,51344,56921,51340.05,56913.44,3.95,7.55,-0.000006,-0.00044,1.000292,84.99,1
8342,0,51341,56915,51340.07,56913.48,0.93,1.52,-0.000006,-0.000441,1.000292,84.99,1
8352,0,51344,56927,51340.15,56913.75,3.85,13.25,-0.000008,-0.000445,1.000292,84.99,1
8361,0,51341,56921,51340.17,56913.89,0.83,7.11,-0.000008,-0.000448,1.000293,84.99,1
8373,0,51339,56929,51340.15,56914.19,-1.15,14.81,-0.000008,-0.000453,1.000294,84.99,1
8382,0,51341,56926,51340.17,56914.43,0.83,11.57,-0.000008,-0.000457,1.000295,84.99,1
8392,0,51342,56922,51340.21,56914.58,1.79,7.42,-0.000009,-0.00046,1.000295,84.99,1
8401,0,51344,56926,51340.28,56914.81,3.71,11.19,-0.000011,-0.000464,1.000296,84.99,1
8413,0,51341,56929,51340.3,56915.09,0.7,13.91,-0.000011,-0.000469,1.000296,84.99,1
8422,0,51339,56930,51340.28,56915.39,-1.28,14.61,-0.00001,-0.000474,1.000297,84.99,1
8432,0,51340,56925,51340.27,56915.58,-0.27,9.41,-0.00001,-0.000478,1.000298,84.99,1
8441,0,51344,56925,51340.35,56915.77,3.65,9.23,-0.000012,-0.000481,1.000299,84.99,1
8453,0,51344,56925,51340.42,56915.96,3.58,9.04,-0.000013,-0.000484,1.000299,84.99,1
8463,0,51338,56928,51340.37,56916.2,-2.38,11.8,-0.000012,-0.000489,1.000301,84.99,1
8472,0,51343,56925,51340.43,56916.38,2.57,8.62,-0.000013,-0.000492,1.000301,84.99,1
8482,0,51346,56934,51340.54,56916.73,5.46,17.27,-0.000015,-0.000498,1.000299,84.99,1
8493,0,51345,56927,51340.63,56916.94,4.37,10.06,-0.000017,-0.000501,1.000299,84.99,1
8503,0,51345,56936,51340.71,56917.32,4.29,18.68,-0.000019,-0.000508,1.000296,84.99,1
8512,0,51345,56931,51340.8,56917.6,4.2,13.4,-0.000021,-0.000513,1.000295,84.99,1
8522,0,51341,56927,51340.8,56917.78,0.2,9.21,-0.000021,-0.000516,1.000297,84.99,1
8531,0,51340,56923,51340.79,56917.89,-0.79,5.11,-0.00002,-0.000518,1.000298,84.99,1
8543,0,51338,56928,51340.73,56918.09,-2.73,9.91,-0.000019,-0.000522,1.0003,84.99,1
8552,0,51345,56941,51340.82,56918.55,4.18,22.45,-0.000021,-0.00053,1.000294,84.99,1
8562,0,51338,56936,51340.76,56918.9,-2.77,17.1,-0.00002,-0.000536,1.000294,84.99,1
8571,0,51336,56932,51340.67,56919.16,-4.67,12.84,-0.000018,-0.00054,1.000297,84.99,1
8583,0,51347,56930,51340.8,56919.38,6.2,10.62,-0.000021,-0.000544,1.000296,84.99,1
8592,0,51342,56933,51340.82,56919.66,1.18,13.34,-0.000021,-0.000549,1.000296,84.99,1
8602,0,51342,56934,51340.85,56919.94,1.15,14.05,-0.000022,-0.000554,1.000295,84.99,1
8611,0,51340,56935,51340.83,56920.25,-0.83,14.75,-0.000021,-0.00056,1.000295,84.99,1
8623,0,51336,56928,51340.73,56920.4,-4.73,7.6,-0.000019,-0.000562,1.000299,84.99,1
8632,0,51339,56926,51340.7,56920.51,-1.7,5.48,-0.000019,-0.000564,1.000301,84.99,1
8642,0,51346,56933,51340.81,56920.76,5.19,12.23,-0.000021,-0.000569,1.0003,84.99,1
8652,0,51348,56946,51340.96,56921.27,7.04,24.73,-0.000024,-0.000578,1.00029,84.99,1
8662,0,51344,56927,51341.02,56921.39,2.98,5.61,-0.000025,-0.00058,1.00029,84.99,1
8673,0,51340,56935,51341,56921.66,-1,13.34,-0.000025,-0.000584,1.00029,84.99,1
8682,0,51341,56929,51341,56921.8,0,7.2,-0.000025,-0.000587,1.000291,84.99,1
8692,0,51348,56937,51341.14,56922.11,6.86,14.89,-0.000027,-0.000592,1.000289,84.99,1
8701,0,51346,56934,51341.24,56922.35,4.76,11.65,-0.000029,-0.000596,1.000288,84.99,1
8713,0,51339,56935,51341.2,56922.6,-2.2,12.4,-0.000028,-0.000601,1.000289,84.99,1
8722,0,51335,56933,51341.07,56922.81,-6.07,10.19,-0.000026,-0.000605,1.000293,84.99,1
8732,0,51337,56934,51340.99,56923.03,-3.99,10.96,-0.000024,-0.000608,1.000295,84.99,1
8741,0,51341,56936,51340.99,56923.29,0.01,12.71,-0.000024,-0.000613,1.000295,84.99,1
8753,0,51341,56931,51340.99,56923.45,0.01,7.55,-0.000024,-0.000616,1.000296,84.99,1
8762,0,51339,56926,51340.95,56923.5,-1.95,2.5,-0.000024,-0.000617,1.000298,84.99,1
8772,0,51334,56927,51340.82,56923.57,-6.82,3.43,-0.000021,-0.000618,1.000303,84.99,1
8782,0,51339,56923,51340.78,56923.56,-1.78,-0.56,-0.00002,-0.000618,1.000303,84.99,1
8792,0,51342,56915,51340.8,56923.39,1.2,-8.39,-0.000021,-0.000615,1.000298,84.99,1
8803,0,51341,56934,51340.81,56923.6,0.19,10.39,-0.000021,-0.000619,1.000298,84.99,1
8812,0,51332,56914,51340.63,56923.41,-8.63,-9.41,-0.000017,-0.000615,1.000298,84.99,1
8822,0,51332,56914,51340.46,56923.23,-8.46,-9.23,-0.000014,-0.000612,1.000298,84.99,1
8832,0,51333,56901,51340.31,56922.78,-7.31,-21.78,-0.000011,-0.000604,1.000279,84.99,1
8843,0,51330,56895,51340.11,56922.23,-10.11,-27.23,-0.000007,-0.000594,1.000252,84.99,1
8852,0,51327,56884,51339.85,56921.46,-12.85,-37.46,-0.000002,-0.000581,1.000202,84.99,1
8862,0,51324,56881,51339.53,56920.65,-15.53,-39.65,0.000004,-0.000567,1.000149,85,1
8871,0,51324,56879,51339.22,56919.82,-15.22,-40.82,0.00001,-0.000552,1.000091,85,1
8883,0,51328,56883,51339,56919.08,-11,-36.09,0.000015,-0.000539,1.000041,85,1
8892,0,51319,56875,51338.6,56918.21,-19.6,-43.21,0.000022,-0.000524,0.999982,85,1
8902,0,51328,56892,51338.39,56917.68,-10.39,-25.68,0.000026,-0.000514,0.999958,85,1
8912,0,51327,56886,51338.16,56917.05,-11.16,-31.05,0.000031,-0.000503,0.999921,85,1
8922,0,51313,56886,51337.66,56916.43,-24.66,-30.43,0.000041,-0.000492,0.999913,85,1
8932,0,51322,56883,51337.35,56915.76,-15.35,-32.76,0.000047,-0.000481,0.999878,85,1
8941,0,51326,56886,51337.12,56915.17,-11.12,-29.17,0.000051,-0.00047,0.999845,85,1
8952,0,51323,56892,51336.84,56914.71,-13.84,-22.71,0.000057,-0.000462,0.999832,85,1
8962,0,51321,56883,51336.52,56914.07,-15.52,-31.07,0.000063,-0.000451,0.9998,85,1
8973,0,51320,56885,51336.19,56913.49,-16.19,-28.49,0.000069,-0.000441,0.999777,85.01,1
8982,0,51324,56882,51335.95,56912.86,-11.95,-30.86,0.000074,-0.00043,0.99974,85.01,1
8992,0,51325,56889,51335.73,56912.39,-10.73,-23.39,0.000078,-0.000421,0.99972,85.01,1
9001,0,51326,56897,51335.53,56912.08,-9.54,-15.08,0.000082,-0.000416,0.999713,85.01,1
9013,0,51319,56906,51335.2,56911.96,-16.2,-5.96,0.000088,-0.000414,0.99973,85.01,1
9022,0,51329,56903,51335.08,56911.78,-6.08,-8.78,0.000091,-0.000411,0.999728,85.01,1
9032,0,51330,56911,51334.98,56911.76,-4.98,-0.77,0.000093,-0.000411,0.99973,85.01,1
9041,0,51336,56907,51335,56911.67,1,-4.67,0.000092,-0.000409,0.999728,85.01,1
9053,0,51332,56917,51334.94,56911.78,-2.94,5.22,0.000094,-0.000411,0.99973,85.01,1
9062,0,51330,56913,51334.84,56911.81,-4.84,1.19,0.000095,-0.000411,0.999733,85.01,1
9072,0,51334,56913,51334.83,56911.83,-0.83,1.16,0.000096,-0.000412,0.999734,85.01,1
9081,0,51337,56905,51334.87,56911.7,2.13,-6.7,0.000095,-0.000409,0.999729,85.01,1
9093,0,51334,56914,51334.85,56911.75,-0.86,2.25,0.000095,-0.00041,0.99973,85.01,1
9102,0,51332,56906,51334.8,56911.64,-2.8,-5.64,0.000096,-0.000408,0.999728,85.01,1
9112,0,51331,56915,51334.73,56911.71,-3.73,3.29,0.000098,-0.00041,0.999731,85.01,1
9121,0,51327,56907,51334.57,56911.61,-7.57,-4.61,0.000101,-0.000408,0.999735,85.01,1
9133,0,51331,56908,51334.5,56911.54,-3.5,-3.54,0.000102,-0.000407,0.999735,85.01,1
9142,0,51334,56910,51334.49,56911.51,-0.49,-1.51,0.000102,-0.000406,0.999735,85.01,1
9152,0,51332,56913,51334.44,56911.54,-2.45,1.46,0.000103,-0.000407,0.999736,85.01,1
9161,0,51329,56909,51334.33,56911.49,-5.34,-2.49,0.000105,-0.000406,0.999739,85.01,1
9172,0,51329,56912,51334.23,56911.5,-5.23,0.5,0.000107,-0.000406,0.999743,85.01,1
9182,0,51328,56903,51334.1,56911.33,-6.1,-8.33,0.00011,-0.000403,0.999741,85.01,1
9192,0,51333,56915,51334.08,56911.4,-1.08,3.6,0.00011,-0.000404,0.999742,85.01,1
9201,0,51334,56914,51334.08,56911.46,-0.08,2.54,0.00011,-0.000405,0.999743,85.01,1
9212,0,51329,56913,51333.98,56911.49,-4.98,1.51,0.000112,-0.000406,0.999747,85.01,1
9222,0,51331,56912,51333.92,56911.5,-2.92,0.5,0.000113,-0.000406,0.999749,85.01,1
9232,0,51333,56910,51333.91,56911.47,-0.91,-1.47,0.000114,-0.000405,0.999748,85.01,1
9241,0,51331,56918,51333.85,56911.6,-2.85,6.4,0.000115,-0.000408,0.99975,85.01,1
9251,0,51332,56921,51333.82,56911.79,-1.82,9.21,0.000115,-0.000411,0.99975,85.01,1
9262,0,51330,56923,51333.74,56912.01,-3.74,10.98,0.000117,-0.000415,0.99975,85.01,1
9272,0,51331,56913,51333.69,56912.04,-2.69,0.96,0.000118,-0.000415,0.999752,85.01,1
9282,0,51327,56913,51333.55,56912.06,-6.55,0.94,0.000121,-0.000416,0.999758,85.01,1
9291,0,51330,56907,51333.48,56911.96,-3.48,-4.96,0.000122,-0.000414,0.999757,85.01,1
9303,0,51327,56921,51333.35,56912.15,-6.36,8.85,0.000124,-0.000417,0.999761,85.01,1
9312,0,51338,56909,51333.45,56912.08,4.55,-3.09,0.000123,-0.000416,0.999759,85.01,1
9322,0,51329,56910,51333.36,56912.04,-4.36,-2.04,0.000124,-0.000415,0.999761,85.01,1
9331,0,51332,56903,51333.33,56911.86,-1.33,-8.86,0.000125,-0.000412,0.999754,85.01,1
9342,0,51337,56914,51333.41,56911.91,3.59,2.09,0.000123,-0.000413,0.999754,85.01,1
9352,0,51326,56905,51333.26,56911.77,-7.26,-6.77,0.000126,-0.000411,0.999756,85.01,1
9362,0,51332,56917,51333.23,56911.88,-1.23,5.12,0.000127,-0.000412,0.999757,85.01,1
9371,0,51333,56905,51333.23,56911.74,-0.23,-6.74,0.000127,-0.00041,0.999751,85.01,1
9382,0,51330,56913,51333.17,56911.77,-3.17,1.23,0.000128,-0.000411,0.999754,85.01,1
9392,0,51333,56916,51333.16,56911.85,-0.16,4.14,0.000128,-0.000412,0.999754,85.01,1
9402,0,51333,56924,51333.16,56912.1,-0.16,11.9,0.000128,-0.000416,0.99975,85.01,1
9411,0,51333,56917,51333.16,56912.2,-0.16,4.8,0.000128,-0.000418,0.999751,85.01,1
9422,0,51335,56916,51333.19,56912.28,1.81,3.72,0.000128,-0.00042,0.999751,85.01,1
9432,0,51333,56915,51333.19,56912.33,-0.19,2.67,0.000128,-0.00042,0.999751,85.01,1
9442,0,51340,56924,51333.32,56912.57,6.68,11.43,0.000125,-0.000425,0.999748,85.01,1
9451,0,51336,56921,51333.38,56912.73,2.62,8.27,0.000124,-0.000428,0.999746,85.01,1
9462,0,51330,56919,51333.31,56912.86,-3.31,6.14,0.000125,-0.00043,0.999748,85.01,1
9472,0,51336,56917,51333.37,56912.94,2.63,4.06,0.000124,-0.000431,0.999748,85.01,1
9482,0,51342,56926,51333.54,56913.2,8.46,12.8,0.000121,-0.000436,0.999744,85.01,1
9491,0,51339,56918,51333.65,56913.3,5.35,4.7,0.000119,-0.000438,0.999744,85.01,1
9502,0,51335,56927,51333.68,56913.57,1.32,13.43,0.000118,-0.000442,0.999737,85.01,1
9511,0,51337,56921,51333.75,56913.73,3.25,7.27,0.000117,-0.000445,0.999735,85.01,1
9522,0,51331,56929,51333.69,56914.03,-2.69,14.97,0.000118,-0.00045,0.999727,85.01,1
9531,0,51335,56917,51333.72,56914.09,1.28,2.91,0.000117,-0.000451,0.999727,85.01,1
9542,0,51337,56920,51333.78,56914.21,3.21,5.79,0.000116,-0.000453,0.999726,85.01,1
9551,0,51334,56927,51333.79,56914.46,0.21,12.54,0.000116,-0.000458,0.99972,85.01,1
9562,0,51326,56922,51333.63,56914.62,-7.63,7.38,0.000119,-0.000461,0.999727,85.01,1
9571,0,51336,56921,51333.68,56914.74,2.32,6.26,0.000118,-0.000463,0.999726,85.01,1
9582,0,51334,56918,51333.69,56914.81,0.31,3.19,0.000118,-0.000464,0.999726,85.01,1
9591,0,51335,56933,51333.71,56915.17,1.29,17.83,0.000117,-0.00047,0.999708,85.01,1
9602,0,51330,56927,51333.64,56915.41,-3.64,11.59,0.000119,-0.000475,0.999705,85.01,1
9611,0,51335,56933,51333.67,56915.76,1.33,17.24,0.000118,-0.000481,0.999689,85.01,1
9622,0,51338,56923,51333.76,56915.91,4.24,7.09,0.000116,-0.000483,0.999687,85.01,1
9631,0,51327,56923,51333.62,56916.05,-6.63,6.95,0.000119,-0.000486,0.999693,85.01,1
9641,0,51332,56917,51333.59,56916.07,-1.59,0.93,0.00012,-0.000486,0.999694,85.01,1
9651,0,51328,56921,51333.48,56916.17,-5.48,4.83,0.000122,-0.000488,0.999699,85.01,1
9662,0,51324,56907,51333.29,56915.99,-9.29,-8.99,0.000126,-0.000485,0.999702,85.01,1
9671,0,51330,56903,51333.23,56915.73,-3.23,-12.73,0.000127,-0.00048,0.999686,85.01,1
9681,0,51328,56892,51333.12,56915.25,-5.13,-23.25,0.000129,-0.000472,0.999639,85.01,1
9691,0,51328,56891,51333.02,56914.77,-5.02,-23.77,0.000131,-0.000463,0.999589,85.01,1
9702,0,51315,56875,51332.66,56913.98,-17.66,-38.98,0.000138,-0.000449,0.999489,85.01,1
9711,0,51314,56872,51332.29,56913.14,-18.29,-41.14,0.000145,-0.000435,0.999376,85.02,1
9721,0,51318,56864,51332.01,56912.16,-14.01,-48.16,0.000151,-0.000418,0.99919,85.02,1
9732,0,51316,56871,51331.69,56911.33,-15.69,-40.34,0.000157,-0.000403,0.99907,85.02,1
9742,0,51321,56875,51331.48,56910.61,-10.48,-35.61,0.000161,-0.00039,0.998965,85.03,1
9751,0,51319,56876,51331.23,56909.92,-12.23,-33.92,0.000166,-0.000378,0.998875,85.03,1
9762,0,51319,56891,51330.98,56909.54,-11.98,-18.54,0.000171,-0.000371,0.998858,85.03,1
9772,0,51316,56885,51330.68,56909.05,-14.68,-24.05,0.000176,-0.000363,0.998828,85.03,1
9782,0,51323,56899,51330.53,56908.85,-7.53,-9.85,0.000179,-0.000359,0.998825,85.03,1
9791,0,51326,56897,51330.44,56908.61,-4.44,-11.61,0.000181,-0.000355,0.998813,85.03,1
9802,0,51326,56902,51330.35,56908.48,-4.35,-6.48,0.000183,-0.000353,0.99881,85.03,1
9811,0,51325,56905,51330.25,56908.41,-5.25,-3.41,0.000185,-0.000352,0.998813,85.03,1
9822,0,51322,56906,51330.08,56908.37,-8.08,-2.37,0.000188,-0.000351,0.998823,85.03,1
9831,0,51325,56895,51329.98,56908.1,-4.98,-13.1,0.00019,-0.000346,0.998807,85.03,1
9842,0,51330,56909,51329.98,56908.12,0.02,0.88,0.00019,-0.000346,0.998807,85.03,1
9851,0,51327,56900,51329.92,56907.96,-2.93,-7.96,0.000191,-0.000344,0.9988,85.03,1
9862,0,51330,56905,51329.93,56907.9,0.07,-2.9,0.000191,-0.000343,0.998798,85.03,1
9871,0,51327,56900,51329.87,56907.75,-2.87,-7.75,0.000192,-0.00034,0.998792,85.03,1
9882,0,51328,56904,51329.83,56907.67,-1.83,-3.67,0.000193,-0.000339,0.998791,85.03,1
9891,0,51328,56903,51329.8,56907.58,-1.8,-4.58,0.000194,-0.000337,0.998788,85.03,1
9902,0,51324,56901,51329.68,56907.44,-5.68,-6.45,0.000196,-0.000335,0.998788,85.03,1
9911,0,51325,56904,51329.59,56907.37,-4.59,-3.38,0.000198,-0.000333,0.99879,85.03,1
9922,0,51330,56906,51329.6,56907.35,0.4,-1.35,0.000198,-0.000333,0.998789,85.03,1
9931,0,51332,56903,51329.65,56907.26,2.35,-4.27,0.000197,-0.000331,0.998785,85.03,1
9942,0,51331,56904,51329.68,56907.2,1.32,-3.2,0.000196,-0.00033,0.998783,85.03,1
9951,0,51329,56913,51329.66,56907.32,-0.66,5.68,0.000196,-0.000332,0.998782,85.03,1
9962,0,51321,56900,51329.49,56907.17,-8.49,-7.17,0.0002,-0.00033,0.998787,85.03,1
9971,0,51327,56899,51329.44,56907.01,-2.44,-8.01,0.000201,-0.000327,0.998779,85.03,1
9981,0,51323,56893,51329.32,56906.73,-6.32,-13.73,0.000203,-0.000322,0.998761,85.03,1
9991,0,51321,56900,51329.15,56906.6,-8.15,-6.6,0.000206,-0.00032,0.998766,85.03,1
10002,0,51320,56899,51328.96,56906.44,-8.96,-7.45,0.00021,-0.000317,0.998772,85.03,1
10011,0,51323,56904,51328.85,56906.39,-5.85,-2.39,0.000212,-0.000316,0.998777,85.03,1
10021,0,51325,56898,51328.77,56906.23,-3.77,-8.23,0.000214,-0.000313,0.99877,85.03,1
10031,0,51322,56912,51328.64,56906.34,-6.64,5.66,0.000216,-0.000315,0.998777,85.03,1
10042,0,51329,56901,51328.65,56906.24,0.35,-5.24,0.000216,-0.000313,0.998772,85.03,1
10051,0,51328,56902,51328.64,56906.15,-0.64,-4.15,0.000216,-0.000312,0.998769,85.03,1
10061,0,51320,56907,51328.46,56906.17,-8.46,0.83,0.00022,-0.000312,0.998783,85.03,1
10071,0,51327,56897,51328.44,56905.99,-1.44,-8.99,0.00022,-0.000309,0.998771,85.03,1
10082,0,51324,56900,51328.35,56905.87,-4.35,-5.88,0.000222,-0.000307,0.998769,85.03,1
10091,0,51324,56895,51328.26,56905.66,-4.27,-10.66,0.000224,-0.000303,0.998756,85.03,1
10101,0,51325,56908,51328.2,56905.7,-3.2,2.3,0.000225,-0.000304,0.998759,85.03,1
10110,0,51318,56906,51328,56905.71,-10,0.29,0.000229,-0.000304,0.998778,85.03,1
10122,0,51321,56904,51327.86,56905.67,-6.86,-1.68,0.000231,-0.000304,0.998787,85.03,1
10131,0,51334,56904,51327.98,56905.64,6.02,-1.64,0.000229,-0.000303,0.998789,85.03,1
10141,0,51330,56909,51328.03,56905.71,1.97,3.29,0.000228,-0.000304,0.998789,85.03,1
10151,0,51326,56909,51327.99,56905.77,-1.99,3.23,0.000229,-0.000305,0.99879,85.03,1
10162,0,51320,56913,51327.83,56905.92,-7.83,7.08,0.000232,-0.000308,0.998799,85.03,1
10171,0,51324,56907,51327.75,56905.94,-3.75,1.05,0.000234,-0.000308,0.998803,85.03,1
10182,0,51331,56916,51327.82,56906.15,3.18,9.85,0.000232,-0.000312,0.998794,85.03,1
10191,0,51327,56912,51327.8,56906.26,-0.8,5.73,0.000233,-0.000314,0.998792,85.03,1
10202,0,51331,56921,51327.87,56906.56,3.13,14.44,0.000231,-0.000319,0.99877,85.03,1
10211,0,51327,56909,51327.85,56906.61,-0.86,2.39,0.000232,-0.00032,0.99877,85.03,1
10222,0,51327,56915,51327.84,56906.78,-0.84,8.22,0.000232,-0.000323,0.998764,85.03,1
10231,0,51328,56913,51327.84,56906.91,0.16,6.09,0.000232,-0.000325,0.998761,85.03,1
10242,0,51332,56922,51327.93,56907.21,4.07,14.79,0.00023,-0.000331,0.998737,85.03,1
10251,0,51327,56925,51327.91,56907.57,-0.91,17.43,0.000231,-0.000337,0.998701,85.03,1
10262,0,51332,56928,51327.99,56907.98,4.01,20.02,0.000229,-0.000344,0.998651,85.03,1
10271,0,51332,56914,51328.07,56908.1,3.93,5.9,0.000227,-0.000346,0.99865,85.03,1
10280,0,51332,56918,51328.16,56908.3,3.84,9.7,0.000226,-0.00035,0.99864,85.03,1
10291,0,51330,56921,51328.19,56908.55,1.8,12.45,0.000225,-0.000354,0.998622,85.03,1
10302,0,51330,56925,51328.23,56908.88,1.77,16.12,0.000224,-0.00036,0.998589,85.04,1
10311,0,51326,56925,51328.19,56909.21,-2.19,15.79,0.000225,-0.000366,0.998558,85.04,1
10320,0,51331,56925,51328.25,56909.52,2.75,15.48,0.000224,-0.000371,0.998528,85.04,1
10332,0,51331,56918,51328.31,56909.69,2.69,8.3,0.000223,-0.000374,0.99852,85.04,1
10341,0,51330,56934,51328.34,56910.18,1.66,23.82,0.000222,-0.000383,0.998441,85.04,1
10351,0,51330,56924,51328.38,56910.46,1.62,13.54,0.000221,-0.000388,0.998416,85.04,1
10360,0,51329,56918,51328.39,56910.61,0.61,7.39,0.000221,-0.00039,0.99841,85.04,1
10372,0,51332,56919,51328.46,56910.78,3.54,8.22,0.00022,-0.000393,0.998403,85.04,1
10381,0,51325,56917,51328.4,56910.91,-3.4,6.09,0.000221,-0.000395,0.998403,85.04,1
10391,0,51326,56920,51328.35,56911.08,-2.35,8.91,0.000222,-0.000399,0.998395,85.04,1
10400,0,51328,56915,51328.34,56911.17,-0.34,3.83,0.000222,-0.0004,0.998395,85.04,1
10412,0,51327,56920,51328.32,56911.34,-1.32,8.66,0.000223,-0.000403,0.998386,85.04,1
10421,0,51331,56917,51328.37,56911.46,2.63,5.54,0.000222,-0.000405,0.998383,85.04,1
10431,0,51334,56917,51328.48,56911.57,5.52,5.43,0.000219,-0.000407,0.998384,85.04,1
10440,0,51329,56919,51328.49,56911.72,0.51,7.28,0.000219,-0.00041,0.998378,85.04,1
10451,0,51329,56921,51328.5,56911.91,0.5,9.09,0.000219,-0.000413,0.998367,85.04,1
10461,0,51329,56914,51328.51,56911.95,0.49,2.05,0.000219,-0.000414,0.998367,85.04,1
10471,0,51328,56921,51328.5,56912.13,-0.5,8.87,0.000219,-0.000417,0.998356,85.04,1
10481,0,51328,56910,51328.48,56912.09,-0.48,-2.09,0.000219,-0.000416,0.998355,85.04,1
10491,0,51329,56913,51328.49,56912.11,0.51,0.89,0.000219,-0.000417,0.998355,85.04,1
10501,0,51321,56902,51328.34,56911.91,-7.34,-9.91,0.000222,-0.000413,0.998348,85.04,1
10512,0,51317,56895,51328.12,56911.57,-11.12,-16.57,0.000226,-0.000407,0.998324,85.04,1
10521,0,51319,56875,51327.93,56910.83,-8.93,-35.84,0.00023,-0.000394,0.998094,85.05,1
10531,0,51313,56874,51327.64,56910.1,-14.64,-36.1,0.000236,-0.000381,0.997892,85.05,1
10541,0,51313,56872,51327.35,56909.34,-14.35,-37.34,0.000241,-0.000368,0.997668,85.06,1
10552,0,51305,56880,51326.9,56908.76,-21.9,-28.76,0.00025,-0.000358,0.997622,85.06,1
10561,0,51302,56866,51326.41,56907.9,-24.41,-41.9,0.00026,-0.000343,0.997419,85.06,1
10570,0,51308,56865,51326.04,56907.05,-18.04,-42.05,0.000267,-0.000328,0.997145,85.07,1
10582,0,51310,56863,51325.72,56906.17,-15.72,-43.17,0.000273,-0.000312,0.996829,85.08,1
10591,0,51309,56859,51325.39,56905.23,-16.39,-46.23,0.00028,-0.000296,0.996461,85.09,1
10602,0,51302,56870,51324.92,56904.52,-22.92,-34.52,0.000289,-0.000283,0.996349,85.09,1
10611,0,51309,56872,51324.6,56903.87,-15.6,-31.87,0.000295,-0.000272,0.996199,85.1,1
10621,0,51308,56882,51324.27,56903.44,-16.27,-21.44,0.000301,-0.000264,0.996171,85.1,1
10631,0,51313,56874,51324.05,56902.85,-11.05,-28.85,0.000306,-0.000254,0.996025,85.1,1
10641,0,51315,56880,51323.87,56902.4,-8.87,-22.4,0.000309,-0.000246,0.995936,85.1,1
10651,0,51309,56885,51323.57,56902.05,-14.57,-17.05,0.000315,-0.00024,0.99593,85.1,1
10660,0,51313,56887,51323.36,56901.75,-10.36,-14.75,0.000319,-0.000235,0.995911,85.1,1
10672,0,51316,56886,51323.22,56901.43,-7.22,-15.43,0.000322,-0.000229,0.995871,85.1,1
10681,0,51319,56888,51323.13,56901.17,-4.13,-13.17,0.000324,-0.000224,0.995835,85.1,1
10691,0,51318,56901,51323.03,56901.16,-5.03,-0.16,0.000326,-0.000224,0.995844,85.1,1
10701,0,51320,56894,51322.97,56901.02,-2.97,-7.02,0.000327,-0.000222,0.995834,85.1,1
10711,0,51316,56899,51322.83,56900.98,-6.83,-1.98,0.000329,-0.000221,0.995848,85.1,1
10721,0,51322,56898,51322.82,56900.92,-0.82,-2.92,0.00033,-0.00022,0.995845,85.1,1
10730,0,51319,56906,51322.74,56901.03,-3.74,4.97,0.000331,-0.000222,0.995847,85.1,1
10741,0,51315,56905,51322.58,56901.11,-7.59,3.89,0.000334,-0.000223,0.995864,85.1,1
10750,0,51317,56905,51322.48,56901.19,-5.48,3.81,0.000336,-0.000225,0.995873,85.1,1
10761,0,51322,56905,51322.47,56901.27,-0.47,3.73,0.000337,-0.000226,0.995872,85.1,1
10770,0,51318,56903,51322.38,56901.3,-4.38,1.7,0.000338,-0.000227,0.995879,85.1,1
10781,0,51319,56905,51322.31,56901.38,-3.31,3.62,0.00034,-0.000228,0.995881,85.1,1
10790,0,51325,56901,51322.37,56901.37,2.63,-0.37,0.000338,-0.000228,0.995882,85.1,1
10801,0,51322,56906,51322.36,56901.47,-0.36,4.53,0.000339,-0.00023,0.995879,85.1,1
10810,0,51321,56905,51322.33,56901.54,-1.34,3.46,0.000339,-0.000231,0.995878,85.1,1
10821,0,51323,56904,51322.35,56901.59,0.65,2.41,0.000339,-0.000232,0.995878,85.1,1
10830,0,51320,56915,51322.3,56901.86,-2.3,13.14,0.00034,-0.000236,0.995841,85.1,1
10841,0,51326,56914,51322.38,56902.1,3.62,11.89,0.000338,-0.000241,0.995812,85.1,1
10851,0,51324,56911,51322.41,56902.28,1.59,8.72,0.000338,-0.000244,0.995796,85.11,1
10861,0,51327,56918,51322.5,56902.6,4.5,15.4,0.000336,-0.000249,0.995745,85.11,1
10870,0,51332,56909,51322.69,56902.73,9.3,6.27,0.000332,-0.000252,0.995761,85.11,1
10882,0,51326,56920,51322.76,56903.07,3.24,16.93,0.000331,-0.000258,0.995693,85.11,1
10891,0,51327,56914,51322.85,56903.29,4.15,10.71,0.000329,-0.000262,0.995671,85.11,1
10901,0,51328,56923,51322.95,56903.69,5.05,19.31,0.000327,-0.000269,0.995584,85.11,1
10910,0,51322,56919,51322.93,56903.99,-0.93,15.01,0.000327,-0.000274,0.995528,85.11,1
10921,0,51326,56919,51323,56904.29,3,14.71,0.000326,-0.000279,0.995476,85.11,1
10931,0,51335,56927,51323.24,56904.75,11.76,22.25,0.000321,-0.000287,0.995389,85.12,1
10942,0,51331,56928,51323.39,56905.21,7.61,22.79,0.000318,-0.000295,0.995268,85.12,1
10951,0,51326,56917,51323.44,56905.45,2.55,11.55,0.000318,-0.0003,0.995236,85.12,1
10960,0,51324,56924,51323.46,56905.82,0.54,18.18,0.000317,-0.000306,0.995148,85.12,1
10971,0,51329,56913,51323.57,56905.96,5.43,7.04,0.000315,-0.000309,0.995144,85.12,1
10980,0,51332,56915,51323.74,56906.15,8.26,8.85,0.000312,-0.000312,0.995146,85.12,1
10991,0,51332,56922,51323.91,56906.47,8.09,15.53,0.000309,-0.000317,0.995102,85.12,1
11000,0,51333,56929,51324.09,56906.92,8.91,22.08,0.000305,-0.000325,0.99499,85.13,1
11012,0,51327,56918,51324.15,56907.14,2.85,10.86,0.000304,-0.000329,0.99496,85.13,1
11021,0,51334,56918,51324.35,56907.36,9.65,10.64,0.0003,-0.000333,0.994961,85.13,1
11031,0,51335,56923,51324.56,56907.67,10.44,15.32,0.000296,-0.000339,0.994932,85.13,1
11040,0,51333,56927,51324.73,56908.06,8.27,18.94,0.000292,-0.000345,0.99485,85.13,1
11052,0,51327,56936,51324.78,56908.62,2.22,27.38,0.000292,-0.000355,0.994626,85.13,1
11061,0,51327,56926,51324.82,56908.97,2.18,17.03,0.000291,-0.000361,0.994542,85.14,1
11070,0,51329,56928,51324.9,56909.35,4.1,18.65,0.000289,-0.000368,0.994443,85.14,1
11081,0,51334,56923,51325.08,56909.62,8.91,13.38,0.000285,-0.000373,0.994418,85.14,1
11090,0,51328,56924,51325.14,56909.91,2.86,14.09,0.000284,-0.000378,0.994361,85.14,1
11101,0,51331,56918,51325.26,56910.07,5.73,7.93,0.000282,-0.000381,0.994354,85.14,1
11110,0,51329,56919,51325.34,56910.25,3.66,8.75,0.000281,-0.000384,0.994336,85.14,1
11121,0,51331,56925,51325.46,56910.55,5.54,14.45,0.000278,-0.000389,0.994282,85.14,1
11130,0,51332,56913,51325.59,56910.6,6.41,2.4,0.000276,-0.00039,0.994295,85.14,1
11141,0,51327,56923,51325.62,56910.85,1.38,12.15,0.000275,-0.000395,0.99425,85.14,1
11151,0,51323,56922,51325.57,56911.08,-2.57,10.92,0.000276,-0.000398,0.994216,85.14,1
11161,0,51321,56924,51325.48,56911.34,-4.48,12.66,0.000278,-0.000403,0.994175,85.15,1
11170,0,51322,56923,51325.41,56911.57,-3.41,11.43,0.000279,-0.000407,0.99414,85.15,1
11182,0,51327,56930,51325.44,56911.94,1.56,18.05,0.000279,-0.000414,0.994031,85.15,1
11191,0,51326,56924,51325.45,56912.19,0.55,11.81,0.000278,-0.000418,0.993985,85.15,1
11200,0,51325,56929,51325.44,56912.52,-0.45,16.48,0.000279,-0.000424,0.993892,85.15,1
11210,0,51319,56924,51325.32,56912.75,-6.32,11.25,0.000281,-0.000428,0.993871,85.15,1
11220,0,51330,56923,51325.41,56912.96,4.59,10.04,0.000279,-0.000432,0.993845,85.15,1
11231,0,51327,56925,51325.44,56913.2,1.55,11.8,0.000279,-0.000436,0.993798,85.16,1
11240,0,51326,56926,51325.46,56913.46,0.54,12.54,0.000278,-0.00044,0.993743,85.16,1
11251,0,51327,56924,51325.49,56913.67,1.51,10.33,0.000278,-0.000444,0.993706,85.16,1
11260,0,51327,56921,51325.52,56913.82,1.48,7.18,0.000277,-0.000447,0.993689,85.16,1
11271,0,51326,56919,51325.53,56913.92,0.47,5.07,0.000277,-0.000448,0.993681,85.16,1
11281,0,51330,56922,51325.62,56914.09,4.38,7.91,0.000275,-0.000451,0.993667,85.16,1
11291,0,51323,56917,51325.57,56914.15,-2.57,2.85,0.000276,-0.000452,0.993669,85.16,1
11300,0,51321,56901,51325.48,56913.89,-4.48,-12.89,0.000278,-0.000448,0.99361,85.16,1
11312,0,51316,56896,51325.3,56913.53,-9.3,-17.53,0.000281,-0.000442,0.993526,85.16,1
11321,0,51313,56879,51325.05,56912.84,-12.05,-33.84,0.000286,-0.000429,0.993125,85.17,1
11330,0,51314,56879,51324.83,56912.16,-10.84,-33.16,0.00029,-0.000418,0.992725,85.18,1
11340,0,51311,56866,51324.56,56911.24,-13.56,-45.24,0.000296,-0.000401,0.991959,85.2,1
11351,0,51310,56861,51324.27,56910.24,-14.27,-49.24,0.000301,-0.000384,0.991039,85.22,1
11361,0,51304,56857,51323.86,56909.17,-19.86,-52.18,0.000309,-0.000365,0.99009,85.25,1
11370,0,51293,56857,51323.25,56908.13,-30.25,-51.13,0.000321,-0.000347,0.989461,85.26,1
11381,0,51314,56868,51323.06,56907.33,-9.06,-39.33,0.000325,-0.000333,0.988834,85.28,1
11390,0,51306,56868,51322.72,56906.55,-16.72,-38.55,0.000332,-0.000319,0.988338,85.29,1
11400,0,51301,56874,51322.29,56905.9,-21.29,-31.9,0.00034,-0.000307,0.988141,85.3,1
11411,0,51306,56880,51321.96,56905.38,-15.96,-25.38,0.000346,-0.000298,0.987996,85.3,1
11420,0,51310,56881,51321.73,56904.9,-11.73,-23.9,0.000351,-0.00029,0.987816,85.3,1
11430,0,51315,56886,51321.59,56904.52,-6.59,-18.52,0.000354,-0.000283,0.987683,85.31,1
11441,0,51319,56886,51321.54,56904.15,-2.54,-18.15,0.000355,-0.000277,0.987533,85.31,1
11451,0,51311,56905,51321.33,56904.17,-10.33,0.83,0.000359,-0.000277,0.987598,85.31,1
11460,0,51315,56892,51321.21,56903.92,-6.21,-11.93,0.000361,-0.000273,0.987553,85.31,1
11470,0,51322,56892,51321.23,56903.69,0.77,-11.69,0.000361,-0.000269,0.987485,85.31,1
11481,0,51322,56900,51321.25,56903.61,0.75,-3.61,0.00036,-0.000267,0.987478,85.31,1
11490,0,51323,56904,51321.28,56903.62,1.72,0.38,0.00036,-0.000267,0.987479,85.31,1
11501,0,51318,56910,51321.21,56903.75,-3.21,6.25,0.000361,-0.00027,0.98747,85.31,1
11510,0,51312,56896,51321.03,56903.59,-9.03,-7.59,0.000365,-0.000267,0.987493,85.31,1
11521,0,51319,56906,51320.99,56903.64,-1.99,2.36,0.000365,-0.000268,0.987494,85.31,1
11530,0,51324,56909,51321.05,56903.75,2.95,5.25,0.000364,-0.00027,0.987487,85.31,1
11541,0,51318,56918,51320.99,56904.04,-2.99,13.96,0.000365,-0.000275,0.987401,85.31,1
11550,0,51325,56910,51321.07,56904.16,3.93,5.84,0.000364,-0.000277,0.987395,85.32,1
11560,0,51323,56920,51321.11,56904.48,1.89,15.52,0.000363,-0.000282,0.987279,85.32,1
11570,0,51331,56911,51321.31,56904.6,9.69,6.39,0.000359,-0.000285,0.987317,85.32,1
11581,0,51327,56916,51321.42,56904.83,5.57,11.16,0.000357,-0.000289,0.987275,85.32,1
11590,0,51326,56912,51321.52,56904.98,4.48,7.02,0.000355,-0.000291,0.987263,85.32,1
11600,0,51327,56912,51321.63,56905.12,5.37,6.88,0.000353,-0.000294,0.987257,85.32,1
11611,0,51323,56913,51321.66,56905.28,1.34,7.72,0.000352,-0.000297,0.987229,85.32,1
11621,0,51329,56915,51321.8,56905.48,7.2,9.52,0.000349,-0.0003,0.987216,85.32,1
11630,0,51327,56915,51321.91,56905.67,5.09,9.33,0.000347,-0.000303,0.987187,85.32,1
11641,0,51327,56919,51322.01,56905.93,4.99,13.07,0.000345,-0.000308,0.987113,85.32,1
11651,0,51325,56919,51322.07,56906.19,2.93,12.8,0.000344,-0.000313,0.987031,85.32,1
11661,0,51328,56916,51322.19,56906.39,5.81,9.61,0.000342,-0.000316,0.987005,85.32,1
11670,0,51331,56915,51322.37,56906.57,8.63,8.43,0.000338,-0.000319,0.987017,85.32,1
11679,0,51326,56925,51322.44,56906.94,3.55,18.06,0.000337,-0.000326,0.986845,85.33,1
11691,0,51328,56917,51322.55,56907.14,5.45,9.86,0.000335,-0.000329,0.986811,85.33,1
11700,0,51324,56921,51322.58,56907.42,1.41,13.58,0.000334,-0.000334,0.986709,85.33,1
11710,0,51320,56912,51322.53,56907.51,-2.54,4.49,0.000335,-0.000336,0.986705,85.33,1
11720,0,51323,56916,51322.55,56907.68,0.45,8.32,0.000335,-0.000339,0.986667,85.33,1
11730,0,51324,56921,51322.58,56907.95,1.42,13.05,0.000334,-0.000344,0.98657,85.34,1
11740,0,51331,56928,51322.75,56908.35,8.25,19.64,0.000331,-0.000351,0.986391,85.34,1
11751,0,51325,56919,51322.8,56908.57,2.2,10.43,0.00033,-0.000354,0.986331,85.34,1
11760,0,51327,56917,51322.88,56908.73,4.12,8.27,0.000328,-0.000357,0.986303,85.34,1
11770,0,51334,56921,51323.1,56908.98,10.89,12.02,0.000324,-0.000362,0.986307,85.34,1
11780,0,51332,56921,51323.28,56909.23,8.71,11.77,0.000321,-0.000366,0.986281,85.34,1
11791,0,51330,56928,51323.42,56909.6,6.58,18.4,0.000318,-0.000372,0.986103,85.35,1
11800,0,51325,56922,51323.45,56909.85,1.55,12.15,0.000317,-0.000377,0.986014,85.35,1
11810,0,51330,56930,51323.58,56910.26,6.41,19.74,0.000315,-0.000384,0.985799,85.36,1
11821,0,51332,56932,51323.75,56910.69,8.25,21.3,0.000311,-0.000392,0.985562,85.36,1
11830,0,51331,56935,51323.9,56911.18,7.1,23.82,0.000309,-0.0004,0.985234,85.37,1
11840,0,51333,56932,51324.08,56911.6,8.91,20.4,0.000305,-0.000408,0.985027,85.37,1
11849,0,51332,56935,51324.25,56912.07,7.75,22.93,0.000302,-0.000416,0.984729,85.38,1
11860,0,51328,56932,51324.32,56912.47,3.68,19.53,0.0003,-0.000423,0.984486,85.39,1
11870,0,51335,56929,51324.53,56912.8,10.46,16.2,0.000296,-0.000429,0.984403,85.39,1
11881,0,51335,56927,51324.75,56913.08,10.25,13.92,0.000292,-0.000434,0.984362,85.39,1
11890,0,51333,56922,51324.91,56913.26,8.09,8.74,0.000289,-0.000437,0.984366,85.39,1
11900,0,51328,56926,51324.98,56913.51,3.02,12.48,0.000288,-0.000441,0.984267,85.39,1
11910,0,51327,56928,51325.01,56913.8,1.98,14.2,0.000287,-0.000446,0.984131,85.4,1
11921,0,51339,56923,51325.3,56913.99,13.7,9.01,0.000281,-0.00045,0.984243,85.39,1
11930,0,51333,56933,51325.45,56914.37,7.55,18.62,0.000278,-0.000456,0.984046,85.4,1
11940,0,51332,56942,51325.58,56914.93,6.41,27.07,0.000276,-0.000466,0.983553,85.41,1
11950,0,51330,56934,51325.67,56915.31,4.32,18.69,0.000274,-0.000473,0.983316,85.42,1
11961,0,51338,56937,51325.92,56915.75,12.07,21.25,0.000269,-0.00048,0.98312,85.42,1
11970,0,51333,56935,51326.07,56916.13,6.93,18.87,0.000266,-0.000487,0.982901,85.43,1
11979,0,51335,56929,51326.25,56916.39,8.75,12.61,0.000263,-0.000492,0.982855,85.43,1
11991,0,51330,56933,51326.33,56916.72,3.67,16.28,0.000261,-0.000498,0.982668,85.43,1
12000,0,51328,56921,51326.36,56916.81,1.64,4.19,0.000261,-0.000499,0.982658,85.43,1
12010,0,51327,56929,51326.37,56917.05,0.63,11.95,0.000261,-0.000503,0.982551,85.44,1
12020,0,51329,56921,51326.42,56917.13,2.58,3.87,0.000259,-0.000505,0.982546,85.44,1
12030,0,51329,56925,51326.47,56917.29,2.53,7.71,0.000258,-0.000508,0.982507,85.44,1
12040,0,51337,56932,51326.68,56917.59,10.32,14.41,0.000254,-0.000513,0.982449,85.44,1
12051,0,51331,56930,51326.77,56917.84,4.23,12.16,0.000253,-0.000517,0.98235,85.44,1
12060,0,51331,56932,51326.86,56918.12,4.14,13.88,0.000251,-0.000522,0.982212,85.44,1
12070,0,51336,56942,51327.04,56918.6,8.96,23.4,0.000247,-0.000531,0.981847,85.45,1
12080,0,51330,56935,51327.1,56918.93,2.89,16.07,0.000246,-0.000536,0.981643,85.46,1
12090,0,51331,56928,51327.18,56919.11,3.82,8.89,0.000245,-0.00054,0.981593,85.46,1
12100,0,51324,56909,51327.12,56918.91,-3.12,-9.91,0.000246,-0.000536,0.981518,85.46,1
12109,0,51323,56904,51327.04,56918.6,-4.04,-14.61,0.000247,-0.000531,0.981348,85.47,1
12121,0,51321,56892,51326.92,56918.07,-5.92,-26.07,0.00025,-0.000521,0.980787,85.48,1
12130,0,51314,56882,51326.66,56917.35,-12.66,-35.36,0.000255,-0.000509,0.979861,85.5,1
12140,0,51313,56880,51326.39,56916.61,-13.39,-36.61,0.00026,-0.000496,0.978871,85.53,1
12150,0,51309,56873,51326.05,56915.74,-17.05,-42.74,0.000267,-0.00048,0.977568,85.56,1
12161,0,51316,56872,51325.85,56914.87,-9.85,-42.87,0.000271,-0.000465,0.976025,85.6,1
12170,0,51312,56869,51325.57,56913.95,-13.57,-44.95,0.000276,-0.000449,0.974411,85.64,1
12181,0,51311,56882,51325.28,56913.31,-14.28,-31.31,0.000282,-0.000438,0.973758,85.66,1
12190,0,51313,56878,51325.03,56912.6,-12.04,-34.61,0.000287,-0.000425,0.97283,85.68,1
12199,0,51316,56882,51324.85,56912,-8.86,-30,0.00029,-0.000415,0.97209,85.7,1
12211,0,51309,56886,51324.54,56911.48,-15.54,-25.48,0.000296,-0.000405,0.971778,85.71,1
12220,0,51316,56884,51324.37,56910.93,-8.37,-26.93,0.000299,-0.000396,0.97118,85.72,1
12230,0,51313,56893,51324.14,56910.57,-11.14,-17.57,0.000304,-0.00039,0.97104,85.72,1
12239,0,51316,56882,51323.98,56910,-7.98,-28,0.000307,-0.000379,0.970368,85.74,1
12251,0,51307,56898,51323.64,56909.76,-16.64,-11.76,0.000314,-0.000375,0.970584,85.74,1
12260,0,51308,56890,51323.33,56909.37,-15.33,-19.37,0.00032,-0.000368,0.970518,85.74,1
12271,0,51323,56901,51323.33,56909.2,-0.33,-8.2,0.00032,-0.000365,0.970449,85.74,1
12280,0,51318,56896,51323.22,56908.94,-5.22,-12.94,0.000322,-0.000361,0.970317,85.74,1
12290,0,51314,56913,51323.04,56909.02,-9.04,3.98,0.000325,-0.000362,0.970412,85.74,1
12300,0,51315,56903,51322.88,56908.9,-7.88,-5.9,0.000329,-0.00036,0.97046,85.74,1
12309,0,51313,56906,51322.68,56908.85,-9.68,-2.85,0.000332,-0.000359,0.970579,85.74,1
12320,0,51331,56908,51322.85,56908.83,8.15,-0.83,0.000329,-0.000359,0.970663,85.73,1
12329,0,51318,56916,51322.75,56908.98,-4.75,7.02,0.000331,-0.000361,0.970647,85.73,1
12340,0,51327,56917,51322.84,56909.14,4.16,7.86,0.000329,-0.000364,0.970607,85.73,1
12349,0,51320,56920,51322.78,56909.35,-2.78,10.65,0.00033,-0.000368,0.970503,85.74,1
12360,0,51322,56909,51322.77,56909.34,-0.77,-0.34,0.000331,-0.000368,0.970503,85.74,1
12369,0,51323,56910,51322.78,56909.35,0.22,0.64,0.000331,-0.000368,0.970503,85.74,1
12380,0,51330,56913,51322.92,56909.43,7.07,3.57,0.000328,-0.000369,0.970559,85.74,1
12390,0,51321,56910,51322.89,56909.44,-1.89,0.56,0.000328,-0.00037,0.970565,85.74,1
12400,0,51320,56913,51322.83,56909.51,-2.83,3.48,0.000329,-0.000371,0.970565,85.74,1
12409,0,51325,56916,51322.87,56909.65,2.13,6.35,0.000329,-0.000373,0.970528,85.74,1
12421,0,51327,56911,51322.96,56909.67,4.04,1.32,0.000327,-0.000374,0.970549,85.74,1
12430,0,51324,56912,51322.98,56909.72,1.02,2.28,0.000327,-0.000375,0.970545,85.74,1
12440,0,51321,56920,51322.94,56909.92,-1.95,10.07,0.000327,-0.000378,0.970438,85.74,1
12449,0,51321,56909,51322.91,56909.91,-1.91,-0.91,0.000328,-0.000378,0.970442,85.74,1
12461,0,51324,56910,51322.93,56909.91,1.07,0.09,0.000328,-0.000378,0.970444,85.74,1
12470,0,51325,56904,51322.97,56909.79,2.03,-5.79,0.000327,-0.000376,0.970407,85.74,1
12480,0,51324,56918,51323,56909.96,1,8.04,0.000326,-0.000379,0.970333,85.74,1
12489,0,51322,56918,51322.98,56910.12,-0.98,7.88,0.000327,-0.000382,0.970263,85.74,1
12500,0,51328,56915,51323.08,56910.21,4.92,4.79,0.000325,-0.000383,0.970273,85.74,1
12510,0,51325,56916,51323.12,56910.33,1.88,5.67,0.000324,-0.000385,0.97024,85.74,1
12520,0,51328,56921,51323.22,56910.55,4.78,10.45,0.000322,-0.000389,0.970142,85.75,1
12529,0,51327,56916,51323.29,56910.66,3.71,5.34,0.00032,-0.000391,0.970129,85.75,1
12540,0,51325,56927,51323.33,56910.98,1.67,16.02,0.00032,-0.000397,0.969812,85.75,1
12550,0,51324,56919,51323.34,56911.14,0.66,7.86,0.000319,-0.0004,0.969735,85.76,1
12560,0,51324,56923,51323.36,56911.38,0.64,11.62,0.000319,-0.000404,0.969564,85.76,1
12570,0,51324,56921,51323.37,56911.58,0.63,9.42,0.000319,-0.000407,0.969451,85.76,1
12580,0,51325,56928,51323.41,56911.91,1.59,16.09,0.000318,-0.000413,0.969117,85.77,1
12590,0,51322,56923,51323.38,56912.13,-1.38,10.87,0.000319,-0.000417,0.968966,85.78,1
12599,0,51327,56923,51323.46,56912.35,3.54,10.65,0.000317,-0.000421,0.968838,85.78,1
12610,0,51328,56923,51323.55,56912.56,4.45,10.44,0.000315,-0.000425,0.968726,85.78,1
12619,0,51331,56931,51323.7,56912.93,7.3,18.07,0.000313,-0.000431,0.968377,85.79,1
12630,0,51332,56935,51323.87,56913.37,8.13,21.62,0.000309,-0.000439,0.967852,85.8,1
12640,0,51329,56923,51323.97,56913.57,5.03,9.43,0.000307,-0.000442,0.967775,85.81,1
12650,0,51325,56936,51323.99,56914.02,1.01,21.98,0.000307,-0.00045,0.967101,85.82,1
12659,0,51334,56930,51324.19,56914.34,9.81,15.66,0.000303,-0.000456,0.966934,85.83,1
12670,0,51334,56929,51324.39,56914.63,9.61,14.37,0.000299,-0.000461,0.966813,85.83,1
12680,0,51333,56930,51324.56,56914.94,8.44,15.06,0.000296,-0.000466,0.966622,85.83,1
12690,0,51322,56937,51324.51,56915.38,-2.51,21.62,0.000297,-0.000474,0.965958,85.85,1
12699,0,51328,56939,51324.58,56915.86,3.42,23.14,0.000295,-0.000482,0.965197,85.87,1
12710,0,51335,56939,51324.79,56916.32,10.21,22.68,0.000291,-0.000491,0.96464,85.88,1
12720,0,51338,56936,51325.05,56916.72,12.95,19.28,0.000286,-0.000498,0.964417,85.89,1
12729,0,51336,56936,51325.27,56917.1,10.73,18.89,0.000282,-0.000504,0.964109,85.9,1
12740,0,51329,56945,51325.35,56917.66,3.65,27.34,0.00028,-0.000514,0.963005,85.92,1
12749,0,51331,56945,51325.46,56918.21,5.54,26.79,0.000278,-0.000524,0.961973,85.95,1
12760,0,51327,56937,51325.49,56918.58,1.51,18.41,0.000278,-0.00053,0.961459,85.96,1
12769,0,51331,56930,51325.6,56918.82,5.39,11.18,0.000275,-0.000534,0.961326,85.97,1
12780,0,51334,56943,51325.77,56919.3,8.23,23.7,0.000272,-0.000543,0.960589,85.99,1
12789,0,51329,56936,51325.83,56919.63,3.16,16.37,0.000271,-0.000549,0.96019,86,1
12801,0,51328,56942,51325.88,56920.08,2.12,21.92,0.00027,-0.000557,0.959438,86.01,1
12810,0,51332,56935,51326,56920.38,6,14.62,0.000268,-0.000562,0.959173,86.02,1
12820,0,51334,56939,51326.16,56920.75,7.84,18.25,0.000265,-0.000568,0.958768,86.03,1
12829,0,51337,56937,51326.38,56921.08,10.62,15.92,0.00026,-0.000574,0.958601,86.03,1
12840,0,51338,56947,51326.61,56921.6,11.39,25.4,0.000256,-0.000583,0.957825,86.05,1
12850,0,51333,56939,51326.74,56921.95,6.26,17.05,0.000253,-0.000589,0.957432,86.06,1
12859,0,51339,56941,51326.99,56922.33,12.01,18.67,0.000248,-0.000596,0.957173,86.07,1
12870,0,51337,56941,51327.19,56922.71,9.81,18.29,0.000245,-0.000603,0.956827,86.08,1
12879,0,51332,56939,51327.28,56923.03,4.71,15.96,0.000243,-0.000608,0.956446,86.09,1
12890,0,51333,56942,51327.4,56923.41,5.6,18.59,0.00024,-0.000615,0.955927,86.1,1
12899,0,51341,56935,51327.67,56923.64,13.32,11.36,0.000235,-0.000619,0.956117,86.1,1
12910,0,51329,56930,51327.7,56923.77,1.3,6.23,0.000235,-0.000621,0.956054,86.1,1
12919,0,51335,56926,51327.85,56923.82,7.15,2.18,0.000232,-0.000622,0.956166,86.1,1
12930,0,51325,56921,51327.79,56923.76,-2.79,-2.77,0.000233,-0.000621,0.956171,86.1,1
12939,0,51325,56915,51327.74,56923.59,-2.74,-8.59,0.000234,-0.000618,0.956054,86.1,1
12950,0,51324,56901,51327.66,56923.14,-3.66,-22.14,0.000235,-0.00061,0.955185,86.12,1
12959,0,51316,56876,51327.43,56922.2,-11.43,-46.2,0.00024,-0.000594,0.951587,86.21,1
12971,0,51316,56879,51327.21,56921.33,-11.21,-42.34,0.000244,-0.000579,0.948609,86.28,1
12980,0,51309,56865,51326.84,56920.21,-17.84,-55.21,0.000251,-0.000559,0.943834,86.4,1
12989,0,51306,56868,51326.43,56919.17,-20.43,-51.17,0.000259,-0.000541,0.940123,86.5,1
13000,0,51300,56863,51325.9,56918.05,-25.9,-55.05,0.00027,-0.000521,0.936334,86.59,1
13009,0,51304,56863,51325.46,56916.95,-21.46,-53.95,0.000278,-0.000502,0.932263,86.69,1
13020,0,51311,56869,51325.17,56915.99,-14.18,-46.99,0.000284,-0.000485,0.928813,86.78,1
13029,0,51307,56871,51324.81,56915.08,-17.81,-44.09,0.000291,-0.000469,0.926143,86.85,1
13040,0,51306,56888,51324.44,56914.55,-18.44,-26.55,0.000298,-0.000459,0.925751,86.86,1
13049,0,51313,56881,51324.21,56913.88,-11.21,-32.88,0.000303,-0.000448,0.924121,86.9,1
13059,0,51315,56890,51324.03,56913.4,-9.03,-23.4,0.000306,-0.000439,0.923337,86.92,1
13070,0,51315,56891,51323.85,56912.96,-8.85,-21.96,0.00031,-0.000431,0.922659,86.93,1
13079,0,51322,56892,51323.81,56912.54,-1.81,-20.54,0.00031,-0.000424,0.921886,86.95,1
13089,0,51320,56898,51323.73,56912.25,-3.73,-14.25,0.000312,-0.000419,0.921543,86.96,1
13100,0,51315,56892,51323.56,56911.85,-8.56,-19.85,0.000315,-0.000412,0.921002,86.97,1
13110,0,51316,56900,51323.41,56911.61,-7.41,-11.61,0.000318,-0.000408,0.920897,86.98,1
13119,0,51319,56894,51323.32,56911.26,-4.32,-17.26,0.00032,-0.000402,0.920377,86.99,1
13130,0,51316,56901,51323.18,56911.06,-7.18,-10.06,0.000323,-0.000398,0.920326,86.99,1
13139,0,51316,56898,51323.04,56910.8,-7.04,-12.8,0.000325,-0.000394,0.920146,87,1
13149,0,51315,56901,51322.88,56910.6,-7.88,-9.61,0.000329,-0.00039,0.920142,87,1
13159,0,51314,56902,51322.7,56910.43,-8.7,-8.43,0.000332,-0.000387,0.920219,86.99,1
13169,0,51313,56906,51322.51,56910.35,-9.51,-4.35,0.000336,-0.000386,0.920445,86.99,1
13179,0,51316,56905,51322.38,56910.24,-6.38,-5.24,0.000338,-0.000384,0.92051,86.99,1
13189,0,51310,56910,51322.14,56910.24,-12.14,-0.24,0.000343,-0.000384,0.920949,86.98,1
13200,0,51312,56903,51321.93,56910.09,-9.93,-7.09,0.000347,-0.000381,0.921141,86.97,1
13209,0,51317,56907,51321.83,56910.03,-4.84,-3.04,0.000349,-0.00038,0.921193,86.97,1
13219,0,51319,56899,51321.78,56909.82,-2.78,-10.82,0.00035,-0.000376,0.920969,86.98,1
13229,0,51321,56905,51321.76,56909.72,-0.77,-4.72,0.00035,-0.000375,0.920922,86.98,1
13240,0,51310,56899,51321.53,56909.51,-11.53,-10.51,0.000355,-0.000371,0.921099,86.97,1
13249,0,51308,56897,51321.26,56909.26,-13.26,-12.26,0.00036,-0.000367,0.921325,86.97,1
13260,0,51317,56895,51321.17,56908.98,-4.18,-13.98,0.000362,-0.000361,0.920951,86.98,1
13270,0,51313,56896,51321.01,56908.72,-8.02,-12.72,0.000365,-0.000357,0.920799,86.98,1
13280,0,51315,56893,51320.9,56908.41,-5.9,-15.41,0.000367,-0.000351,0.920382,86.99,1
13289,0,51311,56898,51320.7,56908.2,-9.7,-10.2,0.000371,-0.000348,0.920455,86.99,1
13298,0,51313,56908,51320.55,56908.19,-7.55,-0.2,0.000374,-0.000348,0.920644,86.98,1
13309,0,51316,56901,51320.46,56908.05,-4.46,-7.05,0.000376,-0.000345,0.920596,86.99,1
13319,0,51317,56910,51320.39,56908.09,-3.39,1.91,0.000377,-0.000346,0.920628,86.98,1
13329,0,51319,56902,51320.36,56907.97,-1.36,-5.97,0.000378,-0.000344,0.920549,86.99,1
13339,0,51314,56912,51320.24,56908.05,-6.24,3.95,0.00038,-0.000345,0.920649,86.98,1
13349,0,51312,56906,51320.07,56908.01,-8.07,-2.01,0.000383,-0.000344,0.920866,86.98,1
13359,0,51313,56901,51319.93,56907.87,-6.93,-6.87,0.000386,-0.000342,0.920921,86.98,1
13370,0,51316,56906,51319.85,56907.83,-3.86,-1.83,0.000387,-0.000341,0.920966,86.98,1
13379,0,51311,56915,51319.68,56907.98,-8.68,7.02,0.000391,-0.000344,0.921118,86.97,1
13389,0,51313,56904,51319.55,56907.89,-6.55,-3.89,0.000393,-0.000343,0.921235,86.97,1
13399,0,51309,56907,51319.33,56907.88,-10.34,-0.88,0.000398,-0.000342,0.921624,86.96,1
13410,0,51311,56902,51319.17,56907.76,-8.17,-5.76,0.000401,-0.00034,0.921785,86.96,1
13419,0,51318,56901,51319.14,56907.63,-1.14,-6.63,0.000401,-0.000338,0.921676,86.96,1
13429,0,51318,56909,51319.12,56907.66,-1.12,1.34,0.000402,-0.000338,0.921677,86.96,1
13438,0,51316,56908,51319.06,56907.66,-3.06,0.34,0.000403,-0.000338,0.921713,86.96,1
13450,0,51318,56919,51319.04,56907.89,-1.04,11.11,0.000403,-0.000342,0.921397,86.97,1
13459,0,51323,56906,51319.12,56907.85,3.88,-1.86,0.000402,-0.000342,0.921444,86.96,1
13469,0,51321,56917,51319.16,56908.04,1.84,8.96,0.000401,-0.000345,0.921244,86.97,1
13478,0,51321,56911,51319.19,56908.1,1.8,2.9,0.0004,-0.000346,0.921234,86.97,1
13490,0,51315,56912,51319.11,56908.17,-4.11,3.82,0.000402,-0.000347,0.921264,86.97,1
13499,0,51315,56910,51319.03,56908.21,-4.03,1.79,0.000403,-0.000348,0.921322,86.97,1
13509,0,51316,56910,51318.97,56908.25,-2.97,1.75,0.000405,-0.000349,0.921351,86.97,1
13519,0,51322,56908,51319.03,56908.24,2.96,-0.24,0.000403,-0.000349,0.921386,86.97,1
13530,0,51317,56921,51319,56908.5,-2,12.5,0.000404,-0.000353,0.920963,86.98,1
13539,0,51316,56919,51318.94,56908.71,-2.94,10.29,0.000405,-0.000357,0.920699,86.98,1
13550,0,51319,56936,51318.94,56909.26,0.06,26.74,0.000405,-0.000367,0.918645,87.03,1
13559,0,51328,56926,51319.12,56909.59,8.88,16.41,0.000402,-0.000372,0.9182,87.05,1
13570,0,51331,56933,51319.35,56910.06,11.64,22.94,0.000397,-0.000381,0.917245,87.07,1
13579,0,51333,56937,51319.63,56910.6,13.37,26.4,0.000392,-0.00039,0.915971,87.1,1
13590,0,51326,56941,51319.76,56911.21,6.24,29.79,0.000389,-0.000401,0.913534,87.16,1
13599,0,51338,56939,51320.12,56911.77,17.87,27.23,0.000382,-0.000411,0.912738,87.18,1
13608,0,51329,56938,51320.3,56912.3,8.7,25.7,0.000379,-0.00042,0.911116,87.22,1
13620,0,51328,56939,51320.45,56912.83,7.55,26.17,0.000376,-0.000429,0.909335,87.27,1
13629,0,51332,56943,51320.69,56913.44,11.31,29.56,0.000371,-0.00044,0.907301,87.32,1
13639,0,51331,56947,51320.89,56914.11,10.11,32.89,0.000367,-0.000452,0.904533,87.39,1
13648,0,51330,56933,51321.08,56914.49,8.92,18.51,0.000364,-0.000458,0.903867,87.4,1
13660,0,51324,56938,51321.14,56914.96,2.86,23.04,0.000362,-0.000467,0.90231,87.44,1
13669,0,51332,56943,51321.35,56915.52,10.64,27.48,0.000358,-0.000477,0.900548,87.49,1
13680,0,51329,56943,51321.51,56916.07,7.49,26.93,0.000355,-0.000486,0.898611,87.53,1
13689,0,51324,56937,51321.56,56916.49,2.44,20.51,0.000354,-0.000494,0.897362,87.57,1
13699,0,51322,56937,51321.57,56916.9,0.43,20.1,0.000354,-0.000501,0.896129,87.6,1
13709,0,51328,56933,51321.7,56917.23,6.3,15.77,0.000351,-0.000507,0.895551,87.61,1
13718,0,51327,56943,51321.8,56917.74,5.2,25.26,0.000349,-0.000516,0.893704,87.66,1
13729,0,51326,56947,51321.89,56918.33,4.11,28.67,0.000348,-0.000526,0.891232,87.72,1
13739,0,51323,56940,51321.91,56918.76,1.09,21.24,0.000347,-0.000533,0.889835,87.75,1
13749,0,51324,56938,51321.96,56919.15,2.04,18.85,0.000346,-0.00054,0.888743,87.78,1
13759,0,51334,56933,51322.2,56919.42,11.8,13.57,0.000342,-0.000545,0.888846,87.78,1
13769,0,51333,56929,51322.42,56919.62,10.58,9.38,0.000337,-0.000548,0.889121,87.77,1
13778,0,51322,56920,51322.41,56919.62,-0.41,0.37,0.000338,-0.000549,0.889122,87.77,1
13790,0,51317,56914,51322.3,56919.51,-5.3,-5.52,0.00034,-0.000547,0.889166,87.77,1
13799,0,51321,56897,51322.28,56919.07,-1.28,-22.07,0.00034,-0.000539,0.887568,87.81,1
13809,0,51315,56885,51322.14,56918.39,-7.14,-33.39,0.000343,-0.000527,0.884156,87.9,1
13818,0,51308,56875,51321.85,56917.52,-13.86,-42.52,0.000348,-0.000512,0.879227,88.02,1
13830,0,51304,56873,51321.5,56916.63,-17.5,-43.63,0.000355,-0.000496,0.874635,88.13,1
13839,0,51301,56870,51321.08,56915.7,-20.09,-45.7,0.000363,-0.00048,0.870017,88.25,1
13848,0,51300,56862,51320.66,56914.62,-20.66,-52.63,0.000372,-0.000461,0.863457,88.41,1
13859,0,51302,56868,51320.29,56913.69,-18.29,-45.69,0.000379,-0.000444,0.858667,88.53,1
13869,0,51307,56870,51320.02,56912.82,-13.02,-42.82,0.000384,-0.000429,0.853873,88.65,1
13880,0,51306,56881,51319.75,56912.18,-13.75,-31.18,0.00039,-0.000418,0.851859,88.7,1
13889,0,51308,56877,51319.51,56911.48,-11.51,-34.48,0.000394,-0.000405,0.848889,88.78,1
13899,0,51304,56884,51319.2,56910.93,-15.2,-26.93,0.0004,-0.000396,0.847869,88.8,1
13908,0,51315,56893,51319.12,56910.57,-4.12,-17.57,0.000402,-0.00039,0.847,88.82,1
13919,0,51309,56895,51318.91,56910.26,-9.91,-15.26,0.000406,-0.000384,0.846798,88.83,1
13929,0,51310,56902,51318.73,56910.09,-8.73,-8.09,0.000409,-0.000381,0.847004,88.82,1
13938,0,51310,56905,51318.56,56910,-8.56,-5,0.000413,-0.000379,0.847325,88.82,1
13949,0,51311,56900,51318.41,56909.8,-7.41,-9.8,0.000416,-0.000376,0.847318,88.82,1
13959,0,51315,56898,51318.34,56909.56,-3.34,-11.56,0.000417,-0.000372,0.846945,88.83,1
13969,0,51315,56897,51318.27,56909.31,-3.27,-12.31,0.000418,-0.000367,0.846508,88.84,1
13978,0,51316,56905,51318.23,56909.23,-2.23,-4.23,0.000419,-0.000366,0.846476,88.84,1
13989,0,51311,56901,51318.08,56909.07,-7.09,-8.07,0.000422,-0.000363,0.846546,88.84,1
13999,0,51313,56900,51317.99,56908.89,-4.99,-8.89,0.000424,-0.00036,0.846424,88.84,1
14009,0,51316,56912,51317.95,56908.95,-1.95,3.05,0.000425,-0.000361,0.846416,88.84,1
14018,0,51313,56904,51317.85,56908.85,-4.85,-4.85,0.000427,-0.000359,0.846474,88.84,1
14029,0,51315,56904,51317.8,56908.75,-2.8,-4.75,0.000428,-0.000358,0.846441,88.84,1
14039,0,51308,56903,51317.6,56908.63,-9.6,-5.63,0.000431,-0.000356,0.846885,88.83,1
14049,0,51313,56909,51317.51,56908.64,-4.51,0.36,0.000433,-0.000356,0.847009,88.82,1
14059,0,51315,56903,51317.46,56908.53,-2.46,-5.53,0.000434,-0.000354,0.846936,88.83,1
14069,0,51319,56903,51317.5,56908.42,1.5,-5.42,0.000433,-0.000352,0.846842,88.83,1
14078,0,51316,56906,51317.47,56908.37,-1.47,-2.37,0.000434,-0.000351,0.846835,88.83,1
14090,0,51310,56914,51317.32,56908.48,-7.32,5.52,0.000437,-0.000353,0.847065,88.82,1
14099,0,51316,56907,51317.3,56908.46,-1.3,-1.46,0.000437,-0.000352,0.847068,88.82,1
14109,0,51323,56911,51317.41,56908.51,5.59,2.49,0.000435,-0.000353,0.847243,88.82,1
14118,0,51323,56913,51317.53,56908.6,5.47,4.4,0.000433,-0.000355,0.847364,88.82,1
14130,0,51321,56915,51317.6,56908.73,3.4,6.27,0.000431,-0.000357,0.84729,88.82,1
14139,0,51317,56916,51317.59,56908.88,-0.59,7.12,0.000432,-0.00036,0.847099,88.82,1
14149,0,51312,56916,51317.48,56909.02,-5.48,6.98,0.000434,-0.000362,0.847114,88.82,1
14158,0,51319,56911,51317.51,56909.06,1.49,1.94,0.000433,-0.000363,0.847114,88.82,1
14170,0,51319,56923,51317.54,56909.34,1.46,13.66,0.000433,-0.000368,0.846392,88.84,1
14179,0,51325,56930,51317.69,56909.76,7.31,20.24,0.00043,-0.000375,0.845127,88.87,1
14188,0,51322,56928,51317.78,56910.12,4.22,17.88,0.000428,-0.000382,0.843972,88.9,1
14198,0,51326,56924,51317.94,56910.4,8.06,13.6,0.000425,-0.000387,0.843679,88.91,1
14209,0,51325,56926,51318.08,56910.71,6.92,15.29,0.000422,-0.000392,0.843067,88.92,1
14219,0,51322,56923,51318.16,56910.96,3.84,12.04,0.00042,-0.000396,0.842579,88.94,1
14228,0,51323,56928,51318.26,56911.3,4.74,16.7,0.000419,-0.000402,0.841591,88.96,1
14239,0,51320,56930,51318.3,56911.67,1.7,18.33,0.000418,-0.000409,0.840222,88.99,1
14248,0,51320,56934,51318.33,56912.12,1.67,21.88,0.000417,-0.000417,0.838252,89.04,1
14259,0,51325,56932,51318.46,56912.52,6.54,19.48,0.000415,-0.000424,0.83698,89.08,1
14268,0,51327,56928,51318.64,56912.83,8.36,15.17,0.000411,-0.000429,0.83653,89.09,1
14279,0,51324,56936,51318.75,56913.29,5.25,22.71,0.000409,-0.000437,0.834559,89.14,1
14288,0,51319,56928,51318.75,56913.58,0.25,14.41,0.000409,-0.000443,0.83368,89.16,1
14299,0,51322,56931,51318.82,56913.94,3.18,17.06,0.000408,-0.000449,0.832516,89.19,1
14309,0,51323,56918,51318.9,56914.02,4.1,3.98,0.000406,-0.00045,0.832576,89.19,1
14319,0,51324,56923,51319,56914.2,5,8.8,0.000404,-0.000453,0.832432,89.19,1
14328,0,51319,56926,51319,56914.44,0,11.56,0.000404,-0.000457,0.831849,89.2,1
14339,0,51314,56925,51318.91,56914.65,-4.91,10.35,0.000406,-0.000461,0.831569,89.21,1
14349,0,51327,56925,51319.07,56914.85,7.93,10.14,0.000403,-0.000465,0.831609,89.21,1
14359,0,51324,56930,51319.17,56915.16,4.83,14.84,0.000401,-0.00047,0.830808,89.23,1
14368,0,51325,56927,51319.28,56915.4,5.71,11.6,0.000399,-0.000474,0.830463,89.24,1
14380,0,51321,56933,51319.32,56915.75,1.68,17.25,0.000398,-0.000481,0.829133,89.27,1
14389,0,51320,56933,51319.33,56916.1,0.67,16.9,0.000398,-0.000487,0.82783,89.3,1
14398,0,51319,56931,51319.32,56916.4,-0.32,14.6,0.000398,-0.000492,0.826851,89.33,1
14408,0,51326,56933,51319.46,56916.73,6.54,16.27,0.000395,-0.000498,0.825983,89.35,1
14418,0,51332,56943,51319.71,56917.26,12.29,25.74,0.00039,-0.000507,0.82417,89.4,1
14429,0,51320,56937,51319.71,56917.65,0.29,19.35,0.00039,-0.000514,0.822428,89.44,1
14438,0,51319,56930,51319.7,56917.9,-0.7,12.1,0.00039,-0.000518,0.821749,89.46,1
14449,0,51319,56930,51319.68,56918.15,-0.68,11.85,0.000391,-0.000523,0.821092,89.47,1
14458,0,51323,56927,51319.75,56918.32,3.25,8.68,0.000389,-0.000526,0.820827,89.48,1
14469,0,51333,56921,51320.01,56918.37,12.98,2.63,0.000384,-0.000527,0.822271,89.44,1
14478,0,51323,56926,51320.08,56918.53,2.92,7.47,0.000383,-0.000529,0.822076,89.45,1
14489,0,51320,56929,51320.07,56918.73,-0.07,10.27,0.000383,-0.000533,0.821561,89.46,1
14498,0,51321,56920,51320.09,56918.76,0.91,1.24,0.000383,-0.000533,0.821561,89.46,1
14509,0,51326,56927,51320.21,56918.92,5.79,8.08,0.000381,-0.000536,0.821541,89.46,1
14518,0,51324,56923,51320.29,56919,3.71,4,0.000379,-0.000538,0.821587,89.46,1
14529,0,51320,56935,51320.28,56919.32,-0.28,15.68,0.000379,-0.000543,0.820341,89.49,1
14538,0,51323,56938,51320.33,56919.7,2.66,18.3,0.000378,-0.00055,0.818698,89.53,1
14548,0,51328,56940,51320.49,56920.1,7.51,19.89,0.000375,-0.000557,0.817202,89.57,1
14559,0,51327,56936,51320.62,56920.42,6.38,15.58,0.000373,-0.000563,0.81634,89.59,1
14569,0,51328,56940,51320.76,56920.82,7.23,19.18,0.00037,-0.00057,0.814938,89.63,1
14578,0,51327,56926,51320.89,56920.92,6.11,5.08,0.000367,-0.000571,0.815163,89.62,1
14587,0,51322,56932,51320.91,56921.14,1.09,10.86,0.000367,-0.000575,0.814557,89.64,1
14599,0,51320,56929,51320.89,56921.3,-0.89,7.7,0.000367,-0.000578,0.814253,89.64,1
14608,0,51330,56934,51321.08,56921.55,8.92,12.45,0.000364,-0.000583,0.814215,89.64,1
14618,0,51323,56920,51321.12,56921.52,1.88,-1.52,0.000363,-0.000582,0.814237,89.64,1
14628,0,51317,56920,51321.03,56921.49,-4.04,-1.49,0.000364,-0.000581,0.81439,89.64,1
14639,0,51318,56907,51320.98,56921.2,-2.98,-14.2,0.000366,-0.000576,0.813368,89.67,1
14648,0,51310,56892,51320.76,56920.62,-10.76,-28.62,0.00037,-0.000566,0.810043,89.75,1
14659,0,51310,56881,51320.54,56919.83,-10.54,-38.83,0.000374,-0.000552,0.802977,89.93,1
14668,0,51306,56877,51320.25,56918.98,-14.25,-41.98,0.00038,-0.000537,0.795667,90.11,1
14679,0,51303,56874,51319.91,56918.08,-16.91,-44.08,0.000386,-0.000521,0.788469,90.29,1
14689,0,51297,56868,51319.45,56917.08,-22.45,-49.08,0.000395,-0.000504,0.781365,90.47,1
14699,0,51299,56872,51319.05,56916.18,-20.05,-44.18,0.000403,-0.000488,0.775753,90.61,1
14708,0,51303,56875,51318.73,56915.35,-15.73,-40.36,0.000409,-0.000474,0.770332,90.74,1
14717,0,51305,56887,51318.45,56914.79,-13.45,-27.79,0.000415,-0.000464,0.768431,90.79,1
14729,0,51301,56896,51318.1,56914.41,-17.11,-18.41,0.000422,-0.000457,0.769725,90.76,1
14738,0,51310,56890,51317.94,56913.92,-7.95,-23.93,0.000425,-0.000448,0.767595,90.81,1
14749,0,51308,56887,51317.75,56913.39,-9.75,-26.39,0.000429,-0.000439,0.765194,90.87,1
14758,0,51309,56892,51317.57,56912.96,-8.57,-20.96,0.000432,-0.000432,0.763819,90.9,1
14769,0,51311,56905,51317.44,56912.8,-6.44,-7.8,0.000435,-0.000429,0.763947,90.9,1
14778,0,51311,56903,51317.31,56912.61,-6.31,-9.61,0.000437,-0.000425,0.763905,90.9,1
14789,0,51311,56903,51317.18,56912.42,-6.18,-9.42,0.00044,-0.000422,0.763864,90.9,1
14798,0,51309,56897,51317.02,56912.11,-8.02,-15.11,0.000443,-0.000417,0.763401,90.91,1
14809,0,51310,56914,51316.88,56912.15,-6.88,1.85,0.000445,-0.000417,0.763887,90.9,1
14818,0,51314,56907,51316.82,56912.05,-2.82,-5.05,0.000446,-0.000416,0.763842,90.9,1
14828,0,51313,56912,51316.75,56912.05,-3.75,-0.05,0.000448,-0.000416,0.763995,90.9,1
14838,0,51315,56922,51316.71,56912.25,-1.71,9.75,0.000449,-0.000419,0.76354,90.91,1
14848,0,51313,56920,51316.64,56912.41,-3.64,7.59,0.00045,-0.000422,0.763389,90.92,1
14859,0,51316,56918,51316.63,56912.52,-0.63,5.48,0.00045,-0.000424,0.763237,90.92,1
14868,0,51324,56926,51316.78,56912.79,7.22,13.21,0.000447,-0.000429,0.762897,90.93,1
14878,0,51315,56928,51316.75,56913.1,-1.75,14.9,0.000448,-0.000434,0.761751,90.96,1
14887,0,51315,56923,51316.71,56913.3,-1.71,9.7,0.000449,-0.000437,0.761282,90.97,1
14899,0,51318,56921,51316.74,56913.45,1.26,7.55,0.000448,-0.00044,0.760993,90.98,1
14908,0,51316,56921,51316.73,56913.6,-0.73,7.4,0.000448,-0.000443,0.760702,90.98,1
14918,0,51318,56921,51316.76,56913.75,1.24,7.25,0.000448,-0.000445,0.760432,90.99,1
14927,0,51314,56928,51316.7,56914.03,-2.7,13.96,0.000449,-0.00045,0.759439,91.01,1
14939,0,51317,56922,51316.71,56914.19,0.29,7.8,0.000449,-0.000453,0.759101,91.02,1
14948,0,51322,56917,51316.82,56914.25,5.18,2.75,0.000447,-0.000454,0.759381,91.02,1
14958,0,51315,56913,51316.78,56914.23,-1.79,-1.23,0.000447,-0.000454,0.759411,91.01,1
14967,0,51315,56926,51316.75,56914.46,-1.75,11.54,0.000448,-0.000458,0.758686,91.03,1
14979,0,51317,56913,51316.75,56914.44,0.25,-1.44,0.000448,-0.000457,0.758675,91.03,1
14988,0,51308,56916,51316.58,56914.47,-8.58,1.53,0.000451,-0.000458,0.759586,91.01,1
14998,0,51313,56913,51316.51,56914.44,-3.51,-1.44,0.000453,-0.000458,0.75973,91.01,1
15007,0,51316,56916,51316.5,56914.47,-0.5,1.53,0.000453,-0.000458,0.75972,91.01,1
15019,0,51315,56918,51316.47,56914.54,-1.47,3.46,0.000453,-0.000459,0.759677,91.01,1
15028,0,51310,56918,51316.34,56914.61,-6.34,3.39,0.000456,-0.000461,0.760134,91,1
15038,0,51303,56913,51316.08,56914.58,-13.08,-1.58,0.000461,-0.00046,0.762368,90.94,1
15048,0,51307,56901,51315.9,56914.31,-8.9,-13.31,0.000465,-0.000455,0.762307,90.94,1
15058,0,51311,56910,51315.8,56914.23,-4.8,-4.23,0.000466,-0.000454,0.762502,90.94,1
15068,0,51309,56918,51315.66,56914.3,-6.66,3.7,0.000469,-0.000455,0.763016,90.92,1
15079,0,51317,56913,51315.69,56914.28,1.31,-1.28,0.000469,-0.000455,0.763028,90.92,1
15088,0,51311,56918,51315.6,56914.35,-4.6,3.65,0.00047,-0.000456,0.763234,90.92,1
15098,0,51316,56918,51315.6,56914.42,0.39,3.57,0.00047,-0.000457,0.763153,90.92,1
15108,0,51320,56921,51315.69,56914.55,4.31,6.45,0.000469,-0.00046,0.763138,90.92,1
15119,0,51311,56927,51315.6,56914.8,-4.6,12.2,0.00047,-0.000464,0.762448,90.94,1
15128,0,51310,56924,51315.48,56914.99,-5.48,9.01,0.000473,-0.000467,0.762334,90.94,1
15138,0,51313,56918,51315.44,56915.05,-2.44,2.95,0.000473,-0.000468,0.762362,90.94,1
15148,0,51313,56920,51315.39,56915.15,-2.39,4.85,0.000474,-0.00047,0.762285,90.94,1
15159,0,51321,56930,51315.5,56915.45,5.5,14.55,0.000472,-0.000475,0.761268,90.97,1
15168,0,51311,56920,51315.41,56915.54,-4.41,4.46,0.000474,-0.000477,0.76142,90.96,1
15178,0,51313,56927,51315.36,56915.77,-2.36,11.23,0.000475,-0.000481,0.760622,90.98,1
15187,0,51315,56920,51315.36,56915.85,-0.36,4.14,0.000475,-0.000482,0.760503,90.99,1
15199,0,51320,56930,51315.45,56916.14,4.55,13.86,0.000473,-0.000487,0.759451,91.01,1
15208,0,51322,56922,51315.58,56916.26,6.41,5.74,0.000471,-0.000489,0.759844,91,1
15217,0,51322,56932,51315.71,56916.58,6.29,15.42,0.000468,-0.000495,0.758736,91.03,1
15228,0,51314,56934,51315.68,56916.92,-1.68,17.07,0.000469,-0.000501,0.756671,91.08,1
15238,0,51313,56937,51315.63,56917.33,-2.63,19.67,0.00047,-0.000508,0.753979,91.15,1
15248,0,51317,56928,51315.66,56917.54,1.34,10.46,0.000469,-0.000512,0.753214,91.17,1
15257,0,51322,56923,51315.79,56917.65,6.21,5.35,0.000467,-0.000514,0.753617,91.16,1
15268,0,51323,56936,51315.93,56918.02,7.07,17.98,0.000464,-0.00052,0.752034,91.2,1
15278,0,51322,56930,51316.06,56918.26,5.94,11.74,0.000461,-0.000525,0.751584,91.21,1
15288,0,51321,56926,51316.16,56918.42,4.84,7.58,0.00046,-0.000527,0.751537,91.21,1
15298,0,51321,56925,51316.26,56918.55,4.74,6.45,0.000458,-0.00053,0.751593,91.21,1
15308,0,51324,56927,51316.41,56918.72,7.59,8.28,0.000454,-0.000533,0.752024,91.2,1
15318,0,51312,56933,51316.32,56919,-4.32,14,0.000456,-0.000538,0.750841,91.23,1
15329,0,51316,56940,51316.32,56919.42,-0.32,20.57,0.000456,-0.000545,0.747603,91.31,1
15338,0,51311,56925,51316.21,56919.54,-5.21,5.46,0.000458,-0.000547,0.747837,91.3,1
15348,0,51321,56934,51316.31,56919.83,4.69,14.17,0.000456,-0.000552,0.746659,91.33,1
15357,0,51327,56934,51316.53,56920.11,10.47,13.89,0.000452,-0.000557,0.747042,91.32,1
15369,0,51324,56939,51316.68,56920.49,7.32,18.51,0.000449,-0.000564,0.745293,91.37,1
15378,0,51316,56939,51316.67,56920.86,-0.67,18.14,0.00045,-0.00057,0.742734,91.43,1
15387,0,51318,56936,51316.69,56921.16,1.3,14.84,0.000449,-0.000576,0.741045,91.47,1
15398,0,51319,56930,51316.74,56921.34,2.26,8.66,0.000448,-0.000579,0.740547,91.49,1
15408,0,51321,56930,51316.83,56921.52,4.17,8.48,0.000446,-0.000582,0.740287,91.49,1
15418,0,51315,56925,51316.79,56921.59,-1.79,3.41,0.000447,-0.000583,0.740253,91.49,1
15427,0,51320,56930,51316.85,56921.76,3.14,8.24,0.000446,-0.000586,0.739886,91.5,1
15438,0,51313,56916,51316.78,56921.65,-3.78,-5.65,0.000447,-0.000584,0.739887,91.5,1
15448,0,51317,56913,51316.78,56921.48,0.21,-8.48,0.000447,-0.000581,0.739296,91.52,1
15458,0,51311,56907,51316.67,56921.19,-5.67,-14.19,0.00045,-0.000576,0.738229,91.54,1
15467,0,51310,56902,51316.53,56920.8,-6.54,-18.8,0.000452,-0.000569,0.736099,91.6,1
15478,0,51305,56892,51316.31,56920.23,-11.31,-28.23,0.000457,-0.000559,0.731944,91.7,1
15488,0,51299,56872,51315.96,56919.27,-16.96,-47.27,0.000463,-0.000542,0.719536,92.01,1
15499,0,51300,56862,51315.65,56918.12,-15.65,-56.13,0.000469,-0.000522,0.700618,92.48,1
15508,0,51298,56864,51315.3,56917.04,-17.3,-53.04,0.000476,-0.000503,0.686521,92.84,1
