t_ms,phase,red_raw,ir_raw,red_dc,ir_dc,red_ac,ir_ac,OD_red,OD_ir,R,spo2,spo2_valid
10882,0,54984,61844,55010.85,61892.3,-26.85,-48.3,0.00223,0.003945,0.656002,93.6,1
10892,0,54988,61844,55010.4,61891.34,-22.4,-47.34,0.002238,0.003961,0.655977,93.6,1
10902,0,54989,61850,55009.97,61890.51,-20.97,-40.52,0.002246,0.003974,0.655971,93.6,1
10911,0,54987,61853,55009.51,61889.76,-22.51,-36.77,0.002254,0.003986,0.655987,93.6,1
10921,0,54991,61853,55009.14,61889.03,-18.14,-36.03,0.002261,0.003998,0.65598,93.6,1
10931,0,54990,61868,55008.76,61888.61,-18.76,-20.61,0.002268,0.004005,0.656018,93.6,1
10942,0,55000,61885,55008.58,61888.54,-8.59,-3.54,0.002271,0.004006,0.656037,93.6,1
10951,0,55004,61900,55008.49,61888.77,-4.49,11.23,0.002273,0.004002,0.656043,93.6,1
10961,0,55011,61929,55008.54,61889.57,2.46,39.43,0.002272,0.003989,0.655978,93.6,1
10971,0,55021,61932,55008.8,61890.42,12.2,41.57,0.002267,0.003975,0.655924,93.6,1
10982,0,55027,61966,55009.16,61891.94,17.84,74.06,0.002261,0.003951,0.65571,93.61,1
10991,0,55042,61982,55009.82,61893.74,32.18,88.26,0.002249,0.003922,0.655484,93.61,1
11002,0,55043,62004,55010.48,61895.94,32.52,108.05,0.002237,0.003886,0.655065,93.62,1
11012,0,55055,62022,55011.37,61898.47,43.63,123.53,0.002221,0.003846,0.654589,93.64,1
11021,0,55056,62032,55012.27,61901.14,43.73,130.86,0.002204,0.003802,0.654017,93.65,1
11032,0,55075,62056,55013.52,61904.24,61.48,151.76,0.002181,0.003752,0.653421,93.66,1
11041,0,55076,62066,55014.77,61907.48,61.23,158.52,0.002159,0.0037,0.652712,93.68,1
11052,0,55075,62084,55015.98,61911.01,59.02,172.99,0.002137,0.003643,0.651714,93.71,1
11062,0,55080,62092,55017.26,61914.63,62.74,177.37,0.002113,0.003584,0.650705,93.73,1
11071,0,55081,62092,55018.54,61918.17,62.46,173.82,0.00209,0.003527,0.649753,93.76,1
11081,0,55086,62099,55019.89,61921.79,66.11,177.21,0.002066,0.003469,0.648811,93.78,1
11091,0,55083,62092,55021.15,61925.2,61.85,166.8,0.002043,0.003414,0.647968,93.8,1
11101,0,55080,62090,55022.33,61928.5,57.67,161.5,0.002021,0.00336,0.647135,93.82,1
11111,0,55085,62095,55023.58,61931.82,61.42,163.18,0.001999,0.003307,0.646343,93.84,1
11121,0,55079,62082,55024.69,61934.83,54.31,147.17,0.001978,0.003258,0.645679,93.86,1
11131,0,55080,62083,55025.8,61937.79,54.2,145.21,0.001958,0.00321,0.645041,93.87,1
11141,0,55080,62084,55026.89,61940.72,53.11,143.28,0.001939,0.003163,0.644411,93.89,1
11152,0,55073,62084,55027.81,61943.58,45.19,140.41,0.001922,0.003117,0.643695,93.91,1
11161,0,55068,62081,55028.62,61946.33,39.38,134.66,0.001907,0.003072,0.64298,93.93,1
11170,0,55070,62080,55029.44,61949.01,40.55,130.99,0.001892,0.003029,0.64233,93.94,1
11182,0,55074,62083,55030.34,61951.69,43.66,131.31,0.001876,0.002986,0.641716,93.96,1
11191,0,55074,62081,55031.21,61954.28,42.79,126.72,0.00186,0.002944,0.641151,93.97,1
11202,0,55066,62096,55031.91,61957.12,34.09,138.88,0.001847,0.002898,0.64029,93.99,1
11211,0,55066,62090,55032.59,61959.78,33.41,130.22,0.001835,0.002855,0.639547,94.01,1
11220,0,55068,62091,55033.3,61962.4,34.7,128.6,0.001822,0.002813,0.638838,94.03,1
11232,0,55067,62085,55033.98,61964.85,33.02,120.14,0.00181,0.002774,0.638225,94.04,1
11241,0,55071,62091,55034.72,61967.38,36.28,123.62,0.001796,0.002733,0.6376,94.06,1
11251,0,55063,62100,55035.29,61970.03,27.71,129.97,0.001786,0.00269,0.636781,94.08,1
11260,0,55063,62091,55035.85,61972.45,27.15,118.55,0.001776,0.002651,0.636116,94.1,1
11271,0,55063,62101,55036.39,61975.02,26.61,125.98,0.001766,0.002609,0.635337,94.12,1
11281,0,55066,62099,55036.99,61977.5,29.01,121.5,0.001755,0.002569,0.634642,94.13,1
11290,0,55069,62103,55037.63,61980.01,31.37,122.99,0.001743,0.002529,0.633948,94.15,1
11301,0,55070,62122,55038.28,61982.85,31.72,139.14,0.001732,0.002483,0.633005,94.17,1
11311,0,55070,62128,55038.91,61985.76,31.09,142.24,0.00172,0.002436,0.631999,94.2,1
11320,0,55078,62141,55039.69,61988.86,38.31,152.14,0.001706,0.002386,0.63091,94.23,1
11331,0,55084,62145,55040.58,61991.98,43.42,153.02,0.00169,0.002336,0.629882,94.25,1
11340,0,55083,62156,55041.43,61995.26,41.57,160.73,0.001674,0.002283,0.628675,94.28,1
11352,0,55089,62171,55042.38,61998.78,46.62,172.22,0.001657,0.002226,0.627323,94.32,1
11361,0,55088,62161,55043.3,62002.03,44.7,158.97,0.00164,0.002174,0.6262,94.34,1
11370,0,55087,62179,55044.17,62005.57,42.83,173.43,0.001625,0.002117,0.624752,94.38,1
11381,0,55093,62167,55045.15,62008.8,47.85,158.2,0.001607,0.002065,0.623698,94.41,1
11390,0,55091,62174,55046.07,62012.1,44.93,161.9,0.00159,0.002011,0.622517,94.44,1
11401,0,55086,62182,55046.86,62015.5,39.14,166.5,0.001576,0.001957,0.621144,94.47,1
11411,0,55091,62173,55047.75,62018.65,43.25,154.35,0.00156,0.001906,0.620076,94.5,1
11420,0,55082,62166,55048.43,62021.6,33.57,144.4,0.001547,0.001858,0.619036,94.52,1
11430,0,55082,62160,55049.1,62024.37,32.89,135.63,0.001535,0.001814,0.618135,94.55,1
11441,0,55081,62137,55049.75,62026.62,31.25,110.37,0.001523,0.001777,0.617592,94.56,1
11451,0,55074,62120,55050.23,62028.49,23.77,91.51,0.001514,0.001747,0.617199,94.57,1
11460,0,55057,62091,55050.37,62029.74,6.63,61.26,0.001512,0.001727,0.616984,94.58,1
11471,0,55053,62065,55050.42,62030.45,2.58,34.55,0.001511,0.001716,0.616922,94.58,1
11481,0,55046,62045,55050.33,62030.74,-4.34,14.26,0.001513,0.001711,0.616926,94.58,1
11490,0,55035,62029,55050.03,62030.7,-15.03,-1.7,0.001518,0.001711,0.616986,94.58,1
11501,0,55029,62000,55049.61,62030.09,-20.61,-30.09,0.001526,0.001721,0.617032,94.57,1
11510,0,55018,61982,55048.98,62029.13,-30.98,-47.13,0.001537,0.001737,0.617108,94.57,1
11521,0,55012,61960,55048.24,62027.75,-36.24,-67.75,0.001551,0.001759,0.617105,94.57,1
11531,0,55001,61920,55047.29,62025.59,-46.29,-105.59,0.001568,0.001794,0.616845,94.58,1
11541,0,54994,61896,55046.23,62023,-52.23,-127,0.001587,0.001836,0.616378,94.59,1
11550,0,54977,61872,55044.84,62019.98,-67.84,-147.98,0.001612,0.001884,0.615942,94.6,1
11560,0,54962,61837,55043.19,62016.32,-81.19,-179.32,0.001642,0.001943,0.615259,94.62,1
11571,0,54950,61797,55041.32,62011.94,-91.32,-214.94,0.001676,0.002014,0.614021,94.65,1
11580,0,54937,61748,55039.24,62006.66,-102.24,-258.66,0.001714,0.002099,0.611876,94.7,1
11591,0,54921,61717,55036.87,62000.87,-115.87,-283.87,0.001757,0.002193,0.609528,94.76,1
11600,0,54906,61668,55034.26,61994.21,-128.26,-326.21,0.001805,0.0023,0.606216,94.84,1
11610,0,54888,61620,55031.33,61986.73,-143.34,-366.73,0.001858,0.002421,0.602122,94.95,1
11621,0,54875,61595,55028.21,61978.89,-153.21,-383.89,0.001914,0.002547,0.598033,95.05,1
11630,0,54865,61578,55024.95,61970.87,-159.95,-392.88,0.001974,0.002676,0.594158,95.15,1
11640,0,54857,61567,55021.59,61962.8,-164.59,-395.8,0.002035,0.002807,0.590644,95.23,1
11651,0,54850,61569,55018.16,61954.92,-168.16,-385.92,0.002097,0.002934,0.587979,95.3,1
11661,0,54853,61577,55014.86,61947.36,-161.86,-370.36,0.002157,0.003056,0.585658,95.36,1
11670,0,54857,61585,55011.7,61940.12,-154.7,-355.12,0.002215,0.003173,0.583569,95.41,1
11680,0,54858,61594,55008.63,61933.19,-150.63,-339.2,0.00227,0.003285,0.581898,95.45,1
11691,0,54862,61597,55005.69,61926.47,-143.7,-329.47,0.002324,0.003393,0.580214,95.49,1
11701,0,54867,61618,55002.92,61920.3,-135.92,-302.3,0.002374,0.003493,0.57905,95.52,1
11710,0,54856,61616,54999.98,61914.22,-143.98,-298.22,0.002428,0.003591,0.57849,95.54,1
11720,0,54860,61605,54997.18,61908.04,-137.18,-303.04,0.002479,0.003691,0.57741,95.56,1
11730,0,54859,61630,54994.42,61902.48,-135.42,-272.48,0.002529,0.003781,0.577172,95.57,1
11741,0,54857,61631,54991.67,61897.05,-134.68,-266.05,0.002579,0.003868,0.577077,95.57,1
11750,0,54856,61633,54988.96,61891.77,-132.96,-258.77,0.002628,0.003954,0.577092,95.57,1
11760,0,54860,61638,54986.39,61886.7,-126.39,-248.7,0.002675,0.004036,0.577035,95.57,1
11770,0,54861,61645,54983.88,61881.86,-122.88,-236.86,0.00272,0.004114,0.577104,95.57,1
11780,0,54865,61665,54981.5,61877.53,-116.5,-212.53,0.002764,0.004184,0.577438,95.56,1
11791,0,54871,61693,54979.3,61873.83,-108.3,-180.84,0.002804,0.004244,0.578056,95.55,1
11800,0,54877,61719,54977.25,61870.74,-100.25,-151.74,0.002841,0.004294,0.578846,95.53,1
11810,0,54881,61738,54975.33,61868.08,-94.33,-130.09,0.002876,0.004336,0.57973,95.51,1
11821,0,54890,61778,54973.62,61866.28,-83.62,-88.29,0.002907,0.004366,0.580722,95.48,1
11830,0,54905,61811,54972.25,61865.18,-67.25,-54.18,0.002932,0.004383,0.581482,95.46,1
11840,0,54915,61837,54971.11,61864.62,-56.11,-27.62,0.002953,0.004393,0.582086,95.45,1
11849,0,54931,61872,54970.31,61864.76,-39.31,7.23,0.002967,0.00439,0.582404,95.44,1
11860,0,54935,61890,54969.6,61865.27,-34.6,24.73,0.00298,0.004382,0.582622,95.43,1
11870,0,54947,61921,54969.15,61866.39,-22.15,54.61,0.002988,0.004364,0.582559,95.44,1
11881,0,54964,61946,54969.05,61867.98,-5.05,78.02,0.00299,0.004338,0.582221,95.44,1
11890,0,54967,61958,54969.01,61869.78,-2.01,88.21,0.002991,0.004309,0.581778,95.46,1
11900,0,54974,61982,54969.11,61872.03,4.89,109.97,0.002989,0.004273,0.581088,95.47,1
11910,0,54970,61989,54969.13,61874.37,0.87,114.62,0.002989,0.004235,0.580327,95.49,1
11919,0,54972,62001,54969.19,61876.91,2.81,124.09,0.002988,0.004194,0.579432,95.51,1
11930,0,54984,62007,54969.48,61879.51,14.52,127.48,0.002982,0.004152,0.578527,95.54,1
11939,0,54975,62011,54969.6,61882.14,5.4,128.86,0.00298,0.004109,0.577556,95.56,1
11951,0,54978,62021,54969.76,61884.92,8.23,136.08,0.002977,0.004064,0.576476,95.59,1
11960,0,54983,62020,54970.03,61887.62,12.97,132.38,0.002972,0.004021,0.575474,95.61,1
11970,0,54986,62025,54970.35,61890.37,15.65,134.63,0.002967,0.003976,0.574449,95.64,1
11980,0,54983,62025,54970.6,61893.07,12.39,131.93,0.002962,0.003933,0.573441,95.66,1
11990,0,54983,62035,54970.85,61895.91,12.14,139.09,0.002957,0.003887,0.572311,95.69,1
12000,0,54983,62030,54971.1,61898.59,11.9,131.41,0.002953,0.003843,0.571301,95.72,1
12010,0,54977,62029,54971.21,61901.2,5.79,127.8,0.002951,0.003801,0.570318,95.74,1
12020,0,54983,62037,54971.45,61903.92,11.55,133.08,0.002946,0.003757,0.56927,95.77,1
12029,0,54985,62037,54971.72,61906.58,13.28,130.42,0.002942,0.003714,0.568271,95.79,1
12041,0,54984,62049,54971.97,61909.43,12.03,139.57,0.002937,0.003668,0.567108,95.82,1
12050,0,54989,62049,54972.31,61912.22,16.69,136.78,0.002931,0.003623,0.566021,95.85,1
12059,0,54986,62053,54972.58,61915.04,13.41,137.96,0.002926,0.003578,0.564885,95.88,1
12070,0,54988,62063,54972.9,61918,15.1,145,0.00292,0.00353,0.563634,95.91,1
12080,0,54999,62078,54973.42,61921.2,25.58,156.8,0.002911,0.003478,0.562263,95.94,1
12090,0,55000,62098,54973.95,61924.74,26.05,173.26,0.002901,0.003421,0.560556,95.99,1
12100,0,55003,62117,54974.53,61928.58,28.46,188.41,0.00289,0.003359,0.558542,96.04,1
12109,0,55009,62135,54975.23,61932.71,33.77,202.29,0.002878,0.003292,0.55628,96.09,1
12121,0,55020,62164,54976.12,61937.34,43.88,226.66,0.002862,0.003218,0.553581,96.16,1
12130,0,55039,62184,54977.38,61942.28,61.62,241.72,0.002839,0.003138,0.55095,96.23,1
12139,0,55040,62215,54978.64,61947.73,61.36,267.27,0.002816,0.00305,0.547553,96.31,1
12150,0,55051,62230,54980.08,61953.38,70.91,276.62,0.002789,0.002959,0.544227,96.39,1
12160,0,55049,62248,54981.46,61959.28,67.54,288.72,0.002764,0.002864,0.540436,96.49,1
12170,0,55067,62261,54983.17,61965.31,83.82,295.69,0.002733,0.002766,0.537111,96.57,1
12180,0,55068,62286,54984.87,61971.73,83.13,314.27,0.002702,0.002663,0.533183,96.67,1
12189,0,55074,62306,54986.66,61978.41,87.34,327.59,0.00267,0.002555,0.529056,96.77,1
12199,0,55076,62312,54988.44,61985.08,87.55,326.91,0.002637,0.002447,0.525076,96.87,1
12210,0,55079,62321,54990.25,61991.8,88.75,329.2,0.002605,0.002339,0.521175,96.97,1
12220,0,55096,62343,54992.37,61998.83,103.63,344.17,0.002566,0.002225,0.517561,97.06,1
12229,0,55102,62355,54994.56,62005.95,107.44,349.05,0.002526,0.002111,0.514084,97.15,1
12239,0,55101,62367,54996.69,62013.17,104.31,353.82,0.002488,0.001994,0.510386,97.24,1
12250,0,55108,62381,54998.91,62020.53,109.09,360.46,0.002447,0.001875,0.506821,97.33,1
12260,0,55111,62383,55001.16,62027.78,109.84,355.21,0.002406,0.001759,0.503594,97.41,1
12269,0,55112,62395,55003.37,62035.13,108.63,359.87,0.002366,0.00164,0.500249,97.49,1
12279,0,55116,62395,55005.62,62042.32,110.37,352.68,0.002325,0.001524,0.497338,97.57,1
12290,0,55112,62391,55007.75,62049.3,104.25,341.7,0.002286,0.001412,0.494553,97.64,1
12300,0,55116,62408,55009.92,62056.48,106.08,351.52,0.002247,0.001296,0.491629,97.71,1
12310,0,55111,62404,55011.94,62063.42,99.06,340.57,0.00221,0.001184,0.488787,97.78,1
12319,0,55113,62389,55013.96,62069.94,99.04,319.06,0.002174,0.001079,0.486631,97.83,1
12329,0,55114,62376,55015.96,62076.06,98.04,299.94,0.002137,0.000981,0.484982,97.88,1
12340,0,55110,62363,55017.85,62081.8,92.15,281.2,0.002103,0.000888,0.483569,97.91,1
12349,0,55096,62350,55019.41,62087.17,76.59,262.83,0.002074,0.000802,0.481994,97.95,1
12359,0,55089,62322,55020.81,62091.87,68.19,230.13,0.002049,0.000726,0.480835,97.98,1
12368,0,55091,62300,55022.21,62096.03,68.79,203.97,0.002023,0.000659,0.480183,98,1
12380,0,55080,62279,55023.37,62099.69,56.63,179.31,0.002002,0.0006,0.479577,98.01,1
12389,0,55072,62257,55024.35,62102.84,47.65,154.16,0.001985,0.000549,0.479108,98.02,1
12400,0,55060,62242,55025.07,62105.62,34.93,136.38,0.001972,0.000504,0.478611,98.03,1
12409,0,55048,62213,55025.53,62107.78,22.47,105.22,0.001963,0.00047,0.478265,98.04,1
12419,0,55041,62203,55025.84,62109.68,15.16,93.32,0.001958,0.000439,0.477953,98.05,1
12430,0,55042,62177,55026.16,62111.03,15.84,65.97,0.001952,0.000417,0.477835,98.05,1
12439,0,55038,62173,55026.4,62112.27,11.6,60.73,0.001947,0.000397,0.477716,98.06,1
12449,0,55028,62157,55026.43,62113.16,1.57,43.84,0.001947,0.000383,0.477643,98.06,1
12459,0,55031,62140,55026.53,62113.7,4.47,26.3,0.001945,0.000374,0.477628,98.06,1
12470,0,55020,62140,55026.39,62114.23,-6.39,25.77,0.001948,0.000366,0.47762,98.06,1
12479,0,55024,62122,55026.35,62114.39,-2.35,7.61,0.001948,0.000363,0.47763,98.06,1
12489,0,55015,62114,55026.12,62114.38,-11.12,-0.38,0.001952,0.000363,0.477674,98.06,1
12498,0,55012,62104,55025.84,62114.17,-13.84,-10.18,0.001958,0.000367,0.47773,98.06,1
12510,0,55003,62098,55025.38,62113.85,-22.38,-15.86,0.001966,0.000372,0.477862,98.05,1
12519,0,55004,62076,55024.95,62113.1,-20.95,-37.1,0.001974,0.000384,0.477925,98.05,1
12530,0,55002,62058,55024.5,62112,-22.5,-54,0.001982,0.000402,0.47793,98.05,1
12539,0,54998,62053,55023.97,62110.82,-25.97,-57.82,0.001992,0.000421,0.477961,98.05,1
12549,0,54986,62044,55023.21,62109.48,-37.21,-65.48,0.002005,0.000442,0.47814,98.05,1
12559,0,54987,62026,55022.48,62107.81,-35.48,-81.81,0.002019,0.000469,0.478165,98.05,1
12568,0,54987,62020,55021.77,62106.05,-34.77,-86.05,0.002031,0.000497,0.47814,98.05,1
12579,0,54978,62012,55020.9,62104.17,-42.9,-92.17,0.002047,0.000528,0.478238,98.04,1
12589,0,54979,62005,55020.06,62102.19,-41.06,-97.19,0.002063,0.00056,0.478243,98.04,1
12600,0,54980,62006,55019.26,62100.27,-39.26,-94.27,0.002077,0.000591,0.478235,98.04,1
12609,0,54973,62005,55018.34,62098.37,-45.34,-93.37,0.002094,0.000621,0.478385,98.04,1
12619,0,54980,62001,55017.57,62096.42,-37.57,-95.42,0.002108,0.000653,0.478327,98.04,1
12628,0,54983,62007,55016.88,62094.64,-33.88,-87.64,0.00212,0.000681,0.478267,98.04,1
12639,0,54991,62020,55016.37,62093.14,-25.37,-73.14,0.00213,0.000705,0.478182,98.05,1
12649,0,54994,62023,55015.92,62091.74,-21.92,-68.74,0.002138,0.000728,0.47808,98.05,1
12658,0,54989,62020,55015.38,62090.31,-26.38,-70.31,0.002148,0.000751,0.47803,98.05,1
12669,0,54993,62026,55014.94,62089.02,-21.94,-63.02,0.002156,0.000772,0.477968,98.05,1
12679,0,54992,62027,55014.48,62087.78,-22.48,-60.79,0.002164,0.000792,0.477927,98.05,1
12689,0,55004,62044,55014.27,62086.91,-10.27,-42.91,0.002168,0.000806,0.477866,98.05,1
12699,0,55004,62045,55014.06,62086.07,-10.06,-41.07,0.002172,0.000819,0.477811,98.05,1
12709,0,55004,62061,55013.86,62085.57,-9.86,-24.57,0.002175,0.000827,0.477816,98.05,1
12719,0,55012,62061,55013.82,62085.08,-1.82,-24.08,0.002176,0.000835,0.477791,98.06,1
12728,0,55015,62065,55013.85,62084.68,1.15,-19.68,0.002176,0.000842,0.477777,98.06,1
12739,0,55016,62057,55013.89,62084.13,2.11,-27.13,0.002175,0.000851,0.477744,98.06,1
12748,0,55014,62062,55013.89,62083.69,0.11,-21.69,0.002175,0.000858,0.477723,98.06,1
12759,0,55009,62066,55013.8,62083.33,-4.8,-17.34,0.002177,0.000863,0.477721,98.06,1
12768,0,55016,62062,55013.84,62082.91,2.16,-20.91,0.002176,0.00087,0.477703,98.06,1
12779,0,55024,62066,55014.05,62082.57,9.95,-16.57,0.002172,0.000876,0.477728,98.06,1
12788,0,55023,62072,55014.23,62082.37,8.77,-10.37,0.002169,0.000879,0.477755,98.06,1
12798,0,55025,62090,55014.44,62082.52,10.56,7.48,0.002165,0.000876,0.477797,98.06,1
12809,0,55023,62098,55014.61,62082.83,8.39,15.16,0.002162,0.000871,0.477814,98.05,1
12819,0,55032,62119,55014.96,62083.56,17.04,35.44,0.002155,0.00086,0.477844,98.05,1
12828,0,55041,62132,55015.48,62084.53,25.52,47.47,0.002146,0.000844,0.477939,98.05,1
12839,0,55048,62161,55016.14,62086.06,31.86,74.94,0.002134,0.000819,0.477947,98.05,1
12849,0,55056,62170,55016.94,62087.74,39.06,82.26,0.002119,0.000792,0.478066,98.05,1
12859,0,55060,62195,55017.8,62089.88,42.2,105.12,0.002104,0.000758,0.477997,98.05,1
12868,0,55067,62207,55018.78,62092.23,48.21,114.77,0.002086,0.00072,0.477988,98.05,1
12878,0,55071,62226,55019.83,62094.9,51.17,131.1,0.002067,0.000677,0.47782,98.05,1
12889,0,55079,62236,55021.01,62097.72,57.99,138.28,0.002045,0.000632,0.4778,98.06,1
12898,0,55075,62242,55022.09,62100.61,52.91,141.39,0.002026,0.000585,0.477511,98.06,1
12909,0,55093,62249,55023.51,62103.58,69.49,145.42,0.002,0.000537,0.477904,98.05,1
12918,0,55086,62252,55024.76,62106.55,61.24,145.45,0.001977,0.00049,0.477891,98.05,1
12930,0,55092,62271,55026.1,62109.83,65.89,161.16,0.001953,0.000437,0.477775,98.06,1
12939,0,55087,62262,55027.32,62112.88,59.68,149.12,0.001931,0.000388,0.477618,98.06,1
12948,0,55082,62269,55028.42,62116,53.58,153,0.001911,0.000337,0.47712,98.07,1
12959,0,55081,62270,55029.47,62119.08,51.53,150.92,0.001892,0.000288,0.476583,98.09,1
12968,0,55092,62267,55030.72,62122.04,61.28,144.96,0.001869,0.00024,0.47659,98.09,1
12979,0,55088,62275,55031.87,62125.1,56.13,149.9,0.001848,0.000191,0.476264,98.09,1
12988,0,55087,62277,55032.97,62128.14,54.03,148.86,0.001828,0.000142,0.475871,98.1,1
12998,0,55082,62277,55033.95,62131.11,48.05,145.89,0.00181,0.000094,0.475303,98.12,1
13008,0,55083,62286,55034.93,62134.21,48.07,151.79,0.001792,0.000044,0.474614,98.13,1
13018,0,55091,62287,55036.05,62137.26,54.95,149.73,0.001772,-0.000005,0.474248,98.14,1
13029,0,55093,62294,55037.19,62140.4,55.8,153.6,0.001751,-0.000055,0.473838,98.15,1
13038,0,55093,62296,55038.31,62143.51,54.69,152.48,0.001731,-0.000105,0.473405,98.16,1
13047,0,55096,62308,55039.47,62146.81,56.53,161.19,0.00171,-0.000159,0.472863,98.18,1
13059,0,55094,62316,55040.56,62150.19,53.44,165.8,0.00169,-0.000213,0.472084,98.2,1
13068,0,55102,62321,55041.79,62153.61,60.21,167.39,0.001668,-0.000268,0.471578,98.21,1
13079,0,55112,62346,55043.19,62157.46,68.81,188.54,0.001642,-0.00033,0.470993,98.23,1
13088,0,55114,62356,55044.61,62161.43,69.39,194.57,0.001617,-0.000394,0.470286,98.24,1
13097,0,55121,62376,55046.14,62165.73,74.86,210.27,0.001589,-0.000463,0.469461,98.26,1
13109,0,55126,62395,55047.74,62170.31,78.26,224.69,0.00156,-0.000537,0.468425,98.29,1
13118,0,55129,62424,55049.36,62175.39,79.64,248.61,0.00153,-0.000618,0.466722,98.33,1
13129,0,55146,62460,55051.3,62181.08,94.7,278.92,0.001495,-0.00071,0.465021,98.37,1
13138,0,55166,62490,55053.59,62187.26,112.41,302.74,0.001453,-0.000809,0.463886,98.4,1
13148,0,55171,62525,55055.94,62194.01,115.05,330.98,0.001411,-0.000918,0.461877,98.45,1
13159,0,55183,62549,55058.49,62201.12,124.51,347.88,0.001364,-0.001032,0.460094,98.5,1
13168,0,55190,62570,55061.12,62208.5,128.88,361.5,0.001317,-0.001151,0.458222,98.54,1
13177,0,55206,62604,55064.02,62216.41,141.98,387.59,0.001264,-0.001278,0.456574,98.59,1
13189,0,55215,62635,55067.04,62224.78,147.96,410.22,0.001209,-0.001412,0.454611,98.63,1
13198,0,55223,62650,55070.16,62233.28,152.84,416.72,0.001152,-0.001549,0.452984,98.68,1
13209,0,55221,62666,55073.18,62241.94,147.82,424.06,0.001098,-0.001688,0.45065,98.73,1
13218,0,55227,62676,55076.26,62250.62,150.74,425.38,0.001042,-0.001828,0.448694,98.78,1
13228,0,55240,62681,55079.53,62259.23,160.46,421.77,0.000982,-0.001966,0.447955,98.8,1
13239,0,55238,62682,55082.71,62267.69,155.29,414.31,0.000925,-0.002102,0.447068,98.82,1
13248,0,55241,62681,55085.87,62275.96,155.13,405.04,0.000867,-0.002234,0.446571,98.84,1
13257,0,55235,62678,55088.86,62284,146.14,394,0.000813,-0.002364,0.445718,98.86,1
13268,0,55233,62672,55091.74,62291.76,141.26,380.24,0.000761,-0.002488,0.444981,98.88,1
13278,0,55239,62657,55094.69,62299.07,144.31,357.93,0.000707,-0.002605,0.445239,98.87,1
13289,0,55232,62654,55097.44,62306.16,134.56,347.84,0.000657,-0.002719,0.445044,98.87,1
13298,0,55230,62642,55100.09,62312.88,129.91,329.12,0.000609,-0.002827,0.445059,98.87,1
13307,0,55222,62625,55102.53,62319.12,119.47,305.88,0.000565,-0.002927,0.444991,98.88,1
13319,0,55222,62606,55104.92,62324.86,117.08,281.14,0.000521,-0.00302,0.445383,98.87,1
13328,0,55223,62584,55107.28,62330.05,115.71,253.95,0.000479,-0.003103,0.446292,98.84,1
13337,0,55219,62566,55109.52,62334.76,109.48,231.23,0.000438,-0.003178,0.447275,98.82,1
13348,0,55210,62529,55111.53,62338.65,98.47,190.35,0.000402,-0.003241,0.448362,98.79,1
13358,0,55194,62493,55113.18,62341.73,80.82,151.27,0.000372,-0.00329,0.449161,98.77,1
13369,0,55180,62472,55114.52,62344.34,65.48,127.66,0.000347,-0.003332,0.449635,98.76,1
13378,0,55180,62434,55115.83,62346.14,64.17,87.86,0.000323,-0.003361,0.450437,98.74,1
13387,0,55163,62417,55116.78,62347.55,46.22,69.45,0.000306,-0.003384,0.450826,98.73,1
13398,0,55149,62391,55117.42,62348.42,31.58,42.57,0.000295,-0.003398,0.451035,98.72,1
13408,0,55141,62356,55117.89,62348.58,23.11,7.42,0.000286,-0.0034,0.451194,98.72,1
13418,0,55133,62341,55118.2,62348.43,14.8,-7.43,0.000281,-0.003398,0.451265,98.72,1
13427,0,55128,62317,55118.39,62347.8,9.61,-30.8,0.000277,-0.003387,0.45126,98.72,1
13438,0,55119,62299,55118.41,62346.83,0.59,-47.83,0.000277,-0.003372,0.451166,98.72,1
13448,0,55103,62285,55118.1,62345.59,-15.1,-60.59,0.000282,-0.003352,0.451073,98.72,1
13458,0,55093,62279,55117.6,62344.26,-24.6,-65.26,0.000291,-0.003331,0.451062,98.72,1
13467,0,55094,62278,55117.12,62342.94,-23.12,-64.94,0.0003,-0.003309,0.451032,98.72,1
13477,0,55105,62300,55116.89,62342.08,-11.89,-42.08,0.000304,-0.003296,0.451,98.73,1
13488,0,55115,62317,55116.85,62341.58,-1.85,-24.58,0.000305,-0.003288,0.450983,98.73,1
13497,0,55114,62336,55116.8,62341.46,-2.8,-5.46,0.000306,-0.003286,0.450994,98.73,1
13508,0,55128,62355,55117.02,62341.74,10.98,13.26,0.000302,-0.00329,0.451033,98.72,1
13517,0,55127,62364,55117.22,62342.19,9.78,21.81,0.000298,-0.003297,0.45105,98.72,1
13528,0,55133,62364,55117.53,62342.62,15.46,21.37,0.000293,-0.003304,0.451113,98.72,1
13537,0,55133,62370,55117.84,62343.17,15.16,26.83,0.000287,-0.003313,0.451159,98.72,1
13548,0,55136,62377,55118.21,62343.85,17.79,33.15,0.00028,-0.003324,0.451215,98.72,1
13557,0,55131,62386,55118.46,62344.69,12.54,41.31,0.000276,-0.003338,0.451187,98.72,1
13568,0,55135,62409,55118.8,62345.98,16.2,63.02,0.00027,-0.003358,0.451076,98.72,1
13578,0,55154,62419,55119.5,62347.44,34.5,71.56,0.000257,-0.003382,0.451209,98.72,1
13587,0,55164,62439,55120.39,62349.27,43.61,89.73,0.000241,-0.003411,0.451424,98.71,1
13597,0,55178,62447,55121.54,62351.23,56.46,95.77,0.00022,-0.003442,0.452011,98.7,1
13607,0,55182,62463,55122.75,62353.46,59.25,109.54,0.000198,-0.003478,0.452556,98.69,1
13618,0,55184,62487,55123.98,62356.14,60.02,130.86,0.000176,-0.003521,0.452854,98.68,1
13627,0,55186,62482,55125.22,62358.66,60.78,123.34,0.000153,-0.003562,0.453289,98.67,1
13638,0,55198,62496,55126.67,62361.41,71.32,134.59,0.000127,-0.003606,0.454041,98.65,1
13647,0,55203,62492,55128.2,62364.02,74.8,127.98,0.000099,-0.003648,0.455064,98.62,1
13657,0,55188,62492,55129.4,62366.58,58.6,125.42,0.000077,-0.003689,0.455378,98.62,1
13668,0,55195,62505,55130.71,62369.35,64.29,135.65,0.000053,-0.003733,0.455783,98.61,1
13677,0,55199,62486,55132.08,62371.68,66.92,114.32,0.000029,-0.003771,0.456613,98.58,1
13686,0,55205,62492,55133.54,62374.09,71.46,117.91,0.000002,-0.003809,0.457616,98.56,1
13698,0,55201,62474,55134.89,62376.09,66.11,97.91,-0.000022,-0.003841,0.458612,98.53,1
13707,0,55195,62464,55136.1,62377.85,58.9,86.15,-0.000044,-0.003869,0.459419,98.51,1
13718,0,55190,62454,55137.17,62379.37,52.82,74.62,-0.000064,-0.003894,0.460097,98.5,1
13727,0,55194,62431,55138.31,62380.41,55.69,50.59,-0.000084,-0.00391,0.46107,98.47,1
13737,0,55187,62422,55139.28,62381.25,47.71,40.75,-0.000102,-0.003924,0.461806,98.45,1
13747,0,55180,62421,55140.1,62382.04,39.9,38.96,-0.000117,-0.003937,0.462305,98.44,1
13758,0,55180,62432,55140.9,62383.04,39.1,48.96,-0.000131,-0.003953,0.462731,98.43,1
13767,0,55190,62444,55141.89,62384.26,48.11,59.74,-0.000149,-0.003972,0.463378,98.42,1
13776,0,55199,62464,55143.03,62385.85,55.97,78.14,-0.00017,-0.003998,0.464176,98.4,1
13788,0,55209,62491,55144.35,62387.96,64.65,103.04,-0.000194,-0.004031,0.465084,98.37,1
13797,0,55212,62515,55145.7,62390.5,66.3,124.5,-0.000218,-0.004072,0.465761,98.36,1
13807,0,55224,62539,55147.27,62393.48,76.73,145.52,-0.000247,-0.00412,0.466637,98.33,1
13817,0,55229,62556,55148.9,62396.73,80.1,159.27,-0.000276,-0.004172,0.467437,98.31,1
13827,0,55238,62575,55150.69,62400.3,87.31,174.7,-0.000309,-0.004229,0.468355,98.29,1
13837,0,55251,62598,55152.69,62404.25,98.3,193.75,-0.000345,-0.004293,0.469578,98.26,1
13847,0,55242,62606,55154.48,62408.29,87.52,197.71,-0.000377,-0.004357,0.469928,98.25,1
13857,0,55248,62641,55156.35,62412.95,91.65,228.05,-0.000411,-0.004432,0.46971,98.26,1
13867,0,55253,62651,55158.28,62417.71,94.71,233.29,-0.000446,-0.004508,0.469553,98.26,1
13877,0,55254,62647,55160.2,62422.3,93.8,224.7,-0.000481,-0.004582,0.469589,98.26,1
13887,0,55252,62656,55162.03,62426.98,89.96,229.02,-0.000514,-0.004657,0.469237,98.27,1
13896,0,55252,62650,55163.83,62431.44,88.16,218.56,-0.000547,-0.004728,0.469071,98.27,1
13907,0,55244,62647,55165.44,62435.75,78.56,211.25,-0.000576,-0.004797,0.468517,98.29,1
13917,0,55241,62644,55166.95,62439.91,74.05,204.09,-0.000603,-0.004864,0.467904,98.3,1
13926,0,55243,62650,55168.47,62444.12,74.53,205.88,-0.000631,-0.004931,0.467278,98.32,1
13937,0,55244,62659,55169.98,62448.41,74.02,210.59,-0.000659,-0.005,0.466508,98.34,1
13946,0,55248,62660,55171.54,62452.64,76.46,207.36,-0.000687,-0.005068,0.465968,98.35,1
13958,0,55250,62673,55173.11,62457.05,76.89,215.95,-0.000715,-0.005138,0.465231,98.37,1
13967,0,55252,62687,55174.69,62461.65,77.31,225.35,-0.000744,-0.005212,0.464269,98.39,1
13976,0,55261,62702,55176.42,62466.46,84.58,235.54,-0.000775,-0.005289,0.463465,98.41,1
13987,0,55260,62716,55178.09,62471.45,81.91,244.55,-0.000805,-0.005369,0.462246,98.44,1
13997,0,55259,62721,55179.71,62476.44,79.29,244.55,-0.000835,-0.005449,0.460897,98.48,1
14008,0,55268,62753,55181.47,62481.98,86.53,271.02,-0.000867,-0.005537,0.459188,98.52,1
14017,0,55271,62762,55183.26,62487.58,87.73,274.42,-0.000899,-0.005627,0.457488,98.56,1
14026,0,55272,62775,55185.04,62493.33,86.96,281.67,-0.000931,-0.005719,0.455546,98.61,1
14038,0,55284,62782,55187.02,62499.1,96.98,282.9,-0.000967,-0.005811,0.454273,98.64,1
14047,0,55275,62785,55188.78,62504.82,86.21,280.18,-0.000999,-0.005903,0.452425,98.69,1
14057,0,55264,62790,55190.29,62510.53,73.71,279.47,-0.001027,-0.005994,0.449941,98.75,1
14067,0,55274,62795,55191.97,62516.21,82.03,278.79,-0.001057,-0.006085,0.447991,98.8,1
14076,0,55272,62789,55193.57,62521.67,78.43,267.33,-0.001086,-0.006172,0.446227,98.84,1
14087,0,55272,62798,55195.14,62527.2,76.86,270.8,-0.001114,-0.006261,0.444315,98.89,1
14097,0,55273,62786,55196.7,62532.37,76.3,253.63,-0.001143,-0.006343,0.442894,98.93,1
14107,0,55264,62760,55198.05,62536.93,65.95,223.07,-0.001167,-0.006416,0.441761,98.96,1
14116,0,55252,62737,55199.12,62540.93,52.88,196.07,-0.001187,-0.00648,0.440698,98.98,1
14127,0,55240,62698,55199.94,62544.07,40.05,153.93,-0.001202,-0.006531,0.440009,99,1
14137,0,55226,62664,55200.47,62546.48,25.53,117.52,-0.001211,-0.006569,0.43951,99.01,1
14146,0,55209,62626,55200.64,62548.07,8.36,77.93,-0.001214,-0.006594,0.439219,99.02,1
14157,0,55195,62592,55200.53,62548.94,-5.53,43.05,-0.001212,-0.006608,0.439141,99.02,1
14167,0,55183,62556,55200.18,62549.09,-17.18,6.91,-0.001206,-0.006611,0.439257,99.02,1
14176,0,55165,62522,55199.48,62548.55,-34.48,-26.55,-0.001193,-0.006602,0.439667,99.01,1
14187,0,55152,62484,55198.53,62547.26,-46.53,-63.26,-0.001176,-0.006582,0.440257,98.99,1
14196,0,55137,62453,55197.3,62545.37,-60.3,-92.37,-0.001154,-0.006551,0.441142,98.97,1
14206,0,55121,62409,55195.77,62542.65,-74.77,-133.65,-0.001126,-0.006508,0.442227,98.94,1
14217,0,55105,62362,55193.96,62539.03,-88.96,-177.04,-0.001093,-0.00645,0.443404,98.91,1
14227,0,55087,62318,55191.82,62534.61,-104.82,-216.61,-0.001054,-0.006379,0.444817,98.88,1
14236,0,55078,62257,55189.54,62529.06,-111.54,-272.06,-0.001013,-0.006291,0.445187,98.87,1
14246,0,55062,62220,55186.99,62522.88,-124.99,-302.88,-0.000967,-0.006192,0.445703,98.86,1
14257,0,55051,62189,55184.27,62516.21,-133.27,-327.21,-0.000917,-0.006085,0.446111,98.85,1
14267,0,55041,62177,55181.41,62509.42,-140.41,-332.42,-0.000866,-0.005976,0.446996,98.83,1
14276,0,55049,62186,55178.76,62502.95,-129.76,-316.95,-0.000818,-0.005873,0.447394,98.82,1
14286,0,55064,62252,55176.47,62497.93,-112.47,-245.93,-0.000776,-0.005793,0.44849,98.79,1
14297,0,55084,62318,55174.62,62494.33,-90.62,-176.34,-0.000743,-0.005735,0.449634,98.76,1
14306,0,55115,62393,55173.43,62492.31,-58.43,-99.31,-0.000721,-0.005703,0.450281,98.74,1
14317,0,55145,62444,55172.86,62491.34,-27.86,-47.34,-0.000711,-0.005687,0.450435,98.74,1
14326,0,55166,62498,55172.72,62491.48,-6.72,6.52,-0.000708,-0.005689,0.450457,98.74,1
14337,0,55180,62541,55172.87,62492.47,7.13,48.53,-0.000711,-0.005705,0.450351,98.74,1
14346,0,55191,62562,55173.23,62493.86,17.77,68.14,-0.000718,-0.005727,0.450209,98.74,1
14357,0,55197,62590,55173.71,62495.79,23.29,94.21,-0.000726,-0.005758,0.449906,98.75,1
14366,0,55196,62600,55174.16,62497.87,21.84,102.12,-0.000734,-0.005792,0.449488,98.76,1
14376,0,55210,62619,55174.87,62500.3,35.13,118.7,-0.000747,-0.00583,0.449133,98.77,1
14387,0,55215,62622,55175.68,62502.73,39.32,119.27,-0.000762,-0.005869,0.448884,98.78,1
14396,0,55203,62614,55176.23,62504.96,26.77,109.04,-0.000772,-0.005905,0.448463,98.79,1
14406,0,55200,62604,55176.7,62506.94,23.3,97.06,-0.00078,-0.005937,0.44812,98.8,1
14416,0,55190,62577,55176.97,62508.34,13.03,68.66,-0.000785,-0.005959,0.447913,98.8,1
14427,0,55186,62552,55177.15,62509.22,8.85,42.78,-0.000788,-0.005973,0.447841,98.8,1
14436,0,55172,62520,55177.05,62509.43,-5.05,10.57,-0.000787,-0.005977,0.447853,98.8,1
14447,0,55151,62499,55176.53,62509.23,-25.53,-10.23,-0.000777,-0.005973,0.448109,98.8,1
14456,0,55146,62482,55175.92,62508.68,-29.92,-26.68,-0.000766,-0.005965,0.448425,98.79,1
14466,0,55138,62477,55175.17,62508.05,-37.17,-31.05,-0.000753,-0.005954,0.448921,98.78,1
14476,0,55144,62468,55174.54,62507.25,-30.54,-39.25,-0.000741,-0.005942,0.449205,98.77,1
14486,0,55149,62483,55174.03,62506.76,-25.04,-23.77,-0.000732,-0.005934,0.44943,98.76,1
14496,0,55143,62496,55173.41,62506.55,-30.41,-10.55,-0.000721,-0.00593,0.449808,98.75,1
14505,0,55158,62519,55173.1,62506.8,-15.11,12.2,-0.000715,-0.005934,0.449901,98.75,1
14517,0,55165,62560,55172.94,62507.87,-7.95,52.13,-0.000712,-0.005952,0.449756,98.76,1
14526,0,55193,62587,55173.35,62509.45,19.65,77.55,-0.00072,-0.005977,0.449527,98.76,1
14536,0,55209,62623,55174.06,62511.72,34.94,111.28,-0.000733,-0.006013,0.449225,98.77,1
14546,0,55218,62653,55174.94,62514.55,43.06,138.45,-0.000748,-0.006058,0.448736,98.78,1
14556,0,55217,62665,55175.78,62517.56,41.21,147.44,-0.000764,-0.006107,0.44801,98.8,1
14566,0,55210,62665,55176.47,62520.51,33.53,144.49,-0.000776,-0.006154,0.447096,98.82,1
14576,0,55217,62663,55177.28,62523.36,39.72,139.64,-0.000791,-0.006199,0.44647,98.84,1
14586,0,55209,62653,55177.92,62525.95,31.08,127.05,-0.000802,-0.006241,0.445806,98.85,1
14596,0,55192,62629,55178.2,62528.01,13.8,100.99,-0.000807,-0.006274,0.445204,98.87,1
14606,0,55173,62599,55178.1,62529.43,-5.1,69.57,-0.000806,-0.006296,0.444892,98.88,1
14616,0,55150,62554,55177.53,62529.92,-27.54,24.07,-0.000795,-0.006304,0.445199,98.87,1
14625,0,55126,62526,55176.5,62529.85,-50.5,-3.85,-0.000777,-0.006303,0.446355,98.84,1
14637,0,55114,62485,55175.26,62528.95,-61.26,-43.95,-0.000754,-0.006289,0.447927,98.8,1
14646,0,55099,62449,55173.73,62527.35,-74.73,-78.35,-0.000727,-0.006263,0.450039,98.75,1
14656,0,55085,62406,55171.96,62524.92,-86.96,-118.93,-0.000694,-0.006224,0.45247,98.69,1
14665,0,55085,62376,55170.22,62521.95,-85.22,-145.95,-0.000663,-0.006177,0.45423,98.64,1
14675,0,55114,62359,55169.1,62518.69,-55.1,-159.69,-0.000643,-0.006125,0.453749,98.66,1
14686,0,55153,62352,55168.78,62515.36,-15.78,-163.36,-0.000637,-0.006071,0.451911,98.7,1
14696,0,55172,62362,55168.84,62512.29,3.16,-150.29,-0.000638,-0.006022,0.450266,98.74,1
14706,0,55198,62386,55169.43,62509.76,28.57,-123.77,-0.000649,-0.005982,0.449527,98.76,1
14715,0,55225,62395,55170.54,62507.47,54.46,-112.47,-0.000669,-0.005945,0.449985,98.75,1
14726,0,55282,62436,55172.77,62506.04,109.23,-70.04,-0.000709,-0.005922,0.455201,98.62,1
14736,0,55361,62478,55176.54,62505.48,184.46,-27.48,-0.000777,-0.005913,0.470837,98.23,1
14745,0,55433,62539,55181.67,62506.15,251.33,32.85,-0.00087,-0.005924,0.498843,97.53,1
14756,0,55484,62591,55187.71,62507.85,296.29,83.15,-0.00098,-0.005951,0.535166,96.62,1
14766,0,55517,62618,55194.3,62510.05,322.7,107.95,-0.001099,-0.005986,0.575139,95.62,1
14775,0,55547,62641,55201.35,62512.67,345.64,128.33,-0.001227,-0.006028,0.617554,94.56,1
14786,0,55563,62662,55208.59,62515.66,354.41,146.34,-0.001358,-0.006076,0.658682,93.53,1
14795,0,55572,62696,55215.86,62519.26,356.14,176.73,-0.00149,-0.006134,0.696422,92.59,1
14807,0,55577,62707,55223.08,62523.02,353.92,183.98,-0.001621,-0.006194,0.731018,91.72,1
14816,0,55573,62718,55230.08,62526.92,342.92,191.08,-0.001747,-0.006256,0.761072,90.97,1
14825,0,55582,62720,55237.12,62530.78,344.88,189.22,-0.001875,-0.006318,0.790028,90.25,1
14836,0,55592,62750,55244.22,62535.17,347.78,214.83,-0.002003,-0.006388,0.816661,89.58,1
14845,0,55598,62764,55251.3,62539.75,346.7,224.25,-0.002131,-0.006461,0.841135,88.97,1
14855,0,55613,62777,55258.53,62544.49,354.46,232.51,-0.002262,-0.006537,0.865161,88.37,1
14866,0,55627,62802,55265.91,62549.64,361.09,252.36,-0.002396,-0.00662,0.887657,87.81,1
14875,0,55651,62811,55273.61,62554.87,377.39,256.13,-0.002535,-0.006703,0.91139,87.22,1
14885,0,55666,62835,55281.46,62560.47,384.54,274.53,-0.002677,-0.006793,0.933513,86.66,1
14896,0,55674,62834,55289.31,62565.94,384.69,268.05,-0.002819,-0.00688,0.954867,86.13,1
14905,0,55679,62833,55297.1,62571.29,381.9,261.71,-0.00296,-0.006966,0.975098,85.62,1
14916,0,55680,62835,55304.76,62576.56,375.24,258.44,-0.003099,-0.00705,0.993531,85.16,1
14925,0,55685,62807,55312.37,62581.17,372.63,225.83,-0.003236,-0.007124,1.013151,84.67,1
14936,0,55681,62775,55319.74,62585.05,361.26,189.95,-0.003369,-0.007186,1.032766,84.18,1
14946,0,55676,62736,55326.87,62588.07,349.13,147.93,-0.003498,-0.007234,1.05247,83.69,1
14955,0,55657,62673,55333.47,62589.77,323.53,83.23,-0.003618,-0.007261,1.071032,83.22,1
14965,0,55632,62589,55339.44,62589.76,292.55,-0.76,-0.003725,-0.007261,1.087033,82.82,1
14976,0,55605,62497,55344.76,62587.91,260.24,-90.91,-0.003821,-0.007231,1.098208,82.54,1
14985,0,55576,62399,55349.38,62584.13,226.62,-185.13,-0.003905,-0.007171,1.101721,82.46,1
14996,0,55529,62308,55352.97,62578.61,176.03,-270.61,-0.00397,-0.007083,1.094695,82.63,1
15005,0,55487,62236,55355.65,62571.76,131.35,-335.76,-0.004018,-0.006973,1.078805,83.03,1
15015,0,55446,62140,55357.46,62563.12,88.54,-423.13,-0.004051,-0.006835,1.051576,83.71,1
15026,0,55387,62065,55358.05,62553.16,28.95,-488.16,-0.004062,-0.006676,1.016553,84.59,1
15035,0,55340,62055,55357.69,62543.2,-17.69,-488.2,-0.004055,-0.006517,0.984425,85.39,1
15044,0,55334,62087,55357.22,62534.08,-23.22,-447.08,-0.004047,-0.006371,0.959516,86.01,1
15055,0,55333,62127,55356.73,62525.94,-23.73,-398.94,-0.004038,-0.006241,0.940821,86.48,1
15065,0,55355,62188,55356.7,62519.18,-1.7,-331.18,-0.004037,-0.006132,0.928368,86.79,1
15076,0,55395,62256,55357.47,62513.92,37.53,-257.92,-0.004051,-0.006048,0.921205,86.97,1
15085,0,55428,62316,55358.88,62509.96,69.12,-193.96,-0.004077,-0.005985,0.917843,87.05,1
15096,0,55461,62380,55360.92,62507.37,100.08,-127.37,-0.004113,-0.005943,0.917714,87.06,1
15106,0,55482,62426,55363.34,62505.74,118.66,-79.74,-0.004157,-0.005918,0.919362,87.02,1
15115,0,55509,62473,55366.26,62505.09,142.74,-32.09,-0.00421,-0.005907,0.922685,86.93,1
15126,0,55543,62528,55369.79,62505.55,173.21,22.45,-0.004274,-0.005914,0.927725,86.81,1
15135,0,55562,62566,55373.64,62506.76,188.36,59.24,-0.004343,-0.005934,0.933373,86.67,1
15145,0,55584,62617,55377.84,62508.96,206.16,108.04,-0.004419,-0.005969,0.939272,86.52,1
15156,0,55595,62649,55382.19,62511.76,212.81,137.23,-0.004498,-0.006014,0.94478,86.38,1
15165,0,55604,62685,55386.62,62515.23,217.38,169.77,-0.004578,-0.006069,0.949393,86.27,1
15175,0,55620,62726,55391.29,62519.44,228.71,206.55,-0.004662,-0.006137,0.953151,86.17,1
15185,0,55634,62773,55396.14,62524.52,237.86,248.48,-0.00475,-0.006218,0.955274,86.12,1
15195,0,55647,62817,55401.16,62530.37,245.84,286.63,-0.00484,-0.006311,0.955558,86.11,1
15206,0,55646,62874,55406.06,62537.25,239.94,336.75,-0.004929,-0.006421,0.951713,86.21,1
15215,0,55643,62894,55410.8,62544.38,232.2,349.62,-0.005014,-0.006535,0.946432,86.34,1
15224,0,55631,62929,55415.21,62552.07,215.79,376.93,-0.005094,-0.006659,0.938019,86.55,1
15236,0,55622,62951,55419.34,62560.05,202.66,390.95,-0.005168,-0.006786,0.927997,86.8,1
15245,0,55601,62958,55422.98,62568.01,178.02,389.98,-0.005234,-0.006913,0.917083,87.07,1
15255,0,55579,62973,55426.1,62576.12,152.9,396.88,-0.00529,-0.007043,0.904855,87.38,1
15265,0,55564,62976,55428.86,62584.12,135.14,391.88,-0.00534,-0.007171,0.892769,87.68,1
15275,0,55557,62956,55431.42,62591.56,125.57,364.44,-0.005386,-0.007289,0.882707,87.93,1
15286,0,55559,62967,55433.98,62599.07,125.02,367.93,-0.005432,-0.007409,0.872737,88.18,1
15295,0,55546,62971,55436.22,62606.51,109.78,364.49,-0.005473,-0.007528,0.86279,88.43,1
15304,0,55543,62976,55438.35,62613.9,104.64,362.1,-0.005511,-0.007646,0.853144,88.67,1
15315,0,55545,62991,55440.49,62621.44,104.51,369.56,-0.00555,-0.007767,0.84334,88.92,1
15325,0,55550,62992,55442.68,62628.85,107.32,363.14,-0.005589,-0.007885,0.834307,89.14,1
15335,0,55557,63021,55444.97,62636.7,112.03,384.3,-0.00563,-0.008011,0.824465,89.39,1
15345,0,55549,63043,55447.05,62644.83,101.95,398.17,-0.005668,-0.00814,0.813825,89.65,1
15354,0,55539,63052,55448.89,62652.97,90.11,399.03,-0.005701,-0.00827,0.803183,89.92,1
15365,0,55527,63052,55450.45,62660.95,76.55,391.05,-0.005729,-0.008398,0.793027,90.17,1
15375,0,55505,63035,55451.55,62668.43,53.45,366.57,-0.005749,-0.008517,0.784035,90.4,1
15385,0,55492,63031,55452.35,62675.69,39.64,355.31,-0.005764,-0.008633,0.775636,90.61,1
15395,0,55483,63025,55452.97,62682.67,30.03,342.32,-0.005775,-0.008744,0.767931,90.8,1
15405,0,55470,63008,55453.31,62689.18,16.69,318.82,-0.005781,-0.008848,0.761299,90.97,1
15415,0,55458,63008,55453.4,62695.56,4.6,312.44,-0.005783,-0.00895,0.754992,91.13,1
15424,0,55462,62998,55453.57,62701.61,8.43,296.39,-0.005786,-0.009046,0.749402,91.26,1
15435,0,55455,63000,55453.6,62707.58,1.39,292.42,-0.005786,-0.009141,0.744016,91.4,1
15444,0,55456,63004,55453.66,62713.51,2.34,290.49,-0.005787,-0.009236,0.738763,91.53,1
15454,0,55460,63003,55453.78,62719.3,6.21,283.7,-0.00579,-0.009328,0.733811,91.65,1
15465,0,55456,63008,55453.83,62725.07,2.17,282.93,-0.00579,-0.00942,0.728931,91.78,1
15474,0,55471,63002,55454.18,62730.61,16.82,271.39,-0.005797,-0.009509,0.724523,91.89,1
15485,0,55463,63015,55454.36,62736.3,8.64,278.7,-0.0058,-0.009599,0.719883,92,1
15495,0,55461,63019,55454.49,62741.96,6.51,277.04,-0.005802,-0.009689,0.715336,92.12,1
15505,0,55469,63035,55454.78,62747.82,14.22,287.18,-0.005807,-0.009783,0.710521,92.24,1
15514,0,55464,63033,55454.97,62753.52,9.03,279.48,-0.005811,-0.009874,0.70599,92.35,1
15524,0,55462,63029,55455.11,62759.03,6.89,269.97,-0.005813,-0.009962,0.701794,92.46,1
15535,0,55465,63034,55455.31,62764.53,9.69,269.47,-0.005817,-0.010049,0.697654,92.56,1
15544,0,55463,63040,55455.46,62770.04,7.54,269.96,-0.00582,-0.010137,0.693526,92.66,1
15555,0,55459,63042,55455.53,62775.48,3.46,266.52,-0.005821,-0.010224,0.689528,92.76,1
15564,0,55464,63042,55455.71,62780.81,8.29,261.19,-0.005824,-0.010309,0.685724,92.86,1
15575,0,55458,63047,55455.75,62786.14,2.25,260.86,-0.005825,-0.010393,0.681945,92.95,1
15585,0,55460,63040,55455.84,62791.22,4.16,248.78,-0.005827,-0.010474,0.678531,93.04,1
15594,0,55452,63056,55455.76,62796.51,-3.76,259.48,-0.005825,-0.010559,0.674837,93.13,1
15604,0,55456,63057,55455.77,62801.73,0.23,255.27,-0.005825,-0.010642,0.671283,93.22,1
15614,0,55456,63056,55455.78,62806.81,0.22,249.19,-0.005825,-0.010723,0.667915,93.3,1
15625,0,55455,63051,55455.76,62811.69,-0.77,239.3,-0.005825,-0.0108,0.664824,93.38,1
15634,0,55454,63041,55455.73,62816.28,-1.73,224.72,-0.005825,-0.010873,0.662109,93.45,1
15645,0,55454,63046,55455.69,62820.87,-1.7,225.13,-0.005824,-0.010946,0.659391,93.52,1
15654,0,55451,63032,55455.6,62825.1,-4.6,206.9,-0.005822,-0.011014,0.657103,93.57,1
15664,0,55451,63020,55455.51,62829,-4.51,191,-0.005821,-0.011076,0.655155,93.62,1
15675,0,55440,63015,55455.2,62832.72,-15.2,182.28,-0.005815,-0.011135,0.653413,93.66,1
15684,0,55441,63007,55454.92,62836.21,-13.92,170.79,-0.00581,-0.011191,0.651881,93.7,1
15694,0,55432,62996,55454.46,62839.41,-22.46,156.59,-0.005802,-0.011241,0.650647,93.73,1
15705,0,55434,62995,55454.05,62842.52,-20.05,152.48,-0.005794,-0.011291,0.64946,93.76,1
15715,0,55426,62998,55453.5,62845.63,-27.5,152.37,-0.005784,-0.011341,0.648329,93.79,1
15724,0,55430,62989,55453.03,62848.5,-23.03,140.5,-0.005776,-0.011386,0.647346,93.82,1
15734,0,55435,62992,55452.67,62851.37,-17.67,140.63,-0.005769,-0.011432,0.64632,93.84,1
15745,0,55429,63003,55452.19,62854.41,-23.2,148.59,-0.005761,-0.01148,0.6452,93.87,1
15754,0,55426,63003,55451.67,62857.38,-25.67,145.62,-0.005751,-0.011527,0.644145,93.9,1
15764,0,55427,63006,55451.18,62860.35,-24.18,145.64,-0.005742,-0.011575,0.643072,93.92,1
15774,0,55427,63006,55450.69,62863.27,-23.7,142.73,-0.005734,-0.011621,0.642037,93.95,1
15783,0,55432,63004,55450.32,62866.08,-18.32,137.92,-0.005727,-0.011666,0.641034,93.97,1
15795,0,55430,63010,55449.92,62868.96,-19.92,141.04,-0.00572,-0.011712,0.639989,94,1
15804,0,55422,63013,55449.37,62871.84,-27.37,141.16,-0.00571,-0.011757,0.638999,94.03,1
15813,0,55414,63016,55448.66,62874.73,-34.66,141.27,-0.005697,-0.011803,0.638084,94.05,1
15824,0,55414,63017,55447.97,62877.57,-33.97,139.43,-0.005685,-0.011849,0.637187,94.07,1
15834,0,55408,63010,55447.17,62880.22,-39.18,129.78,-0.00567,-0.011891,0.636506,94.09,1
15845,0,55401,63035,55446.25,62883.32,-45.25,151.68,-0.005654,-0.01194,0.635558,94.11,1
15854,0,55387,63030,55445.07,62886.26,-58.07,143.74,-0.005632,-0.011987,0.63499,94.13,1
15863,0,55379,63022,55443.75,62888.98,-64.75,133.02,-0.005608,-0.01203,0.634747,94.13,1
15875,0,55371,63019,55442.29,62891.58,-71.29,127.42,-0.005582,-0.012071,0.634758,94.13,1
15884,0,55363,63029,55440.71,62894.32,-77.71,134.68,-0.005554,-0.012115,0.634837,94.13,1
15895,0,55368,63037,55439.25,62897.17,-71.25,139.82,-0.005527,-0.01216,0.634648,94.13,1
15904,0,55357,63032,55437.61,62899.87,-80.61,132.13,-0.005498,-0.012203,0.634859,94.13,1
15913,0,55348,63019,55435.82,62902.26,-87.82,116.74,-0.005465,-0.012241,0.635538,94.11,1
15925,0,55348,63025,55434.07,62904.71,-86.07,120.29,-0.005434,-0.01228,0.636109,94.1,1
15934,0,55354,63038,55432.46,62907.38,-78.46,130.62,-0.005405,-0.012323,0.636277,94.09,1
15943,0,55353,63059,55430.87,62910.42,-77.87,148.58,-0.005376,-0.012371,0.636115,94.1,1
15954,0,55364,63073,55429.54,62913.67,-65.54,159.33,-0.005352,-0.012423,0.635396,94.12,1
15964,0,55365,63077,55428.25,62916.94,-63.25,160.06,-0.005329,-0.012474,0.634603,94.13,1
15975,0,55360,63087,55426.89,62920.34,-66.89,166.66,-0.005304,-0.012529,0.633768,94.16,1
15984,0,55356,63093,55425.47,62923.79,-69.47,169.21,-0.005279,-0.012583,0.63295,94.18,1
15993,0,55353,63093,55424.02,62927.17,-71.02,165.82,-0.005253,-0.012637,0.632249,94.19,1
16005,0,55351,63099,55422.56,62930.61,-71.56,168.39,-0.005226,-0.012692,0.63151,94.21,1
16014,0,55346,63086,55421.03,62933.72,-75.03,152.28,-0.005199,-0.012741,0.631204,94.22,1
16024,0,55337,63077,55419.35,62936.59,-82.35,140.41,-0.005168,-0.012787,0.631359,94.22,1
16034,0,55336,63071,55417.68,62939.28,-81.68,131.72,-0.005138,-0.01283,0.631645,94.21,1
16044,0,55324,63055,55415.81,62941.6,-91.81,113.4,-0.005104,-0.012866,0.632591,94.19,1
16054,0,55312,63061,55413.73,62943.98,-101.73,117.02,-0.005067,-0.012904,0.63389,94.15,1
16064,0,55317,63070,55411.8,62946.5,-94.8,123.5,-0.005032,-0.012944,0.6348,94.13,1
16073,0,55316,63061,55409.89,62948.79,-93.89,112.21,-0.004998,-0.012981,0.635855,94.1,1
16083,0,55327,63079,55408.23,62951.39,-81.23,127.61,-0.004968,-0.013022,0.636189,94.1,1
16094,0,55326,63082,55406.58,62954.01,-80.59,127.99,-0.004938,-0.013063,0.636496,94.09,1
16104,0,55332,63108,55405.1,62957.09,-73.1,150.91,-0.004911,-0.013112,0.636118,94.1,1
16114,0,55324,63102,55403.48,62959.99,-79.48,142.01,-0.004882,-0.013159,0.63613,94.1,1
16123,0,55326,63100,55401.92,62962.79,-75.93,137.21,-0.004854,-0.013203,0.636115,94.1,1
16134,0,55323,63099,55400.35,62965.51,-77.35,133.48,-0.004825,-0.013246,0.636218,94.09,1
16144,0,55326,63104,55398.86,62968.28,-72.86,135.71,-0.004799,-0.01329,0.636129,94.1,1
16154,0,55321,63102,55397.3,62970.96,-76.3,131.04,-0.00477,-0.013333,0.636243,94.09,1
16163,0,55311,63095,55395.58,62973.44,-84.58,121.56,-0.004739,-0.013372,0.636826,94.08,1
16174,0,55310,63078,55393.87,62975.53,-83.87,102.47,-0.004708,-0.013405,0.637689,94.06,1
16184,0,55307,63077,55392.13,62977.56,-85.13,99.44,-0.004677,-0.013438,0.638648,94.03,1
16193,0,55304,63075,55390.37,62979.51,-86.37,95.49,-0.004645,-0.013468,0.639716,94.01,1
16204,0,55296,63076,55388.48,62981.44,-92.48,94.56,-0.004611,-0.013499,0.641053,93.97,1
16214,0,55294,63074,55386.59,62983.29,-92.59,90.71,-0.004577,-0.013529,0.642454,93.94,1
16223,0,55297,63080,55384.8,62985.23,-87.8,94.77,-0.004545,-0.013559,0.643602,93.91,1
16234,0,55296,63077,55383.03,62987.07,-87.03,89.93,-0.004513,-0.013588,0.644792,93.88,1
16243,0,55300,63091,55381.37,62989.15,-81.37,101.85,-0.004483,-0.013621,0.645587,93.86,1
16253,0,55295,63098,55379.64,62991.33,-84.64,106.67,-0.004452,-0.013656,0.646436,93.84,1
16264,0,55293,63100,55377.91,62993.5,-84.91,106.5,-0.00442,-0.013691,0.647302,93.82,1
16274,0,55305,63109,55376.45,62995.82,-71.45,113.18,-0.004394,-0.013727,0.647551,93.81,1
16283,0,55309,63103,55375.1,62997.96,-66.11,105.04,-0.00437,-0.013761,0.647762,93.81,1
16293,0,55311,63109,55373.82,63000.18,-62.82,108.82,-0.004346,-0.013797,0.647808,93.8,1
16304,0,55314,63123,55372.63,63002.64,-58.63,120.36,-0.004325,-0.013836,0.647516,93.81,1
16313,0,55312,63123,55371.41,63005.05,-59.41,117.95,-0.004303,-0.013874,0.647292,93.82,1
16323,0,55311,63117,55370.21,63007.29,-59.21,109.71,-0.004281,-0.013909,0.647214,93.82,1
16333,0,55317,63113,55369.14,63009.41,-52.14,103.59,-0.004262,-0.013943,0.647045,93.82,1
16343,0,55314,63095,55368.04,63011.12,-54.04,83.88,-0.004242,-0.01397,0.64723,93.82,1
16354,0,55314,63108,55366.96,63013.05,-52.96,94.95,-0.004223,-0.014001,0.647223,93.82,1
16363,0,55313,63097,55365.89,63014.73,-52.89,82.27,-0.004203,-0.014028,0.647402,93.81,1
16374,0,55317,63101,55364.91,63016.46,-47.91,84.54,-0.004185,-0.014055,0.647419,93.81,1
16384,0,55320,63093,55364.01,63017.99,-44.01,75.01,-0.004169,-0.014079,0.647473,93.81,1
16393,0,55318,63111,55363.09,63019.85,-45.09,91.15,-0.004153,-0.014109,0.647321,93.82,1
16403,0,55315,63110,55362.13,63021.66,-47.13,88.34,-0.004135,-0.014137,0.647262,93.82,1
16413,0,55316,63116,55361.21,63023.54,-45.21,92.46,-0.004119,-0.014167,0.64709,93.82,1
16423,0,55313,63117,55360.25,63025.41,-47.25,91.59,-0.004101,-0.014197,0.646983,93.83,1
16433,0,55308,63110,55359.21,63027.1,-51.21,82.89,-0.004082,-0.014224,0.647114,93.82,1
16444,0,55297,63103,55357.96,63028.62,-60.96,74.37,-0.00406,-0.014248,0.647667,93.81,1
16453,0,55281,63076,55356.42,63029.57,-75.43,46.43,-0.004032,-0.014263,0.649073,93.77,1
16462,0,55264,63071,55354.58,63030.41,-90.58,40.59,-0.003999,-0.014276,0.651234,93.72,1
16474,0,55254,63048,55352.57,63030.76,-98.57,17.24,-0.003963,-0.014282,0.653957,93.65,1
16483,0,55256,63034,55350.64,63030.83,-94.64,3.17,-0.003928,-0.014283,0.656508,93.59,1
16493,0,55243,63035,55348.48,63030.91,-105.48,4.09,-0.003889,-0.014284,0.65969,93.51,1
16503,0,55235,63011,55346.21,63030.51,-111.21,-19.51,-0.003848,-0.014278,0.663206,93.42,1
16514,0,55222,63005,55343.73,63030,-121.73,-25,-0.003803,-0.01427,0.667413,93.31,1
16523,0,55211,62968,55341.08,63028.76,-130.08,-60.77,-0.003755,-0.01425,0.671928,93.2,1
16533,0,55202,62952,55338.3,63027.23,-136.3,-75.23,-0.003705,-0.014226,0.676723,93.08,1
16543,0,55190,62932,55335.33,63025.33,-145.33,-93.33,-0.003651,-0.014196,0.681929,92.95,1
16552,0,55190,62911,55332.42,63023.04,-142.43,-112.04,-0.003599,-0.014159,0.686478,92.84,1
16563,0,55193,62902,55329.64,63020.62,-136.64,-118.62,-0.003548,-0.014121,0.690386,92.74,1
16573,0,55204,62897,55327.12,63018.15,-123.12,-121.15,-0.003503,-0.014082,0.693206,92.67,1
16583,0,55224,62870,55325.06,63015.19,-101.06,-145.19,-0.003465,-0.014035,0.693908,92.65,1
16592,0,55243,62824,55323.42,63011.37,-80.42,-187.37,-0.003436,-0.013974,0.692018,92.7,1
16604,0,55261,62789,55322.17,63006.92,-61.17,-217.92,-0.003413,-0.013904,0.688042,92.8,1
16613,0,55272,62720,55321.17,63001.18,-49.17,-281.18,-0.003395,-0.013813,0.680451,92.99,1
16623,0,55264,62626,55320.03,62993.68,-56.03,-367.68,-0.003375,-0.013693,0.667679,93.31,1
16633,0,55247,62521,55318.57,62984.23,-71.57,-463.23,-0.003348,-0.013543,0.648777,93.78,1
16643,0,55220,62424,55316.6,62973.02,-96.6,-549.02,-0.003313,-0.013366,0.625325,94.37,1
16653,0,55194,62363,55314.15,62960.82,-120.15,-597.82,-0.003268,-0.013172,0.601603,94.96,1
16663,0,55183,62321,55311.53,62948.03,-128.53,-627.03,-0.003221,-0.012969,0.578894,95.53,1
16672,0,55163,62297,55308.56,62935.01,-145.56,-638.01,-0.003167,-0.012762,0.559233,96.02,1
16684,0,55170,62281,55305.78,62921.93,-135.79,-640.93,-0.003117,-0.012554,0.541066,96.47,1
16693,0,55177,62293,55303.21,62909.35,-126.21,-616.36,-0.003071,-0.012354,0.525795,96.86,1
16702,0,55184,62314,55300.83,62897.45,-116.83,-583.45,-0.003027,-0.012165,0.51321,97.17,1
16713,0,55192,62356,55298.65,62886.62,-106.65,-530.62,-0.002988,-0.011992,0.50358,97.41,1
16722,0,55213,62388,55296.94,62876.65,-83.94,-488.65,-0.002957,-0.011834,0.495342,97.62,1
16733,0,55229,62430,55295.58,62867.72,-66.58,-437.72,-0.002933,-0.011692,0.48877,97.78,1
16743,0,55235,62462,55294.37,62859.61,-59.37,-397.61,-0.002911,-0.011563,0.483497,97.91,1
16752,0,55245,62486,55293.38,62852.14,-48.38,-366.14,-0.002893,-0.011444,0.479006,98.02,1
16763,0,55247,62514,55292.46,62845.37,-45.46,-331.38,-0.002876,-0.011336,0.475428,98.11,1
16773,0,55256,62515,55291.73,62838.77,-35.73,-323.77,-0.002863,-0.011231,0.471921,98.2,1
16782,0,55264,62521,55291.18,62832.41,-27.18,-311.41,-0.002853,-0.01113,0.468628,98.28,1
16793,0,55266,62533,55290.67,62826.42,-24.68,-293.43,-0.002844,-0.011035,0.465727,98.36,1
16802,0,55270,62544,55290.26,62820.78,-20.26,-276.78,-0.002836,-0.010945,0.463141,98.42,1
16813,0,55263,62554,55289.72,62815.44,-26.72,-261.44,-0.002827,-0.01086,0.460921,98.48,1
16823,0,55268,62558,55289.28,62810.29,-21.29,-252.29,-0.002819,-0.010778,0.458819,98.53,1
16832,0,55262,62562,55288.74,62805.33,-26.74,-243.33,-0.002809,-0.010699,0.456935,98.58,1
16843,0,55271,62581,55288.38,62800.84,-17.38,-219.84,-0.002802,-0.010628,0.45534,98.62,1
16852,0,55272,62584,55288.06,62796.51,-16.06,-212.51,-0.002796,-0.010559,0.453846,98.65,1
16862,0,55272,62589,55287.74,62792.36,-15.74,-203.36,-0.002791,-0.010493,0.45248,98.69,1
16873,0,55277,62602,55287.52,62788.55,-10.52,-186.55,-0.002787,-0.010432,0.451308,98.72,1
16882,0,55291,62620,55287.59,62785.18,3.41,-165.18,-0.002788,-0.010378,0.45037,98.74,1
16891,0,55303,62652,55287.9,62782.51,15.1,-130.52,-0.002794,-0.010336,0.44983,98.75,1
16903,0,55302,62666,55288.18,62780.19,13.82,-114.19,-0.002799,-0.010299,0.449419,98.76,1
16912,0,55305,62691,55288.52,62778.41,16.48,-87.41,-0.002805,-0.01027,0.449212,98.77,1
16923,0,55319,62723,55289.13,62777.3,29.87,-54.3,-0.002816,-0.010253,0.44931,98.77,1
16932,0,55319,62724,55289.73,62776.24,29.27,-52.24,-0.002827,-0.010236,0.44941,98.76,1
16943,0,55321,62748,55290.36,62775.67,30.64,-27.68,-0.002838,-0.010227,0.4496,98.76,1
16953,0,55314,62746,55290.83,62775.08,23.16,-29.09,-0.002847,-0.010217,0.449695,98.76,1
16962,0,55305,62758,55291.12,62774.75,13.88,-16.75,-0.002852,-0.010212,0.44973,98.76,1
16972,0,55297,62744,55291.24,62774.13,5.76,-30.13,-0.002854,-0.010202,0.449705,98.76,1
16982,0,55292,62727,55291.26,62773.19,0.74,-46.19,-0.002854,-0.010187,0.449625,98.76,1
16993,0,55290,62717,55291.23,62772.07,-1.23,-55.07,-0.002854,-0.010169,0.44951,98.76,1
17002,0,55271,62699,55290.83,62770.61,-19.83,-71.61,-0.002847,-0.010146,0.44941,98.76,1
17013,0,55260,62676,55290.21,62768.72,-30.21,-92.72,-0.002835,-0.010116,0.449303,98.77,1
17022,0,55248,62656,55289.37,62766.46,-41.37,-110.46,-0.00282,-0.01008,0.449253,98.77,1
17032,0,55241,62620,55288.4,62763.53,-47.4,-143.54,-0.002803,-0.010033,0.449007,98.77,1
17043,0,55229,62594,55287.21,62760.14,-58.21,-166.14,-0.002781,-0.009979,0.448772,98.78,1
17052,0,55220,62574,55285.87,62756.42,-65.87,-182.42,-0.002757,-0.00992,0.448554,98.79,1
17062,0,55217,62571,55284.5,62752.71,-67.5,-181.71,-0.002732,-0.009861,0.448401,98.79,1
17073,0,55215,62558,55283.11,62748.82,-68.11,-190.82,-0.002707,-0.009799,0.448133,98.8,1
17082,0,55213,62565,55281.71,62745.14,-68.71,-180.14,-0.002682,-0.00974,0.448046,98.8,1
17092,0,55214,62570,55280.36,62741.64,-66.36,-171.64,-0.002657,-0.009684,0.447998,98.8,1
17102,0,55212,62585,55278.99,62738.5,-66.99,-153.5,-0.002632,-0.009634,0.448209,98.79,1
17113,0,55220,62605,55277.81,62735.83,-57.81,-130.84,-0.002611,-0.009592,0.448384,98.79,1
17122,0,55221,62607,55276.68,62733.26,-55.68,-126.26,-0.002591,-0.009551,0.448544,98.79,1
17132,0,55222,62617,55275.59,62730.94,-53.59,-113.94,-0.002571,-0.009514,0.448767,98.78,1
17142,0,55227,62629,55274.62,62728.9,-47.62,-99.9,-0.002553,-0.009481,0.448955,98.78,1
17152,0,55219,62627,55273.5,62726.86,-54.5,-99.86,-0.002533,-0.009449,0.449333,98.77,1
17163,0,55206,62630,55272.16,62724.92,-66.16,-94.93,-0.002509,-0.009418,0.450135,98.75,1
17172,0,55196,62611,55270.63,62722.65,-74.63,-111.65,-0.002481,-0.009382,0.451118,98.72,1
17181,0,55198,62599,55269.18,62720.17,-71.18,-121.18,-0.002455,-0.009342,0.451869,98.7,1
17192,0,55192,62611,55267.64,62717.99,-75.64,-106.99,-0.002427,-0.009307,0.452945,98.68,1
17202,0,55188,62606,55266.05,62715.75,-78.05,-109.75,-0.002398,-0.009272,0.454099,98.65,1
17213,0,55188,62608,55264.49,62713.6,-76.49,-105.6,-0.00237,-0.009237,0.45523,98.62,1
17222,0,55188,62605,55262.96,62711.43,-74.96,-106.43,-0.002342,-0.009203,0.456292,98.59,1
17231,0,55180,62610,55261.31,62709.41,-81.31,-99.41,-0.002312,-0.009171,0.457702,98.56,1
17243,0,55181,62622,55259.7,62707.66,-78.7,-85.66,-0.002283,-0.009143,0.459117,98.52,1
17252,0,55189,62634,55258.29,62706.19,-69.29,-72.19,-0.002258,-0.009119,0.46024,98.49,1
17262,0,55185,62640,55256.83,62704.87,-71.83,-64.87,-0.002231,-0.009098,0.461519,98.46,1
17272,0,55186,62646,55255.41,62703.69,-69.41,-57.69,-0.002206,-0.009079,0.46275,98.43,1
17282,0,55184,62645,55253.98,62702.51,-69.98,-57.51,-0.00218,-0.009061,0.464012,98.4,1
17292,0,55177,62651,55252.44,62701.48,-75.45,-50.48,-0.002152,-0.009044,0.46555,98.36,1
17301,0,55186,62660,55251.12,62700.65,-65.12,-40.65,-0.002128,-0.009031,0.466716,98.33,1
17312,0,55177,62668,55249.64,62700,-72.64,-32,-0.002101,-0.009021,0.468227,98.29,1
17321,0,55176,62674,55248.16,62699.48,-72.16,-25.48,-0.002075,-0.009012,0.469748,98.26,1
17333,0,55170,62680,55246.6,62699.09,-76.6,-19.09,-0.002046,-0.009006,0.471491,98.21,1
17342,0,55169,62683,55245.05,62698.77,-76.05,-15.77,-0.002018,-0.009001,0.473225,98.17,1
17351,0,55161,62692,55243.37,62698.64,-82.37,-6.64,-0.001988,-0.008999,0.475286,98.12,1
17361,0,55154,62693,55241.58,62698.53,-87.58,-5.53,-0.001956,-0.008997,0.477629,98.06,1
17372,0,55151,62689,55239.77,62698.34,-88.77,-9.34,-0.001923,-0.008994,0.480046,98,1
17382,0,55149,62703,55237.96,62698.43,-88.96,4.57,-0.00189,-0.008995,0.482488,97.94,1
17391,0,55146,62709,55236.12,62698.64,-90.12,10.36,-0.001857,-0.008999,0.485003,97.87,1
17402,0,55152,62731,55234.43,62699.29,-82.43,31.71,-0.001826,-0.009009,0.487065,97.82,1
17412,0,55137,62738,55232.48,62700.07,-95.48,37.93,-0.001791,-0.009022,0.489841,97.75,1
17421,0,55140,62751,55230.64,62701.09,-90.64,49.91,-0.001757,-0.009038,0.492281,97.69,1
17432,0,55140,62747,55228.82,62702.01,-88.82,44.99,-0.001725,-0.009053,0.494656,97.63,1
17441,0,55130,62753,55226.85,62703.03,-96.85,49.97,-0.001689,-0.009069,0.497485,97.56,1
17452,0,55126,62754,55224.83,62704.05,-98.84,49.95,-0.001652,-0.009085,0.500447,97.49,1
17461,0,55115,62749,55222.64,62704.95,-107.64,44.05,-0.001613,-0.0091,0.504032,97.4,1
17472,0,55117,62751,55220.53,62705.87,-103.53,45.13,-0.001574,-0.009114,0.50734,97.32,1
17481,0,55115,62758,55218.42,62706.92,-103.42,51.08,-0.001536,-0.009131,0.510613,97.23,1
17491,0,55116,62783,55216.37,62708.44,-100.37,74.56,-0.001499,-0.009155,0.5135,97.16,1
17502,0,55116,62792,55214.36,62710.11,-98.36,81.89,-0.001463,-0.009182,0.516186,97.1,1
17511,0,55123,62809,55212.54,62712.09,-89.54,96.91,-0.00143,-0.009213,0.518159,97.05,1
17522,0,55121,62827,55210.71,62714.39,-89.71,112.61,-0.001397,-0.00925,0.519921,97,1
17531,0,55108,62832,55208.66,62716.75,-100.66,115.25,-0.001359,-0.009288,0.52232,96.94,1
17541,0,55096,62843,55206.41,62719.27,-110.41,123.73,-0.001319,-0.009328,0.525245,96.87,1
17552,0,55083,62833,55203.94,62721.55,-120.94,111.45,-0.001274,-0.009364,0.529156,96.77,1
17561,0,55061,62827,55201.08,62723.66,-140.08,103.34,-0.001222,-0.009398,0.534799,96.63,1
17572,0,55039,62826,55197.84,62725.71,-158.84,100.29,-0.001163,-0.00943,0.542261,96.44,1
17582,0,55021,62802,55194.3,62727.23,-173.3,74.77,-0.001099,-0.009455,0.551529,96.21,1
17591,0,55012,62804,55190.66,62728.77,-178.66,75.23,-0.001033,-0.009479,0.561298,95.97,1
17602,0,54997,62802,55186.78,62730.23,-189.79,71.77,-0.000963,-0.009503,0.572293,95.69,1
17611,0,54972,62806,55182.49,62731.75,-210.49,74.25,-0.000885,-0.009527,0.585692,95.36,1
17620,0,54962,62781,55178.08,62732.74,-216.08,48.26,-0.000805,-0.009543,0.599878,95,1
17632,0,54958,62785,55173.68,62733.79,-215.68,51.21,-0.000725,-0.009559,0.613779,94.66,1
17641,0,54943,62773,55169.07,62734.57,-226.07,38.43,-0.000642,-0.009572,0.628951,94.28,1
17652,0,54941,62777,55164.51,62735.42,-223.51,41.58,-0.000559,-0.009585,0.643543,93.91,1
17661,0,54933,62767,55159.88,62736.05,-226.88,30.95,-0.000475,-0.009595,0.658452,93.54,1
17671,0,54929,62753,55155.26,62736.39,-226.26,16.61,-0.000392,-0.009601,0.673159,93.17,1
17682,0,54925,62741,55150.66,62736.49,-225.66,4.51,-0.000308,-0.009602,0.687643,92.81,1
17691,0,54912,62727,55145.88,62736.3,-233.88,-9.3,-0.000222,-0.009599,0.703016,92.42,1
17701,0,54908,62716,55141.12,62735.89,-233.13,-19.89,-0.000135,-0.009593,0.71808,92.05,1
17712,0,54901,62700,55136.32,62735.17,-235.32,-35.18,-0.000048,-0.009581,0.733164,91.67,1
17721,0,54894,62671,55131.48,62733.89,-237.48,-62.89,0.00004,-0.009561,0.748038,91.3,1
17732,0,54886,62660,55126.57,62732.41,-240.57,-72.41,0.000129,-0.009537,0.762972,90.93,1
17741,0,54882,62658,55121.67,62730.92,-239.68,-72.93,0.000217,-0.009514,0.777596,90.56,1
17751,0,54885,62652,55116.94,62729.35,-231.94,-77.35,0.000303,-0.009488,0.791014,90.22,1
17762,0,54871,62642,55112.02,62727.6,-241.02,-85.6,0.000393,-0.009461,0.805224,89.87,1
17771,0,54869,62641,55107.16,62725.87,-238.16,-84.87,0.000481,-0.009433,0.81893,89.53,1
17781,0,54875,62633,55102.52,62724.01,-227.52,-91.02,0.000565,-0.009403,0.83108,89.22,1
17792,0,54870,62625,55097.87,62722.03,-227.87,-97.04,0.000649,-0.009372,0.842994,88.93,1
17801,0,54864,62617,55093.19,62719.93,-229.2,-102.93,0.000734,-0.009338,0.854771,88.63,1
17812,0,54852,62610,55088.37,62717.73,-236.37,-107.73,0.000822,-0.009303,0.867108,88.32,1
17821,0,54845,62590,55083.5,62715.18,-238.5,-125.18,0.00091,-0.009263,0.87895,88.03,1
17830,0,54840,62574,55078.64,62712.36,-238.64,-138.36,0.000999,-0.009218,0.890126,87.75,1
17842,0,54826,62570,55073.58,62709.51,-247.59,-139.52,0.00109,-0.009172,0.902134,87.45,1
17851,0,54833,62565,55068.78,62706.63,-235.78,-141.63,0.001178,-0.009126,0.912493,87.19,1
17862,0,54828,62578,55063.96,62704.05,-235.96,-126.05,0.001265,-0.009085,0.923373,86.92,1
17871,0,54830,62587,55059.28,62701.71,-229.29,-114.71,0.00135,-0.009048,0.933823,86.65,1
17881,0,54840,62588,55054.9,62699.44,-214.9,-111.45,0.00143,-0.009012,0.942785,86.43,1
17892,0,54853,62610,55050.86,62697.66,-197.86,-87.66,0.001503,-0.008983,0.950806,86.23,1
17901,0,54861,62617,55047.07,62696.04,-186.07,-79.04,0.001572,-0.008957,0.957972,86.05,1
17910,0,54862,62633,55043.36,62694.78,-181.36,-61.79,0.001639,-0.008937,0.965133,85.87,1
17922,0,54859,62640,55039.67,62693.69,-180.68,-53.69,0.001706,-0.00892,0.972397,85.69,1
17931,0,54854,62644,55035.96,62692.7,-181.96,-48.7,0.001774,-0.008904,0.979866,85.5,1
17941,0,54848,62651,55032.2,62691.87,-184.2,-40.87,0.001842,-0.008891,0.98766,85.31,1
17951,0,54845,62657,55028.46,62691.17,-183.46,-34.17,0.00191,-0.00888,0.995489,85.11,1
17960,0,54836,62648,55024.61,62690.31,-188.61,-42.31,0.00198,-0.008866,1.003669,84.91,1
17972,0,54839,62642,55020.9,62689.35,-181.9,-47.35,0.002047,-0.008851,1.011179,84.72,1
17981,0,54828,62635,55017.04,62688.26,-189.04,-53.26,0.002118,-0.008833,1.019213,84.52,1
17990,0,54817,62631,55013.04,62687.12,-196.04,-56.12,0.00219,-0.008815,1.02783,84.3,1
18001,0,54808,62617,55008.94,62685.71,-200.94,-68.71,0.002265,-0.008793,1.036594,84.09,1
18011,0,54798,62604,55004.72,62684.08,-206.72,-80.08,0.002341,-0.008766,1.045561,83.86,1
18021,0,54793,62593,55000.49,62682.26,-207.49,-89.26,0.002418,-0.008738,1.054255,83.64,1
18031,0,54778,62580,54996.04,62680.21,-218.04,-100.21,0.002499,-0.008705,1.063547,83.41,1
18040,0,54780,62572,54991.72,62678.05,-211.72,-106.05,0.002578,-0.00867,1.071883,83.2,1
18052,0,54765,62561,54987.19,62675.71,-222.19,-114.71,0.00266,-0.008633,1.08083,82.98,1
18061,0,54750,62555,54982.45,62673.3,-232.45,-118.3,0.002746,-0.008595,1.090615,82.73,1
18071,0,54756,62557,54977.92,62670.98,-221.92,-113.98,0.002829,-0.008558,1.099406,82.51,1
18081,0,54757,62555,54973.5,62668.66,-216.5,-113.66,0.002909,-0.008521,1.107587,82.31,1
18091,0,54761,62553,54969.25,62666.35,-208.25,-113.35,0.002986,-0.008484,1.114906,82.13,1
18102,0,54758,62555,54965.03,62664.13,-207.03,-109.13,0.003063,-0.008448,1.122271,81.94,1
18111,0,54760,62553,54960.93,62661.91,-200.93,-108.91,0.003138,-0.008413,1.129024,81.77,1
18120,0,54761,62541,54956.93,62659.49,-195.93,-118.49,0.003211,-0.008374,1.134774,81.63,1
18131,0,54753,62544,54952.85,62657.18,-199.85,-113.18,0.003285,-0.008337,1.141135,81.47,1
18141,0,54756,62532,54948.92,62654.68,-192.92,-122.68,0.003356,-0.008297,1.146298,81.34,1
18150,0,54752,62515,54944.98,62651.89,-192.98,-136.89,0.003428,-0.008253,1.150556,81.24,1
18161,0,54751,62522,54941.1,62649.29,-190.1,-127.29,0.003499,-0.008211,1.155125,81.12,1
18170,0,54734,62508,54936.96,62646.47,-202.96,-138.47,0.003574,-0.008166,1.160115,81,1
18181,0,54736,62488,54932.94,62643.3,-196.94,-155.3,0.003647,-0.008116,1.163306,80.92,1
18191,0,54724,62485,54928.76,62640.14,-204.77,-155.14,0.003723,-0.008065,1.167191,80.82,1
18201,0,54715,62477,54924.49,62636.87,-209.49,-159.88,0.003801,-0.008013,1.171111,80.72,1
18210,0,54704,62453,54920.08,62633.2,-216.08,-180.2,0.003881,-0.007955,1.173934,80.65,1
18222,0,54682,62422,54915.32,62628.98,-233.32,-206.98,0.003968,-0.007887,1.175949,80.6,1
18231,0,54645,62376,54909.91,62623.92,-264.91,-247.92,0.004067,-0.007806,1.176969,80.58,1
18240,0,54612,62335,54903.96,62618.14,-291.96,-283.14,0.004175,-0.007714,1.176863,80.58,1
18251,0,54581,62291,54897.5,62611.6,-316.5,-320.6,0.004293,-0.00761,1.174807,80.63,1
18260,0,54550,62253,54890.55,62604.42,-340.55,-351.43,0.004419,-0.007495,1.171616,80.71,1
18270,0,54548,62206,54883.7,62596.46,-335.7,-390.46,0.004544,-0.007368,1.162036,80.95,1
18281,0,54555,62194,54877.13,62588.41,-322.13,-394.41,0.004664,-0.007239,1.150986,81.23,1
18290,0,54577,62165,54871.13,62579.94,-294.13,-414.95,0.004773,-0.007104,1.134626,81.63,1
18300,0,54590,62145,54865.51,62571.25,-275.51,-426.25,0.004876,-0.006965,1.116116,82.1,1
18311,0,54599,62142,54860.18,62562.66,-261.18,-420.66,0.004973,-0.006828,1.098572,82.54,1
18321,0,54607,62124,54855.12,62553.89,-248.12,-429.89,0.005065,-0.006688,1.080046,83,1
18330,0,54612,62125,54850.25,62545.31,-238.25,-420.31,0.005154,-0.00655,1.063296,83.42,1
18340,0,54627,62126,54845.79,62536.92,-218.79,-410.93,0.005235,-0.006416,1.047327,83.82,1
18351,0,54623,62142,54841.33,62529.03,-218.34,-387.03,0.005316,-0.00629,1.034817,84.13,1
18360,0,54617,62137,54836.85,62521.19,-219.85,-384.19,0.005398,-0.006165,1.023355,84.42,1
18371,0,54617,62165,54832.46,62514.07,-215.46,-349.07,0.005478,-0.006051,1.015341,84.62,1
18380,0,54628,62158,54828.37,62506.94,-200.37,-348.95,0.005553,-0.005937,1.006704,84.83,1
18390,0,54634,62173,54824.48,62500.27,-190.48,-327.27,0.005624,-0.00583,0.999532,85.01,1
18401,0,54650,62203,54820.99,62494.32,-170.99,-291.32,0.005687,-0.005735,0.994088,85.15,1
18410,0,54657,62206,54817.71,62488.56,-160.71,-282.56,0.005747,-0.005643,0.988832,85.28,1
18419,0,54666,62210,54814.68,62482.99,-148.68,-272.99,0.005802,-0.005553,0.983726,85.41,1
18430,0,54684,62222,54812.07,62477.77,-128.07,-255.77,0.00585,-0.00547,0.978872,85.53,1
18440,0,54704,62233,54809.91,62472.87,-105.91,-239.88,0.00589,-0.005392,0.974177,85.65,1
18451,0,54713,62251,54807.97,62468.44,-94.97,-217.44,0.005925,-0.00532,0.97033,85.74,1
18460,0,54711,62267,54806.03,62464.41,-95.03,-197.41,0.00596,-0.005256,0.967421,85.81,1
18469,0,54716,62281,54804.23,62460.75,-88.23,-179.75,0.005993,-0.005197,0.965067,85.87,1
18481,0,54708,62310,54802.31,62457.73,-94.31,-147.73,0.006028,-0.005149,0.964039,85.9,1
18490,0,54699,62323,54800.24,62455.04,-101.24,-132.04,0.006066,-0.005106,0.963705,85.91,1
18499,0,54688,62336,54798,62452.66,-110,-116.66,0.006107,-0.005068,0.964085,85.9,1
18510,0,54676,62346,54795.56,62450.53,-119.56,-104.53,0.006151,-0.005034,0.96511,85.87,1
18520,0,54672,62336,54793.09,62448.24,-121.09,-112.24,0.006196,-0.004997,0.966008,85.85,1
18531,0,54677,62330,54790.77,62445.88,-113.77,-115.88,0.006239,-0.004959,0.966541,85.84,1
18540,0,54671,62330,54788.38,62443.56,-117.38,-113.56,0.006282,-0.004922,0.96727,85.82,1
18549,0,54671,62329,54786.04,62441.27,-115.04,-112.27,0.006325,-0.004886,0.967948,85.8,1
18561,0,54664,62332,54783.6,62439.08,-119.6,-107.09,0.00637,-0.004851,0.968933,85.78,1
18570,0,54663,62317,54781.19,62436.64,-118.19,-119.64,0.006414,-0.004811,0.969532,85.76,1
18581,0,54669,62323,54778.95,62434.37,-109.95,-111.37,0.006455,-0.004775,0.970051,85.75,1
18590,0,54669,62312,54776.75,62431.92,-107.75,-119.93,0.006495,-0.004736,0.970257,85.74,1
18599,0,54667,62303,54774.55,62429.35,-107.55,-126.35,0.006535,-0.004695,0.970266,85.74,1
18611,0,54665,62313,54772.37,62427.02,-107.37,-114.02,0.006575,-0.004657,0.970627,85.73,1
18620,0,54658,62306,54770.08,62424.6,-112.08,-118.61,0.006616,-0.004619,0.971032,85.72,1
18629,0,54665,62301,54767.98,62422.13,-102.98,-121.13,0.006655,-0.004579,0.971034,85.72,1
18640,0,54666,62300,54765.94,62419.69,-99.94,-119.69,0.006692,-0.00454,0.970974,85.73,1
18650,0,54670,62298,54764.02,62417.26,-94.02,-119.26,0.006727,-0.004501,0.97073,85.73,1
18659,0,54668,62298,54762.1,62414.87,-94.1,-116.87,0.006762,-0.004463,0.970557,85.74,1
18670,0,54666,62292,54760.18,62412.42,-94.18,-120.42,0.006797,-0.004423,0.970281,85.74,1
18679,0,54674,62295,54758.46,62410.07,-84.46,-115.07,0.006829,-0.004386,0.969861,85.75,1
18691,0,54668,62290,54756.65,62407.67,-88.65,-117.67,0.006862,-0.004347,0.969489,85.76,1
18700,0,54672,62300,54754.96,62405.52,-82.96,-105.52,0.006893,-0.004313,0.969291,85.77,1
18709,0,54670,62299,54753.26,62403.39,-83.26,-104.39,0.006924,-0.004279,0.969131,85.77,1
18720,0,54668,62305,54751.55,62401.42,-83.55,-96.43,0.006955,-0.004247,0.969187,85.77,1
18729,0,54676,62311,54750.04,62399.62,-74.04,-88.62,0.006982,-0.004218,0.969162,85.77,1
18740,0,54684,62318,54748.72,62397.98,-64.72,-79.98,0.007006,-0.004192,0.969093,85.77,1
18749,0,54682,62317,54747.39,62396.37,-65.39,-79.37,0.007031,-0.004166,0.969052,85.77,1
18760,0,54670,62325,54745.84,62394.94,-75.84,-69.94,0.007059,-0.004143,0.969474,85.76,1
18769,0,54682,62328,54744.57,62393.6,-62.57,-65.6,0.007082,-0.004122,0.969635,85.76,1
18781,0,54681,62335,54743.3,62392.43,-62.3,-57.43,0.007105,-0.004103,0.969929,85.75,1
18790,0,54688,62353,54742.2,62391.64,-54.2,-38.64,0.007126,-0.00409,0.970295,85.74,1
18799,0,54689,62366,54741.14,62391.13,-52.14,-25.13,0.007145,-0.004082,0.970742,85.73,1
18809,0,54692,62367,54740.16,62390.65,-48.16,-23.65,0.007163,-0.004074,0.971125,85.72,1
18820,0,54694,62364,54739.23,62390.12,-45.23,-26.12,0.00718,-0.004066,0.971442,85.71,1
18830,0,54692,62362,54738.29,62389.55,-46.29,-27.55,0.007197,-0.004057,0.971769,85.71,1
18839,0,54690,62362,54737.32,62389,-47.32,-27,0.007215,-0.004048,0.972123,85.7,1
18850,0,54684,62358,54736.26,62388.39,-52.26,-30.39,0.007234,-0.004038,0.97255,85.69,1
18860,0,54684,62356,54735.21,62387.74,-51.21,-31.74,0.007253,-0.004028,0.972947,85.68,1
18870,0,54689,62374,54734.29,62387.47,-45.29,-13.47,0.00727,-0.004024,0.973354,85.67,1
18880,0,54696,62371,54733.53,62387.14,-37.53,-16.14,0.007284,-0.004018,0.973619,85.66,1
18889,0,54691,62388,54732.68,62387.16,-41.68,0.84,0.007299,-0.004019,0.973995,85.65,1
18899,0,54696,62399,54731.95,62387.4,-35.95,11.6,0.007313,-0.004022,0.97426,85.64,1
18909,0,54702,62417,54731.35,62387.99,-29.36,29.01,0.007324,-0.004032,0.974325,85.64,1
18920,0,54721,62424,54731.15,62388.71,-10.15,35.29,0.007328,-0.004043,0.974163,85.65,1
18929,0,54724,62441,54731.01,62389.76,-7.01,51.24,0.00733,-0.00406,0.973767,85.66,1
18939,0,54731,62457,54731.01,62391.11,-0.01,65.89,0.00733,-0.004082,0.973081,85.67,1
18949,0,54738,62475,54731.15,62392.79,6.85,82.21,0.007327,-0.004109,0.972009,85.7,1
18960,0,54730,62491,54731.13,62394.75,-1.13,96.25,0.007328,-0.00414,0.970511,85.74,1
18969,0,54738,62498,54731.27,62396.82,6.73,101.18,0.007325,-0.004173,0.968857,85.78,1
18980,0,54736,62527,54731.37,62399.42,4.63,127.57,0.007323,-0.004215,0.966199,85.85,1
18990,0,54731,62539,54731.36,62402.22,-0.36,136.78,0.007324,-0.00426,0.963132,85.92,1
19000,0,54721,62560,54731.16,62405.37,-10.16,154.63,0.007327,-0.00431,0.959237,86.02,1
19009,0,54714,62564,54730.82,62408.55,-16.82,155.45,0.007334,-0.004361,0.955351,86.12,1
19019,0,54709,62569,54730.38,62411.76,-21.38,157.24,0.007342,-0.004413,0.951424,86.21,1
19030,0,54699,62567,54729.75,62414.87,-30.75,152.13,0.007353,-0.004463,0.94788,86.3,1
19039,0,54696,62586,54729.08,62418.29,-33.08,167.71,0.007365,-0.004517,0.943572,86.41,1
19050,0,54688,62598,54728.26,62421.89,-40.26,176.11,0.00738,-0.004575,0.938944,86.53,1
19059,0,54673,62597,54727.16,62425.39,-54.16,171.61,0.0074,-0.004631,0.934909,86.63,1
19068,0,54656,62586,54725.73,62428.6,-69.73,157.4,0.007426,-0.004683,0.932105,86.7,1
19080,0,54656,62583,54724.34,62431.69,-68.34,151.31,0.007452,-0.004732,0.929567,86.76,1
19089,0,54654,62579,54722.94,62434.64,-68.94,144.36,0.007478,-0.004779,0.927385,86.82,1
19098,0,54643,62577,54721.34,62437.48,-78.34,139.52,0.007507,-0.004825,0.925763,86.86,1
19109,0,54640,62567,54719.71,62440.07,-79.71,126.93,0.007536,-0.004866,0.924737,86.88,1
19119,0,54627,62550,54717.86,62442.27,-90.86,107.73,0.00757,-0.004902,0.924904,86.88,1
19130,0,54612,62536,54715.74,62444.15,-103.74,91.85,0.007609,-0.004932,0.926205,86.84,1
19139,0,54611,62524,54713.65,62445.75,-102.65,78.25,0.007647,-0.004957,0.927835,86.8,1
19148,0,54605,62521,54711.48,62447.25,-106.48,73.75,0.007687,-0.004981,0.929786,86.76,1
19160,0,54604,62519,54709.33,62448.68,-105.33,70.32,0.007726,-0.005004,0.931767,86.71,1
19169,0,54602,62516,54707.18,62450.03,-105.18,65.97,0.007765,-0.005026,0.93385,86.65,1
19179,0,54612,62521,54705.28,62451.45,-93.28,69.55,0.0078,-0.005049,0.935258,86.62,1
19189,0,54611,62530,54703.39,62453.03,-92.39,76.97,0.007835,-0.005074,0.936444,86.59,1
19200,0,54621,62536,54701.74,62454.69,-80.74,81.31,0.007865,-0.0051,0.936995,86.58,1
19209,0,54619,62543,54700.08,62456.45,-81.09,86.55,0.007895,-0.005129,0.937409,86.56,1
19218,0,54619,62560,54698.46,62458.52,-79.46,101.48,0.007925,-0.005162,0.93726,86.57,1
19229,0,54630,62558,54697.1,62460.51,-67.1,97.48,0.00795,-0.005194,0.936775,86.58,1
19238,0,54637,62567,54695.89,62462.64,-58.89,104.36,0.007972,-0.005228,0.935766,86.61,1
19250,0,54639,62571,54694.76,62464.81,-55.76,106.19,0.007993,-0.005262,0.93459,86.64,1
19259,0,54632,62561,54693.5,62466.73,-61.5,94.27,0.008016,-0.005293,0.934023,86.65,1
19269,0,54628,62558,54692.19,62468.56,-64.2,89.44,0.008039,-0.005322,0.933708,86.66,1
19279,0,54617,62544,54690.69,62470.07,-73.69,73.93,0.008067,-0.005347,0.934212,86.64,1
19289,0,54617,62538,54689.22,62471.43,-72.22,66.57,0.008094,-0.005368,0.934852,86.63,1
19299,0,54615,62542,54687.73,62472.85,-72.73,69.15,0.008121,-0.005391,0.93545,86.61,1
19308,0,54612,62531,54686.22,62474.01,-74.22,56.99,0.008149,-0.00541,0.936403,86.59,1
19319,0,54612,62530,54684.73,62475.13,-72.73,54.87,0.008176,-0.005428,0.937345,86.57,1
19329,0,54610,62529,54683.24,62476.21,-73.24,52.79,0.008203,-0.005445,0.938357,86.54,1
19340,0,54611,62532,54681.79,62477.33,-70.79,54.67,0.00823,-0.005463,0.939236,86.52,1
19349,0,54616,62534,54680.48,62478.46,-64.48,55.54,0.008254,-0.005481,0.939857,86.5,1
19358,0,54603,62537,54678.92,62479.63,-75.93,57.37,0.008282,-0.0055,0.940907,86.48,1
19368,0,54606,62533,54677.47,62480.7,-71.47,52.3,0.008309,-0.005517,0.941883,86.45,1
19379,0,54603,62532,54675.98,62481.73,-72.98,50.27,0.008336,-0.005533,0.942972,86.43,1
19389,0,54605,62525,54674.56,62482.6,-69.56,42.4,0.008362,-0.005547,0.944072,86.4,1
19398,0,54601,62541,54673.09,62483.76,-72.09,57.23,0.008389,-0.005566,0.944984,86.38,1
19409,0,54601,62538,54671.65,62484.85,-70.65,53.15,0.008415,-0.005583,0.945932,86.35,1
19419,0,54601,62540,54670.24,62485.96,-69.24,54.04,0.008441,-0.005601,0.946807,86.33,1
19429,0,54607,62541,54668.98,62487.06,-61.98,53.94,0.008464,-0.005618,0.947397,86.32,1
19438,0,54614,62544,54667.88,62488.2,-53.88,55.8,0.008484,-0.005637,0.947657,86.31,1
19448,0,54606,62546,54666.64,62489.36,-60.64,56.64,0.008507,-0.005655,0.94814,86.3,1
19459,0,54609,62542,54665.49,62490.41,-56.49,51.59,0.008528,-0.005672,0.948593,86.29,1
19468,0,54604,62563,54664.26,62491.87,-60.26,71.13,0.00855,-0.005696,0.948661,86.28,1
19479,0,54610,62550,54663.17,62493.03,-53.18,56.97,0.00857,-0.005714,0.948874,86.28,1
19488,0,54610,62559,54662.11,62494.35,-52.11,64.65,0.00859,-0.005735,0.948844,86.28,1
19499,0,54614,62562,54661.15,62495.7,-47.15,66.3,0.008607,-0.005757,0.948605,86.28,1
19509,0,54610,62562,54660.13,62497.03,-50.13,64.97,0.008626,-0.005778,0.948499,86.29,1
19519,0,54607,62572,54659.07,62498.53,-52.07,73.47,0.008645,-0.005802,0.948188,86.3,1
19528,0,54606,62564,54658.01,62499.84,-52.01,64.16,0.008665,-0.005823,0.948169,86.3,1
19539,0,54611,62578,54657.07,62501.41,-46.07,76.59,0.008682,-0.005848,0.947548,86.31,1
19549,0,54611,62580,54656.14,62502.98,-45.14,77.02,0.008699,-0.005873,0.94688,86.33,1
19558,0,54609,62581,54655.2,62504.54,-46.2,76.46,0.008716,-0.005898,0.946262,86.34,1
19569,0,54610,62581,54654.3,62506.07,-44.3,74.93,0.008733,-0.005923,0.945637,86.36,1
19578,0,54615,62587,54653.51,62507.69,-38.52,79.31,0.008747,-0.005949,0.944681,86.38,1
19589,0,54613,62584,54652.71,62509.22,-39.71,74.78,0.008762,-0.005973,0.94392,86.4,1
19598,0,54614,62594,54651.93,62510.91,-37.93,83.09,0.008776,-0.006,0.942791,86.43,1
19609,0,54615,62604,54651.19,62512.77,-36.2,91.23,0.008789,-0.00603,0.941268,86.47,1
19618,0,54619,62602,54650.55,62514.56,-31.55,87.44,0.008801,-0.006059,0.939792,86.51,1
19628,0,54616,62603,54649.86,62516.33,-33.86,86.67,0.008814,-0.006087,0.938397,86.54,1
19639,0,54613,62611,54649.12,62518.22,-36.13,92.78,0.008827,-0.006117,0.936787,86.58,1
19648,0,54624,62615,54648.62,62520.16,-24.62,94.84,0.008836,-0.006148,0.934821,86.63,1
19658,0,54615,62615,54647.95,62522.06,-32.95,92.94,0.008849,-0.006178,0.933115,86.67,1
19668,0,54622,62615,54647.44,62523.92,-25.44,91.08,0.008858,-0.006208,0.931326,86.72,1
19679,0,54619,62615,54646.87,62525.74,-27.87,89.26,0.008869,-0.006237,0.92966,86.76,1
19688,0,54626,62621,54646.45,62527.65,-20.45,93.35,0.008876,-0.006268,0.927668,86.81,1
19699,0,54624,62622,54646,62529.54,-22,92.46,0.008885,-0.006298,0.925737,86.86,1
19708,0,54612,62620,54645.32,62531.35,-33.32,88.65,0.008897,-0.006327,0.924212,86.89,1
19718,0,54610,62626,54644.61,62533.24,-34.61,92.76,0.00891,-0.006357,0.922529,86.94,1
19729,0,54618,62620,54644.08,62534.98,-26.08,85.02,0.00892,-0.006385,0.920988,86.98,1
19738,0,54624,62625,54643.68,62536.78,-19.68,88.22,0.008927,-0.006414,0.919186,87.02,1
19748,0,54625,62625,54643.31,62538.54,-18.31,86.46,0.008934,-0.006442,0.917435,87.06,1
19758,0,54616,62618,54642.77,62540.13,-26.77,77.87,0.008944,-0.006468,0.916192,87.1,1
19769,0,54613,62630,54642.17,62541.93,-29.18,88.07,0.008954,-0.006496,0.91456,87.14,1
19778,0,54616,62624,54641.65,62543.58,-25.65,80.42,0.008964,-0.006523,0.913178,87.17,1
19787,0,54616,62633,54641.14,62545.37,-25.14,87.63,0.008973,-0.006551,0.911465,87.21,1
19799,0,54616,62638,54640.64,62547.22,-24.64,90.78,0.008983,-0.006581,0.90959,87.26,1
19808,0,54615,62635,54640.13,62548.98,-25.13,86.02,0.008992,-0.006609,0.907939,87.3,1
19818,0,54609,62641,54639.51,62550.82,-30.51,90.18,0.009003,-0.006638,0.906215,87.34,1
19828,0,54620,62636,54639.12,62552.53,-19.12,83.47,0.00901,-0.006666,0.904557,87.39,1
19838,0,54620,62642,54638.73,62554.32,-18.73,87.68,0.009017,-0.006694,0.902695,87.43,1
19848,0,54616,62648,54638.28,62556.19,-22.28,91.81,0.009026,-0.006724,0.900692,87.48,1
19859,0,54613,62649,54637.78,62558.05,-24.78,90.95,0.009035,-0.006754,0.898777,87.53,1
19868,0,54608,62637,54637.18,62559.63,-29.18,77.37,0.009046,-0.006779,0.897571,87.56,1
19877,0,54613,62640,54636.7,62561.24,-23.7,78.76,0.009055,-0.006805,0.896175,87.6,1
19888,0,54605,62627,54636.07,62562.55,-31.07,64.45,0.009066,-0.006826,0.895503,87.61,1
19898,0,54609,62630,54635.53,62563.91,-26.53,66.09,0.009076,-0.006848,0.894653,87.63,1
19908,0,54605,62618,54634.92,62564.99,-29.92,53.01,0.009087,-0.006865,0.894311,87.64,1
19917,0,54605,62617,54634.32,62566.03,-29.32,50.97,0.009098,-0.006882,0.894009,87.65,1
19929,0,54608,62605,54633.8,62566.81,-25.8,38.19,0.009108,-0.006894,0.893934,87.65,1
19938,0,54606,62598,54633.25,62567.44,-27.25,30.56,0.009118,-0.006904,0.894041,87.65,1
19948,0,54600,62609,54632.58,62568.27,-32.58,40.73,0.00913,-0.006917,0.89409,87.65,1
19958,0,54601,62604,54631.95,62568.98,-30.95,35.02,0.009142,-0.006929,0.894215,87.64,1
19969,0,54594,62596,54631.19,62569.52,-37.19,26.48,0.009156,-0.006937,0.894694,87.63,1
19978,0,54595,62598,54630.47,62570.09,-35.47,27.91,0.009169,-0.006946,0.895094,87.62,1
19987,0,54597,62595,54629.8,62570.59,-32.8,24.41,0.009181,-0.006954,0.895464,87.61,1
19998,0,54597,62587,54629.15,62570.92,-32.15,16.08,0.009193,-0.00696,0.895917,87.6,1
20007,0,54583,62592,54628.23,62571.34,-45.23,20.66,0.00921,-0.006966,0.896819,87.58,1
20018,0,54581,62580,54627.28,62571.51,-46.29,8.48,0.009227,-0.006969,0.897885,87.55,1
20028,0,54576,62571,54626.26,62571.51,-50.26,-0.51,0.009246,-0.006969,0.899173,87.52,1
20038,0,54588,62582,54625.5,62571.72,-37.5,10.28,0.00926,-0.006973,0.899876,87.5,1
20047,0,54582,62572,54624.63,62571.73,-42.63,0.27,0.009276,-0.006973,0.900827,87.48,1
20057,0,54578,62582,54623.7,62571.93,-45.7,10.07,0.009293,-0.006976,0.901893,87.45,1
20068,0,54572,62573,54622.67,62571.96,-50.67,1.04,0.009312,-0.006976,0.903248,87.42,1
20077,0,54582,62578,54621.85,62572.08,-39.86,5.92,0.009326,-0.006978,0.904093,87.4,1
20087,0,54577,62578,54620.96,62572.19,-43.96,5.8,0.009343,-0.00698,0.905127,87.37,1
20098,0,54580,62579,54620.14,62572.33,-40.14,6.67,0.009358,-0.006982,0.905995,87.35,1
20108,0,54587,62594,54619.48,62572.76,-32.48,21.23,0.00937,-0.006989,0.906436,87.34,1
20117,0,54592,62594,54618.93,62573.19,-26.93,20.81,0.00938,-0.006996,0.906708,87.33,1
20128,0,54589,62595,54618.33,62573.63,-29.33,21.37,0.009391,-0.007003,0.907048,87.32,1
20137,0,54601,62607,54617.98,62574.3,-16.98,32.7,0.009397,-0.007014,0.906863,87.33,1
20148,0,54600,62626,54617.62,62575.33,-17.62,50.67,0.009404,-0.00703,0.906163,87.35,1
20158,0,54603,62634,54617.33,62576.51,-14.33,57.49,0.009409,-0.007049,0.905139,87.37,1
20168,0,54599,62645,54616.97,62577.88,-17.97,67.12,0.009416,-0.007071,0.903749,87.41,1
20177,0,54607,62635,54616.77,62579.02,-9.77,55.98,0.009419,-0.007089,0.902712,87.43,1
20187,0,54614,62645,54616.71,62580.34,-2.71,64.66,0.009421,-0.00711,0.901243,87.47,1
20198,0,54612,62654,54616.62,62581.82,-4.62,72.18,0.009422,-0.007134,0.899403,87.51,1
20207,0,54611,62657,54616.51,62583.32,-5.51,73.68,0.009424,-0.007158,0.897482,87.56,1
20217,0,54606,62652,54616.3,62584.69,-10.3,67.3,0.009428,-0.00718,0.895925,87.6,1
20228,0,54615,62648,54616.28,62585.96,-1.28,62.04,0.009429,-0.0072,0.894547,87.64,1
20238,0,54617,62659,54616.29,62587.42,0.71,71.57,0.009428,-0.007223,0.892694,87.68,1
20247,0,54615,62658,54616.27,62588.84,-1.27,69.16,0.009429,-0.007246,0.890959,87.73,1
20258,0,54606,62664,54616.07,62590.34,-10.07,73.66,0.009432,-0.00727,0.88904,87.77,1
20268,0,54610,62654,54615.94,62591.62,-5.95,62.38,0.009435,-0.00729,0.887643,87.81,1
20278,0,54606,62664,54615.75,62593.07,-9.75,70.93,0.009438,-0.007314,0.885851,87.85,1
20287,0,54604,62666,54615.51,62594.53,-11.52,71.47,0.009442,-0.007337,0.884046,87.9,1
20297,0,54614,62669,54615.49,62596.01,-1.49,72.98,0.009443,-0.007361,0.882072,87.95,1
20307,0,54610,62670,54615.38,62597.5,-5.38,72.5,0.009445,-0.007384,0.880134,88,1
20317,0,54606,62667,54615.19,62598.89,-9.2,68.11,0.009448,-0.007407,0.878458,88.04,1
20328,0,54609,62668,54615.07,62600.27,-6.07,67.73,0.009451,-0.007429,0.876764,88.08,1
20337,0,54614,62670,54615.05,62601.66,-1.05,68.34,0.009451,-0.007451,0.875009,88.12,1
20347,0,54618,62674,54615.11,62603.11,2.89,70.89,0.00945,-0.007474,0.873115,88.17,1
20357,0,54608,62671,54614.97,62604.47,-6.97,66.53,0.009452,-0.007496,0.871471,88.21,1
20368,0,54610,62679,54614.87,62605.96,-4.87,73.04,0.009454,-0.00752,0.869453,88.26,1
20377,0,54612,62663,54614.81,62607.1,-2.81,55.9,0.009455,-0.007538,0.868272,88.29,1
20387,0,54612,62680,54614.75,62608.56,-2.75,71.44,0.009456,-0.007561,0.866315,88.34,1
20398,0,54622,62678,54614.9,62609.95,7.1,68.05,0.009454,-0.007583,0.864565,88.39,1
20408,0,54612,62688,54614.84,62611.51,-2.84,76.49,0.009455,-0.007608,0.862302,88.44,1
20417,0,54611,62689,54614.76,62613.06,-3.77,75.94,0.009456,-0.007633,0.860072,88.5,1
20427,0,54617,62691,54614.81,62614.62,2.19,76.38,0.009455,-0.007658,0.857804,88.55,1
20438,0,54617,62688,54614.85,62616.09,2.14,71.91,0.009455,-0.007681,0.855791,88.61,1
20447,0,54623,62692,54615.02,62617.61,7.98,74.39,0.009452,-0.007706,0.853671,88.66,1
20457,0,54615,62698,54615.02,62619.22,-0.02,78.78,0.009452,-0.007731,0.851235,88.72,1
20466,0,54613,62702,54614.98,62620.87,-1.98,81.12,0.009452,-0.007758,0.848651,88.78,1
20477,0,54615,62692,54614.98,62622.3,0.02,69.7,0.009452,-0.00778,0.846743,88.83,1
20487,0,54626,62699,54615.21,62623.83,10.79,75.17,0.009448,-0.007805,0.844598,88.89,1
20497,0,54623,62700,54615.36,62625.35,7.64,74.64,0.009445,-0.007829,0.842438,88.94,1
20507,0,54619,62707,54615.44,62626.99,3.56,80.01,0.009444,-0.007855,0.839909,89,1
20517,0,54620,62714,54615.53,62628.73,4.47,85.27,0.009442,-0.007883,0.837037,89.07,1
20527,0,54624,62706,54615.7,62630.28,8.3,75.72,0.009439,-0.007908,0.834814,89.13,1
20538,0,54623,62721,54615.85,62632.09,7.15,88.91,0.009436,-0.007937,0.831708,89.21,1
20547,0,54629,62720,54616.11,62633.85,12.89,86.15,0.009432,-0.007965,0.828886,89.28,1
20557,0,54626,62731,54616.31,62635.8,9.69,95.2,0.009428,-0.007996,0.825357,89.37,1
20567,0,54623,62717,54616.44,62637.42,6.55,79.58,0.009425,-0.008022,0.822885,89.43,1
20577,0,54624,62709,54616.6,62638.85,7.4,70.14,0.009423,-0.008045,0.820981,89.48,1
20587,0,54626,62700,54616.78,62640.08,9.21,59.92,0.009419,-0.008064,0.819628,89.51,1
20596,0,54614,62688,54616.73,62641.04,-2.73,46.96,0.00942,-0.00808,0.818766,89.53,1
20608,0,54611,62676,54616.62,62641.74,-5.62,34.26,0.009422,-0.008091,0.818335,89.54,1
20617,0,54603,62671,54616.34,62642.33,-13.34,28.67,0.009427,-0.0081,0.818163,89.55,1
20627,0,54607,62661,54616.16,62642.7,-9.16,18.3,0.009431,-0.008106,0.818114,89.55,1
20636,0,54607,62646,54615.98,62642.77,-8.98,3.23,0.009434,-0.008107,0.818198,89.55,1
20647,0,54603,62654,54615.72,62643,-12.72,11,0.009439,-0.008111,0.818302,89.54,1
20657,0,54601,62654,54615.42,62643.21,-14.43,10.79,0.009444,-0.008114,0.818448,89.54,1
20667,0,54597,62649,54615.06,62643.33,-18.06,5.67,0.009451,-0.008116,0.818731,89.53,1
20677,0,54599,62649,54614.74,62643.44,-15.74,5.55,0.009457,-0.008118,0.818949,89.53,1
20686,0,54602,62651,54614.48,62643.6,-12.48,7.4,0.009461,-0.00812,0.819081,89.52,1
20697,0,54599,62652,54614.17,62643.76,-15.18,8.23,0.009467,-0.008123,0.819271,89.52,1
20706,0,54589,62654,54613.67,62643.97,-24.68,10.03,0.009476,-0.008127,0.819781,89.51,1
20717,0,54601,62647,54613.42,62644.03,-12.42,2.97,0.009481,-0.008127,0.819934,89.5,1
20726,0,54599,62643,54613.14,62644.01,-14.14,-1.01,0.009486,-0.008127,0.820133,89.5,1
20738,0,54600,62641,54612.87,62643.95,-12.88,-2.95,0.009491,-0.008126,0.820299,89.49,1
20747,0,54598,62644,54612.58,62643.95,-14.58,0.05,0.009496,-0.008126,0.820514,89.49,1
20757,0,54595,62649,54612.23,62644.05,-17.23,4.95,0.009503,-0.008128,0.820796,89.48,1
20766,0,54593,62643,54611.84,62644.03,-18.84,-1.04,0.00951,-0.008128,0.821145,89.47,1
20777,0,54594,62645,54611.49,62644.05,-17.49,0.95,0.009516,-0.008128,0.821452,89.46,1
20787,0,54595,62645,54611.16,62644.07,-16.16,0.93,0.009522,-0.008128,0.821719,89.46,1
20796,0,54591,62649,54610.75,62644.17,-19.75,4.82,0.00953,-0.00813,0.8221,89.45,1
20807,0,54600,62653,54610.54,62644.35,-10.54,8.65,0.009534,-0.008133,0.82219,89.45,1
20816,0,54595,62649,54610.23,62644.44,-15.23,4.55,0.009539,-0.008134,0.822425,89.44,1
20827,0,54597,62644,54609.96,62644.44,-12.96,-0.44,0.009544,-0.008134,0.82261,89.43,1
20836,0,54598,62646,54609.73,62644.47,-11.73,1.53,0.009549,-0.008134,0.822765,89.43,1
20847,0,54602,62662,54609.57,62644.82,-7.57,17.18,0.009551,-0.00814,0.822688,89.43,1
20856,0,54596,62656,54609.3,62645.05,-13.3,10.95,0.009556,-0.008144,0.822824,89.43,1
20868,0,54594,62665,54608.99,62645.45,-14.99,19.55,0.009562,-0.00815,0.82287,89.43,1
20877,0,54594,62662,54608.69,62645.78,-14.69,16.22,0.009567,-0.008155,0.822972,89.43,1
20886,0,54599,62670,54608.5,62646.26,-9.5,23.73,0.009571,-0.008163,0.82278,89.43,1
20896,0,54597,62671,54608.27,62646.76,-11.27,24.24,0.009575,-0.008171,0.822613,89.43,1
20907,0,54600,62671,54608.11,62647.24,-8.11,23.76,0.009578,-0.008179,0.822391,89.44,1
20917,0,54595,62663,54607.85,62647.56,-12.85,15.44,0.009583,-0.008184,0.822455,89.44,1
20926,0,54604,62665,54607.77,62647.91,-3.77,17.09,0.009584,-0.008189,0.822325,89.44,1
20937,0,54602,62673,54607.65,62648.41,-5.65,24.59,0.009586,-0.008197,0.822036,89.45,1
20946,0,54604,62676,54607.58,62648.96,-3.58,27.04,0.009588,-0.008206,0.821651,89.46,1
20957,0,54601,62688,54607.44,62649.75,-6.45,38.25,0.00959,-0.008219,0.820874,89.48,1
20966,0,54604,62683,54607.37,62650.42,-3.38,32.58,0.009592,-0.008229,0.82029,89.49,1
20976,0,54602,62689,54607.27,62651.19,-5.27,37.81,0.009593,-0.008242,0.819505,89.51,1
20986,0,54601,62692,54607.14,62652.01,-6.14,39.99,0.009596,-0.008255,0.818626,89.53,1
20996,0,54600,62694,54607,62652.85,-7,41.15,0.009598,-0.008268,0.817699,89.56,1
21007,0,54600,62698,54606.86,62653.75,-6.86,44.25,0.009601,-0.008283,0.816606,89.58,1
21016,0,54605,62696,54606.83,62654.6,-1.83,41.4,0.009602,-0.008296,0.815601,89.61,1
21026,0,54609,62693,54606.87,62655.37,2.13,37.63,0.009601,-0.008308,0.81477,89.63,1
21036,0,54606,62696,54606.85,62656.19,-0.86,39.81,0.009601,-0.008321,0.813826,89.65,1
21047,0,54607,62710,54606.86,62657.26,0.14,52.73,0.009601,-0.008339,0.812147,89.7,1
21056,0,54609,62706,54606.9,62658.24,2.1,47.76,0.0096,-0.008354,0.810772,89.73,1
21066,0,54608,62715,54606.92,62659.38,1.07,55.62,0.0096,-0.008372,0.808888,89.78,1
21076,0,54612,62703,54607.03,62660.25,4.97,42.75,0.009598,-0.008386,0.807806,89.8,1
21087,0,54613,62715,54607.15,62661.35,5.85,53.65,0.009596,-0.008404,0.806079,89.85,1
21096,0,54617,62719,54607.35,62662.5,9.65,56.5,0.009592,-0.008422,0.804225,89.89,1
21107,0,54614,62728,54607.48,62663.81,6.52,64.19,0.00959,-0.008443,0.801725,89.96,1
21116,0,54608,62711,54607.5,62664.75,0.5,46.25,0.009589,-0.008458,0.800404,89.99,1
21126,0,54611,62722,54607.57,62665.9,3.43,56.1,0.009588,-0.008477,0.79846,90.04,1
21136,0,54614,62726,54607.7,62667.1,6.3,58.89,0.009586,-0.008496,0.796344,90.09,1
21145,0,54607,62730,54607.69,62668.37,-0.69,61.63,0.009586,-0.008516,0.793967,90.15,1
21156,0,54607,62736,54607.67,62669.72,-0.68,66.28,0.009586,-0.008537,0.791214,90.22,1
21166,0,54609,62743,54607.7,62671.18,1.3,71.82,0.009586,-0.008561,0.787985,90.3,1
21176,0,54613,62731,54607.81,62672.38,5.19,58.62,0.009584,-0.00858,0.785874,90.35,1
21186,0,54619,62738,54608.03,62673.7,10.96,64.3,0.009579,-0.008601,0.783445,90.41,1
21196,0,54627,62741,54608.41,62675.05,18.59,65.95,0.009573,-0.008622,0.781186,90.47,1
21206,0,54609,62736,54608.42,62676.26,0.57,59.73,0.009572,-0.008642,0.778951,90.53,1
21217,0,54612,62736,54608.5,62677.46,3.5,58.54,0.009571,-0.008661,0.776819,90.58,1
21226,0,54613,62735,54608.59,62678.61,4.41,56.39,0.009569,-0.008679,0.774848,90.63,1
21236,0,54617,62744,54608.76,62679.92,8.24,64.08,0.009566,-0.0087,0.772356,90.69,1
21245,0,54618,62748,54608.94,62681.28,9.06,66.71,0.009563,-0.008722,0.769665,90.76,1
21257,0,54620,62756,54609.16,62682.78,10.84,73.22,0.009559,-0.008746,0.766455,90.84,1
21266,0,54617,62752,54609.32,62684.16,7.68,67.84,0.009556,-0.008768,0.76365,90.91,1
21275,0,54621,62746,54609.55,62685.4,11.45,60.6,0.009552,-0.008788,0.761534,90.96,1
21286,0,54614,62730,54609.64,62686.29,4.36,43.71,0.00955,-0.008802,0.760366,90.99,1
21296,0,54618,62728,54609.81,62687.12,8.19,40.88,0.009547,-0.008815,0.759415,91.01,1
21306,0,54610,62720,54609.82,62687.78,0.18,32.22,0.009547,-0.008826,0.758764,91.03,1
21315,0,54608,62706,54609.78,62688.15,-1.78,17.85,0.009547,-0.008831,0.758578,91.04,1
21326,0,54602,62699,54609.62,62688.37,-7.63,10.63,0.00955,-0.008835,0.758606,91.03,1
21336,0,54604,62681,54609.51,62688.22,-5.51,-7.22,0.009552,-0.008833,0.758632,91.03,1
21346,0,54605,62691,54609.42,62688.28,-4.43,2.72,0.009554,-0.008834,0.758672,91.03,1
21356,0,54595,62675,54609.14,62688.01,-14.14,-13.02,0.009559,-0.008829,0.758879,91.03,1
21366,0,54592,62683,54608.79,62687.92,-16.79,-4.92,0.009566,-0.008828,0.759314,91.02,1
21376,0,54591,62669,54608.44,62687.54,-17.44,-18.54,0.009572,-0.008822,0.759568,91.01,1
21385,0,54594,62680,54608.15,62687.39,-14.15,-7.39,0.009577,-0.008819,0.75986,91,1
21396,0,54587,62671,54607.73,62687.06,-20.73,-16.06,0.009585,-0.008814,0.760377,90.99,1
21405,0,54591,62674,54607.39,62686.8,-16.39,-12.8,0.009591,-0.00881,0.760707,90.98,1
21416,0,54586,62670,54606.96,62686.47,-20.96,-16.47,0.009599,-0.008805,0.76124,90.97,1
21426,0,54586,62662,54606.55,62685.98,-20.55,-23.98,0.009607,-0.008797,0.761529,90.96,1
21436,0,54581,62665,54606.04,62685.56,-25.04,-20.56,0.009616,-0.00879,0.762269,90.94,1
21445,0,54591,62658,54605.74,62685.01,-14.74,-27.01,0.009622,-0.008781,0.762107,90.95,1
21456,0,54584,62662,54605.3,62684.55,-21.3,-22.55,0.009629,-0.008774,0.762504,90.94,1
21466,0,54583,62662,54604.86,62684.1,-21.86,-22.1,0.009638,-0.008767,0.76296,90.93,1
21475,0,54584,62655,54604.44,62683.52,-20.44,-28.52,0.009645,-0.008758,0.763071,90.92,1
21486,0,54583,62653,54604.01,62682.91,-21.02,-29.91,0.009653,-0.008748,0.763162,90.92,1
21495,0,54583,62647,54603.6,62682.19,-20.6,-35.2,0.009661,-0.008736,0.762958,90.93,1
21506,0,54583,62649,54603.19,62681.53,-20.19,-32.53,0.009668,-0.008726,0.762863,90.93,1
21516,0,54583,62647,54602.78,62680.84,-19.79,-33.84,0.009676,-0.008715,0.762671,90.93,1
21526,0,54580,62646,54602.33,62680.15,-22.33,-34.15,0.009684,-0.008704,0.762652,90.93,1
21535,0,54590,62650,54602.08,62679.55,-12.09,-29.55,0.009688,-0.008694,0.762234,90.94,1
21545,0,54577,62659,54601.58,62679.14,-24.59,-20.14,0.009698,-0.008688,0.763014,90.92,1
21556,0,54578,62662,54601.11,62678.79,-23.11,-16.79,0.009706,-0.008682,0.763772,90.91,1
21565,0,54584,62655,54600.77,62678.32,-16.77,-23.32,0.009712,-0.008675,0.763857,90.9,1
21576,0,54583,62657,54600.42,62677.89,-17.42,-20.89,0.009719,-0.008668,0.764072,90.9,1
21585,0,54592,62655,54600.25,62677.44,-8.25,-22.44,0.009722,-0.008661,0.763792,90.91,1
21596,0,54586,62673,54599.96,62677.35,-13.96,-4.35,0.009727,-0.008659,0.764156,90.9,1
21606,0,54586,62662,54599.68,62677.04,-13.68,-15.04,0.009732,-0.008654,0.764333,90.89,1
21615,0,54589,62669,54599.47,62676.88,-10.47,-7.88,0.009736,-0.008652,0.764502,90.89,1
21625,0,54587,62653,54599.22,62676.41,-12.22,-23.41,0.009741,-0.008644,0.76433,90.89,1
21635,0,54595,62664,54599.14,62676.16,-4.14,-12.16,0.009742,-0.00864,0.764246,90.89,1
21646,0,54593,62659,54599.01,62675.82,-6.02,-16.82,0.009745,-0.008635,0.76408,90.9,1
21655,0,54587,62664,54598.77,62675.58,-11.77,-11.58,0.009749,-0.008631,0.764249,90.89,1
21666,0,54582,62674,54598.44,62675.55,-16.44,-1.55,0.009755,-0.00863,0.764803,90.88,1
21676,0,54592,62667,54598.31,62675.38,-6.31,-8.38,0.009758,-0.008628,0.764831,90.88,1
21686,0,54588,62680,54598.11,62675.47,-10.11,4.53,0.009761,-0.008629,0.765034,90.87,1
21695,0,54592,62676,54597.99,62675.48,-5.99,0.52,0.009763,-0.008629,0.765119,90.87,1
21704,0,54589,62680,54597.81,62675.58,-8.81,4.42,0.009767,-0.008631,0.765274,90.87,1
21715,0,54592,62674,54597.69,62675.55,-5.7,-1.55,0.009769,-0.00863,0.765351,90.87,1
21725,0,54595,62678,54597.64,62675.6,-2.64,2.4,0.00977,-0.008631,0.76537,90.87,1
21735,0,54594,62688,54597.57,62675.85,-3.57,12.15,0.009771,-0.008635,0.765266,90.87,1
21745,0,54597,62689,54597.56,62676.11,-0.56,12.89,0.009771,-0.008639,0.765115,90.87,1
21755,0,54606,62687,54597.73,62676.33,8.27,10.67,0.009768,-0.008643,0.765164,90.87,1
21765,0,54596,62692,54597.69,62676.64,-1.7,15.36,0.009769,-0.008648,0.764947,90.88,1
21776,0,54606,62695,54597.86,62677.01,8.14,17.99,0.009766,-0.008654,0.764782,90.88,1
21785,0,54603,62688,54597.96,62677.23,5.04,10.77,0.009764,-0.008657,0.764732,90.88,1
21795,0,54606,62707,54598.13,62677.83,7.87,29.17,0.009761,-0.008667,0.764017,90.9,1
21805,0,54612,62696,54598.41,62678.19,13.59,17.8,0.009756,-0.008673,0.764128,90.9,1
21816,0,54605,62706,54598.54,62678.75,6.46,27.25,0.009753,-0.008682,0.763466,90.91,1
21825,0,54608,62711,54598.73,62679.4,9.27,31.6,0.00975,-0.008692,0.762637,90.93,1
21834,0,54613,62716,54599.02,62680.13,13.98,35.87,0.009745,-0.008704,0.761761,90.96,1
21846,0,54615,62725,54599.34,62681.03,15.66,43.97,0.009739,-0.008718,0.76032,90.99,1
21855,0,54608,62728,54599.51,62681.97,8.48,46.03,0.009735,-0.008733,0.758267,91.04,1
21865,0,54608,62720,54599.69,62682.73,8.31,37.27,0.009732,-0.008745,0.756973,91.08,1
21874,0,54609,62722,54599.87,62683.52,9.13,38.48,0.009729,-0.008758,0.755612,91.11,1
21885,0,54615,62721,54600.18,62684.27,14.82,36.73,0.009723,-0.00877,0.754722,91.13,1
21895,0,54617,62723,54600.51,62685.05,16.48,37.95,0.009717,-0.008782,0.753859,91.15,1
21906,0,54613,62744,54600.77,62686.23,12.23,57.77,0.009713,-0.008801,0.750658,91.23,1
21915,0,54613,62736,54601.01,62687.23,11.98,48.77,0.009708,-0.008817,0.748477,91.29,1
21925,0,54621,62740,54601.41,62688.28,19.59,51.71,0.009701,-0.008834,0.746587,91.34,1
21935,0,54619,62735,54601.76,62689.22,17.23,45.78,0.009694,-0.008849,0.7451,91.37,1
21945,0,54622,62743,54602.17,62690.3,19.83,52.7,0.009687,-0.008866,0.743129,91.42,1
21955,0,54623,62746,54602.59,62691.41,20.41,54.59,0.009679,-0.008884,0.741009,91.47,1
21964,0,54613,62746,54602.8,62692.51,10.2,53.49,0.009675,-0.008901,0.738221,91.54,1
21976,0,54624,62749,54603.23,62693.64,20.77,55.36,0.009668,-0.008919,0.73607,91.6,1
21985,0,54623,62752,54603.62,62694.81,19.37,57.19,0.00966,-0.008938,0.733566,91.66,1
21995,0,54629,62761,54604.13,62696.13,24.87,64.87,0.009651,-0.008959,0.730718,91.73,1
22005,0,54625,62760,54604.55,62697.41,20.45,62.59,0.009643,-0.008979,0.727683,91.81,1
22014,0,54626,62769,54604.98,62698.84,21.02,70.16,0.009635,-0.009002,0.723692,91.91,1
22025,0,54627,62763,54605.42,62700.13,21.58,62.87,0.009627,-0.009023,0.720811,91.98,1
22034,0,54634,62777,54606,62701.67,28,75.33,0.009617,-0.009047,0.717026,92.07,1
22045,0,54630,62766,54606.48,62702.96,23.52,63.04,0.009608,-0.009068,0.714422,92.14,1
22054,0,54623,62756,54606.81,62704.02,16.19,51.98,0.009602,-0.009085,0.712366,92.19,1
22066,0,54621,62741,54607.09,62704.76,13.91,36.24,0.009597,-0.009096,0.711545,92.21,1
22075,0,54619,62731,54607.33,62705.29,11.67,25.71,0.009592,-0.009105,0.711237,92.22,1
22085,0,54619,62731,54607.57,62705.8,11.43,25.2,0.009588,-0.009113,0.71094,92.23,1
22094,0,54621,62714,54607.83,62705.97,13.16,8.03,0.009583,-0.009116,0.711353,92.22,1
22104,0,54614,62726,54607.96,62706.37,6.04,19.62,0.009581,-0.009122,0.711055,92.22,1
22115,0,54606,62710,54607.92,62706.45,-1.93,3.55,0.009581,-0.009123,0.71106,92.22,1
22124,0,54600,62708,54607.77,62706.48,-7.77,1.52,0.009584,-0.009124,0.711235,92.22,1
22134,0,54606,62701,54607.73,62706.37,-1.73,-5.37,0.009585,-0.009122,0.71122,92.22,1
22145,0,54606,62711,54607.7,62706.46,-1.7,4.54,0.009586,-0.009124,0.711214,92.22,1
22155,0,54609,62698,54607.73,62706.3,1.27,-8.3,0.009585,-0.009121,0.71115,92.22,1
22164,0,54598,62695,54607.54,62706.07,-9.54,-11.07,0.009589,-0.009117,0.711286,92.22,1
22175,0,54606,62694,54607.51,62705.83,-1.51,-11.83,0.009589,-0.009114,0.711142,92.22,1
22184,0,54607,62694,54607.5,62705.59,-0.5,-11.59,0.009589,-0.00911,0.710997,92.23,1
22195,0,54603,62694,54607.41,62705.36,-4.41,-11.36,0.009591,-0.009106,0.710914,92.23,1
22204,0,54601,62694,54607.28,62705.13,-6.29,-11.13,0.009593,-0.009102,0.710897,92.23,1
22215,0,54599,62694,54607.12,62704.91,-8.12,-10.91,0.009596,-0.009099,0.710967,92.23,1
22224,0,54598,62686,54606.94,62704.53,-8.94,-18.53,0.009599,-0.009093,0.710813,92.23,1
22235,0,54601,62690,54606.82,62704.24,-5.82,-14.24,0.009602,-0.009088,0.710684,92.23,1
22245,0,54603,62685,54606.75,62703.86,-3.75,-18.86,0.009603,-0.009082,0.710305,92.24,1
22254,0,54607,62689,54606.75,62703.57,0.25,-14.57,0.009603,-0.009077,0.710054,92.25,1
22264,0,54599,62690,54606.6,62703.3,-7.6,-13.3,0.009606,-0.009073,0.710029,92.25,1
22274,0,54600,62685,54606.47,62702.93,-6.47,-17.93,0.009608,-0.009067,0.709773,92.26,1
22285,0,54598,62682,54606.3,62702.51,-8.3,-20.51,0.009611,-0.009061,0.709479,92.26,1
22294,0,54597,62683,54606.12,62702.12,-9.12,-19.12,0.009615,-0.009054,0.709298,92.27,1
22304,0,54597,62689,54605.94,62701.86,-8.94,-12.86,0.009618,-0.00905,0.70936,92.27,1
22315,0,54600,62691,54605.82,62701.64,-5.82,-10.64,0.00962,-0.009047,0.709335,92.27,1
22325,0,54600,62698,54605.7,62701.57,-5.7,-3.57,0.009622,-0.009046,0.709435,92.26,1
22334,0,54607,62692,54605.73,62701.38,1.27,-9.38,0.009622,-0.009043,0.709332,92.27,1
22345,0,54605,62706,54605.72,62701.48,-0.72,4.52,0.009622,-0.009044,0.709313,92.27,1
22354,0,54610,62706,54605.8,62701.57,4.2,4.43,0.00962,-0.009046,0.709354,92.27,1
22365,0,54612,62700,54605.93,62701.54,6.07,-1.54,0.009618,-0.009045,0.709487,92.26,1
22374,0,54604,62694,54605.89,62701.39,-1.89,-7.39,0.009619,-0.009043,0.709432,92.26,1
22385,0,54608,62704,54605.93,62701.44,2.07,2.56,0.009618,-0.009043,0.709444,92.26,1
22394,0,54612,62706,54606.05,62701.53,5.95,4.47,0.009616,-0.009045,0.709551,92.26,1
22405,0,54607,62712,54606.07,62701.74,0.93,10.26,0.009615,-0.009048,0.709412,92.26,1
22414,0,54605,62714,54606.05,62701.98,-1.05,12.02,0.009616,-0.009052,0.709217,92.27,1
22425,0,54608,62723,54606.09,62702.41,1.91,20.59,0.009615,-0.009059,0.70863,92.28,1
22434,0,54617,62713,54606.31,62702.62,10.69,10.38,0.009611,-0.009062,0.708912,92.28,1
22445,0,54613,62734,54606.45,62703.25,6.55,30.75,0.009609,-0.009072,0.707708,92.31,1
22454,0,54616,62726,54606.64,62703.71,9.36,22.29,0.009605,-0.00908,0.707324,92.32,1
22465,0,54620,62730,54606.91,62704.23,13.09,25.77,0.0096,-0.009088,0.707016,92.32,1
22474,0,54614,62724,54607.05,62704.63,6.95,19.37,0.009597,-0.009094,0.706655,92.33,1
22483,0,54618,62737,54607.27,62705.28,10.73,31.72,0.009593,-0.009105,0.705612,92.36,1
22494,0,54620,62739,54607.52,62705.96,12.48,33.04,0.009589,-0.009116,0.7046,92.39,1
22504,0,54614,62750,54607.66,62706.84,6.34,43.16,0.009586,-0.00913,0.701971,92.45,1
22514,0,54616,62737,54607.82,62707.44,8.18,29.56,0.009583,-0.009139,0.700933,92.48,1
22523,0,54622,62741,54608.11,62708.11,13.89,32.89,0.009578,-0.00915,0.700087,92.5,1
22535,0,54626,62750,54608.47,62708.95,17.53,41.05,0.009571,-0.009163,0.698794,92.53,1
22544,0,54626,62752,54608.82,62709.81,17.18,42.19,0.009565,-0.009177,0.697313,92.57,1
22554,0,54628,62759,54609.2,62710.8,18.8,48.2,0.009558,-0.009193,0.695256,92.62,1
22564,0,54620,62759,54609.42,62711.76,10.58,47.24,0.009554,-0.009208,0.69236,92.69,1
22575,0,54639,62769,54610.01,62712.91,28.99,56.09,0.009543,-0.009226,0.691114,92.72,1
22584,0,54641,62777,54610.63,62714.19,30.37,62.81,0.009532,-0.009247,0.689042,92.77,1
22593,0,54644,62785,54611.3,62715.6,32.7,69.39,0.00952,-0.009269,0.686344,92.84,1
22604,0,54640,62791,54611.87,62717.11,28.12,73.89,0.009509,-0.009293,0.681677,92.96,1
22614,0,54634,62778,54612.32,62718.33,21.68,59.67,0.009501,-0.009313,0.678518,93.04,1
22625,0,54640,62787,54612.87,62719.7,27.13,67.3,0.009491,-0.009335,0.675126,93.12,1
22634,0,54645,62796,54613.51,62721.23,31.49,74.77,0.009479,-0.009359,0.671376,93.22,1
22644,0,54643,62810,54614.1,62723,28.9,87,0.009468,-0.009387,0.664485,93.39,1
22653,0,54643,62803,54614.68,62724.6,28.32,78.39,0.009458,-0.009413,0.659573,93.51,1
22665,0,54650,62819,54615.39,62726.49,34.61,92.51,0.009445,-0.009443,0.653307,93.67,1
22674,0,54651,62818,54616.1,62728.32,34.9,89.68,0.009432,-0.009472,0.648031,93.8,1
22683,0,54657,62831,54616.92,62730.38,40.08,100.62,0.009417,-0.009505,0.641982,93.95,1
22694,0,54658,62829,54617.74,62732.35,40.26,96.65,0.009402,-0.009536,0.637199,94.07,1
22704,0,54661,62827,54618.6,62734.25,42.39,92.75,0.009386,-0.009567,0.634106,94.15,1
22714,0,54661,62834,54619.45,62736.24,41.55,97.76,0.00937,-0.009598,0.629868,94.25,1
22724,0,54659,62838,54620.25,62738.28,38.75,99.72,0.009356,-0.009631,0.624639,94.38,1
22734,0,54667,62841,54621.18,62740.33,45.82,100.66,0.009339,-0.009664,0.621534,94.46,1
22744,0,54666,62849,54622.08,62742.51,43.92,106.49,0.009322,-0.009698,0.616822,94.58,1
22754,0,54661,62847,54622.86,62744.6,38.14,102.39,0.009308,-0.009732,0.611591,94.71,1
22764,0,54665,62852,54623.7,62746.75,41.3,105.25,0.009293,-0.009766,0.606882,94.83,1
22773,0,54670,62863,54624.63,62749.08,45.37,113.92,0.009276,-0.009803,0.601853,94.95,1
22784,0,54676,62863,54625.66,62751.36,50.34,111.64,0.009257,-0.009839,0.599052,95.02,1
22794,0,54681,62867,54626.76,62753.67,54.23,113.32,0.009237,-0.009876,0.597344,95.07,1
22804,0,54682,62865,54627.87,62755.9,54.13,109.1,0.009216,-0.009912,0.596464,95.09,1
22814,0,54679,62883,54628.89,62758.44,50.11,124.55,0.009198,-0.009952,0.591549,95.21,1
22823,0,54678,62877,54629.87,62760.82,48.13,116.18,0.00918,-0.00999,0.587901,95.3,1
22834,0,54681,62879,54630.9,62763.18,50.1,115.82,0.009161,-0.010028,0.585056,95.37,1
22844,0,54685,62893,54631.98,62765.78,53.02,127.22,0.009141,-0.010069,0.581218,95.47,1
22853,0,54685,62894,54633.04,62768.34,51.96,125.66,0.009122,-0.01011,0.577585,95.56,1
22864,0,54685,62904,54634.08,62771.05,50.92,132.95,0.009103,-0.010153,0.572633,95.68,1
22874,0,54697,62902,54635.34,62773.67,61.66,128.32,0.009079,-0.010195,0.571874,95.7,1
22883,0,54691,62897,54636.46,62776.14,54.54,120.86,0.009059,-0.010234,0.570238,95.74,1
22894,0,54698,62901,54637.69,62778.64,60.31,122.36,0.009037,-0.010274,0.5701,95.75,1
22903,0,54693,62894,54638.8,62780.95,54.2,113.05,0.009016,-0.010311,0.569583,95.76,1
22913,0,54685,62879,54639.72,62782.91,45.28,96.09,0.008999,-0.010342,0.569051,95.77,1
22924,0,54672,62860,54640.37,62784.45,31.63,75.55,0.008987,-0.010367,0.568088,95.8,1
22933,0,54680,62858,54641.17,62785.92,38.83,72.07,0.008973,-0.01039,0.568661,95.78,1
22944,0,54676,62865,54641.86,62787.51,34.14,77.49,0.00896,-0.010415,0.567926,95.8,1
22953,0,54673,62851,54642.49,62788.78,30.51,62.22,0.008949,-0.010435,0.567892,95.8,1
22964,0,54669,62852,54643.02,62790.04,25.98,61.96,0.008939,-0.010456,0.567259,95.82,1
22974,0,54669,62843,54643.54,62791.1,25.46,51.9,0.008929,-0.010472,0.567242,95.82,1
22983,0,54672,62848,54644.11,62792.24,27.89,55.76,0.008919,-0.010491,0.567293,95.82,1
22993,0,54675,62851,54644.73,62793.42,30.27,57.58,0.008908,-0.010509,0.56756,95.81,1
23003,0,54677,62853,54645.37,62794.61,31.63,58.39,0.008896,-0.010528,0.567974,95.8,1
23014,0,54672,62850,54645.91,62795.72,26.09,54.28,0.008886,-0.010546,0.567881,95.8,1
23023,0,54673,62833,54646.45,62796.46,26.55,36.54,0.008876,-0.010558,0.568822,95.78,1
23034,0,54672,62853,54646.96,62797.59,25.04,55.41,0.008867,-0.010576,0.568514,95.79,1
23044,0,54670,62850,54647.42,62798.64,22.58,51.36,0.008858,-0.010593,0.568178,95.8,1
23053,0,54673,62861,54647.93,62799.89,25.07,61.11,0.008849,-0.010612,0.567468,95.81,1
23063,0,54671,62844,54648.4,62800.77,22.6,43.23,0.008841,-0.010626,0.56761,95.81,1
23073,0,54675,62848,54648.93,62801.72,26.07,46.28,0.008831,-0.010641,0.568011,95.8,1
23084,0,54668,62847,54649.31,62802.63,18.69,44.37,0.008824,-0.010656,0.567679,95.81,1
23093,0,54679,62849,54649.91,62803.56,29.09,45.44,0.008813,-0.010671,0.568557,95.79,1
23104,0,54671,62857,54650.33,62804.63,20.67,52.37,0.008805,-0.010688,0.567934,95.8,1
23113,0,54673,62849,54650.78,62805.52,22.21,43.48,0.008797,-0.010702,0.568019,95.8,1
23123,0,54677,62855,54651.31,62806.51,25.69,48.49,0.008787,-0.010718,0.568244,95.79,1
23134,0,54679,62861,54651.86,62807.6,27.14,53.4,0.008777,-0.010735,0.568348,95.79,1
23143,0,54679,62864,54652.41,62808.73,26.59,55.27,0.008767,-0.010753,0.568246,95.79,1
23153,0,54676,62862,54652.88,62809.8,23.12,52.2,0.008759,-0.01077,0.567903,95.8,1
23162,0,54685,62863,54653.52,62810.86,31.48,52.14,0.008747,-0.010787,0.568765,95.78,1
23174,0,54686,62867,54654.17,62811.99,31.83,55.01,0.008735,-0.010805,0.569483,95.76,1
23183,0,54681,62860,54654.71,62812.95,26.29,47.05,0.008725,-0.01082,0.569876,95.75,1
23194,0,54684,62881,54655.3,62814.31,28.7,66.69,0.008714,-0.010842,0.569163,95.77,1
23203,0,54681,62880,54655.81,62815.63,25.19,64.37,0.008705,-0.010863,0.568151,95.8,1
23214,0,54678,62879,54656.26,62816.89,21.74,62.11,0.008697,-0.010883,0.566903,95.83,1
23223,0,54679,62877,54656.71,62818.1,22.29,58.9,0.008688,-0.010902,0.565977,95.85,1
23233,0,54686,62880,54657.3,62819.34,28.7,60.66,0.008678,-0.010922,0.565794,95.86,1
23243,0,54689,62882,54657.93,62820.59,31.07,61.41,0.008666,-0.010942,0.565933,95.85,1
23252,0,54692,62888,54658.62,62821.94,33.38,66.05,0.008654,-0.010964,0.566084,95.85,1
23264,0,54686,62881,54659.16,62823.13,26.84,57.87,0.008644,-0.010982,0.565838,95.85,1
23273,0,54687,62884,54659.72,62824.35,27.28,59.65,0.008633,-0.011002,0.565521,95.86,1
23283,0,54685,62900,54660.23,62825.86,24.77,74.14,0.008624,-0.011026,0.563591,95.91,1
23293,0,54694,62893,54660.9,62827.21,33.1,65.79,0.008612,-0.011047,0.563738,95.91,1
23303,0,54690,62907,54661.48,62828.8,28.52,78.2,0.008601,-0.011073,0.561968,95.95,1
23313,0,54686,62899,54661.97,62830.21,24.03,68.79,0.008592,-0.011095,0.560477,95.99,1
23322,0,54684,62901,54662.41,62831.63,21.59,69.37,0.008584,-0.011118,0.558646,96.03,1
23333,0,54696,62901,54663.08,62833.01,32.91,67.98,0.008572,-0.01114,0.558623,96.03,1
23343,0,54701,62903,54663.84,62834.41,37.16,68.59,0.008558,-0.011162,0.55935,96.02,1
23354,0,54693,62917,54664.42,62836.07,28.57,80.93,0.008547,-0.011188,0.557373,96.07,1
23363,0,54694,62906,54665.01,62837.47,28.98,68.53,0.008537,-0.011211,0.556662,96.08,1
23372,0,54701,62915,54665.73,62839.02,35.27,75.98,0.008523,-0.011235,0.556364,96.09,1
23383,0,54698,62917,54666.38,62840.58,31.62,76.42,0.008512,-0.01126,0.555375,96.12,1
23393,0,54697,62916,54667,62842.09,30,73.91,0.0085,-0.011284,0.55437,96.14,1
23403,0,54702,62918,54667.69,62843.61,34.3,74.39,0.008488,-0.011308,0.554074,96.15,1
23412,0,54696,62917,54668.26,62845.08,27.73,71.92,0.008477,-0.011332,0.552917,96.18,1
23424,0,54703,62925,54668.96,62846.68,34.04,78.32,0.008464,-0.011357,0.55222,96.19,1
23433,0,54701,62933,54669.6,62848.41,31.4,84.59,0.008453,-0.011385,0.550447,96.24,1
23443,0,54698,62929,54670.17,62850.01,27.83,78.98,0.008442,-0.01141,0.548702,96.28,1
23453,0,54698,62926,54670.73,62851.53,27.27,74.46,0.008432,-0.011434,0.547319,96.32,1
23462,0,54692,62934,54671.16,62853.18,20.84,80.82,0.008424,-0.011461,0.544537,96.39,1
23473,0,54700,62929,54671.73,62854.7,28.27,74.3,0.008414,-0.011485,0.543366,96.42,1
23483,0,54703,62934,54672.36,62856.28,30.64,77.71,0.008402,-0.01151,0.542273,96.44,1
23493,0,54703,62949,54672.97,62858.14,30.03,90.86,0.008391,-0.011539,0.539795,96.51,1
23502,0,54703,62947,54673.57,62859.92,29.43,87.08,0.00838,-0.011568,0.537664,96.56,1
23513,0,54701,62952,54674.12,62861.76,26.87,90.23,0.00837,-0.011597,0.534874,96.63,1
23523,0,54702,62948,54674.68,62863.49,27.32,84.51,0.00836,-0.011625,0.532768,96.68,1
23532,0,54714,62952,54675.47,62865.26,38.53,86.74,0.008345,-0.011653,0.532421,96.69,1
23543,0,54712,62956,54676.2,62867.08,35.8,88.92,0.008332,-0.011682,0.531338,96.72,1
23553,0,54714,62953,54676.96,62868.8,37.04,84.2,0.008318,-0.011709,0.530965,96.73,1
23563,0,54711,62962,54677.64,62870.66,33.36,91.34,0.008306,-0.011739,0.52924,96.77,1
23573,0,54715,62973,54678.39,62872.71,36.61,100.29,0.008292,-0.011771,0.527206,96.82,1
23582,0,54716,62978,54679.14,62874.82,36.86,103.18,0.008278,-0.011805,0.524959,96.88,1
23592,0,54722,62980,54680,62876.92,42,103.08,0.008262,-0.011838,0.523815,96.9,1
23603,0,54712,62972,54680.64,62878.82,31.36,93.18,0.008251,-0.011868,0.521753,96.96,1
23613,0,54717,62988,54681.37,62881.01,35.63,106.99,0.008237,-0.011903,0.519035,97.02,1
23622,0,54726,62993,54682.26,62883.25,43.73,109.75,0.008221,-0.011939,0.517692,97.06,1
23632,0,54727,62993,54683.16,62885.45,43.84,107.55,0.008205,-0.011974,0.516652,97.08,1
23643,0,54726,63003,54684.01,62887.8,41.98,115.2,0.008189,-0.012011,0.514431,97.14,1
23652,0,54727,63005,54684.87,62890.15,42.13,114.85,0.008173,-0.012049,0.512355,97.19,1
23663,0,54730,63009,54685.78,62892.53,44.22,116.47,0.008157,-0.012086,0.510605,97.23,1
23672,0,54733,63008,54686.73,62894.84,46.27,113.16,0.008139,-0.012123,0.509702,97.26,1
23683,0,54735,63004,54687.69,62897.02,47.31,106.98,0.008122,-0.012158,0.509673,97.26,1
23693,0,54727,63008,54688.48,62899.25,38.52,108.75,0.008107,-0.012193,0.507743,97.31,1
23702,0,54725,63000,54689.21,62901.26,35.79,98.74,0.008094,-0.012225,0.506324,97.34,1
23712,0,54722,62994,54689.87,62903.12,32.13,90.88,0.008082,-0.012255,0.505026,97.37,1
23723,0,54720,62966,54690.47,62904.37,29.53,61.63,0.008071,-0.012275,0.505348,97.37,1
23732,0,54723,62960,54691.12,62905.49,31.88,54.51,0.008059,-0.012292,0.506369,97.34,1
23743,0,54719,62961,54691.68,62906.6,27.32,54.4,0.008049,-0.01231,0.50677,97.33,1
23752,0,54717,62954,54692.19,62907.55,24.81,46.45,0.00804,-0.012325,0.507231,97.32,1
23762,0,54703,62950,54692.4,62908.4,10.6,41.6,0.008036,-0.012339,0.506711,97.33,1
23773,0,54706,62942,54692.67,62909.07,13.32,32.93,0.008031,-0.012349,0.506638,97.33,1
23782,0,54710,62945,54693.02,62909.79,16.98,35.21,0.008024,-0.012361,0.506756,97.33,1
23792,0,54710,62946,54693.36,62910.51,16.64,35.48,0.008018,-0.012372,0.506838,97.33,1
23802,0,54708,62940,54693.66,62911.1,14.34,28.89,0.008013,-0.012382,0.506948,97.33,1
23813,0,54705,62936,54693.89,62911.6,11.11,24.4,0.008009,-0.01239,0.506973,97.33,1
23822,0,54707,62932,54694.15,62912.01,12.85,19.99,0.008004,-0.012396,0.507193,97.32,1
23833,0,54708,62937,54694.43,62912.51,13.57,24.49,0.007999,-0.012404,0.507366,97.32,1
23842,0,54704,62932,54694.62,62912.9,9.38,19.1,0.007995,-0.01241,0.507414,97.31,1
23852,0,54703,62931,54694.79,62913.26,8.21,17.73,0.007992,-0.012416,0.507435,97.31,1
23863,0,54696,62916,54694.81,62913.32,1.19,2.68,0.007992,-0.012417,0.50744,97.31,1
23872,0,54695,62921,54694.82,62913.48,0.18,7.52,0.007992,-0.01242,0.507417,97.31,1
23882,0,54689,62909,54694.7,62913.39,-5.7,-4.39,0.007994,-0.012418,0.507498,97.31,1
23891,0,54693,62909,54694.67,62913.3,-1.67,-4.3,0.007994,-0.012417,0.507501,97.31,1
23903,0,54682,62915,54694.42,62913.33,-12.42,1.66,0.007999,-0.012417,0.507914,97.3,1
23912,0,54681,62905,54694.15,62913.17,-13.15,-8.17,0.008004,-0.012415,0.508348,97.29,1
23922,0,54687,62907,54694.01,62913.05,-7.01,-6.05,0.008006,-0.012413,0.508466,97.29,1
23931,0,54686,62900,54693.85,62912.79,-7.85,-12.79,0.008009,-0.012409,0.508552,97.29,1
23943,0,54686,62905,54693.69,62912.64,-7.69,-7.64,0.008012,-0.012406,0.508689,97.28,1
23952,0,54686,62901,54693.54,62912.41,-7.54,-11.41,0.008015,-0.012402,0.508781,97.28,1
23962,0,54683,62908,54693.33,62912.32,-10.33,-4.32,0.008019,-0.012401,0.509076,97.27,1
23971,0,54681,62908,54693.08,62912.23,-12.08,-4.23,0.008023,-0.0124,0.509485,97.26,1
23983,0,54686,62905,54692.94,62912.09,-6.94,-7.09,0.008026,-0.012397,0.509599,97.26,1
23992,0,54679,62911,54692.66,62912.07,-13.66,-1.07,0.008031,-0.012397,0.510142,97.25,1
24003,0,54682,62911,54692.45,62912.05,-10.45,-1.05,0.008035,-0.012397,0.510465,97.24,1
24012,0,54677,62901,54692.14,62911.83,-15.14,-10.83,0.00804,-0.012393,0.511076,97.22,1
24022,0,54677,62901,54691.84,62911.62,-14.84,-10.62,0.008046,-0.01239,0.511668,97.21,1
24032,0,54673,62893,54691.46,62911.25,-18.46,-18.25,0.008053,-0.012384,0.512495,97.19,1
24042,0,54675,62893,54691.14,62910.88,-16.14,-17.88,0.008059,-0.012378,0.513093,97.17,1
24052,0,54669,62900,54690.69,62910.67,-21.7,-10.67,0.008067,-0.012375,0.514459,97.14,1
24061,0,54680,62896,54690.48,62910.37,-10.48,-14.38,0.008071,-0.01237,0.514673,97.13,1
24073,0,54677,62896,54690.21,62910.08,-13.21,-14.09,0.008076,-0.012366,0.515095,97.12,1
24082,0,54677,62897,54689.95,62909.83,-12.95,-12.83,0.008081,-0.012361,0.515519,97.11,1
24091,0,54677,62895,54689.69,62909.53,-12.69,-14.53,0.008085,-0.012357,0.515897,97.1,1
24102,0,54668,62896,54689.26,62909.26,-21.26,-13.27,0.008093,-0.012353,0.517221,97.07,1
24112,0,54667,62889,54688.81,62908.86,-21.81,-19.86,0.008101,-0.012346,0.518489,97.04,1
24123,0,54667,62898,54688.38,62908.65,-21.38,-10.65,0.008109,-0.012343,0.519888,97,1
24132,0,54676,62893,54688.13,62908.33,-12.13,-15.34,0.008114,-0.012338,0.520214,96.99,1
24141,0,54669,62895,54687.75,62908.07,-18.75,-13.07,0.008121,-0.012334,0.521252,96.97,1
24152,0,54663,62896,54687.26,62907.83,-24.26,-11.83,0.00813,-0.01233,0.523097,96.92,1
24162,0,54666,62899,54686.83,62907.65,-20.84,-8.65,0.008137,-0.012327,0.524488,96.89,1
24172,0,54666,62899,54686.42,62907.48,-20.42,-8.48,0.008145,-0.012324,0.525833,96.85,1
24181,0,54665,62887,54686,62907.07,-21,-20.07,0.008153,-0.012318,0.527035,96.82,1
24193,0,54668,62897,54685.64,62906.87,-17.64,-9.87,0.008159,-0.012314,0.528023,96.8,1
24202,0,54665,62899,54685.23,62906.71,-20.23,-7.71,0.008167,-0.012312,0.529379,96.77,1
24211,0,54666,62903,54684.84,62906.64,-18.84,-3.64,0.008174,-0.012311,0.530594,96.74,1
24222,0,54662,62896,54684.39,62906.43,-22.39,-10.43,0.008182,-0.012307,0.532252,96.69,1
24231,0,54668,62892,54684.06,62906.14,-16.06,-14.14,0.008188,-0.012303,0.533005,96.67,1
24242,0,54667,62905,54683.72,62906.12,-16.72,-1.12,0.008194,-0.012303,0.533991,96.65,1
24252,0,54664,62904,54683.33,62906.08,-19.33,-2.08,0.008202,-0.012302,0.535316,96.62,1
24262,0,54664,62916,54682.94,62906.28,-18.95,9.72,0.008209,-0.012305,0.536528,96.59,1
24271,0,54666,62906,54682.61,62906.27,-16.61,-0.27,0.008215,-0.012305,0.537525,96.56,1
24281,0,54669,62915,54682.33,62906.45,-13.34,8.55,0.00822,-0.012308,0.538116,96.55,1
24292,0,54674,62917,54682.17,62906.66,-8.17,10.34,0.008223,-0.012311,0.538279,96.54,1
24301,0,54668,62918,54681.89,62906.89,-13.89,11.11,0.008228,-0.012315,0.538896,96.53,1
24312,0,54667,62918,54681.59,62907.11,-14.59,10.89,0.008233,-0.012318,0.539597,96.51,1
24322,0,54671,62919,54681.38,62907.35,-10.38,11.65,0.008237,-0.012322,0.539894,96.5,1
24332,0,54673,62926,54681.22,62907.72,-8.22,18.28,0.00824,-0.012328,0.539875,96.5,1
24341,0,54670,62917,54680.99,62907.91,-10.99,9.09,0.008244,-0.012331,0.540272,96.49,1
24351,0,54673,62929,54680.83,62908.33,-7.84,20.67,0.008247,-0.012338,0.54015,96.5,1
24361,0,54660,62928,54680.42,62908.73,-20.42,19.27,0.008255,-0.012344,0.541457,96.46,1
24371,0,54666,62923,54680.13,62909.01,-14.13,13.98,0.00826,-0.012349,0.542074,96.45,1
24382,0,54669,62924,54679.91,62909.32,-10.91,14.68,0.008264,-0.012353,0.54236,96.44,1
24391,0,54672,62924,54679.75,62909.61,-7.75,14.39,0.008267,-0.012358,0.54242,96.44,1
24401,0,54673,62932,54679.62,62910.06,-6.62,21.94,0.008269,-0.012365,0.54217,96.45,1
24412,0,54672,62925,54679.47,62910.36,-7.47,14.64,0.008272,-0.01237,0.542208,96.44,1
24422,0,54663,62932,54679.14,62910.8,-16.14,21.2,0.008278,-0.012377,0.54287,96.43,1
24431,0,54668,62925,54678.92,62911.08,-10.92,13.92,0.008282,-0.012381,0.543189,96.42,1
24441,0,54672,62938,54678.78,62911.62,-6.79,26.37,0.008285,-0.01239,0.542739,96.43,1
24452,0,54670,62945,54678.61,62912.29,-8.61,32.71,0.008288,-0.012401,0.542055,96.45,1
24461,0,54668,62940,54678.4,62912.85,-10.4,27.15,0.008292,-0.012409,0.541823,96.45,1
24472,0,54667,62936,54678.17,62913.31,-11.17,22.69,0.008296,-0.012417,0.541873,96.45,1
24481,0,54670,62930,54678.01,62913.65,-8.01,16.35,0.008299,-0.012422,0.541898,96.45,1
24492,0,54673,62936,54677.91,62914.09,-4.91,21.91,0.008301,-0.012429,0.541544,96.46,1
24501,0,54672,62931,54677.79,62914.43,-5.79,16.57,0.008303,-0.012435,0.541429,96.46,1
24511,0,54666,62920,54677.56,62914.54,-11.56,5.46,0.008307,-0.012436,0.541995,96.45,1
24521,0,54663,62913,54677.27,62914.51,-14.27,-1.52,0.008312,-0.012436,0.542906,96.43,1
24530,0,54669,62912,54677.1,62914.46,-8.11,-2.46,0.008315,-0.012435,0.543201,96.42,1
24542,0,54664,62917,54676.84,62914.51,-12.84,2.48,0.00832,-0.012436,0.543948,96.4,1
24551,0,54669,62909,54676.69,62914.41,-7.69,-5.41,0.008323,-0.012434,0.544194,96.4,1
24561,0,54664,62918,54676.44,62914.48,-12.44,3.52,0.008328,-0.012435,0.544901,96.38,1
24571,0,54668,62916,54676.27,62914.51,-8.27,1.49,0.008331,-0.012436,0.545223,96.37,1
24582,0,54667,62920,54676.08,62914.62,-9.09,5.38,0.008334,-0.012438,0.545586,96.36,1
24591,0,54677,62917,54676.1,62914.67,0.89,2.33,0.008334,-0.012438,0.545588,96.36,1
24601,0,54673,62912,54676.05,62914.61,-3.05,-2.61,0.008335,-0.012438,0.54563,96.36,1
24611,0,54661,62905,54675.75,62914.42,-14.75,-9.42,0.00834,-0.012434,0.546591,96.34,1
24622,0,54655,62901,54675.33,62914.15,-20.33,-13.15,0.008348,-0.01243,0.548423,96.29,1
24631,0,54657,62897,54674.97,62913.81,-17.97,-16.81,0.008354,-0.012425,0.549697,96.26,1
24640,0,54654,62894,54674.55,62913.42,-20.55,-19.42,0.008362,-0.012419,0.551362,96.22,1
24651,0,54649,62885,54674.04,62912.85,-25.04,-27.85,0.008371,-0.012409,0.55359,96.16,1
24660,0,54643,62873,54673.42,62912.06,-30.42,-39.06,0.008383,-0.012397,0.556425,96.09,1
24672,0,54636,62870,54672.67,62911.22,-36.67,-41.22,0.008397,-0.012384,0.5611,95.97,1
24681,0,54637,62862,54671.95,62910.23,-34.95,-48.23,0.00841,-0.012368,0.564376,95.89,1
24691,0,54641,62870,54671.33,62909.43,-30.34,-39.43,0.008421,-0.012355,0.56705,95.82,1
24701,0,54637,62872,54670.65,62908.68,-33.65,-36.68,0.008434,-0.012343,0.570986,95.73,1
24711,0,54639,62867,54670.02,62907.85,-31.02,-40.85,0.008445,-0.01233,0.573673,95.66,1
