t_ms,phase,red_raw,ir_raw,red_dc,ir_dc,red_ac,ir_ac,OD_red,OD_ir,R,spo2,spo2_valid
107,0,50007,54711,50109.12,54404.36,-102.12,306.64,-0.131133,-0.140915,0.224462,100.00,1
113,0,50013,54722,50108.93,54405.00,-95.93,317.00,-0.131129,-0.140926,0.225083,100.00,1
120,0,50009,54726,50108.73,54405.64,-99.73,320.36,-0.131125,-0.140938,0.225784,100.00,1
125,0,50011,54727,50108.54,54406.29,-97.54,320.71,-0.131121,-0.140950,0.226427,100.00,1
130,0,50009,54731,50108.34,54406.94,-99.34,324.06,-0.131117,-0.140962,0.227102,100.00,1
134,0,50014,54735,50108.15,54407.60,-94.15,327.40,-0.131113,-0.140974,0.227635,100.00,1
138,0,50021,54733,50107.98,54408.25,-86.98,324.75,-0.131110,-0.140986,0.228011,100.00,1
143,0,50018,54741,50107.80,54408.92,-89.80,332.08,-0.131106,-0.140998,0.228423,100.00,1
148,0,50017,54739,50107.62,54409.58,-90.62,329.42,-0.131103,-0.141010,0.228863,100.00,1
151,0,50014,54745,50107.43,54410.25,-93.43,334.75,-0.131099,-0.141023,0.229347,100.00,1
154,0,50019,54750,50107.26,54410.93,-88.26,339.07,-0.131095,-0.141035,0.229693,100.00,1
156,0,50018,54741,50107.08,54411.59,-89.08,329.41,-0.131092,-0.141047,0.230094,100.00,1
159,0,50025,54748,50106.92,54412.27,-81.92,335.73,-0.131089,-0.141060,0.230311,100.00,1
163,0,50022,54740,50106.75,54412.92,-84.75,327.08,-0.131085,-0.141072,0.230622,100.00,1
167,0,50019,54722,50106.57,54413.54,-87.57,308.46,-0.131082,-0.141083,0.231065,100.00,1
171,0,50006,54694,50106.37,54414.11,-100.37,279.89,-0.131078,-0.141094,0.231922,100.00,1
173,0,50000,54662,50106.16,54414.60,-106.16,247.40,-0.131074,-0.141103,0.233036,100.00,1
176,0,49975,54629,50105.90,54415.03,-130.90,213.97,-0.131068,-0.141111,0.235010,100.00,1
186,0,49965,54594,50105.62,54415.39,-140.62,178.61,-0.131063,-0.141117,0.237408,100.00,1
197,0,49947,54557,50105.30,54415.68,-158.30,141.32,-0.131056,-0.141122,0.240561,100.00,1
208,0,49928,54531,50104.95,54415.91,-176.95,115.09,-0.131049,-0.141127,0.244549,100.00,1
217,0,49919,54510,50104.58,54416.10,-185.58,93.90,-0.131042,-0.141130,0.248937,100.00,1
230,0,49911,54489,50104.20,54416.25,-193.20,72.75,-0.131034,-0.141133,0.253678,100.00,1
238,0,49899,54479,50103.79,54416.37,-204.79,62.63,-0.131026,-0.141135,0.258964,100.00,1
248,0,49897,54481,50103.37,54416.50,-206.37,64.50,-0.131018,-0.141138,0.264274,100.00,1
259,0,49902,54477,50102.97,54416.62,-200.97,60.38,-0.131010,-0.141140,0.269262,100.00,1
269,0,49900,54477,50102.56,54416.74,-202.56,60.26,-0.131002,-0.141142,0.274285,100.00,1
280,0,49907,54477,50102.17,54416.86,-195.17,60.14,-0.130994,-0.141144,0.278910,100.00,1
289,0,49910,54485,50101.79,54417.00,-191.79,68.00,-0.130986,-0.141147,0.283338,100.00,1
298,0,49909,54486,50101.41,54417.14,-192.41,68.86,-0.130979,-0.141149,0.287766,100.00,1
309,0,49909,54493,50101.02,54417.29,-192.02,75.71,-0.130971,-0.141152,0.292142,100.00,1
318,0,49922,54495,50100.67,54417.45,-178.67,77.55,-0.130964,-0.141155,0.295905,100.00,1
328,0,49927,54495,50100.32,54417.61,-173.32,77.39,-0.130957,-0.141158,0.299433,100.00,1
338,0,49920,54496,50099.96,54417.76,-179.96,78.24,-0.130950,-0.141161,0.303228,100.00,1
348,0,49924,54498,50099.61,54417.92,-175.61,80.08,-0.130943,-0.141164,0.306827,100.00,1
359,0,49924,54497,50099.26,54418.08,-175.26,78.92,-0.130936,-0.141167,0.310404,100.00,1
368,0,49933,54495,50098.93,54418.24,-165.93,76.76,-0.130929,-0.141170,0.313602,100.00,1
380,0,49931,54499,50098.59,54418.40,-167.59,80.60,-0.130922,-0.141173,0.316856,100.00,1
389,0,49933,54502,50098.26,54418.57,-165.26,83.43,-0.130916,-0.141176,0.320012,100.00,1
397,0,49933,54503,50097.93,54418.74,-164.93,84.26,-0.130909,-0.141179,0.323152,100.00,1
407,0,49941,54504,50097.62,54418.91,-156.62,85.09,-0.130903,-0.141182,0.325974,100.00,1
419,0,49933,54499,50097.29,54419.07,-164.29,79.93,-0.130896,-0.141185,0.329096,100.00,1
428,0,49936,54507,50096.97,54419.25,-160.97,87.75,-0.130890,-0.141188,0.332076,100.00,1
438,0,49938,54503,50096.66,54419.42,-158.66,83.58,-0.130884,-0.141191,0.334977,100.00,1
448,0,49931,54496,50096.33,54419.57,-165.33,76.43,-0.130877,-0.141194,0.338147,100.00,1
459,0,49926,54492,50095.99,54419.72,-169.99,72.28,-0.130870,-0.141197,0.341508,100.00,1
469,0,49926,54494,50095.65,54419.87,-169.65,74.13,-0.130864,-0.141199,0.344851,100.00,1
478,0,49935,54488,50095.33,54420.00,-160.33,68.00,-0.130857,-0.141202,0.347840,100.00,1
488,0,49927,54489,50094.99,54420.14,-167.99,68.86,-0.130851,-0.141205,0.351128,100.00,1
498,0,49926,54480,50094.66,54420.27,-168.66,59.73,-0.130844,-0.141207,0.354456,100.00,1
508,0,49927,54478,50094.32,54420.38,-167.32,57.62,-0.130837,-0.141209,0.357735,100.00,1
517,0,49928,54477,50093.99,54420.50,-165.99,56.50,-0.130830,-0.141211,0.360965,100.00,1
530,0,49919,54470,50093.64,54420.60,-174.64,49.40,-0.130824,-0.141213,0.364555,100.00,1
538,0,49921,54477,50093.30,54420.71,-172.30,56.29,-0.130817,-0.141215,0.368039,100.00,1
549,0,49921,54475,50092.95,54420.82,-171.95,54.18,-0.130810,-0.141217,0.371513,100.00,1
560,0,49919,54472,50092.61,54420.93,-173.61,51.07,-0.130803,-0.141219,0.375060,100.00,1
569,0,49918,54469,50092.26,54421.02,-174.26,47.98,-0.130796,-0.141221,0.378638,100.00,1
580,0,49919,54474,50091.91,54421.13,-172.91,52.87,-0.130789,-0.141223,0.382155,100.00,1
589,0,49920,54470,50091.57,54421.23,-171.57,48.77,-0.130782,-0.141225,0.385626,100.00,1
600,0,49920,54469,50091.23,54421.32,-171.23,47.68,-0.130775,-0.141226,0.389086,100.00,1
610,0,49920,54476,50090.89,54421.43,-170.89,54.57,-0.130769,-0.141228,0.392524,100.00,1
620,0,49916,54476,50090.54,54421.54,-174.54,54.46,-0.130762,-0.141230,0.396116,100.00,1
630,0,49921,54475,50090.20,54421.65,-169.20,53.35,-0.130755,-0.141232,0.399493,100.00,1
639,0,49923,54478,50089.87,54421.77,-166.87,56.23,-0.130748,-0.141234,0.402775,99.93,1
649,0,49922,54478,50089.54,54421.88,-167.54,56.12,-0.130742,-0.141236,0.406089,99.85,1
660,0,49926,54475,50089.21,54421.99,-163.21,53.01,-0.130735,-0.141239,0.409242,99.77,1
669,0,49920,54484,50088.87,54422.11,-168.87,61.89,-0.130728,-0.141241,0.412609,99.68,1
680,0,49919,54482,50088.54,54422.23,-169.54,59.77,-0.130722,-0.141243,0.416012,99.60,1
689,0,49915,54484,50088.19,54422.36,-173.19,61.64,-0.130715,-0.141245,0.419565,99.51,1
699,0,49920,54478,50087.85,54422.47,-167.85,55.53,-0.130708,-0.141247,0.422916,99.43,1
709,0,49919,54484,50087.52,54422.60,-168.52,61.40,-0.130701,-0.141250,0.426286,99.34,1
719,0,49916,54480,50087.18,54422.71,-171.18,57.29,-0.130695,-0.141252,0.429780,99.26,1
730,0,49914,54481,50086.83,54422.83,-172.83,58.17,-0.130688,-0.141254,0.433345,99.17,1
739,0,49913,54476,50086.48,54422.94,-173.48,53.06,-0.130681,-0.141256,0.436954,99.08,1
749,0,49916,54476,50086.14,54423.05,-170.14,52.95,-0.130674,-0.141258,0.440428,98.99,1
758,0,49912,54468,50085.80,54423.14,-173.80,44.86,-0.130667,-0.141260,0.444076,98.90,1
769,0,49905,54448,50085.44,54423.19,-180.44,24.81,-0.130660,-0.141261,0.448045,98.80,1
779,0,49894,54419,50085.05,54423.18,-191.05,-4.18,-0.130652,-0.141260,0.452510,98.69,1
789,0,49875,54376,50084.64,54423.09,-209.64,-47.09,-0.130644,-0.141259,0.457834,98.55,1
799,0,49850,54332,50084.17,54422.91,-234.17,-90.91,-0.130634,-0.141255,0.464331,98.39,1
809,0,49834,54307,50083.67,54422.68,-249.67,-115.68,-0.130624,-0.141251,0.471578,98.21,1
819,0,49821,54280,50083.14,54422.39,-262.14,-142.39,-0.130614,-0.141246,0.479370,98.02,1
830,0,49809,54241,50082.60,54422.03,-273.60,-181.03,-0.130603,-0.141239,0.487511,97.81,1
839,0,49802,54234,50082.04,54421.66,-280.04,-187.66,-0.130592,-0.141232,0.495904,97.60,1
850,0,49794,54220,50081.46,54421.25,-287.46,-201.25,-0.130580,-0.141225,0.504538,97.39,1
859,0,49793,54213,50080.89,54420.84,-287.89,-207.84,-0.130569,-0.141217,0.513003,97.17,1
869,0,49790,54210,50080.31,54420.42,-290.31,-210.42,-0.130557,-0.141210,0.521473,96.96,1
881,0,49790,54205,50079.73,54419.99,-289.73,-214.99,-0.130546,-0.141202,0.529728,96.76,1
889,0,49796,54201,50079.16,54419.55,-283.16,-218.55,-0.130535,-0.141194,0.537404,96.56,1
899,0,49794,54205,50078.59,54419.12,-284.59,-214.12,-0.130523,-0.141186,0.545116,96.37,1
910,0,49789,54202,50078.02,54418.69,-289.02,-216.69,-0.130512,-0.141178,0.552972,96.18,1
919,0,49794,54206,50077.45,54418.27,-283.45,-212.27,-0.130500,-0.141170,0.560432,95.99,1
930,0,49795,54205,50076.89,54417.84,-281.89,-212.84,-0.130489,-0.141162,0.567697,95.81,1
939,0,49791,54199,50076.32,54417.40,-285.32,-218.40,-0.130478,-0.141154,0.575012,95.62,1
949,0,49788,54199,50075.74,54416.97,-287.74,-217.97,-0.130466,-0.141146,0.582387,95.44,1
960,0,49786,54201,50075.16,54416.54,-289.16,-215.54,-0.130455,-0.141138,0.589790,95.26,1
969,0,49786,54196,50074.59,54416.10,-288.59,-220.10,-0.130443,-0.141130,0.597006,95.07,1
979,0,49788,54193,50074.02,54415.65,-286.02,-222.65,-0.130432,-0.141122,0.603947,94.90,1
990,0,49784,54195,50073.44,54415.21,-289.44,-220.21,-0.130420,-0.141114,0.611042,94.72,1
999,0,49796,54193,50072.88,54414.77,-276.88,-221.77,-0.130409,-0.141106,0.617306,94.57,1
1010,0,49794,54197,50072.33,54414.34,-278.33,-217.34,-0.130398,-0.141098,0.623652,94.41,1
1019,0,49799,54197,50071.78,54413.90,-272.78,-216.90,-0.130387,-0.141090,0.629630,94.26,1
1029,0,49800,54194,50071.24,54413.46,-271.24,-219.46,-0.130376,-0.141082,0.635428,94.11,1
1040,0,49796,54198,50070.69,54413.04,-274.69,-215.04,-0.130365,-0.141074,0.641428,93.96,1
1049,0,49795,54191,50070.14,54412.59,-275.14,-221.59,-0.130354,-0.141066,0.647294,93.82,1
1059,0,49795,54195,50069.59,54412.16,-274.59,-217.16,-0.130343,-0.141058,0.653144,93.67,1
1069,0,49798,54188,50069.04,54411.71,-271.04,-223.71,-0.130332,-0.141050,0.658643,93.53,1
1079,0,49793,54185,50068.49,54411.26,-275.49,-226.26,-0.130321,-0.141041,0.664289,93.39,1
1089,0,49794,54184,50067.95,54410.81,-273.95,-226.81,-0.130311,-0.141033,0.669787,93.26,1
1100,0,49796,54187,50067.40,54410.36,-271.40,-223.36,-0.130300,-0.141025,0.675156,93.12,1
1109,0,49799,54181,50066.87,54409.91,-267.87,-228.91,-0.130289,-0.141016,0.680194,93.00,1
1120,0,49798,54184,50066.33,54409.46,-268.33,-225.46,-0.130278,-0.141008,0.685272,92.87,1
1130,0,49796,54173,50065.79,54408.98,-269.79,-235.98,-0.130268,-0.140999,0.690191,92.75,1
1139,0,49794,54179,50065.25,54408.53,-271.25,-229.53,-0.130257,-0.140991,0.695257,92.62,1
1150,0,49797,54181,50064.71,54408.07,-267.71,-227.07,-0.130246,-0.140983,0.700139,92.50,1
1160,0,49793,54181,50064.17,54407.62,-271.17,-226.62,-0.130235,-0.140974,0.705165,92.37,1
1170,0,49797,54174,50063.64,54407.16,-266.64,-233.16,-0.130225,-0.140966,0.709791,92.26,1
1181,0,49796,54169,50063.11,54406.68,-267.11,-237.68,-0.130214,-0.140957,0.714311,92.14,1
1189,0,49797,54169,50062.57,54406.21,-265.57,-237.21,-0.130203,-0.140948,0.718721,92.03,1
1200,0,49785,54173,50062.02,54405.74,-277.02,-232.74,-0.130192,-0.140940,0.723769,91.91,1
1210,0,49790,54178,50061.48,54405.29,-271.48,-227.29,-0.130181,-0.140932,0.728588,91.79,1
1219,0,49792,54178,50060.94,54404.84,-268.94,-226.84,-0.130171,-0.140923,0.733245,91.67,1
1231,0,49791,54169,50060.40,54404.37,-269.40,-235.37,-0.130160,-0.140915,0.737715,91.56,1
1242,0,49797,54175,50059.87,54403.91,-262.87,-228.91,-0.130149,-0.140906,0.741950,91.45,1
1249,0,49793,54187,50059.34,54403.48,-266.34,-216.48,-0.130139,-0.140898,0.746568,91.34,1
1259,0,49797,54185,50058.82,54403.04,-261.82,-218.04,-0.130128,-0.140890,0.750898,91.23,1
1269,0,49789,54186,50058.28,54402.61,-269.28,-216.61,-0.130117,-0.140882,0.755597,91.11,1
1279,0,49788,54186,50057.74,54402.17,-269.74,-216.17,-0.130107,-0.140874,0.760293,90.99,1
1289,0,49796,54194,50057.21,54401.76,-261.21,-207.76,-0.130096,-0.140867,0.764698,90.88,1
1299,0,49790,54191,50056.68,54401.34,-266.68,-210.34,-0.130086,-0.140859,0.769294,90.77,1
1308,0,49792,54189,50056.16,54400.91,-264.16,-211.91,-0.130075,-0.140851,0.773703,90.66,1
1319,0,49790,54184,50055.62,54400.48,-265.62,-216.48,-0.130064,-0.140843,0.778062,90.55,1
1329,0,49791,54185,50055.10,54400.05,-264.10,-215.05,-0.130054,-0.140835,0.782346,90.44,1
1339,0,49787,54193,50054.56,54399.64,-267.56,-206.64,-0.130043,-0.140828,0.786943,90.33,1
1349,0,49791,54195,50054.04,54399.23,-263.04,-204.23,-0.130033,-0.140820,0.791338,90.22,1
1360,0,49793,54189,50053.52,54398.81,-260.52,-209.81,-0.130022,-0.140813,0.795469,90.11,1
1374,0,49789,54180,50052.99,54398.37,-263.99,-218.37,-0.130012,-0.140805,0.799561,90.01,1
1388,0,49782,54149,50052.45,54397.88,-270.45,-248.88,-0.130001,-0.140795,0.803223,89.92,1
1395,0,49764,54114,50051.87,54397.31,-287.87,-283.31,-0.129989,-0.140785,0.806814,89.83,1
1404,0,49751,54074,50051.27,54396.67,-300.27,-322.67,-0.129978,-0.140773,0.809808,89.75,1
1412,0,49721,54039,50050.61,54395.95,-329.61,-356.95,-0.129964,-0.140760,0.813235,89.67,1
1420,0,49704,54009,50049.92,54395.18,-345.92,-386.18,-0.129950,-0.140746,0.816464,89.59,1
1429,0,49689,53984,50049.20,54394.36,-360.20,-410.36,-0.129936,-0.140731,0.819518,89.51,1
1440,0,49680,53968,50048.46,54393.51,-368.46,-425.51,-0.129921,-0.140715,0.822361,89.44,1
1449,0,49677,53953,50047.72,54392.63,-370.72,-439.63,-0.129907,-0.140699,0.824643,89.38,1
1460,0,49670,53942,50046.97,54391.73,-376.97,-449.73,-0.129891,-0.140682,0.826793,89.33,1
1469,0,49668,53938,50046.21,54390.82,-378.21,-452.82,-0.129876,-0.140666,0.828801,89.28,1
1480,0,49664,53939,50045.45,54389.92,-381.45,-450.92,-0.129861,-0.140649,0.831012,89.22,1
1489,0,49672,53943,50044.70,54389.03,-372.70,-446.03,-0.129846,-0.140633,0.832817,89.18,1
1499,0,49668,53941,50043.95,54388.14,-375.95,-447.14,-0.129831,-0.140616,0.834702,89.13,1
1509,0,49663,53935,50043.19,54387.23,-380.19,-452.23,-0.129816,-0.140600,0.836557,89.09,1
1519,0,49670,53942,50042.44,54386.34,-372.44,-444.34,-0.129801,-0.140583,0.838219,89.04,1
1529,0,49667,53937,50041.69,54385.44,-374.69,-448.44,-0.129786,-0.140567,0.839787,89.01,1
1539,0,49669,53938,50040.95,54384.55,-371.95,-446.55,-0.129771,-0.140550,0.841223,88.97,1
1550,0,49670,53938,50040.21,54383.66,-370.21,-445.66,-0.129756,-0.140534,0.842551,88.94,1
1559,0,49671,53934,50039.47,54382.76,-368.47,-448.76,-0.129742,-0.140517,0.843620,88.91,1
1570,0,49675,53933,50038.74,54381.86,-363.74,-448.86,-0.129727,-0.140501,0.844402,88.89,1
1581,0,49670,53925,50038.01,54380.95,-368.01,-455.95,-0.129712,-0.140484,0.845105,88.87,1
1590,0,49665,53931,50037.26,54380.05,-372.26,-449.05,-0.129697,-0.140467,0.846271,88.84,1
1600,0,49666,53923,50036.52,54379.13,-370.52,-456.13,-0.129683,-0.140451,0.847041,88.82,1
1610,0,49667,53931,50035.78,54378.24,-368.78,-447.24,-0.129668,-0.140434,0.848033,88.80,1
1620,0,49665,53929,50035.04,54377.34,-370.04,-448.34,-0.129653,-0.140418,0.849018,88.77,1
1632,0,49668,53937,50034.30,54376.46,-366.30,-439.46,-0.129638,-0.140402,0.850112,88.75,1
1640,0,49668,53931,50033.57,54375.57,-365.57,-444.57,-0.129624,-0.140385,0.850955,88.73,1
1650,0,49664,53933,50032.84,54374.69,-368.84,-441.69,-0.129609,-0.140369,0.852035,88.70,1
1660,0,49670,53932,50032.11,54373.80,-362.11,-441.80,-0.129595,-0.140353,0.852761,88.68,1
1670,0,49663,53929,50031.37,54372.92,-368.37,-443.92,-0.129580,-0.140336,0.853687,88.66,1
1681,0,49661,53925,50030.64,54372.02,-369.64,-447.02,-0.129565,-0.140320,0.854538,88.64,1
1691,0,49659,53922,50029.89,54371.12,-370.89,-449.12,-0.129550,-0.140303,0.855350,88.62,1
1700,0,49656,53919,50029.15,54370.22,-373.15,-451.22,-0.129535,-0.140287,0.856172,88.60,1
1711,0,49656,53923,50028.40,54369.33,-372.40,-446.33,-0.129520,-0.140270,0.857106,88.57,1
1720,0,49660,53917,50027.67,54368.43,-367.67,-451.43,-0.129506,-0.140254,0.857623,88.56,1
1731,0,49652,53924,50026.92,54367.54,-374.92,-443.54,-0.129491,-0.140238,0.858724,88.53,1
1741,0,49653,53923,50026.17,54366.65,-373.17,-443.65,-0.129476,-0.140221,0.859714,88.51,1
1750,0,49651,53918,50025.42,54365.76,-374.42,-447.76,-0.129461,-0.140205,0.860597,88.49,1
1760,0,49654,53928,50024.68,54364.88,-370.68,-436.88,-0.129446,-0.140189,0.861651,88.46,1
1771,0,49659,53925,50023.95,54364.00,-364.95,-439.00,-0.129431,-0.140172,0.862361,88.44,1
1781,0,49659,53928,50023.22,54363.13,-364.22,-435.13,-0.129417,-0.140156,0.863148,88.42,1
1790,0,49654,53937,50022.48,54362.28,-368.48,-425.28,-0.129402,-0.140141,0.864411,88.39,1
1800,0,49658,53933,50021.75,54361.43,-363.75,-428.43,-0.129387,-0.140125,0.865347,88.37,1
1810,0,49657,53938,50021.03,54360.58,-364.03,-422.58,-0.129373,-0.140110,0.866456,88.34,1
1821,0,49666,53948,50020.32,54359.76,-354.32,-411.76,-0.129359,-0.140094,0.867472,88.31,1
1830,0,49669,53951,50019.62,54358.94,-350.62,-407.94,-0.129345,-0.140079,0.868432,88.29,1
1840,0,49665,53953,50018.91,54358.13,-353.91,-405.13,-0.129331,-0.140064,0.869590,88.26,1
1849,0,49671,53957,50018.21,54357.33,-347.21,-400.33,-0.129317,-0.140050,0.870600,88.23,1
1859,0,49666,53960,50017.51,54356.54,-351.51,-396.54,-0.129303,-0.140035,0.871871,88.20,1
1870,0,49674,53964,50016.82,54355.75,-342.82,-391.75,-0.129289,-0.140021,0.872918,88.18,1
1881,0,49672,53974,50016.14,54354.99,-344.14,-380.99,-0.129275,-0.140007,0.874298,88.14,1
1890,0,49669,53968,50015.45,54354.22,-346.45,-386.22,-0.129261,-0.139992,0.875601,88.11,1
1901,0,49676,53974,50014.77,54353.46,-338.77,-379.46,-0.129248,-0.139979,0.876779,88.08,1
1910,0,49679,53982,50014.10,54352.72,-335.10,-370.72,-0.129234,-0.139965,0.878038,88.05,1
1920,0,49683,53988,50013.44,54351.99,-330.44,-363.99,-0.129221,-0.139951,0.879288,88.02,1
1930,0,49681,53992,50012.77,54351.27,-331.77,-359.27,-0.129208,-0.139938,0.880692,87.98,1
1940,0,49689,54002,50012.13,54350.58,-323.13,-348.58,-0.129195,-0.139925,0.882043,87.95,1
1950,0,49689,54000,50011.48,54349.88,-322.48,-349.88,-0.129182,-0.139913,0.883322,87.92,1
1961,0,49686,54010,50010.84,54349.20,-324.84,-339.20,-0.129169,-0.139900,0.884936,87.88,1
1971,0,49684,53991,50010.18,54348.48,-326.18,-357.48,-0.129156,-0.139887,0.886119,87.85,1
1981,0,49667,53969,50009.50,54347.73,-342.50,-378.73,-0.129143,-0.139873,0.887313,87.82,1
1991,0,49664,53939,50008.81,54346.91,-344.81,-407.91,-0.129129,-0.139858,0.887743,87.81,1
2000,0,49643,53899,50008.08,54346.02,-365.08,-447.02,-0.129114,-0.139842,0.887738,87.81,1
2011,0,49633,53875,50007.33,54345.07,-374.33,-470.07,-0.129099,-0.139824,0.887345,87.82,1
2020,0,49623,53857,50006.56,54344.10,-383.56,-487.10,-0.129084,-0.139806,0.886756,87.83,1
2030,0,49606,53842,50005.76,54343.09,-399.76,-501.09,-0.129068,-0.139788,0.886367,87.84,1
2041,0,49609,53835,50004.97,54342.08,-395.97,-507.08,-0.129052,-0.139769,0.885623,87.86,1
2050,0,49599,53825,50004.16,54341.05,-405.16,-516.05,-0.129036,-0.139750,0.884967,87.88,1
2061,0,49606,53826,50003.36,54340.02,-397.36,-514.02,-0.129020,-0.139731,0.884081,87.90,1
2070,0,49601,53824,50002.55,54338.99,-401.55,-514.99,-0.129004,-0.139712,0.883358,87.92,1
2079,0,49616,53824,50001.78,54337.96,-385.78,-513.96,-0.128988,-0.139693,0.882067,87.95,1
2090,0,49614,53832,50001.01,54336.95,-387.01,-504.95,-0.128973,-0.139675,0.881160,87.97,1
2100,0,49611,53835,50000.23,54335.95,-389.23,-500.95,-0.128957,-0.139656,0.880493,87.99,1
2111,0,49617,53842,49999.46,54334.96,-382.46,-492.96,-0.128942,-0.139638,0.879842,88.00,1
2120,0,49619,53835,49998.71,54333.96,-379.71,-498.96,-0.128927,-0.139620,0.878914,88.03,1
2131,0,49627,53836,49997.96,54332.96,-370.96,-496.96,-0.128912,-0.139601,0.877756,88.06,1
2140,0,49624,53842,49997.22,54331.98,-373.22,-489.98,-0.128897,-0.139583,0.876921,88.08,1
2150,0,49623,53840,49996.47,54331.00,-373.47,-491.00,-0.128882,-0.139565,0.876084,88.10,1
2178,0,49628,53839,49995.74,54330.01,-367.74,-491.01,-0.128867,-0.139547,0.875064,88.12,1
2208,0,49620,53843,49994.99,54329.04,-374.99,-486.04,-0.128852,-0.139529,0.874469,88.14,1
2241,0,49622,53842,49994.24,54328.07,-372.24,-486.07,-0.128837,-0.139511,0.873790,88.16,1
2299,0,49621,53845,49993.50,54327.10,-372.50,-482.10,-0.128822,-0.139493,0.873251,88.17,1
2311,0,49629,53854,49992.77,54326.16,-363.77,-472.16,-0.128808,-0.139476,0.872709,88.18,1
2315,0,49633,53861,49992.05,54325.23,-359.05,-464.23,-0.128794,-0.139459,0.872241,88.19,1
2320,0,49636,53855,49991.34,54324.29,-355.34,-469.29,-0.128779,-0.139442,0.871520,88.21,1
2327,0,49633,53858,49990.62,54323.36,-357.62,-465.36,-0.128765,-0.139425,0.870995,88.23,1
2333,0,49633,53866,49989.91,54322.45,-356.91,-456.45,-0.128751,-0.139408,0.870698,88.23,1
2338,0,49633,53869,49989.20,54321.54,-356.20,-452.54,-0.128736,-0.139391,0.870486,88.24,1
2342,0,49632,53857,49988.48,54320.61,-356.48,-463.61,-0.128722,-0.139374,0.869993,88.25,1
2346,0,49641,53868,49987.79,54319.71,-346.79,-451.71,-0.128708,-0.139357,0.869515,88.26,1
2349,0,49642,53861,49987.10,54318.80,-345.10,-457.80,-0.128694,-0.139341,0.868833,88.28,1
2353,0,49645,53869,49986.41,54317.90,-341.41,-448.90,-0.128681,-0.139324,0.868280,88.29,1
2356,0,49636,53863,49985.71,54316.99,-349.71,-453.99,-0.128667,-0.139307,0.867862,88.30,1
2359,0,49638,53859,49985.02,54316.07,-347.02,-457.07,-0.128653,-0.139290,0.867287,88.32,1
2361,0,49631,53862,49984.31,54315.17,-353.31,-453.17,-0.128639,-0.139274,0.867018,88.32,1
2363,0,49635,53859,49983.61,54314.26,-348.61,-455.26,-0.128625,-0.139257,0.866554,88.34,1
2366,0,49639,53856,49982.93,54313.34,-343.93,-457.34,-0.128611,-0.139240,0.865900,88.35,1
2369,0,49641,53860,49982.24,54312.44,-341.24,-452.44,-0.128597,-0.139223,0.865300,88.37,1
2372,0,49636,53855,49981.55,54311.52,-345.55,-456.52,-0.128583,-0.139207,0.864737,88.38,1
2376,0,49641,53861,49980.87,54310.62,-339.87,-449.62,-0.128570,-0.139190,0.864185,88.40,1
2380,0,49639,53865,49980.19,54309.73,-341.19,-444.73,-0.128556,-0.139174,0.863802,88.40,1
2391,0,49644,53866,49979.52,54308.85,-335.52,-442.85,-0.128543,-0.139157,0.863304,88.42,1
2399,0,49641,53873,49978.84,54307.98,-337.84,-434.98,-0.128529,-0.139141,0.863071,88.42,1
2412,0,49647,53873,49978.18,54307.11,-331.18,-434.11,-0.128516,-0.139125,0.862667,88.43,1
2419,0,49645,53879,49977.51,54306.25,-332.51,-427.25,-0.128503,-0.139110,0.862470,88.44,1
2429,0,49643,53882,49976.84,54305.41,-333.84,-423.41,-0.128489,-0.139094,0.862403,88.44,1
2440,0,49642,53886,49976.18,54304.57,-334.18,-418.57,-0.128476,-0.139079,0.862459,88.44,1
2450,0,49640,53891,49975.50,54303.75,-335.50,-412.75,-0.128462,-0.139063,0.862684,88.43,1
2461,0,49647,53898,49974.85,54302.94,-327.85,-404.94,-0.128449,-0.139049,0.862861,88.43,1
2470,0,49648,53908,49974.20,54302.15,-326.20,-394.15,-0.128436,-0.139034,0.863226,88.42,1
2481,0,49656,53904,49973.56,54301.36,-317.56,-397.36,-0.128424,-0.139019,0.863276,88.42,1
2491,0,49651,53911,49972.91,54300.57,-321.91,-389.57,-0.128411,-0.139005,0.863614,88.41,1
2500,0,49649,53913,49972.27,54299.80,-323.27,-386.80,-0.128398,-0.138991,0.864046,88.40,1
2511,0,49645,53913,49971.61,54299.03,-326.61,-386.03,-0.128385,-0.138976,0.864584,88.39,1
2522,0,49654,53914,49970.98,54298.26,-316.98,-384.26,-0.128372,-0.138962,0.864886,88.38,1
2531,0,49649,53915,49970.34,54297.49,-321.34,-382.49,-0.128359,-0.138948,0.865342,88.37,1
2541,0,49652,53916,49969.70,54296.73,-317.70,-380.73,-0.128346,-0.138934,0.865731,88.36,1
2551,0,49648,53892,49969.06,54295.92,-321.06,-403.92,-0.128334,-0.138919,0.865708,88.36,1
2561,0,49636,53864,49968.39,54295.06,-332.39,-431.06,-0.128320,-0.138903,0.865384,88.37,1
2572,0,49616,53831,49967.69,54294.13,-351.69,-463.13,-0.128306,-0.138886,0.864848,88.38,1
2581,0,49602,53795,49966.96,54293.14,-364.96,-498.14,-0.128291,-0.138868,0.863815,88.40,1
2590,0,49590,53773,49966.21,54292.10,-376.21,-519.10,-0.128276,-0.138849,0.862584,88.44,1
2602,0,49575,53746,49965.43,54291.01,-390.43,-545.01,-0.128261,-0.138829,0.861107,88.47,1
2612,0,49566,53737,49964.63,54289.90,-398.63,-552.90,-0.128245,-0.138808,0.859711,88.51,1
2622,0,49562,53722,49963.82,54288.77,-401.82,-566.77,-0.128229,-0.138788,0.858053,88.55,1
2631,0,49553,53716,49963.00,54287.62,-410.00,-571.62,-0.128212,-0.138766,0.856572,88.59,1
2640,0,49557,53722,49962.19,54286.50,-405.19,-564.50,-0.128196,-0.138746,0.855176,88.62,1
2650,0,49558,53725,49961.38,54285.37,-403.38,-560.37,-0.128180,-0.138725,0.853875,88.65,1
2661,0,49559,53733,49960.58,54284.27,-401.58,-551.27,-0.128164,-0.138705,0.852800,88.68,1
2671,0,49562,53741,49959.78,54283.19,-397.78,-542.19,-0.128148,-0.138685,0.851875,88.70,1
2682,0,49569,53752,49959.00,54282.12,-390.00,-530.12,-0.128132,-0.138665,0.851044,88.72,1
2691,0,49575,53760,49958.23,54281.08,-383.23,-521.08,-0.128117,-0.138646,0.850254,88.74,1
2701,0,49578,53762,49957.48,54280.05,-379.48,-518.05,-0.128102,-0.138627,0.849443,88.76,1
2711,0,49577,53762,49956.72,54279.01,-379.72,-517.01,-0.128087,-0.138608,0.848681,88.78,1
2721,0,49578,53770,49955.96,54278.00,-377.96,-508.00,-0.128071,-0.138589,0.848103,88.80,1
2732,0,49582,53774,49955.21,54276.99,-373.21,-502.99,-0.128056,-0.138571,0.847517,88.81,1
2741,0,49582,53772,49954.47,54275.98,-372.47,-503.98,-0.128041,-0.138552,0.846895,88.83,1
2751,0,49584,53780,49953.73,54274.99,-369.73,-494.99,-0.128027,-0.138534,0.846418,88.84,1
2762,0,49585,53784,49953.00,54274.01,-368.00,-490.01,-0.128012,-0.138516,0.846015,88.85,1
2771,0,49590,53791,49952.27,54273.04,-362.27,-482.04,-0.127997,-0.138498,0.845638,88.86,1
2782,0,49595,53800,49951.55,54272.10,-356.55,-472.10,-0.127983,-0.138480,0.845331,88.87,1
2791,0,49600,53808,49950.85,54271.17,-350.85,-463.17,-0.127969,-0.138463,0.845067,88.87,1
2801,0,49600,53817,49950.15,54270.27,-350.15,-453.27,-0.127955,-0.138447,0.844999,88.88,1
2814,0,49607,53823,49949.47,54269.37,-342.47,-446.37,-0.127941,-0.138430,0.844872,88.88,1
2821,0,49609,53827,49948.79,54268.49,-339.79,-441.49,-0.127928,-0.138414,0.844777,88.88,1
2832,0,49606,53823,49948.11,54267.60,-342.11,-444.60,-0.127914,-0.138398,0.844680,88.88,1
2842,0,49612,53831,49947.43,54266.73,-335.43,-435.73,-0.127901,-0.138381,0.844592,88.89,1
2851,0,49612,53831,49946.77,54265.86,-334.77,-434.86,-0.127887,-0.138365,0.844505,88.89,1
2862,0,49612,53832,49946.10,54264.99,-334.10,-432.99,-0.127874,-0.138349,0.844439,88.89,1
2871,0,49614,53836,49945.43,54264.13,-331.43,-428.13,-0.127861,-0.138334,0.844403,88.89,1
2881,0,49619,53842,49944.78,54263.29,-325.78,-421.29,-0.127848,-0.138318,0.844360,88.89,1
2891,0,49610,53839,49944.11,54262.44,-334.11,-423.44,-0.127834,-0.138303,0.844486,88.89,1
2901,0,49616,53840,49943.46,54261.60,-327.46,-421.60,-0.127821,-0.138287,0.844478,88.89,1
2910,0,49609,53841,49942.79,54260.76,-333.79,-419.76,-0.127808,-0.138272,0.844667,88.88,1
2921,0,49622,53848,49942.15,54259.93,-320.15,-411.93,-0.127795,-0.138256,0.844663,88.88,1
2931,0,49617,53855,49941.50,54259.12,-324.50,-404.12,-0.127782,-0.138241,0.844915,88.88,1
2942,0,49622,53862,49940.86,54258.33,-318.86,-396.33,-0.127769,-0.138227,0.845171,88.87,1
2951,0,49625,53871,49940.23,54257.56,-315.23,-386.56,-0.127756,-0.138213,0.845515,88.86,1
2961,0,49626,53878,49939.61,54256.80,-313.61,-378.80,-0.127744,-0.138199,0.845957,88.85,1
2973,0,49626,53884,49938.98,54256.05,-312.98,-372.05,-0.127731,-0.138185,0.846500,88.84,1
2982,0,49641,53896,49938.39,54255.34,-297.39,-359.34,-0.127720,-0.138172,0.846889,88.83,1
2992,0,49638,53892,49937.79,54254.61,-299.79,-362.61,-0.127708,-0.138158,0.847277,88.82,1
3002,0,49646,53897,49937.21,54253.89,-291.21,-356.89,-0.127696,-0.138145,0.847562,88.81,1
3012,0,49640,53906,49936.61,54253.20,-296.61,-347.20,-0.127684,-0.138132,0.848133,88.80,1
3022,0,49650,53919,49936.04,54252.53,-286.04,-333.53,-0.127673,-0.138120,0.848683,88.78,1
3032,0,49656,53927,49935.48,54251.88,-279.48,-324.88,-0.127661,-0.138108,0.849223,88.77,1
3041,0,49655,53928,49934.93,54251.24,-279.93,-323.24,-0.127650,-0.138096,0.849796,88.76,1
3052,0,49658,53934,49934.37,54250.61,-276.37,-316.61,-0.127639,-0.138084,0.850393,88.74,1
3061,0,49664,53942,49933.84,54249.99,-269.84,-307.99,-0.127628,-0.138073,0.850978,88.73,1
3071,0,49661,53942,49933.29,54249.37,-272.29,-307.37,-0.127617,-0.138062,0.851625,88.71,1
3082,0,49667,53951,49932.76,54248.78,-265.76,-297.78,-0.127607,-0.138051,0.852273,88.69,1
3090,0,49665,53955,49932.23,54248.20,-267.23,-293.20,-0.127596,-0.138040,0.853019,88.67,1
3100,0,49666,53956,49931.70,54247.61,-265.70,-291.61,-0.127585,-0.138029,0.853755,88.66,1
3113,0,49673,53961,49931.18,54247.04,-258.18,-286.04,-0.127575,-0.138019,0.854411,88.64,1
3121,0,49673,53962,49930.66,54246.47,-257.66,-284.47,-0.127565,-0.138008,0.855078,88.62,1
3133,0,49669,53953,49930.14,54245.89,-261.14,-292.89,-0.127554,-0.137997,0.855695,88.61,1
3142,0,49669,53928,49929.62,54245.25,-260.62,-317.25,-0.127544,-0.137986,0.855920,88.60,1
3150,0,49654,53901,49929.07,54244.57,-275.07,-343.57,-0.127533,-0.137973,0.856018,88.60,1
3163,0,49637,53869,49928.49,54243.82,-291.49,-374.82,-0.127521,-0.137959,0.855923,88.60,1
3171,0,49617,53832,49927.87,54243.00,-310.87,-411.00,-0.127509,-0.137944,0.855581,88.61,1
3182,0,49612,53820,49927.24,54242.15,-315.24,-422.15,-0.127496,-0.137929,0.855118,88.62,1
3191,0,49599,53798,49926.58,54241.27,-327.58,-443.27,-0.127483,-0.137912,0.854520,88.64,1
3202,0,49590,53796,49925.91,54240.37,-335.91,-444.37,-0.127470,-0.137896,0.854132,88.65,1
3211,0,49587,53796,49925.23,54239.49,-338.23,-443.49,-0.127456,-0.137879,0.853835,88.65,1
3222,0,49588,53795,49924.56,54238.60,-336.56,-443.60,-0.127443,-0.137863,0.853492,88.66,1
3232,0,49594,53792,49923.90,54237.71,-329.90,-445.71,-0.127429,-0.137847,0.852924,88.68,1
3242,0,49595,53798,49923.25,54236.83,-328.25,-438.83,-0.127416,-0.137830,0.852471,88.69,1
3251,0,49592,53809,49922.59,54235.98,-330.59,-426.98,-0.127403,-0.137815,0.852348,88.69,1
3262,0,49598,53805,49921.94,54235.12,-323.94,-430.12,-0.127390,-0.137799,0.851979,88.70,1
3271,0,49604,53806,49921.30,54234.26,-317.30,-428.26,-0.127377,-0.137783,0.851480,88.71,1
3281,0,49603,53803,49920.67,54233.40,-317.67,-430.40,-0.127365,-0.137767,0.850949,88.73,1
3292,0,49597,53800,49920.02,54232.54,-323.02,-432.54,-0.127352,-0.137751,0.850519,88.74,1
3301,0,49600,53798,49919.38,54231.67,-319.38,-433.67,-0.127339,-0.137735,0.849973,88.75,1
3311,0,49603,53796,49918.75,54230.80,-315.75,-434.80,-0.127326,-0.137719,0.849315,88.77,1
3322,0,49603,53792,49918.12,54229.92,-315.12,-437.92,-0.127314,-0.137703,0.848580,88.79,1
3331,0,49603,53800,49917.49,54229.06,-314.49,-429.06,-0.127301,-0.137687,0.848028,88.80,1
3341,0,49605,53794,49916.87,54228.20,-311.87,-434.20,-0.127288,-0.137671,0.847305,88.82,1
3351,0,49603,53804,49916.24,54227.35,-313.24,-423.35,-0.127276,-0.137656,0.846857,88.83,1
3360,0,49604,53814,49915.62,54226.52,-311.62,-412.52,-0.127263,-0.137640,0.846597,88.84,1
3371,0,49606,53806,49915.00,54225.68,-309.00,-419.68,-0.127251,-0.137625,0.846125,88.85,1
3382,0,49606,53816,49914.38,54224.87,-308.38,-408.87,-0.127239,-0.137610,0.845864,88.85,1
3391,0,49611,53821,49913.78,54224.06,-302.78,-403.06,-0.127227,-0.137595,0.845582,88.86,1
3402,0,49614,53815,49913.18,54223.25,-299.18,-408.25,-0.127215,-0.137580,0.845110,88.87,1
3411,0,49609,53817,49912.57,54222.43,-303.57,-405.43,-0.127202,-0.137565,0.844807,88.88,1
3421,0,49604,53820,49911.96,54221.63,-307.96,-401.63,-0.127190,-0.137550,0.844694,88.88,1
3432,0,49608,53823,49911.35,54220.83,-303.35,-397.83,-0.127178,-0.137535,0.844541,88.89,1
3442,0,49609,53830,49910.75,54220.05,-301.75,-390.05,-0.127166,-0.137521,0.844502,88.89,1
3451,0,49609,53829,49910.15,54219.27,-301.15,-390.27,-0.127154,-0.137507,0.844444,88.89,1
3461,0,49615,53834,49909.56,54218.50,-294.56,-384.50,-0.127142,-0.137492,0.844336,88.89,1
3470,0,49612,53832,49908.96,54217.73,-296.96,-385.73,-0.127130,-0.137478,0.844265,88.89,1
3482,0,49615,53842,49908.38,54216.98,-293.38,-374.98,-0.127118,-0.137464,0.844310,88.89,1
3491,0,49612,53849,49907.79,54216.24,-295.79,-367.24,-0.127107,-0.137451,0.844558,88.89,1
3500,0,49619,53850,49907.21,54215.51,-288.21,-365.51,-0.127095,-0.137437,0.844653,88.88,1
3511,0,49621,53847,49906.64,54214.78,-285.64,-367.78,-0.127084,-0.137424,0.844643,88.88,1
3521,0,49621,53859,49906.07,54214.07,-285.07,-355.07,-0.127072,-0.137411,0.844853,88.88,1
3533,0,49623,53863,49905.50,54213.37,-282.50,-350.37,-0.127061,-0.137398,0.845084,88.87,1
3543,0,49632,53863,49904.96,54212.67,-272.96,-349.67,-0.127050,-0.137385,0.845103,88.87,1
3552,0,49633,53876,49904.41,54212.00,-271.41,-336.00,-0.127039,-0.137372,0.845327,88.87,1
3562,0,49635,53884,49903.87,54211.34,-268.87,-327.34,-0.127028,-0.137360,0.845638,88.86,1
3573,0,49631,53886,49903.33,54210.69,-272.33,-324.69,-0.127017,-0.137348,0.846072,88.85,1
3582,0,49635,53890,49902.80,54210.05,-267.80,-320.05,-0.127007,-0.137337,0.846478,88.84,1
3593,0,49638,53900,49902.27,54209.43,-264.27,-309.43,-0.126996,-0.137325,0.846975,88.83,1
3602,0,49639,53906,49901.75,54208.83,-262.75,-302.83,-0.126985,-0.137314,0.847543,88.81,1
3612,0,49644,53911,49901.23,54208.23,-257.23,-297.23,-0.126975,-0.137303,0.848074,88.80,1
3621,0,49641,53915,49900.71,54207.65,-259.71,-292.65,-0.126965,-0.137292,0.848731,88.78,1
3632,0,49643,53923,49900.20,54207.08,-257.20,-284.08,-0.126954,-0.137282,0.849462,88.76,1
3642,0,49644,53933,49899.68,54206.54,-255.68,-273.54,-0.126944,-0.137272,0.850315,88.74,1
3652,0,49651,53937,49899.19,54206.00,-248.19,-269.00,-0.126934,-0.137262,0.851069,88.72,1
3662,0,49652,53953,49898.70,54205.49,-246.70,-252.49,-0.126924,-0.137252,0.852023,88.70,1
3673,0,49656,53954,49898.21,54204.99,-242.21,-250.99,-0.126915,-0.137243,0.852901,88.68,1
3683,0,49655,53962,49897.73,54204.51,-242.73,-242.51,-0.126905,-0.137234,0.853907,88.65,1
3692,0,49658,53979,49897.25,54204.06,-239.25,-225.06,-0.126895,-0.137226,0.855064,88.62,1
3703,0,49655,53973,49896.77,54203.60,-241.77,-230.60,-0.126886,-0.137217,0.856209,88.59,1
3712,0,49662,53971,49896.30,54203.13,-234.30,-232.13,-0.126876,-0.137209,0.857174,88.57,1
3722,0,49659,53962,49895.82,54202.65,-236.82,-240.65,-0.126867,-0.137200,0.858082,88.55,1
3732,0,49646,53946,49895.32,54202.14,-249.32,-256.14,-0.126857,-0.137191,0.859048,88.52,1
3742,0,49638,53914,49894.81,54201.57,-256.81,-287.57,-0.126847,-0.137180,0.859698,88.51,1
3752,0,49615,53889,49894.25,54200.94,-279.25,-311.94,-0.126835,-0.137169,0.860477,88.49,1
3762,0,49608,53872,49893.68,54200.29,-285.68,-328.29,-0.126824,-0.137156,0.861119,88.47,1
3772,0,49597,53856,49893.09,54199.60,-296.09,-343.60,-0.126812,-0.137144,0.861737,88.46,1
3783,0,49595,53848,49892.50,54198.89,-297.50,-350.89,-0.126800,-0.137131,0.862244,88.44,1
3792,0,49589,53850,49891.89,54198.20,-302.89,-348.20,-0.126788,-0.137118,0.862950,88.43,1
3803,0,49594,53845,49891.30,54197.50,-297.30,-352.50,-0.126776,-0.137105,0.863409,88.41,1
3813,0,49598,53861,49890.71,54196.82,-292.71,-335.82,-0.126764,-0.137093,0.864075,88.40,1
3823,0,49606,53862,49890.14,54196.16,-284.14,-334.16,-0.126753,-0.137080,0.864540,88.39,1
3833,0,49607,53873,49889.58,54195.51,-282.58,-322.51,-0.126742,-0.137068,0.865187,88.37,1
3843,0,49618,53878,49889.04,54194.88,-271.04,-316.88,-0.126731,-0.137057,0.865640,88.36,1
3852,0,49614,53892,49888.49,54194.27,-274.49,-302.27,-0.126720,-0.137045,0.866448,88.34,1
3864,0,49625,53896,49887.96,54193.68,-262.96,-297.68,-0.126709,-0.137035,0.867045,88.32,1
3873,0,49627,53894,49887.44,54193.08,-260.44,-299.08,-0.126699,-0.137024,0.867553,88.31,1
3882,0,49627,53910,49886.92,54192.52,-259.92,-282.52,-0.126688,-0.137013,0.868337,88.29,1
3893,0,49634,53919,49886.42,54191.97,-252.42,-272.97,-0.126678,-0.137003,0.869098,88.27,1
3902,0,49639,53921,49885.93,54191.43,-246.93,-270.43,-0.126668,-0.136993,0.869771,88.26,1
3912,0,49639,53933,49885.43,54190.91,-246.43,-257.91,-0.126659,-0.136983,0.870633,88.23,1
3922,0,49641,53935,49884.95,54190.40,-243.95,-255.40,-0.126649,-0.136974,0.871477,88.21,1
3932,0,49641,53949,49884.46,54189.92,-243.46,-240.92,-0.126639,-0.136965,0.872532,88.19,1
3943,0,49645,53943,49883.98,54189.43,-238.98,-246.43,-0.126629,-0.136956,0.873400,88.17,1
3951,0,49647,53952,49883.51,54188.96,-236.51,-236.96,-0.126620,-0.136947,0.874355,88.14,1
3962,0,49647,53949,49883.04,54188.48,-236.04,-239.48,-0.126610,-0.136938,0.875261,88.12,1
3972,0,49650,53952,49882.57,54188.00,-232.57,-236.00,-0.126601,-0.136930,0.876142,88.10,1
3982,0,49651,53953,49882.11,54187.54,-231.11,-234.54,-0.126592,-0.136921,0.877012,88.07,1
3993,0,49644,53954,49881.63,54187.07,-237.63,-233.07,-0.126582,-0.136912,0.878056,88.05,1
4002,0,49645,53951,49881.16,54186.60,-236.16,-235.60,-0.126573,-0.136904,0.879028,88.02,1
4013,0,49646,53953,49880.69,54186.13,-234.69,-233.13,-0.126564,-0.136895,0.880004,88.00,1
4022,0,49648,53950,49880.23,54185.66,-232.23,-235.66,-0.126554,-0.136887,0.880884,87.98,1
4032,0,49648,53942,49879.76,54185.18,-231.76,-243.18,-0.126545,-0.136878,0.881633,87.96,1
4042,0,49652,53950,49879.31,54184.71,-227.31,-234.71,-0.126536,-0.136869,0.882415,87.94,1
4053,0,49654,53947,49878.86,54184.23,-224.86,-237.23,-0.126527,-0.136860,0.883100,87.92,1
4063,0,49648,53946,49878.40,54183.76,-230.40,-237.76,-0.126518,-0.136851,0.883907,87.90,1
4072,0,49657,53944,49877.96,54183.28,-220.96,-239.28,-0.126509,-0.136843,0.884469,87.89,1
4083,0,49653,53949,49877.51,54182.81,-224.51,-233.81,-0.126500,-0.136834,0.885203,87.87,1
4093,0,49653,53950,49877.06,54182.35,-224.06,-232.35,-0.126491,-0.136825,0.885950,87.85,1
4103,0,49660,53943,49876.62,54181.87,-216.62,-238.87,-0.126482,-0.136817,0.886419,87.84,1
4112,0,49651,53949,49876.18,54181.41,-225.18,-232.41,-0.126473,-0.136808,0.887194,87.82,1
4122,0,49650,53936,49875.73,54180.92,-225.73,-244.92,-0.126464,-0.136799,0.887772,87.81,1
4133,0,49656,53941,49875.29,54180.44,-219.29,-239.44,-0.126455,-0.136790,0.888292,87.79,1
4141,0,49656,53940,49874.85,54179.96,-218.85,-239.96,-0.126446,-0.136781,0.888792,87.78,1
4151,0,49656,53948,49874.41,54179.50,-218.41,-231.50,-0.126438,-0.136773,0.889426,87.76,1
4163,0,49655,53943,49873.98,54179.03,-218.98,-236.03,-0.126429,-0.136764,0.889998,87.75,1
4172,0,49656,53950,49873.54,54178.57,-217.54,-228.57,-0.126420,-0.136756,0.890661,87.73,1
4183,0,49656,53956,49873.11,54178.12,-217.11,-222.12,-0.126412,-0.136747,0.891421,87.71,1
4192,0,49646,53954,49872.66,54177.68,-226.66,-223.68,-0.126402,-0.136739,0.892389,87.69,1
4202,0,49655,53956,49872.22,54177.24,-217.22,-221.24,-0.126394,-0.136731,0.893167,87.67,1
4213,0,49656,53966,49871.79,54176.82,-215.79,-210.82,-0.126385,-0.136723,0.894080,87.65,1
4223,0,49656,53973,49871.36,54176.41,-215.36,-203.41,-0.126376,-0.136716,0.895100,87.62,1
4232,0,49656,53985,49870.93,54176.03,-214.93,-191.03,-0.126368,-0.136709,0.896298,87.59,1
4242,0,49664,53988,49870.52,54175.65,-206.52,-187.65,-0.126360,-0.136702,0.897349,87.57,1
4252,0,49669,53990,49870.12,54175.28,-201.12,-185.28,-0.126351,-0.136695,0.898312,87.54,1
4262,0,49665,53995,49869.71,54174.92,-204.71,-179.92,-0.126343,-0.136688,0.899438,87.51,1
4272,0,49663,54001,49869.29,54174.57,-206.29,-173.57,-0.126335,-0.136682,0.900692,87.48,1
4282,0,49676,54003,49868.91,54174.23,-192.91,-171.23,-0.126327,-0.136676,0.901675,87.46,1
4293,0,49680,54008,49868.53,54173.90,-188.53,-165.90,-0.126320,-0.136670,0.902638,87.43,1
4302,0,49672,54013,49868.14,54173.58,-196.14,-160.58,-0.126312,-0.136664,0.903845,87.40,1
4312,0,49676,54012,49867.76,54173.26,-191.76,-161.26,-0.126304,-0.136658,0.904948,87.38,1
4322,0,49674,54002,49867.37,54172.92,-193.37,-170.92,-0.126296,-0.136651,0.905961,87.35,1
4332,0,49663,53977,49866.96,54172.53,-203.96,-195.53,-0.126288,-0.136644,0.906853,87.33,1
4342,0,49656,53953,49866.54,54172.09,-210.54,-219.09,-0.126280,-0.136636,0.907503,87.31,1
4352,0,49644,53913,49866.10,54171.58,-222.10,-258.58,-0.126271,-0.136627,0.907662,87.31,1
4379,0,49627,53894,49865.62,54171.02,-238.62,-277.02,-0.126261,-0.136616,0.907863,87.30,1
4387,0,49611,53879,49865.11,54170.44,-254.11,-291.44,-0.126251,-0.136606,0.908179,87.30,1
4392,0,49610,53869,49864.61,54169.84,-254.61,-300.84,-0.126241,-0.136595,0.908273,87.29,1
4451,0,49600,53858,49864.08,54169.22,-264.08,-311.22,-0.126230,-0.136583,0.908394,87.29,1
4460,0,49601,53862,49863.55,54168.61,-262.55,-306.61,-0.126220,-0.136572,0.908587,87.29,1
4466,0,49600,53869,49863.03,54168.01,-263.03,-299.01,-0.126209,-0.136561,0.908988,87.28,1
4473,0,49612,53870,49862.53,54167.41,-250.53,-297.41,-0.126199,-0.136550,0.909037,87.27,1
4479,0,49610,53882,49862.02,54166.84,-252.02,-284.84,-0.126189,-0.136539,0.909444,87.26,1
4485,0,49612,53888,49861.52,54166.29,-249.52,-278.29,-0.126179,-0.136529,0.909929,87.25,1
4491,0,49618,53892,49861.04,54165.74,-243.04,-273.74,-0.126169,-0.136519,0.910325,87.24,1
4499,0,49621,53900,49860.56,54165.21,-239.56,-265.21,-0.126160,-0.136509,0.910813,87.23,1
4504,0,49623,53905,49860.09,54164.69,-237.09,-259.69,-0.126150,-0.136499,0.911353,87.22,1
4508,0,49628,53909,49859.62,54164.18,-231.62,-255.18,-0.126141,-0.136490,0.911834,87.20,1
4511,0,49624,53917,49859.16,54163.69,-235.16,-246.69,-0.126132,-0.136481,0.912602,87.18,1
4513,0,49634,53919,49858.71,54163.20,-224.71,-244.20,-0.126123,-0.136472,0.913123,87.17,1
4517,0,49638,53929,49858.27,54162.73,-220.27,-233.73,-0.126114,-0.136463,0.913740,87.16,1
4521,0,49637,53939,49857.82,54162.29,-220.82,-223.29,-0.126105,-0.136455,0.914584,87.14,1
4533,0,49639,53941,49857.39,54161.84,-218.39,-220.84,-0.126096,-0.136447,0.915408,87.11,1
4544,0,49642,53945,49856.96,54161.41,-214.96,-216.41,-0.126088,-0.136439,0.916226,87.09,1
4554,0,49649,53951,49856.54,54160.99,-207.54,-209.99,-0.126079,-0.136431,0.916968,87.08,1
4563,0,49647,53946,49856.12,54160.56,-209.12,-214.56,-0.126071,-0.136423,0.917665,87.06,1
4574,0,49647,53949,49855.71,54160.14,-208.71,-211.14,-0.126062,-0.136415,0.918417,87.04,1
4584,0,49650,53956,49855.30,54159.73,-205.30,-203.73,-0.126054,-0.136408,0.919220,87.02,1
4594,0,49643,53950,49854.87,54159.32,-211.87,-209.32,-0.126046,-0.136400,0.920094,87.00,1
4603,0,49642,53943,49854.45,54158.89,-212.45,-215.89,-0.126037,-0.136392,0.920854,86.98,1
4614,0,49643,53946,49854.03,54158.46,-211.03,-212.46,-0.126029,-0.136384,0.921643,86.96,1
4622,0,49637,53944,49853.59,54158.04,-216.59,-214.04,-0.126020,-0.136377,0.922557,86.94,1
4632,0,49643,53936,49853.18,54157.59,-210.18,-221.59,-0.126012,-0.136368,0.923133,86.92,1
4644,0,49641,53944,49852.75,54157.17,-211.75,-213.17,-0.126003,-0.136361,0.923928,86.90,1
4653,0,49635,53948,49852.32,54156.75,-217.32,-208.75,-0.125995,-0.136353,0.924971,86.88,1
4665,0,49643,53957,49851.90,54156.35,-208.90,-199.35,-0.125986,-0.136345,0.925961,86.85,1
4673,0,49641,53964,49851.48,54155.97,-210.48,-191.97,-0.125978,-0.136338,0.927137,86.82,1
4683,0,49640,53962,49851.06,54155.58,-211.06,-193.58,-0.125969,-0.136331,0.928299,86.79,1
4693,0,49645,53961,49850.65,54155.20,-205.65,-194.20,-0.125961,-0.136324,0.929299,86.77,1
4702,0,49643,53972,49850.23,54154.83,-207.23,-182.83,-0.125953,-0.136317,0.930557,86.74,1
4713,0,49650,53972,49849.84,54154.47,-199.84,-182.47,-0.125945,-0.136311,0.931619,86.71,1
4721,0,49650,53977,49849.44,54154.11,-199.44,-177.11,-0.125937,-0.136304,0.932769,86.68,1
4733,0,49649,53986,49849.04,54153.78,-200.04,-167.78,-0.125929,-0.136298,0.934102,86.65,1
4743,0,49650,53993,49848.64,54153.46,-198.64,-160.46,-0.125921,-0.136292,0.935524,86.61,1
4752,0,49658,53990,49848.26,54153.13,-190.26,-163.13,-0.125913,-0.136286,0.936677,86.58,1
4763,0,49659,53988,49847.88,54152.80,-188.88,-164.80,-0.125906,-0.136280,0.937768,86.56,1
4774,0,49658,54001,49847.50,54152.50,-189.50,-151.50,-0.125898,-0.136274,0.939101,86.52,1
4784,0,49661,53994,49847.13,54152.19,-186.13,-158.19,-0.125891,-0.136269,0.940237,86.49,1
4793,0,49661,54000,49846.76,54151.88,-185.76,-151.88,-0.125883,-0.136263,0.941473,86.46,1
4803,0,49659,53999,49846.39,54151.58,-187.39,-152.58,-0.125876,-0.136257,0.942745,86.43,1
4813,0,49667,53999,49846.03,54151.27,-179.03,-152.27,-0.125868,-0.136252,0.943805,86.40,1
4823,0,49666,54001,49845.67,54150.97,-179.67,-149.97,-0.125861,-0.136246,0.944923,86.38,1
4832,0,49665,54005,49845.31,54150.68,-180.31,-145.68,-0.125854,-0.136241,0.946133,86.35,1
4843,0,49670,54008,49844.96,54150.40,-174.96,-142.40,-0.125847,-0.136236,0.947260,86.32,1
4853,0,49665,54011,49844.60,54150.12,-179.60,-139.12,-0.125840,-0.136230,0.948567,86.29,1
4862,0,49671,54020,49844.25,54149.86,-173.25,-129.86,-0.125833,-0.136226,0.949854,86.25,1
4873,0,49680,54030,49843.93,54149.62,-163.93,-119.62,-0.125826,-0.136221,0.951058,86.22,1
4883,0,49678,54030,49843.59,54149.39,-165.59,-119.39,-0.125819,-0.136217,0.952312,86.19,1
4893,0,49682,54040,49843.27,54149.17,-161.27,-109.17,-0.125813,-0.136213,0.953604,86.16,1
4903,0,49678,54049,49842.95,54148.97,-164.95,-99.97,-0.125806,-0.136209,0.955109,86.12,1
4913,0,49680,54041,49842.62,54148.75,-162.62,-107.75,-0.125800,-0.136205,0.956468,86.09,1
4924,0,49673,54038,49842.28,54148.54,-169.28,-110.54,-0.125793,-0.136201,0.957969,86.05,1
4934,0,49672,54009,49841.94,54148.26,-169.94,-139.26,-0.125786,-0.136196,0.959056,86.02,1
4944,0,49655,53979,49841.57,54147.92,-186.57,-168.92,-0.125779,-0.136190,0.960051,86.00,1
4953,0,49641,53947,49841.17,54147.52,-200.17,-200.52,-0.125771,-0.136182,0.960740,85.98,1
4963,0,49625,53918,49840.74,54147.06,-215.74,-229.06,-0.125762,-0.136174,0.961179,85.97,1
4973,0,49615,53900,49840.29,54146.57,-225.29,-246.57,-0.125753,-0.136165,0.961431,85.96,1
4983,0,49612,53878,49839.84,54146.04,-227.84,-268.04,-0.125744,-0.136155,0.961083,85.97,1
4993,0,49597,53872,49839.35,54145.49,-242.35,-273.49,-0.125734,-0.136145,0.961098,85.97,1
5004,0,49593,53868,49838.86,54144.93,-245.86,-276.93,-0.125724,-0.136135,0.961132,85.97,1
5012,0,49596,53871,49838.37,54144.39,-242.37,-273.39,-0.125715,-0.136125,0.961151,85.97,1
5022,0,49599,53876,49837.90,54143.85,-238.90,-267.85,-0.125705,-0.136115,0.961224,85.97,1
5034,0,49606,53890,49837.44,54143.34,-231.44,-253.34,-0.125696,-0.136105,0.961490,85.96,1
5043,0,49612,53887,49836.99,54142.83,-224.99,-255.83,-0.125687,-0.136096,0.961437,85.96,1
5054,0,49612,53896,49836.54,54142.34,-224.54,-246.34,-0.125678,-0.136087,0.961670,85.96,1
5064,0,49619,53908,49836.11,54141.87,-217.11,-233.87,-0.125669,-0.136078,0.962014,85.95,1
5073,0,49628,53907,49835.69,54141.40,-207.69,-234.40,-0.125661,-0.136069,0.962018,85.95,1
5083,0,49635,53916,49835.29,54140.95,-200.29,-224.95,-0.125653,-0.136061,0.962053,85.95,1
5093,0,49635,53927,49834.89,54140.53,-199.89,-213.53,-0.125645,-0.136053,0.962394,85.94,1
5103,0,49642,53935,49834.51,54140.12,-192.51,-205.12,-0.125637,-0.136046,0.962725,85.93,1
5113,0,49644,53939,49834.13,54139.71,-190.13,-200.71,-0.125630,-0.136038,0.963095,85.92,1
5123,0,49654,53943,49833.77,54139.32,-179.77,-196.32,-0.125622,-0.136031,0.963261,85.92,1
5133,0,49651,53955,49833.41,54138.96,-182.41,-183.96,-0.125615,-0.136024,0.963814,85.90,1
5143,0,49652,53956,49833.05,54138.59,-181.05,-182.59,-0.125608,-0.136018,0.964358,85.89,1
5153,0,49666,53961,49832.71,54138.24,-166.71,-177.24,-0.125601,-0.136011,0.964612,85.88,1
5163,0,49661,53964,49832.37,54137.89,-171.37,-173.89,-0.125594,-0.136005,0.965078,85.87,1
5173,0,49659,53965,49832.03,54137.55,-173.03,-172.55,-0.125587,-0.135998,0.965623,85.86,1
5183,0,49664,53965,49831.69,54137.20,-167.69,-172.20,-0.125581,-0.135992,0.966022,85.85,1
5193,0,49666,53972,49831.36,54136.87,-165.36,-164.87,-0.125574,-0.135986,0.966522,85.84,1
5203,0,49663,53964,49831.02,54136.53,-168.02,-172.53,-0.125567,-0.135979,0.966924,85.83,1
5213,0,49659,53967,49830.68,54136.20,-171.68,-169.20,-0.125560,-0.135973,0.967512,85.81,1
5222,0,49663,53970,49830.34,54135.86,-167.34,-165.86,-0.125554,-0.135967,0.968050,85.80,1
5233,0,49660,53973,49830.00,54135.54,-170.00,-162.54,-0.125547,-0.135961,0.968743,85.78,1
5243,0,49659,53965,49829.66,54135.20,-170.66,-170.20,-0.125540,-0.135955,0.969279,85.77,1
5253,0,49654,53975,49829.31,54134.88,-175.31,-159.88,-0.125533,-0.135949,0.970197,85.75,1
5263,0,49664,53970,49828.98,54134.55,-164.98,-164.55,-0.125526,-0.135943,0.970697,85.73,1
5274,0,49665,53976,49828.66,54134.23,-163.66,-158.23,-0.125520,-0.135937,0.971305,85.72,1
5283,0,49662,53976,49828.32,54133.92,-166.32,-157.92,-0.125513,-0.135931,0.972000,85.70,1
5293,0,49669,53983,49828.01,54133.62,-159.01,-150.62,-0.125507,-0.135926,0.972645,85.68,1
5303,0,49673,53988,49827.70,54133.33,-154.70,-145.33,-0.125501,-0.135920,0.973282,85.67,1
5313,0,49673,53999,49827.39,54133.06,-154.39,-134.06,-0.125494,-0.135915,0.974145,85.65,1
5323,0,49680,54005,49827.10,54132.81,-147.10,-127.81,-0.125489,-0.135911,0.974929,85.63,1
5333,0,49684,54009,49826.81,54132.56,-142.81,-123.56,-0.125483,-0.135906,0.975682,85.61,1
5343,0,49684,54007,49826.53,54132.31,-142.53,-125.31,-0.125477,-0.135902,0.976398,85.59,1
5353,0,49686,54006,49826.25,54132.06,-140.25,-126.06,-0.125471,-0.135897,0.977041,85.57,1
5363,0,49687,54020,49825.97,54131.84,-138.97,-111.84,-0.125466,-0.135893,0.977914,85.55,1
5373,0,49688,54026,49825.70,54131.63,-137.70,-105.63,-0.125460,-0.135889,0.978862,85.53,1
5383,0,49698,54024,49825.44,54131.41,-127.44,-107.41,-0.125455,-0.135885,0.979525,85.51,1
5393,0,49694,54035,49825.18,54131.22,-131.18,-96.22,-0.125450,-0.135881,0.980464,85.49,1
5404,0,49696,54038,49824.92,54131.04,-128.92,-93.04,-0.125445,-0.135878,0.981401,85.46,1
5413,0,49695,54041,49824.66,54130.86,-129.66,-89.86,-0.125440,-0.135875,0.982409,85.44,1
5423,0,49700,54042,49824.42,54130.68,-124.42,-88.68,-0.125435,-0.135871,0.983308,85.42,1
5433,0,49696,54045,49824.16,54130.51,-128.16,-85.51,-0.125430,-0.135868,0.984353,85.39,1
5443,0,49699,54057,49823.91,54130.37,-124.91,-73.37,-0.125425,-0.135866,0.985482,85.36,1
5453,0,49704,54058,49823.68,54130.22,-119.68,-72.22,-0.125420,-0.135863,0.986504,85.34,1
5463,0,49705,54065,49823.44,54130.09,-118.44,-65.09,-0.125415,-0.135861,0.987585,85.31,1
5473,0,49705,54055,49823.21,54129.95,-118.21,-74.95,-0.125410,-0.135858,0.988550,85.29,1
5483,0,49700,54074,49822.96,54129.84,-122.96,-55.84,-0.125405,-0.135856,0.989859,85.25,1
5493,0,49704,54070,49822.72,54129.72,-118.72,-59.72,-0.125401,-0.135854,0.991030,85.22,1
5504,0,49713,54081,49822.50,54129.62,-109.50,-48.62,-0.125396,-0.135852,0.992094,85.20,1
5514,0,49707,54066,49822.27,54129.50,-115.27,-63.50,-0.125392,-0.135850,0.993156,85.17,1
5524,0,49702,54039,49822.04,54129.32,-120.04,-90.32,-0.125387,-0.135846,0.993974,85.15,1
5535,0,49686,54009,49821.77,54129.08,-135.77,-120.08,-0.125381,-0.135842,0.994664,85.13,1
5545,0,49666,53975,49821.46,54128.77,-155.46,-153.77,-0.125375,-0.135836,0.995138,85.12,1
5554,0,49655,53947,49821.12,54128.41,-166.12,-181.41,-0.125369,-0.135829,0.995137,85.12,1
5565,0,49640,53923,49820.77,54128.00,-180.77,-205.00,-0.125361,-0.135822,0.994854,85.13,1
5575,0,49631,53903,49820.39,54127.55,-189.39,-224.55,-0.125354,-0.135813,0.994150,85.15,1
5585,0,49627,53897,49820.00,54127.09,-193.00,-230.09,-0.125346,-0.135805,0.993373,85.17,1
5594,0,49618,53890,49819.60,54126.61,-201.60,-236.61,-0.125338,-0.135796,0.992696,85.18,1
5604,0,49622,53901,49819.20,54126.16,-197.20,-225.16,-0.125330,-0.135788,0.992317,85.19,1
5613,0,49625,53905,49818.82,54125.72,-193.82,-220.72,-0.125322,-0.135780,0.991978,85.20,1
5623,0,49626,53912,49818.43,54125.30,-192.43,-213.30,-0.125315,-0.135772,0.991879,85.20,1
5633,0,49632,53908,49818.06,54124.86,-186.06,-216.86,-0.125307,-0.135764,0.991373,85.22,1
5643,0,49637,53916,49817.70,54124.45,-180.70,-208.45,-0.125300,-0.135756,0.990982,85.23,1
5654,0,49643,53927,49817.36,54124.05,-174.36,-197.05,-0.125293,-0.135749,0.990771,85.23,1
5664,0,49644,53934,49817.01,54123.67,-173.01,-189.67,-0.125286,-0.135742,0.990772,85.23,1
5674,0,49645,53939,49816.67,54123.30,-171.67,-184.30,-0.125279,-0.135735,0.990909,85.23,1
5684,0,49643,53942,49816.32,54122.95,-173.32,-180.95,-0.125272,-0.135728,0.991224,85.22,1
5693,0,49649,53953,49815.99,54122.61,-166.99,-169.61,-0.125265,-0.135722,0.991668,85.21,1
5702,0,49656,53962,49815.67,54122.29,-159.67,-160.29,-0.125259,-0.135716,0.992132,85.20,1
5715,0,49654,53965,49815.35,54121.97,-161.35,-156.97,-0.125253,-0.135710,0.992757,85.18,1
5725,0,49659,53973,49815.04,54121.68,-156.04,-148.68,-0.125246,-0.135705,0.993431,85.16,1
5735,0,49662,53982,49814.73,54121.40,-152.73,-139.40,-0.125240,-0.135700,0.994246,85.14,1
5744,0,49672,53991,49814.45,54121.14,-142.45,-130.14,-0.125235,-0.135695,0.994954,85.13,1
5754,0,49667,53990,49814.15,54120.88,-147.15,-130.88,-0.125229,-0.135690,0.995803,85.10,1
5764,0,49681,53991,49813.89,54120.62,-132.89,-129.62,-0.125223,-0.135685,0.996218,85.09,1
5774,0,49672,54000,49813.61,54120.38,-141.61,-120.38,-0.125218,-0.135681,0.997147,85.07,1
5785,0,49668,53993,49813.32,54120.13,-145.32,-127.13,-0.125212,-0.135676,0.998037,85.05,1
5794,0,49674,53990,49813.04,54119.87,-139.04,-129.87,-0.125206,-0.135672,0.998646,85.03,1
5804,0,49675,53991,49812.77,54119.61,-137.77,-128.61,-0.125201,-0.135667,0.999247,85.02,1
5815,0,49679,53993,49812.50,54119.36,-133.50,-126.36,-0.125195,-0.135662,0.999769,85.01,1
5824,0,49679,54003,49812.23,54119.13,-133.23,-116.13,-0.125190,-0.135658,1.000539,84.99,1
5834,0,49685,54009,49811.98,54118.91,-126.98,-109.91,-0.125185,-0.135654,1.001260,84.97,1
5844,0,49686,54006,49811.73,54118.69,-125.73,-112.69,-0.125180,-0.135650,1.001879,84.95,1
5854,0,49678,54007,49811.46,54118.47,-133.46,-111.47,-0.125175,-0.135646,1.002779,84.93,1
5864,0,49693,54015,49811.23,54118.26,-118.23,-103.26,-0.125170,-0.135642,1.003392,84.92,1
5875,0,49686,54023,49810.98,54118.07,-124.98,-95.07,-0.125165,-0.135638,1.004388,84.89,1
5884,0,49691,54026,49810.74,54117.89,-119.74,-91.89,-0.125160,-0.135635,1.005292,84.87,1
5895,0,49687,54025,49810.50,54117.71,-123.50,-92.71,-0.125155,-0.135632,1.006301,84.84,1
5905,0,49696,54038,49810.27,54117.55,-114.27,-79.55,-0.125151,-0.135629,1.007284,84.82,1
5913,0,49698,54046,49810.05,54117.41,-112.05,-71.41,-0.125146,-0.135626,1.008345,84.79,1
5924,0,49692,54048,49809.81,54117.27,-117.81,-69.27,-0.125141,-0.135624,1.009621,84.76,1
5934,0,49702,54056,49809.60,54117.15,-107.60,-61.15,-0.125137,-0.135621,1.010722,84.73,1
5943,0,49707,54063,49809.39,54117.05,-102.39,-54.05,-0.125133,-0.135619,1.011781,84.71,1
5954,0,49708,54077,49809.19,54116.97,-101.19,-39.97,-0.125129,-0.135618,1.012970,84.68,1
5964,0,49715,54077,49809.00,54116.89,-94.00,-39.89,-0.125125,-0.135617,1.013979,84.65,1
5974,0,49718,54085,49808.82,54116.83,-90.82,-31.83,-0.125122,-0.135615,1.014986,84.63,1
5984,0,49721,54088,49808.65,54116.77,-87.65,-28.77,-0.125118,-0.135614,1.015946,84.60,1
5994,0,49727,54091,49808.49,54116.72,-81.49,-25.72,-0.125115,-0.135613,1.016789,84.58,1
6004,0,49719,54093,49808.31,54116.68,-89.31,-23.68,-0.125111,-0.135613,1.017840,84.55,1
6014,0,49727,54106,49808.15,54116.66,-81.15,-10.66,-0.125108,-0.135612,1.018760,84.53,1
6024,0,49734,54103,49808.00,54116.63,-74.00,-13.63,-0.125105,-0.135612,1.019520,84.51,1
6034,0,49731,54105,49807.85,54116.61,-76.85,-11.61,-0.125102,-0.135611,1.020356,84.49,1
6044,0,49734,54112,49807.71,54116.60,-73.71,-4.60,-0.125099,-0.135611,1.021145,84.47,1
6054,0,49737,54111,49807.57,54116.59,-70.57,-5.59,-0.125096,-0.135611,1.021874,84.45,1
6064,0,49737,54119,49807.43,54116.59,-70.43,2.41,-0.125094,-0.135611,1.022610,84.43,1
6074,0,49735,54121,49807.28,54116.61,-72.28,4.39,-0.125091,-0.135611,1.023391,84.42,1
6084,0,49739,54121,49807.14,54116.62,-68.14,4.38,-0.125088,-0.135611,1.024092,84.40,1
6094,0,49742,54127,49807.02,54116.64,-65.02,10.36,-0.125085,-0.135612,1.024724,84.38,1
6104,0,49742,54120,49806.89,54116.65,-64.89,3.35,-0.125083,-0.135612,1.025372,84.37,1
6114,0,49742,54111,49806.76,54116.64,-64.76,-5.64,-0.125080,-0.135612,1.026020,84.35,1
6124,0,49738,54090,49806.62,54116.59,-68.62,-26.59,-0.125077,-0.135611,1.026661,84.33,1
6135,0,49717,54053,49806.44,54116.46,-89.44,-63.46,-0.125074,-0.135609,1.027357,84.32,1
6145,0,49709,54022,49806.25,54116.27,-97.25,-94.27,-0.125070,-0.135605,1.027598,84.31,1
6155,0,49688,53995,49806.01,54116.03,-118.01,-121.03,-0.125065,-0.135601,1.027730,84.31,1
6165,0,49675,53971,49805.75,54115.74,-130.75,-144.74,-0.125060,-0.135595,1.027465,84.31,1
6174,0,49670,53964,49805.48,54115.44,-135.48,-151.44,-0.125055,-0.135590,1.027118,84.32,1
6184,0,49668,53959,49805.21,54115.13,-137.21,-156.13,-0.125049,-0.135584,1.026639,84.33,1
6196,0,49656,53961,49804.91,54114.82,-148.91,-153.82,-0.125043,-0.135578,1.026810,84.33,1
6204,0,49662,53963,49804.62,54114.52,-142.62,-151.52,-0.125037,-0.135573,1.026783,84.33,1
6215,0,49663,53972,49804.34,54114.23,-141.34,-142.23,-0.125032,-0.135567,1.027097,84.32,1
6225,0,49670,53982,49804.08,54113.97,-134.08,-131.97,-0.125026,-0.135563,1.027494,84.31,1
6235,0,49677,53988,49803.82,54113.72,-126.82,-125.72,-0.125021,-0.135558,1.027816,84.30,1
6245,0,49686,53997,49803.59,54113.49,-117.59,-116.49,-0.125017,-0.135554,1.028097,84.30,1
6254,0,49689,54008,49803.36,54113.28,-114.36,-105.28,-0.125012,-0.135550,1.028625,84.28,1
6264,0,49696,54016,49803.15,54113.09,-107.15,-97.09,-0.125008,-0.135546,1.029136,84.27,1
6275,0,49701,54019,49802.95,54112.90,-101.95,-93.90,-0.125004,-0.135543,1.029558,84.26,1
6284,0,49700,54033,49802.74,54112.74,-102.74,-79.74,-0.125000,-0.135540,1.030387,84.24,1
6294,0,49708,54041,49802.55,54112.60,-94.55,-71.60,-0.124996,-0.135537,1.031134,84.22,1
6304,0,49713,54048,49802.37,54112.47,-89.37,-64.47,-0.124992,-0.135535,1.031872,84.20,1
6314,0,49713,54053,49802.20,54112.36,-89.20,-59.36,-0.124989,-0.135533,1.032709,84.18,1
6324,0,49718,54058,49802.03,54112.25,-84.03,-54.25,-0.124985,-0.135531,1.033488,84.16,1
6334,0,49718,54068,49801.86,54112.16,-83.86,-44.16,-0.124982,-0.135529,1.034427,84.14,1
6344,0,49728,54075,49801.72,54112.09,-73.72,-37.09,-0.124979,-0.135528,1.035181,84.12,1
6354,0,49729,54071,49801.57,54112.01,-72.57,-41.01,-0.124976,-0.135526,1.035860,84.10,1
6364,0,49721,54076,49801.41,54111.94,-80.41,-35.94,-0.124973,-0.135525,1.036829,84.08,1
6374,0,49721,54078,49801.25,54111.87,-80.25,-33.87,-0.124970,-0.135524,1.037826,84.05,1
6384,0,49723,54079,49801.10,54111.81,-78.10,-32.81,-0.124967,-0.135523,1.038780,84.03,1
6394,0,49729,54082,49800.95,54111.75,-71.95,-29.75,-0.124964,-0.135522,1.039601,84.01,1
6404,0,49730,54079,49800.81,54111.69,-70.81,-32.69,-0.124961,-0.135520,1.040367,83.99,1
6414,0,49728,54087,49800.67,54111.64,-72.67,-24.64,-0.124958,-0.135520,1.041272,83.97,1
6424,0,49727,54087,49800.52,54111.59,-73.52,-24.59,-0.124955,-0.135519,1.042209,83.94,1
6434,0,49728,54094,49800.38,54111.56,-72.38,-17.56,-0.124952,-0.135518,1.043175,83.92,1
6444,0,49725,54084,49800.23,54111.50,-75.23,-27.50,-0.124949,-0.135517,1.044151,83.90,1
6454,0,49729,54087,49800.09,54111.46,-71.09,-24.46,-0.124946,-0.135516,1.045045,83.87,1
6464,0,49728,54080,49799.95,54111.39,-71.95,-31.39,-0.124943,-0.135515,1.045899,83.85,1
6474,0,49717,54085,49799.78,54111.34,-82.78,-26.34,-0.124940,-0.135514,1.047153,83.82,1
6484,0,49721,54090,49799.62,54111.30,-78.62,-21.30,-0.124937,-0.135513,1.048326,83.79,1
6494,0,49729,54090,49799.48,54111.26,-70.48,-21.26,-0.124934,-0.135512,1.049261,83.77,1
6504,0,49729,54091,49799.34,54111.22,-70.34,-20.22,-0.124931,-0.135512,1.050209,83.74,1
6514,0,49727,54090,49799.20,54111.18,-72.20,-21.18,-0.124928,-0.135511,1.051212,83.72,1
6525,0,49718,54083,49799.04,54111.12,-81.04,-28.12,-0.124925,-0.135510,1.052442,83.69,1
6535,0,49725,54090,49798.89,54111.08,-73.89,-21.08,-0.124922,-0.135509,1.053517,83.66,1
6545,0,49727,54096,49798.75,54111.05,-71.75,-15.05,-0.124919,-0.135509,1.054577,83.64,1
6594,0,49725,54100,49798.61,54111.04,-73.61,-11.04,-0.124916,-0.135508,1.055728,83.61,1
6615,0,49729,54098,49798.47,54111.01,-69.47,-13.01,-0.124914,-0.135508,1.056749,83.58,1
6621,0,49730,54106,49798.33,54111.00,-68.33,-5.00,-0.124911,-0.135508,1.057775,83.56,1
6628,0,49733,54107,49798.20,54111.00,-65.20,-4.00,-0.124908,-0.135508,1.058720,83.53,1
6634,0,49738,54109,49798.09,54110.99,-60.09,-1.99,-0.124906,-0.135508,1.059531,83.51,1
6640,0,49733,54110,49797.96,54110.99,-64.96,-0.99,-0.124904,-0.135508,1.060489,83.49,1
6643,0,49731,54109,49797.82,54110.99,-66.82,-1.99,-0.124901,-0.135507,1.061512,83.46,1
6647,0,49733,54116,49797.70,54111.00,-64.70,5.00,-0.124898,-0.135508,1.062475,83.44,1
6652,0,49729,54125,49797.56,54111.03,-68.56,13.97,-0.124896,-0.135508,1.063529,83.41,1
6656,0,49732,54127,49797.43,54111.07,-65.43,15.93,-0.124893,-0.135509,1.064481,83.39,1
6661,0,49739,54128,49797.31,54111.10,-58.31,16.90,-0.124891,-0.135510,1.065225,83.37,1
6666,0,49741,54131,49797.20,54111.14,-56.20,19.86,-0.124888,-0.135510,1.065893,83.35,1
6674,0,49743,54134,49797.09,54111.19,-54.09,22.81,-0.124886,-0.135511,1.066481,83.34,1
6685,0,49739,54145,49796.98,54111.26,-57.98,33.74,-0.124884,-0.135513,1.067037,83.32,1
6695,0,49739,54145,49796.87,54111.33,-57.87,33.67,-0.124882,-0.135514,1.067595,83.31,1
6705,0,49739,54153,49796.75,54111.42,-57.75,41.58,-0.124879,-0.135515,1.068013,83.30,1
6716,0,49738,54163,49796.64,54111.52,-58.64,51.48,-0.124877,-0.135517,1.068237,83.29,1
6726,0,49749,54154,49796.54,54111.61,-47.54,42.39,-0.124875,-0.135519,1.068373,83.29,1
6735,0,49740,54143,49796.43,54111.67,-56.43,31.33,-0.124873,-0.135520,1.068946,83.28,1
6745,0,49729,54117,49796.30,54111.68,-67.30,5.32,-0.124870,-0.135520,1.070107,83.25,1
6756,0,49713,54092,49796.13,54111.64,-83.13,-19.64,-0.124867,-0.135520,1.071804,83.20,1
6766,0,49703,54050,49795.95,54111.52,-92.95,-61.52,-0.124863,-0.135517,1.073100,83.17,1
6775,0,49683,54026,49795.72,54111.36,-112.72,-85.36,-0.124859,-0.135514,1.074572,83.14,1
6786,0,49673,53995,49795.48,54111.12,-122.48,-116.12,-0.124854,-0.135510,1.075051,83.12,1
6795,0,49665,53979,49795.22,54110.86,-130.22,-131.86,-0.124848,-0.135505,1.075035,83.12,1
6805,0,49657,53973,49794.95,54110.59,-137.95,-137.59,-0.124843,-0.135500,1.075168,83.12,1
6816,0,49650,53958,49794.66,54110.29,-144.66,-152.29,-0.124837,-0.135494,1.074699,83.13,1
6825,0,49650,53966,49794.37,54110.00,-144.37,-144.00,-0.124831,-0.135489,1.074848,83.13,1
6836,0,49657,53968,49794.09,54109.71,-137.09,-141.71,-0.124826,-0.135484,1.074623,83.13,1
6846,0,49654,53967,49793.82,54109.43,-139.82,-142.43,-0.124820,-0.135479,1.074547,83.14,1
6855,0,49664,53978,49793.56,54109.17,-129.56,-131.17,-0.124815,-0.135474,1.074537,83.14,1
6866,0,49666,53990,49793.30,54108.93,-127.30,-118.93,-0.124810,-0.135469,1.075168,83.12,1
6876,0,49671,53997,49793.06,54108.71,-122.06,-111.71,-0.124805,-0.135465,1.075882,83.10,1
6886,0,49671,54001,49792.82,54108.49,-121.82,-107.49,-0.124800,-0.135461,1.076821,83.08,1
6896,0,49680,54011,49792.60,54108.30,-112.60,-97.30,-0.124796,-0.135458,1.077729,83.06,1
6906,0,49676,54015,49792.37,54108.11,-116.37,-93.11,-0.124791,-0.135454,1.079081,83.02,1
6916,0,49683,54021,49792.15,54107.94,-109.15,-86.94,-0.124787,-0.135451,1.080290,82.99,1
6926,0,49689,54027,49791.95,54107.78,-102.95,-80.78,-0.124783,-0.135448,1.081421,82.96,1
6936,0,49689,54035,49791.74,54107.64,-102.74,-72.64,-0.124779,-0.135446,1.082883,82.93,1
6946,0,49698,54034,49791.55,54107.49,-93.55,-73.49,-0.124775,-0.135443,1.083818,82.90,1
6956,0,49703,54043,49791.38,54107.36,-88.38,-64.36,-0.124771,-0.135441,1.084844,82.88,1
6966,0,49697,54050,49791.19,54107.25,-94.19,-57.25,-0.124768,-0.135438,1.086414,82.84,1
6976,0,49702,54054,49791.02,54107.14,-89.02,-53.14,-0.124764,-0.135436,1.087853,82.80,1
6986,0,49703,54055,49790.84,54107.04,-87.84,-52.04,-0.124761,-0.135435,1.089274,82.77,1
6996,0,49704,54062,49790.67,54106.95,-86.67,-44.95,-0.124757,-0.135433,1.090843,82.73,1
7008,0,49708,54067,49790.50,54106.87,-82.50,-39.88,-0.124754,-0.135431,1.092345,82.69,1
7015,0,49717,54067,49790.36,54106.80,-73.36,-39.80,-0.124751,-0.135430,1.093445,82.66,1
7026,0,49713,54064,49790.21,54106.71,-77.21,-42.71,-0.124748,-0.135428,1.094651,82.63,1
7037,0,49717,54070,49790.06,54106.64,-73.06,-36.64,-0.124745,-0.135427,1.095827,82.60,1
7046,0,49723,54067,49789.93,54106.56,-66.93,-39.56,-0.124742,-0.135426,1.096688,82.58,1
7059,0,49723,54064,49789.80,54106.48,-66.80,-42.48,-0.124740,-0.135424,1.097476,82.56,1
7065,0,49725,54074,49789.67,54106.42,-64.67,-32.42,-0.124737,-0.135423,1.098420,82.54,1
7075,0,49727,54073,49789.54,54106.35,-62.54,-33.35,-0.124735,-0.135422,1.099269,82.52,1
7086,0,49728,54075,49789.42,54106.29,-61.42,-31.29,-0.124732,-0.135421,1.100124,82.50,1
7096,0,49726,54068,49789.30,54106.21,-63.30,-38.21,-0.124730,-0.135419,1.100905,82.48,1
7106,0,49724,54075,49789.17,54106.15,-65.17,-31.15,-0.124727,-0.135418,1.101925,82.45,1
7116,0,49730,54076,49789.05,54106.09,-59.05,-30.09,-0.124725,-0.135417,1.102735,82.43,1
7126,0,49733,54076,49788.94,54106.04,-55.94,-30.04,-0.124722,-0.135416,1.103437,82.41,1
7137,0,49729,54080,49788.82,54105.98,-59.82,-25.98,-0.124720,-0.135415,1.104367,82.39,1
7146,0,49731,54084,49788.71,54105.94,-57.71,-21.94,-0.124718,-0.135414,1.105288,82.37,1
7156,0,49731,54082,49788.60,54105.89,-57.60,-23.89,-0.124715,-0.135413,1.106183,82.35,1
7167,0,49739,54086,49788.50,54105.86,-49.50,-19.86,-0.124714,-0.135413,1.106860,82.33,1
7176,0,49735,54098,49788.39,54105.84,-53.39,-7.84,-0.124711,-0.135412,1.107791,82.31,1
7186,0,49737,54097,49788.29,54105.82,-51.29,-8.82,-0.124709,-0.135412,1.108652,82.28,1
7196,0,49744,54106,49788.21,54105.82,-44.21,0.18,-0.124708,-0.135412,1.109318,82.27,1
7206,0,49735,54110,49788.10,54105.83,-53.10,4.17,-0.124706,-0.135412,1.110282,82.24,1
7215,0,49741,54111,49788.01,54105.84,-47.01,5.16,-0.124704,-0.135412,1.111040,82.22,1
7225,0,49740,54117,49787.91,54105.87,-47.91,11.13,-0.124702,-0.135413,1.111800,82.21,1
7237,0,49743,54113,49787.82,54105.88,-44.82,7.12,-0.124700,-0.135413,1.112492,82.19,1
7246,0,49738,54116,49787.73,54105.91,-49.73,10.09,-0.124698,-0.135414,1.113337,82.17,1
7256,0,49748,54114,49787.65,54105.93,-39.65,8.07,-0.124696,-0.135414,1.113880,82.15,1
7266,0,49743,54106,49787.56,54105.93,-44.56,0.07,-0.124695,-0.135414,1.114602,82.13,1
7276,0,49745,54117,49787.48,54105.95,-42.48,11.05,-0.124693,-0.135414,1.115218,82.12,1
7285,0,49744,54114,49787.39,54105.96,-43.39,8.04,-0.124691,-0.135415,1.115892,82.10,1
7296,0,49749,54116,49787.32,54105.98,-38.32,10.02,-0.124690,-0.135415,1.116402,82.09,1
7306,0,49742,54116,49787.23,54106.00,-45.23,10.00,-0.124688,-0.135415,1.117136,82.07,1
7316,0,49746,54119,49787.14,54106.03,-41.14,12.97,-0.124686,-0.135416,1.117715,82.06,1
7325,0,49745,54116,49787.06,54106.05,-42.06,9.95,-0.124685,-0.135416,1.118356,82.04,1
7335,0,49750,54121,49786.99,54106.08,-36.99,14.92,-0.124683,-0.135417,1.118797,82.03,1
7345,0,49748,54127,49786.91,54106.12,-38.91,20.87,-0.124682,-0.135418,1.119211,82.02,1
7355,0,49749,54125,49786.84,54106.16,-37.84,18.84,-0.124680,-0.135418,1.119631,82.01,1
7366,0,49741,54105,49786.75,54106.16,-45.75,-1.16,-0.124678,-0.135418,1.120466,81.99,1
7376,0,49730,54087,49786.63,54106.13,-56.63,-19.13,-0.124676,-0.135418,1.121602,81.96,1
7386,0,49713,54054,49786.49,54106.03,-73.49,-52.03,-0.124673,-0.135416,1.122623,81.93,1
7396,0,49703,54018,49786.32,54105.85,-83.32,-87.85,-0.124670,-0.135413,1.122097,81.95,1
7406,0,49688,53987,49786.13,54105.62,-98.13,-118.62,-0.124666,-0.135408,1.119912,82.00,1
7416,0,49667,53972,49785.89,54105.35,-118.89,-133.35,-0.124661,-0.135403,1.117984,82.05,1
7425,0,49656,53948,49785.63,54105.04,-129.63,-157.04,-0.124656,-0.135398,1.114234,82.14,1
7435,0,49649,53939,49785.36,54104.71,-136.36,-165.71,-0.124650,-0.135391,1.110120,82.25,1
7446,0,49650,53948,49785.09,54104.39,-135.09,-156.39,-0.124645,-0.135386,1.107222,82.32,1
7455,0,49649,53951,49784.82,54104.09,-135.82,-153.09,-0.124640,-0.135380,1.104891,82.38,1
7465,0,49656,53951,49784.56,54103.79,-128.56,-152.79,-0.124634,-0.135374,1.101893,82.45,1
7475,0,49653,53967,49784.30,54103.51,-131.30,-136.51,-0.124629,-0.135369,1.101139,82.47,1
7485,0,49664,53986,49784.06,54103.28,-120.06,-117.28,-0.124624,-0.135365,1.101255,82.47,1
7496,0,49673,53993,49783.84,54103.06,-110.84,-110.06,-0.124620,-0.135361,1.101195,82.47,1
7506,0,49672,53999,49783.62,54102.85,-111.62,-103.85,-0.124615,-0.135357,1.101743,82.46,1
7516,0,49687,54010,49783.43,54102.67,-96.43,-92.67,-0.124612,-0.135354,1.101930,82.45,1
7525,0,49689,54016,49783.24,54102.50,-94.24,-86.50,-0.124608,-0.135351,1.102404,82.44,1
7536,0,49692,54020,49783.06,54102.33,-91.06,-82.33,-0.124604,-0.135347,1.102931,82.43,1
7548,0,49698,54037,49782.89,54102.20,-84.89,-65.20,-0.124601,-0.135345,1.104069,82.40,1
7556,0,49706,54043,49782.74,54102.09,-76.74,-59.09,-0.124598,-0.135343,1.104995,82.38,1
7570,0,49699,54044,49782.57,54101.97,-83.57,-57.97,-0.124594,-0.135341,1.106425,82.34,1
7576,0,49705,54052,49782.42,54101.87,-77.42,-49.88,-0.124591,-0.135339,1.107827,82.30,1
7586,0,49710,54057,49782.27,54101.79,-72.27,-44.79,-0.124588,-0.135337,1.109125,82.27,1
7597,0,49707,54069,49782.12,54101.72,-75.12,-32.72,-0.124586,-0.135336,1.111013,82.22,1
7606,0,49710,54069,49781.98,54101.66,-71.98,-32.66,-0.124583,-0.135335,1.112720,82.18,1
7617,0,49714,54062,49781.85,54101.58,-67.85,-39.58,-0.124580,-0.135334,1.113973,82.15,1
7627,0,49715,54068,49781.71,54101.52,-66.71,-33.52,-0.124577,-0.135332,1.115368,82.12,1
7636,0,49716,54062,49781.59,54101.44,-65.59,-39.44,-0.124575,-0.135331,1.116513,82.09,1
7647,0,49715,54072,49781.45,54101.38,-66.45,-29.38,-0.124572,-0.135330,1.118031,82.05,1
7656,0,49716,54070,49781.32,54101.32,-65.32,-31.32,-0.124569,-0.135329,1.119442,82.01,1
7667,0,49716,54069,49781.20,54101.25,-65.20,-32.25,-0.124567,-0.135328,1.120827,81.98,1
7677,0,49712,54069,49781.06,54101.19,-69.06,-32.19,-0.124564,-0.135326,1.122454,81.94,1
7686,0,49715,54069,49780.93,54101.13,-65.93,-32.13,-0.124562,-0.135325,1.123905,81.90,1
7697,0,49711,54070,49780.79,54101.07,-69.79,-31.07,-0.124559,-0.135324,1.125635,81.86,1
7707,0,49715,54077,49780.66,54101.02,-65.66,-24.02,-0.124556,-0.135323,1.127313,81.82,1
7716,0,49718,54079,49780.54,54100.98,-62.54,-21.98,-0.124554,-0.135322,1.128866,81.78,1
7726,0,49723,54088,49780.43,54100.95,-57.43,-12.95,-0.124551,-0.135322,1.130306,81.74,1
7736,0,49719,54085,49780.30,54100.92,-61.30,-15.92,-0.124549,-0.135321,1.131930,81.70,1
7746,0,49713,54085,49780.17,54100.89,-67.17,-15.89,-0.124546,-0.135321,1.133921,81.65,1
7756,0,49727,54101,49780.07,54100.89,-53.07,0.11,-0.124544,-0.135321,1.135256,81.62,1
7766,0,49721,54095,49779.95,54100.88,-58.95,-5.88,-0.124542,-0.135321,1.136900,81.58,1
7777,0,49730,54107,49779.85,54100.89,-49.85,6.11,-0.124540,-0.135321,1.138080,81.55,1
7787,0,49732,54107,49779.76,54100.90,-47.76,6.10,-0.124538,-0.135321,1.139170,81.52,1
7796,0,49735,54114,49779.67,54100.93,-44.67,13.07,-0.124536,-0.135322,1.140059,81.50,1
7806,0,49733,54114,49779.57,54100.96,-46.57,13.04,-0.124534,-0.135322,1.141043,81.47,1
7817,0,49738,54122,49779.49,54101.00,-41.49,21.00,-0.124533,-0.135323,1.141663,81.46,1
7826,0,49737,54125,49779.41,54101.05,-42.41,23.95,-0.124531,-0.135324,1.142253,81.44,1
7837,0,49738,54123,49779.33,54101.10,-41.33,21.90,-0.124529,-0.135325,1.142855,81.43,1
7846,0,49738,54123,49779.25,54101.14,-41.25,21.86,-0.124528,-0.135326,1.143460,81.41,1
7857,0,49735,54121,49779.16,54101.19,-44.16,19.81,-0.124526,-0.135326,1.144247,81.39,1
7868,0,49737,54127,49779.08,54101.24,-42.08,25.76,-0.124524,-0.135327,1.144791,81.38,1
7876,0,49737,54130,49779.00,54101.30,-42.00,28.70,-0.124523,-0.135328,1.145241,81.37,1
7886,0,49736,54135,49778.91,54101.37,-42.91,33.63,-0.124521,-0.135330,1.145556,81.36,1
7896,0,49741,54135,49778.84,54101.44,-37.84,33.56,-0.124519,-0.135331,1.145656,81.36,1
7906,0,49738,54139,49778.75,54101.52,-40.75,37.48,-0.124518,-0.135332,1.145714,81.36,1
7917,0,49743,54141,49778.68,54101.60,-35.68,39.40,-0.124516,-0.135334,1.145471,81.36,1
7926,0,49743,54146,49778.61,54101.69,-35.61,44.31,-0.124515,-0.135336,1.144972,81.38,1
7936,0,49752,54157,49778.56,54101.80,-26.56,55.20,-0.124514,-0.135338,1.143494,81.41,1
7947,0,49752,54168,49778.51,54101.94,-26.51,66.06,-0.124513,-0.135340,1.141195,81.47,1
7956,0,49754,54183,49778.46,54102.10,-24.46,80.90,-0.124512,-0.135343,1.137487,81.56,1
7967,0,49756,54184,49778.42,54102.27,-22.42,81.73,-0.124511,-0.135346,1.133645,81.66,1
7976,0,49764,54191,49778.39,54102.45,-14.39,88.55,-0.124511,-0.135350,1.128927,81.78,1
7989,0,49764,54186,49778.37,54102.61,-14.37,83.39,-0.124510,-0.135353,1.124765,81.88,1
7998,0,49751,54166,49778.31,54102.74,-27.31,63.26,-0.124509,-0.135355,1.122730,81.93,1
8007,0,49745,54133,49778.25,54102.80,-33.25,30.20,-0.124508,-0.135356,1.122810,81.93,1
8017,0,49729,54101,49778.15,54102.80,-49.15,-1.80,-0.124506,-0.135356,1.124228,81.89,1
8026,0,49710,54071,49778.01,54102.74,-68.01,-31.74,-0.124503,-0.135355,1.126328,81.84,1
8036,0,49701,54040,49777.86,54102.61,-76.86,-62.61,-0.124500,-0.135353,1.127337,81.82,1
8046,0,49685,54017,49777.68,54102.45,-92.68,-85.45,-0.124496,-0.135350,1.127774,81.81,1
8057,0,49673,54007,49777.47,54102.25,-104.47,-95.25,-0.124492,-0.135346,1.128455,81.79,1
8066,0,49678,54007,49777.27,54102.07,-99.27,-95.07,-0.124488,-0.135343,1.128522,81.79,1
8077,0,49677,54011,49777.07,54101.89,-100.07,-90.89,-0.124484,-0.135339,1.129182,81.77,1
8086,0,49681,54014,49776.88,54101.71,-95.88,-87.71,-0.124480,-0.135336,1.129711,81.76,1
8096,0,49685,54023,49776.70,54101.55,-91.70,-78.55,-0.124476,-0.135333,1.130749,81.73,1
8105,0,49697,54029,49776.54,54101.41,-79.54,-72.41,-0.124473,-0.135330,1.131139,81.72,1
8116,0,49699,54041,49776.39,54101.29,-77.39,-60.29,-0.124470,-0.135328,1.132373,81.69,1
8127,0,49711,54058,49776.26,54101.20,-65.26,-43.20,-0.124468,-0.135327,1.133724,81.66,1
8136,0,49716,54065,49776.14,54101.13,-60.14,-36.13,-0.124465,-0.135325,1.135064,81.62,1
8144,0,49717,54071,49776.02,54101.07,-59.02,-30.07,-0.124463,-0.135324,1.136599,81.59,1
8156,0,49719,54076,49775.91,54101.03,-56.91,-25.03,-0.124461,-0.135323,1.138181,81.55,1
8166,0,49726,54084,49775.81,54101.00,-49.81,-17.00,-0.124459,-0.135323,1.139533,81.51,1
8177,0,49730,54080,49775.72,54100.96,-45.72,-20.96,-0.124457,-0.135322,1.140547,81.49,1
8187,0,49729,54082,49775.62,54100.92,-46.63,-18.92,-0.124455,-0.135321,1.141678,81.46,1
8196,0,49734,54082,49775.54,54100.89,-41.54,-18.89,-0.124453,-0.135321,1.142533,81.44,1
8206,0,49726,54082,49775.45,54100.85,-49.45,-18.85,-0.124451,-0.135320,1.143860,81.40,1
8217,0,49735,54088,49775.37,54100.83,-40.37,-12.83,-0.124450,-0.135320,1.144805,81.38,1
8227,0,49733,54090,49775.29,54100.81,-42.29,-10.81,-0.124448,-0.135319,1.145897,81.35,1
8236,0,49733,54087,49775.20,54100.78,-42.20,-13.78,-0.124446,-0.135319,1.146941,81.33,1
8246,0,49737,54087,49775.13,54100.75,-38.13,-13.75,-0.124445,-0.135318,1.147774,81.31,1
8256,0,49729,54085,49775.04,54100.72,-46.04,-15.72,-0.124443,-0.135318,1.149021,81.27,1
8266,0,49722,54083,49774.93,54100.69,-52.93,-17.69,-0.124441,-0.135317,1.150694,81.23,1
8276,0,49724,54080,49774.83,54100.65,-50.83,-20.65,-0.124439,-0.135316,1.152142,81.20,1
8286,0,49723,54065,49774.73,54100.58,-51.73,-35.58,-0.124437,-0.135315,1.153010,81.17,1
8297,0,49723,54067,49774.63,54100.51,-51.63,-33.51,-0.124435,-0.135314,1.153988,81.15,1
8306,0,49718,54065,49774.52,54100.44,-56.52,-35.44,-0.124433,-0.135313,1.155239,81.12,1
8315,0,49721,54065,49774.41,54100.37,-53.41,-35.37,-0.124430,-0.135311,1.156258,81.09,1
8326,0,49721,54060,49774.30,54100.29,-53.30,-40.29,-0.124428,-0.135310,1.156974,81.08,1
8336,0,49715,54059,49774.19,54100.21,-59.19,-41.21,-0.124426,-0.135308,1.158108,81.05,1
8346,0,49719,54074,49774.08,54100.16,-55.08,-26.16,-0.124424,-0.135307,1.159741,81.01,1
8356,0,49726,54078,49773.98,54100.12,-47.98,-22.12,-0.124422,-0.135307,1.161015,80.97,1
8365,0,49723,54077,49773.88,54100.07,-50.88,-23.07,-0.124420,-0.135306,1.162473,80.94,1
8376,0,49726,54081,49773.79,54100.04,-47.79,-19.04,-0.124418,-0.135305,1.163860,80.90,1
8386,0,49729,54079,49773.70,54100.00,-44.70,-21.00,-0.124416,-0.135304,1.164976,80.88,1
8397,0,49739,54089,49773.63,54099.98,-34.63,-10.98,-0.124415,-0.135304,1.165777,80.86,1
8407,0,49733,54087,49773.55,54099.96,-40.55,-12.96,-0.124413,-0.135304,1.166883,80.83,1
8415,0,49733,54089,49773.48,54099.94,-40.48,-10.94,-0.124412,-0.135303,1.168037,80.80,1
8424,0,49740,54087,49773.41,54099.91,-33.41,-12.91,-0.124410,-0.135303,1.168753,80.78,1
8435,0,49738,54099,49773.34,54099.91,-35.34,-0.91,-0.124409,-0.135303,1.169731,80.76,1
8446,0,49739,54104,49773.27,54099.92,-34.27,4.08,-0.124408,-0.135303,1.170644,80.73,1
8456,0,49743,54106,49773.21,54099.93,-30.21,6.07,-0.124406,-0.135303,1.171339,80.72,1
8466,0,49746,54107,49773.16,54099.95,-27.16,7.05,-0.124405,-0.135303,1.171887,80.70,1
8476,0,49744,54117,49773.10,54099.98,-29.10,17.02,-0.124404,-0.135304,1.172304,80.69,1
8486,0,49747,54114,49773.05,54100.02,-26.05,13.98,-0.124403,-0.135305,1.172675,80.68,1
8495,0,49744,54114,49772.99,54100.05,-28.99,13.95,-0.124402,-0.135305,1.173185,80.67,1
8506,0,49751,54127,49772.95,54100.10,-21.95,26.90,-0.124401,-0.135306,1.172886,80.68,1
8516,0,49746,54123,49772.90,54100.15,-26.90,22.85,-0.124400,-0.135307,1.172985,80.68,1
8526,0,49741,54127,49772.84,54100.20,-31.84,26.80,-0.124399,-0.135308,1.173138,80.67,1
8536,0,49752,54130,49772.80,54100.27,-20.80,29.73,-0.124398,-0.135309,1.172629,80.68,1
8546,0,49746,54140,49772.75,54100.35,-26.75,39.65,-0.124397,-0.135311,1.171669,80.71,1
8556,0,49745,54140,49772.69,54100.43,-27.69,39.57,-0.124396,-0.135312,1.170756,80.73,1
8566,0,49754,54144,49772.66,54100.52,-18.66,43.48,-0.124395,-0.135314,1.169139,80.77,1
8576,0,49752,54151,49772.62,54100.62,-20.62,50.38,-0.124394,-0.135316,1.166923,80.83,1
8587,0,49752,54154,49772.58,54100.73,-20.58,53.27,-0.124394,-0.135318,1.164392,80.89,1
8597,0,49762,54162,49772.56,54100.86,-10.56,61.14,-0.124393,-0.135320,1.160652,80.98,1
8607,0,49758,54149,49772.53,54100.95,-14.53,48.05,-0.124393,-0.135322,1.158468,81.04,1
8618,0,49743,54117,49772.47,54100.99,-29.47,16.01,-0.124392,-0.135323,1.158997,81.03,1
8627,0,49733,54082,49772.39,54100.95,-39.39,-18.95,-0.124390,-0.135322,1.160051,81.00,1
8636,0,49716,54046,49772.28,54100.84,-56.28,-54.84,-0.124388,-0.135320,1.159812,81.00,1
8647,0,49697,54002,49772.13,54100.65,-75.13,-98.65,-0.124385,-0.135316,1.154814,81.13,1
8657,0,49681,53961,49771.95,54100.37,-90.95,-139.37,-0.124381,-0.135311,1.142471,81.44,1
8667,0,49661,53936,49771.73,54100.04,-110.73,-164.04,-0.124377,-0.135305,1.127062,81.82,1
8715,0,49657,53923,49771.51,54099.69,-114.51,-176.69,-0.124372,-0.135299,1.109505,82.26,1
8731,0,49643,53911,49771.25,54099.32,-128.25,-188.32,-0.124367,-0.135292,1.092444,82.69,1
8737,0,49652,53903,49771.02,54098.93,-119.02,-195.93,-0.124362,-0.135285,1.072596,83.19,1
8743,0,49646,53914,49770.77,54098.56,-124.77,-184.56,-0.124357,-0.135278,1.058735,83.53,1
8749,0,49651,53912,49770.53,54098.19,-119.53,-186.19,-0.124352,-0.135271,1.044450,83.89,1
8755,0,49653,53915,49770.29,54097.82,-117.29,-182.82,-0.124348,-0.135264,1.031603,84.21,1
8761,0,49658,53924,49770.07,54097.48,-112.07,-173.48,-0.124343,-0.135258,1.020869,84.48,1
8767,0,49664,53930,49769.86,54097.14,-105.86,-167.14,-0.124339,-0.135252,1.011106,84.72,1
8773,0,49667,53938,49769.66,54096.83,-102.66,-158.83,-0.124335,-0.135246,1.003004,84.92,1
8777,0,49664,53933,49769.45,54096.50,-105.45,-163.50,-0.124331,-0.135240,0.994767,85.13,1
8781,0,49668,53948,49769.24,54096.20,-101.24,-148.20,-0.124327,-0.135234,0.989056,85.27,1
8787,0,49667,53952,49769.04,54095.92,-102.04,-143.92,-0.124323,-0.135229,0.984375,85.39,1
8799,0,49676,53951,49768.86,54095.63,-92.86,-144.63,-0.124319,-0.135224,0.978499,85.54,1
8809,0,49685,53956,49768.69,54095.35,-83.69,-139.35,-0.124316,-0.135218,0.972521,85.69,1
8817,0,49684,53964,49768.52,54095.09,-84.52,-131.09,-0.124312,-0.135214,0.968012,85.80,1
8827,0,49692,53965,49768.37,54094.83,-76.37,-129.83,-0.124309,-0.135209,0.962893,85.93,1
8838,0,49688,53971,49768.21,54094.59,-80.21,-123.59,-0.124306,-0.135204,0.959131,86.02,1
8848,0,49697,53981,49768.07,54094.36,-71.07,-113.36,-0.124303,-0.135200,0.955774,86.11,1
8857,0,49698,53975,49767.93,54094.12,-69.93,-119.12,-0.124300,-0.135196,0.951661,86.21,1
8867,0,49697,53976,49767.79,54093.89,-70.79,-117.89,-0.124297,-0.135191,0.947850,86.30,1
8877,0,49704,53977,49767.66,54093.66,-63.66,-116.66,-0.124295,-0.135187,0.943599,86.41,1
8888,0,49705,53984,49767.54,54093.44,-62.54,-109.44,-0.124292,-0.135183,0.940141,86.50,1
8898,0,49701,53974,49767.40,54093.20,-66.40,-119.20,-0.124290,-0.135179,0.935941,86.60,1
8907,0,49704,53976,49767.28,54092.96,-63.28,-116.96,-0.124287,-0.135174,0.931797,86.71,1
8919,0,49713,53988,49767.17,54092.76,-54.17,-104.76,-0.124285,-0.135171,0.928325,86.79,1
8927,0,49712,53979,49767.06,54092.53,-55.06,-113.53,-0.124283,-0.135166,0.924013,86.90,1
8937,0,49716,53978,49766.96,54092.30,-50.96,-114.30,-0.124281,-0.135162,0.919374,87.02,1
8947,0,49714,53982,49766.86,54092.09,-52.86,-110.09,-0.124279,-0.135158,0.915384,87.12,1
8957,0,49717,53991,49766.76,54091.89,-49.76,-100.89,-0.124277,-0.135154,0.912154,87.20,1
8968,0,49714,53992,49766.65,54091.69,-52.65,-99.69,-0.124275,-0.135151,0.909267,87.27,1
8977,0,49718,54001,49766.55,54091.51,-48.55,-90.51,-0.124273,-0.135147,0.906951,87.33,1
8987,0,49715,53999,49766.45,54091.32,-51.45,-92.32,-0.124271,-0.135144,0.904688,87.38,1
8998,0,49720,54005,49766.36,54091.15,-46.36,-86.15,-0.124269,-0.135141,0.902618,87.43,1
9007,0,49726,54008,49766.29,54090.99,-40.29,-82.99,-0.124267,-0.135138,0.900445,87.49,1
9017,0,49731,54007,49766.21,54090.82,-35.21,-83.82,-0.124266,-0.135135,0.897942,87.55,1
9027,0,49734,54012,49766.15,54090.66,-32.15,-78.66,-0.124265,-0.135132,0.895700,87.61,1
9037,0,49739,54013,49766.10,54090.51,-27.10,-77.51,-0.124264,-0.135129,0.893333,87.67,1
9047,0,49736,54020,49766.04,54090.37,-30.04,-70.37,-0.124262,-0.135126,0.891592,87.71,1
9057,0,49742,54019,49765.99,54090.23,-23.99,-71.23,-0.124261,-0.135124,0.889557,87.76,1
9066,0,49745,54031,49765.95,54090.11,-20.95,-59.11,-0.124261,-0.135122,0.888182,87.80,1
9077,0,49745,54033,49765.91,54090.00,-20.91,-57.00,-0.124260,-0.135120,0.886919,87.83,1
9087,0,49748,54027,49765.88,54089.87,-17.88,-62.88,-0.124259,-0.135117,0.885221,87.87,1
9097,0,49750,54034,49765.85,54089.77,-15.85,-55.77,-0.124258,-0.135115,0.883879,87.90,1
9107,0,49761,54042,49765.84,54089.67,-4.84,-47.67,-0.124258,-0.135113,0.882774,87.93,1
9117,0,49758,54045,49765.82,54089.58,-7.82,-44.58,-0.124258,-0.135112,0.881831,87.95,1
9127,0,49756,54048,49765.80,54089.50,-9.80,-41.50,-0.124258,-0.135110,0.881042,87.97,1
9137,0,49759,54041,49765.79,54089.41,-6.79,-48.41,-0.124257,-0.135109,0.879896,88.00,1
9149,0,49757,54036,49765.78,54089.30,-8.78,-53.30,-0.124257,-0.135107,0.878515,88.04,1
9157,0,49764,54046,49765.77,54089.21,-1.77,-43.21,-0.124257,-0.135105,0.877564,88.06,1
9167,0,49761,54043,49765.77,54089.12,-4.77,-46.13,-0.124257,-0.135103,0.876490,88.09,1
9177,0,49768,54044,49765.77,54089.04,2.23,-45.04,-0.124257,-0.135102,0.875445,88.11,1
9187,0,49764,54044,49765.77,54088.95,-1.77,-44.95,-0.124257,-0.135100,0.874397,88.14,1
9197,0,49777,54053,49765.79,54088.87,11.21,-35.88,-0.124257,-0.135099,0.873824,88.15,1
9207,0,49771,54048,49765.80,54088.79,5.20,-40.79,-0.124258,-0.135097,0.872967,88.18,1
9217,0,49769,54021,49765.81,54088.66,3.19,-67.66,-0.124258,-0.135095,0.870549,88.24,1
9227,0,49754,53986,49765.79,54088.46,-11.79,-102.46,-0.124257,-0.135091,0.865123,88.37,1
9238,0,49737,53940,49765.73,54088.16,-28.73,-148.16,-0.124256,-0.135086,0.854438,88.64,1
9247,0,49712,53892,49765.62,54087.77,-53.63,-195.77,-0.124254,-0.135078,0.837760,89.06,1
9257,0,49696,53848,49765.49,54087.29,-69.49,-239.29,-0.124251,-0.135070,0.815074,89.62,1
9267,0,49672,53807,49765.30,54086.73,-93.30,-279.73,-0.124248,-0.135059,0.788775,90.28,1
9277,0,49654,53783,49765.08,54086.13,-111.08,-303.13,-0.124243,-0.135048,0.763140,90.92,1
9287,0,49648,53766,49764.84,54085.49,-116.84,-319.49,-0.124238,-0.135036,0.738312,91.54,1
9298,0,49649,53757,49764.61,54084.83,-115.61,-327.83,-0.124234,-0.135024,0.714899,92.13,1
9307,0,49650,53757,49764.39,54084.18,-114.39,-327.18,-0.124229,-0.135012,0.694299,92.64,1
9318,0,49651,53757,49764.16,54083.53,-113.16,-326.53,-0.124225,-0.135000,0.675984,93.10,1
9328,0,49656,53761,49763.95,54082.88,-107.95,-321.88,-0.124220,-0.134988,0.659597,93.51,1
9337,0,49659,53768,49763.74,54082.25,-104.74,-314.25,-0.124216,-0.134976,0.645382,93.87,1
9347,0,49666,53773,49763.54,54081.64,-97.54,-308.64,-0.124212,-0.134965,0.632264,94.19,1
9357,0,49670,53771,49763.36,54081.02,-93.36,-310.02,-0.124208,-0.134953,0.619611,94.51,1
9367,0,49671,53782,49763.17,54080.42,-92.17,-298.42,-0.124205,-0.134942,0.608966,94.78,1
9378,0,49676,53777,49763.00,54079.81,-87.00,-302.81,-0.124201,-0.134931,0.598152,95.05,1
9387,0,49686,53779,49762.85,54079.21,-76.85,-300.21,-0.124198,-0.134920,0.587446,95.31,1
9397,0,49685,53776,49762.69,54078.61,-77.69,-302.61,-0.124195,-0.134909,0.577259,95.57,1
9407,0,49692,53784,49762.55,54078.02,-70.55,-294.02,-0.124192,-0.134898,0.567852,95.80,1
9417,0,49686,53781,49762.40,54077.43,-76.40,-296.43,-0.124189,-0.134887,0.559184,96.02,1
9428,0,49689,53781,49762.25,54076.84,-73.25,-295.84,-0.124186,-0.134876,0.550802,96.23,1
9437,0,49690,53784,49762.11,54076.25,-72.11,-292.25,-0.124183,-0.134865,0.543021,96.42,1
9447,0,49696,53789,49761.98,54075.68,-65.98,-286.68,-0.124181,-0.134855,0.535589,96.61,1
9457,0,49697,53797,49761.85,54075.12,-64.85,-278.12,-0.124178,-0.134844,0.528946,96.78,1
9467,0,49698,53788,49761.72,54074.55,-63.72,-286.55,-0.124176,-0.134834,0.522007,96.95,1
9477,0,49696,53778,49761.59,54073.96,-65.59,-295.96,-0.124173,-0.134823,0.514918,97.13,1
9487,0,49692,53774,49761.46,54073.36,-69.46,-299.36,-0.124170,-0.134812,0.508178,97.30,1
9498,0,49689,53768,49761.31,54072.75,-72.31,-304.75,-0.124167,-0.134801,0.501612,97.46,1
9507,0,49695,53768,49761.18,54072.14,-66.18,-304.14,-0.124165,-0.134789,0.495010,97.62,1
9517,0,49695,53767,49761.05,54071.53,-66.05,-304.53,-0.124162,-0.134778,0.488668,97.78,1
9527,0,49691,53767,49760.91,54070.92,-69.91,-303.92,-0.124159,-0.134767,0.482849,97.93,1
9537,0,49692,53762,49760.77,54070.30,-68.77,-308.30,-0.124156,-0.134755,0.476988,98.08,1
9548,0,49696,53763,49760.64,54069.69,-64.64,-306.69,-0.124154,-0.134744,0.471222,98.22,1
9559,0,49696,53768,49760.51,54069.09,-64.51,-301.09,-0.124151,-0.134733,0.465936,98.35,1
9567,0,49695,53769,49760.38,54068.49,-65.38,-299.49,-0.124149,-0.134722,0.460965,98.48,1
9577,0,49701,53772,49760.27,54067.90,-59.27,-295.90,-0.124146,-0.134711,0.456017,98.60,1
9587,0,49704,53773,49760.16,54067.31,-56.16,-294.31,-0.124144,-0.134700,0.451158,98.72,1
9597,0,49704,53782,49760.05,54066.74,-56.05,-284.74,-0.124142,-0.134689,0.446827,98.83,1
9607,0,49708,53786,49759.95,54066.18,-51.95,-280.18,-0.124140,-0.134679,0.442618,98.93,1
9617,0,49708,53785,49759.84,54065.62,-51.84,-280.62,-0.124138,-0.134669,0.438504,99.04,1
9628,0,49713,53794,49759.75,54065.08,-46.75,-271.08,-0.124136,-0.134659,0.434636,99.13,1
9638,0,49722,53798,49759.68,54064.55,-37.68,-266.55,-0.124134,-0.134649,0.430710,99.23,1
9649,0,49715,53801,49759.59,54064.02,-44.59,-263.02,-0.124133,-0.134639,0.427208,99.32,1
9658,0,49730,53813,49759.53,54063.52,-29.53,-250.52,-0.124131,-0.134630,0.423727,99.41,1
9669,0,49732,53809,49759.47,54063.01,-27.47,-254.01,-0.124130,-0.134620,0.420156,99.50,1
9678,0,49735,53815,49759.43,54062.52,-24.43,-247.52,-0.124129,-0.134611,0.416776,99.58,1
9688,0,49734,53823,49759.37,54062.04,-25.37,-239.04,-0.124128,-0.134603,0.413706,99.66,1
9699,0,49735,53820,49759.33,54061.55,-24.33,-241.55,-0.124127,-0.134594,0.410591,99.74,1
9708,0,49737,53827,49759.29,54061.09,-22.29,-234.09,-0.124127,-0.134585,0.407683,99.81,1
9718,0,49739,53835,49759.25,54060.64,-20.25,-225.64,-0.124126,-0.134577,0.404994,99.88,1
9729,0,49742,53836,49759.21,54060.19,-17.21,-224.19,-0.124125,-0.134568,0.402325,99.94,1
9739,0,49736,53834,49759.16,54059.74,-23.16,-225.74,-0.124124,-0.134560,0.399744,100.00,1
9749,0,49742,53840,49759.13,54059.30,-17.13,-219.30,-0.124124,-0.134552,0.397248,100.00,1
9759,0,49743,53841,49759.10,54058.87,-16.10,-217.87,-0.124123,-0.134544,0.394796,100.00,1
9768,0,49743,53850,49759.07,54058.45,-16.07,-208.45,-0.124122,-0.134536,0.392580,100.00,1
9779,0,49748,53844,49759.05,54058.02,-11.05,-214.02,-0.124122,-0.134528,0.390201,100.00,1
9789,0,49750,53845,49759.04,54057.60,-9.04,-212.60,-0.124122,-0.134520,0.387859,100.00,1
9798,0,49746,53838,49759.01,54057.16,-13.01,-219.16,-0.124121,-0.134512,0.385425,100.00,1
9809,0,49737,53809,49758.97,54056.66,-21.97,-247.66,-0.124120,-0.134503,0.382465,100.00,1
9819,0,49721,53761,49758.89,54056.07,-37.89,-295.07,-0.124119,-0.134492,0.378655,100.00,1
9829,0,49702,53714,49758.78,54055.39,-56.78,-341.39,-0.124116,-0.134479,0.374245,100.00,1
9839,0,49679,53660,49758.62,54054.60,-79.62,-394.60,-0.124113,-0.134465,0.369432,100.00,1
9848,0,49659,53622,49758.42,54053.74,-99.42,-431.74,-0.124109,-0.134449,0.364911,100.00,1
9859,0,49647,53586,49758.20,54052.80,-111.20,-466.80,-0.124105,-0.134432,0.360313,100.00,1
9868,0,49631,53561,49757.95,54051.82,-126.95,-490.82,-0.124100,-0.134413,0.356530,100.00,1
9880,0,49630,53542,49757.69,54050.80,-127.69,-508.80,-0.124095,-0.134395,0.352459,100.00,1
9889,0,49626,53542,49757.43,54049.79,-131.43,-507.79,-0.124089,-0.134376,0.349101,100.00,1
9898,0,49624,53540,49757.16,54048.77,-133.16,-508.77,-0.124084,-0.134357,0.346136,100.00,1
9910,0,49635,53545,49756.92,54047.76,-121.92,-502.76,-0.124079,-0.134338,0.342680,100.00,1
9918,0,49639,53548,49756.69,54046.76,-117.69,-498.76,-0.124074,-0.134320,0.339279,100.00,1
9928,0,49648,53555,49756.47,54045.78,-108.47,-490.78,-0.124070,-0.134302,0.335703,100.00,1
9939,0,49654,53566,49756.27,54044.82,-102.27,-478.82,-0.124066,-0.134284,0.332281,100.00,1
9948,0,49662,53568,49756.08,54043.87,-94.08,-475.87,-0.124062,-0.134266,0.328654,100.00,1
9958,0,49665,53574,49755.90,54042.93,-90.90,-468.93,-0.124059,-0.134249,0.325218,100.00,1
9967,0,49673,53576,49755.74,54042.00,-82.74,-466.00,-0.124055,-0.134232,0.321613,100.00,1
9979,0,49673,53584,49755.57,54041.09,-82.57,-457.09,-0.124052,-0.134215,0.318368,100.00,1
9989,0,49679,53584,49755.42,54040.17,-76.42,-456.17,-0.124049,-0.134198,0.315008,100.00,1
10000,0,49672,53579,49755.26,54039.25,-83.26,-460.25,-0.124046,-0.134181,0.312004,100.00,1
10009,0,49677,53589,49755.10,54038.35,-78.10,-449.35,-0.124043,-0.134164,0.309118,100.00,1
10019,0,49682,53601,49754.96,54037.48,-72.96,-436.48,-0.124040,-0.134148,0.306378,100.00,1
10029,0,49688,53609,49754.82,54036.62,-66.82,-427.62,-0.124037,-0.134132,0.303663,100.00,1
10039,0,49695,53609,49754.71,54035.77,-59.71,-426.77,-0.124035,-0.134116,0.300808,100.00,1
10049,0,49700,53618,49754.60,54034.93,-54.60,-416.93,-0.124032,-0.134101,0.298050,100.00,1
10059,0,49707,53620,49754.50,54034.10,-47.50,-414.10,-0.124031,-0.134086,0.295221,100.00,1
10070,0,49708,53622,49754.41,54033.28,-46.41,-411.28,-0.124029,-0.134070,0.292485,100.00,1
10079,0,49706,53619,49754.32,54032.45,-48.32,-413.45,-0.124027,-0.134055,0.289831,100.00,1
10089,0,49708,53624,49754.23,54031.63,-46.23,-407.63,-0.124025,-0.134040,0.287280,100.00,1
10099,0,49718,53627,49754.16,54030.82,-36.16,-403.82,-0.124024,-0.134025,0.284627,100.00,1
10109,0,49713,53623,49754.08,54030.01,-41.08,-407.01,-0.124022,-0.134010,0.282087,100.00,1
10118,0,49721,53626,49754.01,54029.21,-33.01,-403.21,-0.124021,-0.133995,0.279502,100.00,1
10129,0,49722,53625,49753.95,54028.40,-31.95,-403.40,-0.124019,-0.133980,0.276951,100.00,1
10138,0,49734,53627,49753.91,54027.60,-19.91,-400.60,-0.124019,-0.133965,0.274327,100.00,1
10150,0,49730,53633,49753.86,54026.81,-23.86,-393.81,-0.124018,-0.133951,0.271888,100.00,1
10159,0,49736,53637,49753.83,54026.03,-17.83,-389.03,-0.124017,-0.133936,0.269489,100.00,1
10168,0,49734,53639,49753.79,54025.26,-19.79,-386.26,-0.124016,-0.133922,0.267186,100.00,1
10180,0,49743,53650,49753.77,54024.51,-10.77,-374.51,-0.124016,-0.133908,0.264990,100.00,1
10189,0,49742,53647,49753.75,54023.75,-11.75,-376.75,-0.124015,-0.133894,0.262805,100.00,1
10199,0,49748,53648,49753.73,54023.00,-5.73,-375.00,-0.124015,-0.133880,0.260647,100.00,1
10209,0,49751,53659,49753.73,54022.28,-2.73,-363.28,-0.124015,-0.133867,0.258642,100.00,1
10219,0,49766,53664,49753.76,54021.56,12.24,-357.56,-0.124016,-0.133853,0.256763,100.00,1
10229,0,49763,53669,49753.78,54020.86,9.22,-351.86,-0.124016,-0.133840,0.254948,100.00,1
10239,0,49764,53684,49753.80,54020.19,10.20,-336.19,-0.124016,-0.133828,0.253316,100.00,1
10248,0,49768,53682,49753.83,54019.51,14.17,-337.51,-0.124017,-0.133816,0.251713,100.00,1
10259,0,49768,53691,49753.86,54018.86,14.14,-327.86,-0.124018,-0.133803,0.250216,100.00,1
10268,0,49779,53695,49753.91,54018.21,25.09,-323.21,-0.124019,-0.133791,0.248891,100.00,1
10278,0,49778,53702,49753.96,54017.58,24.04,-315.58,-0.124020,-0.133780,0.247632,100.00,1
10288,0,49779,53711,49754.02,54016.96,24.98,-305.96,-0.124021,-0.133768,0.246479,100.00,1
10299,0,49779,53713,49754.07,54016.36,24.93,-303.36,-0.124022,-0.133757,0.245355,100.00,1
10309,0,49781,53715,49754.12,54015.76,26.88,-300.76,-0.124023,-0.133746,0.244287,100.00,1
10318,0,49783,53726,49754.18,54015.18,28.82,-289.18,-0.124024,-0.133735,0.243350,100.00,1
10328,0,49787,53728,49754.25,54014.61,32.75,-286.61,-0.124025,-0.133725,0.242506,100.00,1
10338,0,49788,53735,49754.32,54014.05,33.68,-279.05,-0.124027,-0.133714,0.241741,100.00,1
10374,0,49791,53733,49754.39,54013.48,36.61,-280.48,-0.124028,-0.133704,0.241027,100.00,1
10387,0,49795,53735,49754.47,54012.93,40.53,-277.93,-0.124030,-0.133694,0.240420,100.00,1
10394,0,49797,53738,49754.56,54012.38,42.44,-274.38,-0.124032,-0.133684,0.239887,100.00,1
10401,0,49804,53745,49754.66,54011.85,49.34,-266.85,-0.124034,-0.133674,0.239591,100.00,1
10406,0,49809,53731,49754.77,54011.29,54.23,-280.29,-0.124036,-0.133663,0.239338,100.00,1
10411,0,49788,53703,49754.84,54010.68,33.16,-307.68,-0.124037,-0.133652,0.238347,100.00,1
10415,0,49776,53664,49754.88,54009.98,21.12,-345.98,-0.124038,-0.133639,0.236839,100.00,1
10418,0,49758,53617,49754.89,54009.20,3.11,-392.20,-0.124038,-0.133625,0.234769,100.00,1
10427,0,49740,53575,49754.86,54008.33,-14.86,-433.33,-0.124038,-0.133609,0.232349,100.00,1
10439,0,49722,53533,49754.80,54007.38,-32.80,-474.38,-0.124036,-0.133591,0.229750,100.00,1
10451,0,49707,53502,49754.70,54006.37,-47.70,-504.37,-0.124035,-0.133572,0.227201,100.00,1
10458,0,49694,53485,49754.58,54005.33,-60.58,-520.33,-0.124032,-0.133553,0.224930,100.00,1
10468,0,49691,53475,49754.46,54004.27,-63.46,-529.27,-0.124030,-0.133533,0.222733,100.00,1
10478,0,49685,53475,49754.32,54003.21,-69.32,-528.21,-0.124027,-0.133514,0.220845,100.00,1
10488,0,49696,53480,49754.20,54002.17,-58.20,-522.17,-0.124024,-0.133494,0.218716,100.00,1
10500,0,49702,53485,49754.10,54001.14,-52.10,-516.14,-0.124022,-0.133475,0.216547,100.00,1
10508,0,49702,53490,49754.00,54000.12,-52.00,-510.12,-0.124020,-0.133456,0.214509,100.00,1
10518,0,49701,53497,49753.89,53999.11,-52.89,-502.11,-0.124018,-0.133438,0.212643,100.00,1
10529,0,49708,53500,49753.80,53998.12,-45.80,-498.12,-0.124016,-0.133419,0.210686,100.00,1
10538,0,49714,53501,49753.73,53997.12,-39.73,-496.12,-0.124015,-0.133401,0.208666,100.00,1
10549,0,49715,53506,49753.65,53996.14,-38.65,-490.14,-0.124013,-0.133383,0.206732,100.00,1
10558,0,49719,53509,49753.59,53995.17,-34.59,-486.17,-0.124012,-0.133365,0.204805,100.00,1
10567,0,49723,53511,49753.53,53994.20,-30.53,-483.20,-0.124011,-0.133347,0.202881,100.00,1
10578,0,49724,53515,49753.47,53993.25,-29.47,-478.25,-0.124010,-0.133329,0.201026,100.00,1
10589,0,49727,53520,49753.42,53992.30,-26.42,-472.30,-0.124009,-0.133312,0.201026,100.00,0
10600,0,49726,53524,49753.36,53991.37,-27.36,-467.37,-0.124008,-0.133294,0.201026,100.00,0
10610,0,49733,53535,49753.32,53990.46,-20.32,-455.46,-0.124007,-0.133278,0.201026,100.00,0
10619,0,49739,53537,49753.30,53989.55,-14.30,-452.55,-0.124006,-0.133261,0.201026,100.00,0
10629,0,49740,53542,49753.27,53988.66,-13.27,-446.66,-0.124006,-0.133244,0.201026,100.00,0
10639,0,49746,53549,49753.26,53987.78,-7.26,-438.78,-0.124006,-0.133228,0.201026,100.00,0
10650,0,49742,53548,49753.24,53986.90,-11.24,-438.90,-0.124005,-0.133212,0.201026,100.00,0
10661,0,49742,53546,49753.22,53986.02,-11.22,-440.02,-0.124005,-0.133195,0.201026,100.00,0
10671,0,49739,53546,49753.20,53985.14,-14.20,-439.14,-0.124004,-0.133179,0.201026,100.00,0
10682,0,49742,53537,49753.18,53984.25,-11.18,-447.25,-0.124004,-0.133162,0.201026,100.00,0
10691,0,49746,53546,49753.16,53983.37,-7.16,-437.37,-0.124004,-0.133146,0.201026,100.00,0
10701,0,49744,53545,49753.15,53982.50,-9.15,-437.50,-0.124003,-0.133130,0.201026,100.00,0
10711,0,49750,53551,49753.14,53981.63,-3.14,-430.63,-0.124003,-0.133114,0.201026,100.00,0
10721,0,49745,53564,49753.13,53980.80,-8.13,-416.80,-0.124003,-0.133099,0.201026,100.00,0
10732,0,49759,53564,49753.14,53979.97,5.86,-415.97,-0.124003,-0.133083,0.201026,100.00,0
10740,0,49752,53569,49753.14,53979.15,-1.14,-410.15,-0.124003,-0.133068,0.201026,100.00,0
10751,0,49754,53575,49753.14,53978.34,0.86,-403.34,-0.124003,-0.133053,0.201026,100.00,0
10760,0,49760,53589,49753.16,53977.56,6.84,-388.56,-0.124004,-0.133039,0.201026,100.00,0
10770,0,49762,53595,49753.18,53976.80,8.82,-381.80,-0.124004,-0.133024,0.201026,100.00,0
10790,0,49765,53598,49753.20,53976.04,11.80,-378.04,-0.124004,-0.133010,0.201026,100.00,0
10832,0,49768,53607,49753.23,53975.30,14.77,-368.30,-0.124005,-0.132997,0.201026,100.00,0
10854,0,49773,53619,49753.27,53974.59,19.73,-355.59,-0.124006,-0.132984,0.201026,100.00,0
10864,0,49783,53630,49753.34,53973.90,29.66,-343.90,-0.124007,-0.132971,0.201026,100.00,0
10874,0,49781,53641,49753.39,53973.24,27.61,-332.24,-0.124008,-0.132959,0.201026,100.00,0
10880,0,49789,53650,49753.46,53972.59,35.54,-322.59,-0.124010,-0.132947,0.201026,100.00,0
10885,0,49800,53651,49753.56,53971.95,46.44,-320.95,-0.124012,-0.132935,0.201026,100.00,0
10889,0,49796,53656,49753.64,53971.32,42.36,-315.32,-0.124013,-0.132923,0.201026,100.00,0
10892,0,49797,53672,49753.73,53970.73,43.27,-298.73,-0.124015,-0.132912,0.201026,100.00,0
10894,0,49808,53676,49753.84,53970.14,54.16,-294.14,-0.124017,-0.132901,0.201026,100.00,0
10897,0,49808,53678,49753.95,53969.55,54.05,-291.55,-0.124019,-0.132890,0.201026,100.00,0
10898,0,49819,53680,49754.09,53968.98,64.91,-288.98,-0.124022,-0.132880,0.201026,100.00,0
10900,0,49815,53684,49754.21,53968.41,60.79,-284.41,-0.124025,-0.132869,0.201026,100.00,0
10907,0,49814,53678,49754.33,53967.83,59.67,-289.83,-0.124027,-0.132858,0.201026,100.00,0
10918,0,49811,53689,49754.45,53967.27,56.55,-278.27,-0.124029,-0.132848,0.201026,100.00,0
10931,0,49815,53686,49754.57,53966.71,60.43,-280.71,-0.124032,-0.132838,0.201026,100.00,0
10941,0,49817,53700,49754.69,53966.18,62.31,-266.18,-0.124034,-0.132828,0.201026,100.00,0
10951,0,49825,53700,49754.83,53965.65,70.17,-265.65,-0.124037,-0.132818,0.201026,100.00,0
10961,0,49823,53712,49754.97,53965.14,68.03,-253.14,-0.124040,-0.132809,0.201026,100.00,0
10971,0,49826,53710,49755.11,53964.63,70.89,-254.63,-0.124043,-0.132799,0.201026,100.00,0
10980,0,49827,53717,49755.26,53964.14,71.74,-247.14,-0.124046,-0.132790,0.201026,100.00,0
10989,0,49820,53721,49755.39,53963.66,64.61,-242.66,-0.124048,-0.132781,0.201026,100.00,0
11000,0,49824,53717,49755.52,53963.16,68.48,-246.16,-0.124051,-0.132772,0.201026,100.00,0
11011,0,49822,53698,49755.66,53962.64,66.34,-264.64,-0.124054,-0.132762,0.201026,100.00,0
11023,0,49810,53666,49755.77,53962.04,54.23,-296.04,-0.124056,-0.132751,0.201026,100.00,0
11030,0,49797,53623,49755.85,53961.37,41.15,-338.37,-0.124058,-0.132739,0.201026,100.00,0
11043,0,49775,53591,49755.89,53960.63,19.11,-369.63,-0.124058,-0.132725,0.201026,100.00,0
11050,0,49766,53564,49755.91,53959.84,10.09,-395.84,-0.124059,-0.132710,0.201026,100.00,0
11060,0,49743,53550,49755.89,53959.02,-12.89,-409.02,-0.124058,-0.132695,0.201026,100.00,0
11071,0,49745,53535,49755.87,53958.17,-10.87,-423.17,-0.124058,-0.132679,0.201026,100.00,0
11083,0,49746,53532,49755.85,53957.32,-9.85,-425.32,-0.124058,-0.132664,0.201026,100.00,0
11091,0,49739,53534,49755.82,53956.48,-16.82,-422.48,-0.124057,-0.132648,0.201026,100.00,0
11100,0,49745,53530,49755.80,53955.62,-10.80,-425.62,-0.124057,-0.132632,0.201026,100.00,0
11111,0,49745,53541,49755.78,53954.80,-10.78,-413.80,-0.124056,-0.132617,0.201026,100.00,0
11121,0,49753,53545,49755.77,53953.98,-2.77,-408.98,-0.124056,-0.132602,0.201026,100.00,0
11133,0,49763,53547,49755.79,53953.17,7.21,-406.17,-0.124056,-0.132587,0.201026,100.00,0
11141,0,49765,53559,49755.81,53952.38,9.19,-393.38,-0.124057,-0.132572,0.201026,100.00,0
11150,0,49770,53562,49755.84,53951.60,14.16,-389.60,-0.124057,-0.132558,0.201026,100.00,0
11161,0,49775,53564,49755.88,53950.83,19.12,-386.83,-0.124058,-0.132543,0.201026,100.00,0
11171,0,49778,53572,49755.93,53950.07,22.07,-378.07,-0.124059,-0.132529,0.201026,100.00,0
11183,0,49783,53582,49755.98,53949.34,27.02,-367.34,-0.124060,-0.132516,0.201026,100.00,0
11191,0,49786,53581,49756.04,53948.60,29.96,-367.60,-0.124061,-0.132502,0.201026,100.00,0
11200,0,49788,53583,49756.11,53947.87,31.89,-364.87,-0.124063,-0.132488,0.201026,100.00,0
11211,0,49792,53582,49756.18,53947.14,35.82,-365.14,-0.124064,-0.132475,0.201026,100.00,0
11221,0,49795,53587,49756.26,53946.42,38.74,-359.42,-0.124066,-0.132462,0.201026,100.00,0
11231,0,49796,53595,49756.34,53945.72,39.66,-350.72,-0.124067,-0.132449,0.201026,100.00,0
11239,0,49793,53587,49756.42,53945.00,36.58,-358.00,-0.124069,-0.132435,0.201026,100.00,0
11250,0,49793,53594,49756.49,53944.30,36.51,-350.30,-0.124071,-0.132422,0.201026,100.00,0
11259,0,49796,53603,49756.57,53943.62,39.43,-340.62,-0.124072,-0.132410,0.201026,100.00,0
11269,0,49799,53608,49756.66,53942.96,42.34,-334.96,-0.124074,-0.132397,0.201026,100.00,0
11279,0,49797,53607,49756.74,53942.29,40.26,-335.29,-0.124075,-0.132385,0.201026,100.00,0
11291,0,49796,53602,49756.82,53941.61,39.18,-339.61,-0.124077,-0.132372,0.201026,100.00,0
11301,0,49792,53608,49756.89,53940.94,35.11,-332.94,-0.124079,-0.132360,0.201026,100.00,0
11313,0,49796,53615,49756.97,53940.29,39.03,-325.29,-0.124080,-0.132348,0.201026,100.00,0
11324,0,49797,53611,49757.05,53939.63,39.95,-328.63,-0.124082,-0.132336,0.201026,100.00,0
11335,0,49802,53617,49757.14,53938.99,44.86,-321.99,-0.124083,-0.132324,0.201026,100.00,0
11342,0,49800,53622,49757.23,53938.36,42.77,-316.36,-0.124085,-0.132312,0.201026,100.00,0
11350,0,49801,53616,49757.32,53937.71,43.68,-321.71,-0.124087,-0.132300,0.201026,100.00,0
11358,0,49797,53624,49757.40,53937.09,39.60,-313.09,-0.124089,-0.132288,0.201026,100.00,0
11370,0,49803,53635,49757.49,53936.48,45.51,-301.48,-0.124091,-0.132277,0.201026,100.00,0
11382,0,49803,53637,49757.59,53935.89,45.41,-298.89,-0.124092,-0.132266,0.201026,100.00,0
11392,0,49816,53649,49757.70,53935.31,58.30,-286.31,-0.124095,-0.132256,0.201026,100.00,0
11400,0,49821,53653,49757.83,53934.75,63.17,-281.75,-0.124097,-0.132245,0.201026,100.00,0
11410,0,49821,53657,49757.96,53934.20,63.04,-277.20,-0.124100,-0.132235,0.201026,100.00,0
11420,0,49828,53669,49758.10,53933.67,69.90,-264.67,-0.124103,-0.132225,0.201026,100.00,0
11427,0,49829,53673,49758.25,53933.15,70.75,-260.15,-0.124106,-0.132215,0.201026,100.00,0
11441,0,49831,53684,49758.39,53932.65,72.61,-248.65,-0.124109,-0.132206,0.201026,100.00,0
11449,0,49829,53695,49758.54,53932.18,70.46,-237.18,-0.124111,-0.132197,0.201026,100.00,0
11459,0,49833,53696,49758.68,53931.71,74.32,-235.71,-0.124115,-0.132189,0.201026,100.00,0
11469,0,49837,53702,49758.84,53931.25,78.16,-229.25,-0.124118,-0.132180,0.201026,100.00,0
11481,0,49839,53707,49759.00,53930.80,80.00,-223.80,-0.124121,-0.132172,0.201026,100.00,0
11488,0,49846,53712,49759.18,53930.37,86.82,-218.37,-0.124124,-0.132164,0.201026,100.00,0
11501,0,49840,53726,49759.34,53929.96,80.66,-203.96,-0.124128,-0.132156,0.201026,100.00,0
11513,0,49842,53723,49759.51,53929.55,82.49,-206.55,-0.124131,-0.132149,0.201026,100.00,0
11523,0,49847,53727,49759.68,53929.14,87.32,-202.14,-0.124135,-0.132141,0.201026,100.00,0
11533,0,49844,53732,49759.85,53928.75,84.15,-196.75,-0.124138,-0.132134,0.201026,100.00,0
11545,0,49847,53731,49760.03,53928.36,86.97,-197.36,-0.124141,-0.132127,0.201026,100.00,0
11551,0,49851,53742,49760.21,53927.98,90.79,-185.98,-0.124145,-0.132120,0.201026,100.00,0
11559,0,49856,53747,49760.40,53927.62,95.60,-180.62,-0.124149,-0.132113,0.201026,100.00,0
11571,0,49853,53752,49760.59,53927.27,92.41,-175.27,-0.124153,-0.132107,0.201026,100.00,0
11581,0,49854,53753,49760.78,53926.93,93.22,-173.93,-0.124157,-0.132100,0.201026,100.00,0
11592,0,49856,53760,49760.97,53926.59,95.03,-166.59,-0.124160,-0.132094,0.201026,100.00,0
11602,0,49860,53774,49761.17,53926.29,98.83,-152.29,-0.124164,-0.132088,0.201026,100.00,0
11613,0,49861,53765,49761.37,53925.97,99.63,-160.97,-0.124168,-0.132082,0.201026,100.00,0
11620,0,49865,53759,49761.57,53925.64,103.43,-166.64,-0.124173,-0.132076,0.201026,100.00,0
11632,0,49849,53736,49761.75,53925.26,87.25,-189.26,-0.124176,-0.132069,0.201026,100.00,0
11642,0,49844,53707,49761.91,53924.82,82.09,-217.82,-0.124179,-0.132061,0.201364,100.00,1
11650,0,49820,53669,49762.03,53924.31,57.97,-255.31,-0.124182,-0.132052,0.201674,100.00,1
11663,0,49802,53636,49762.11,53923.74,39.89,-287.74,-0.124183,-0.132041,0.201311,100.00,1
11670,0,49794,53608,49762.18,53923.11,31.82,-315.11,-0.124185,-0.132029,0.200624,100.00,1
11683,0,49776,53584,49762.21,53922.43,13.79,-338.43,-0.124185,-0.132017,0.200624,100.00,0
11692,0,49775,53575,49762.23,53921.74,12.77,-346.74,-0.124186,-0.132004,0.200624,100.00,0
11701,0,49764,53568,49762.24,53921.03,1.76,-353.03,-0.124186,-0.131991,0.200624,100.00,0
11713,0,49768,53572,49762.25,53920.34,5.75,-348.34,-0.124186,-0.131978,0.200624,100.00,0
11721,0,49766,53575,49762.26,53919.65,3.74,-344.65,-0.124186,-0.131965,0.200624,100.00,0
11731,0,49771,53577,49762.28,53918.96,8.72,-341.96,-0.124187,-0.131953,0.200624,100.00,0
11742,0,49776,53591,49762.30,53918.31,13.70,-327.31,-0.124187,-0.131940,0.200624,100.00,0
11752,0,49776,53592,49762.33,53917.66,13.67,-325.66,-0.124188,-0.131928,0.200624,100.00,0
11761,0,49781,53599,49762.37,53917.02,18.63,-318.02,-0.124189,-0.131916,0.200624,100.00,0
11770,0,49784,53604,49762.41,53916.39,21.59,-312.39,-0.124189,-0.131905,0.200624,100.00,0
11779,0,49792,53613,49762.47,53915.79,29.53,-302.79,-0.124191,-0.131894,0.200624,100.00,0
11790,0,49791,53629,49762.53,53915.22,28.47,-286.22,-0.124192,-0.131883,0.200624,100.00,0
11801,0,49794,53634,49762.59,53914.66,31.41,-280.66,-0.124193,-0.131873,0.200624,100.00,0
11810,0,49802,53631,49762.68,53914.09,39.32,-283.09,-0.124195,-0.131862,0.200624,100.00,0
11819,0,49803,53642,49762.76,53913.55,40.24,-271.55,-0.124196,-0.131852,0.200624,100.00,0
11829,0,49802,53647,49762.84,53913.02,39.16,-266.02,-0.124198,-0.131842,0.200624,100.00,0
11838,0,49813,53663,49762.94,53912.52,50.06,-249.52,-0.124200,-0.131833,0.200624,100.00,0
11851,0,49809,53662,49763.03,53912.02,45.97,-250.02,-0.124202,-0.131824,0.200624,100.00,0
11861,0,49826,53666,49763.16,53911.52,62.84,-245.52,-0.124204,-0.131815,0.200624,100.00,0
11870,0,49814,53661,49763.26,53911.02,50.74,-250.02,-0.124207,-0.131805,0.200624,100.00,0
11881,0,49818,53667,49763.37,53910.54,54.63,-243.54,-0.124209,-0.131796,0.200624,100.00,0
11892,0,49824,53668,49763.49,53910.05,60.51,-242.05,-0.124211,-0.131787,0.200624,100.00,0
11899,0,49829,53682,49763.62,53909.60,65.37,-227.60,-0.124214,-0.131779,0.200624,100.00,0
11909,0,49823,53675,49763.75,53909.13,59.25,-234.13,-0.124216,-0.131770,0.200624,100.00,0
11920,0,49819,53674,49763.86,53908.66,55.14,-234.66,-0.124219,-0.131761,0.200624,100.00,0
11931,0,49820,53683,49763.97,53908.21,56.03,-225.21,-0.124221,-0.131753,0.200624,100.00,0
11941,0,49821,53682,49764.09,53907.76,56.91,-225.76,-0.124223,-0.131745,0.200624,100.00,0
11951,0,49822,53681,49764.21,53907.31,57.79,-226.31,-0.124225,-0.131736,0.200624,100.00,0
11959,0,49823,53684,49764.32,53906.86,58.68,-222.86,-0.124228,-0.131728,0.200624,100.00,0
11971,0,49828,53699,49764.45,53906.45,63.55,-207.45,-0.124230,-0.131720,0.200624,100.00,0
11981,0,49833,53697,49764.59,53906.03,68.41,-209.03,-0.124233,-0.131713,0.200624,100.00,0
11991,0,49834,53699,49764.73,53905.62,69.27,-206.62,-0.124236,-0.131705,0.200624,100.00,0
12001,0,49835,53708,49764.87,53905.22,70.13,-197.22,-0.124239,-0.131698,0.200624,100.00,0
12012,0,49842,53721,49765.03,53904.86,76.97,-183.86,-0.124242,-0.131691,0.200624,100.00,0
12022,0,49840,53728,49765.18,53904.50,74.82,-176.50,-0.124245,-0.131684,0.201128,100.00,1
12032,0,49845,53735,49765.34,53904.17,79.66,-169.17,-0.124248,-0.131678,0.202803,100.00,1
12041,0,49844,53743,49765.50,53903.85,78.50,-160.85,-0.124252,-0.131672,0.204444,100.00,1
12051,0,49850,53746,49765.67,53903.54,84.33,-157.54,-0.124255,-0.131666,0.206387,100.00,1
12062,0,49853,53751,49765.85,53903.23,87.15,-152.23,-0.124258,-0.131661,0.208489,100.00,1
12071,0,49860,53757,49766.04,53902.94,93.96,-145.94,-0.124262,-0.131655,0.210983,100.00,1
12082,0,49854,53766,49766.21,53902.66,87.79,-136.66,-0.124266,-0.131650,0.213147,100.00,1
12093,0,49862,53762,49766.41,53902.38,95.59,-140.38,-0.124270,-0.131645,0.215728,100.00,1
12104,0,49864,53760,49766.60,53902.10,97.40,-142.10,-0.124274,-0.131640,0.218393,100.00,1
12112,0,49869,53769,49766.81,53901.83,102.19,-132.83,-0.124278,-0.131635,0.221364,100.00,1
12122,0,49867,53779,49767.01,53901.59,99.99,-122.59,-0.124282,-0.131630,0.224211,100.00,1
12133,0,49877,53781,49767.23,53901.35,109.77,-120.35,-0.124286,-0.131626,0.227665,100.00,1
12144,0,49875,53789,49767.45,53901.12,107.55,-112.12,-0.124291,-0.131622,0.230972,100.00,1
12152,0,49874,53789,49767.67,53900.90,106.33,-111.90,-0.124295,-0.131617,0.234179,100.00,1
12161,0,49876,53793,49767.89,53900.69,108.11,-107.69,-0.124299,-0.131613,0.237490,100.00,1
12172,0,49880,53797,49768.11,53900.48,111.89,-103.48,-0.124304,-0.131610,0.241036,100.00,1
12180,0,49880,53798,49768.34,53900.28,111.66,-102.28,-0.124309,-0.131606,0.244545,100.00,1
12191,0,49880,53806,49768.56,53900.09,111.44,-94.09,-0.124313,-0.131602,0.248041,100.00,1
12202,0,49879,53810,49768.79,53899.91,110.21,-89.91,-0.124318,-0.131599,0.251449,100.00,1
12212,0,49881,53818,49769.01,53899.75,111.99,-81.75,-0.124322,-0.131596,0.254974,100.00,1
12222,0,49885,53824,49769.25,53899.60,115.75,-75.60,-0.124327,-0.131593,0.258740,100.00,1
12232,0,49887,53818,49769.48,53899.44,117.52,-81.44,-0.124332,-0.131590,0.262586,100.00,1
12241,0,49882,53815,49769.71,53899.27,112.29,-84.27,-0.124336,-0.131587,0.266060,100.00,1
12250,0,49875,53794,49769.92,53899.06,105.08,-105.06,-0.124340,-0.131583,0.269006,100.00,1
12261,0,49858,53767,49770.10,53898.80,87.90,-131.80,-0.124344,-0.131578,0.270892,100.00,1
12270,0,49844,53733,49770.25,53898.46,73.75,-165.46,-0.124347,-0.131572,0.271948,100.00,1
12283,0,49830,53708,49770.37,53898.09,59.63,-190.09,-0.124349,-0.131565,0.272310,100.00,1
12290,0,49813,53679,49770.45,53897.65,42.55,-218.65,-0.124351,-0.131557,0.271960,100.00,1
12302,0,49804,53665,49770.52,53897.18,33.48,-232.18,-0.124352,-0.131548,0.271303,100.00,1
12309,0,49800,53650,49770.58,53896.69,29.42,-246.69,-0.124354,-0.131539,0.270448,100.00,1
12321,0,49796,53649,49770.63,53896.20,25.37,-247.20,-0.124355,-0.131530,0.269526,100.00,1
12331,0,49802,53645,49770.70,53895.70,31.30,-250.70,-0.124356,-0.131521,0.268674,100.00,1
12341,0,49803,53659,49770.76,53895.23,32.24,-236.23,-0.124357,-0.131512,0.267970,100.00,1
12350,0,49803,53659,49770.83,53894.75,32.17,-235.75,-0.124359,-0.131503,0.267269,100.00,1
12363,0,49813,53666,49770.91,53894.30,42.09,-228.30,-0.124360,-0.131495,0.266851,100.00,1
12371,0,49821,53671,49771.02,53893.85,49.98,-222.85,-0.124362,-0.131487,0.266694,100.00,1
12382,0,49815,53678,49771.11,53893.42,43.89,-215.42,-0.124364,-0.131479,0.266426,100.00,1
12393,0,49820,53686,49771.20,53893.01,48.80,-207.01,-0.124366,-0.131471,0.266360,100.00,1
12402,0,49825,53690,49771.31,53892.60,53.69,-202.60,-0.124368,-0.131463,0.266477,100.00,1
12414,0,49826,53697,49771.42,53892.21,54.58,-195.21,-0.124370,-0.131456,0.266678,100.00,1
12421,0,49833,53705,49771.55,53891.84,61.45,-186.84,-0.124373,-0.131449,0.267179,100.00,1
12432,0,49828,53705,49771.66,53891.47,56.34,-186.47,-0.124375,-0.131442,0.267499,100.00,1
12443,0,49834,53715,49771.79,53891.12,62.21,-176.12,-0.124378,-0.131436,0.268102,100.00,1
12452,0,49833,53730,49771.91,53890.80,61.09,-160.80,-0.124380,-0.131430,0.268760,100.00,1
12462,0,49839,53724,49772.05,53890.46,66.95,-166.46,-0.124383,-0.131424,0.269614,100.00,1
12472,0,49841,53736,49772.19,53890.16,68.81,-154.16,-0.124386,-0.131418,0.270620,100.00,1
12481,0,49839,53736,49772.32,53889.85,66.68,-153.85,-0.124389,-0.131412,0.271539,100.00,1
12491,0,49841,53739,49772.46,53889.55,68.54,-150.55,-0.124391,-0.131407,0.272555,100.00,1
12500,0,49846,53739,49772.61,53889.25,73.39,-150.25,-0.124394,-0.131401,0.273788,100.00,1
12510,0,49841,53741,49772.75,53888.95,68.25,-147.95,-0.124397,-0.131396,0.274805,100.00,1
12521,0,49847,53746,49772.89,53888.66,74.11,-142.66,-0.124400,-0.131390,0.276115,100.00,1
12529,0,49844,53745,49773.04,53888.38,70.96,-143.38,-0.124403,-0.131385,0.277277,100.00,1
12539,0,49846,53747,49773.19,53888.10,72.81,-141.10,-0.124406,-0.131380,0.278535,100.00,1
12551,0,49846,53753,49773.34,53887.83,72.66,-134.83,-0.124409,-0.131375,0.279823,100.00,1
12561,0,49850,53751,49773.49,53887.55,76.51,-136.55,-0.124412,-0.131370,0.281282,100.00,1
12572,0,49842,53753,49773.63,53887.29,68.37,-134.29,-0.124415,-0.131365,0.282379,100.00,1
12582,0,49848,53757,49773.78,53887.03,74.22,-130.03,-0.124418,-0.131360,0.283767,100.00,1
12592,0,49846,53760,49773.92,53886.77,72.08,-126.77,-0.124421,-0.131355,0.285073,100.00,1
12602,0,49848,53759,49774.07,53886.52,73.93,-127.52,-0.124424,-0.131351,0.286462,100.00,1
12613,0,49856,53774,49774.23,53886.30,81.77,-112.30,-0.124427,-0.131346,0.288325,100.00,1
12621,0,49853,53778,49774.39,53886.08,78.61,-108.08,-0.124430,-0.131342,0.290046,100.00,1
12640,0,49859,53774,49774.57,53885.86,84.43,-111.86,-0.124434,-0.131338,0.292054,100.00,1
12648,0,49863,53785,49774.75,53885.66,88.25,-100.66,-0.124437,-0.131335,0.294329,100.00,1
12653,0,49860,53802,49774.92,53885.50,85.08,-83.50,-0.124441,-0.131332,0.296502,100.00,1
12660,0,49865,53802,49775.10,53885.33,89.90,-83.33,-0.124444,-0.131329,0.298948,100.00,1
12671,0,49860,53810,49775.27,53885.18,84.73,-75.18,-0.124448,-0.131326,0.301133,100.00,1
12681,0,49868,53819,49775.46,53885.05,92.54,-66.05,-0.124452,-0.131323,0.303802,100.00,1
12692,0,49872,53824,49775.65,53884.93,96.35,-60.93,-0.124456,-0.131321,0.306719,100.00,1
12703,0,49870,53827,49775.84,53884.82,94.16,-57.82,-0.124459,-0.131319,0.309508,100.00,1
12712,0,49867,53834,49776.03,53884.71,90.97,-50.71,-0.124463,-0.131317,0.312128,100.00,1
12721,0,49878,53841,49776.23,53884.63,101.77,-43.63,-0.124467,-0.131315,0.315441,100.00,1
12731,0,49874,53844,49776.43,53884.55,97.57,-40.55,-0.124471,-0.131314,0.318487,100.00,1
12743,0,49875,53847,49776.63,53884.48,98.37,-37.48,-0.124475,-0.131313,0.321591,100.00,1
12751,0,49871,53862,49776.82,53884.43,94.18,-22.43,-0.124479,-0.131312,0.324460,100.00,1
12762,0,49880,53859,49777.03,53884.38,102.97,-25.38,-0.124483,-0.131311,0.327888,100.00,1
12772,0,49877,53866,49777.23,53884.35,99.77,-18.35,-0.124487,-0.131310,0.331114,100.00,1
12781,0,49883,53871,49777.44,53884.32,105.56,-13.32,-0.124491,-0.131310,0.334730,100.00,1
12792,0,49884,53870,49777.66,53884.30,106.34,-14.30,-0.124496,-0.131309,0.338395,100.00,1
12802,0,49885,53879,49777.87,53884.29,107.13,-5.29,-0.124500,-0.131309,0.342117,100.00,1
12811,0,49891,53880,49778.10,53884.28,112.90,-4.28,-0.124505,-0.131309,0.346246,100.00,1
12822,0,49896,53891,49778.34,53884.30,117.66,6.70,-0.124509,-0.131309,0.350720,100.00,1
12832,0,49890,53893,49778.56,53884.32,111.44,8.68,-0.124514,-0.131310,0.354722,100.00,1
12842,0,49894,53895,49778.79,53884.34,115.21,10.66,-0.124519,-0.131310,0.358992,100.00,1
12852,0,49896,53892,49779.03,53884.36,116.97,7.64,-0.124523,-0.131310,0.363387,100.00,1
12862,0,49895,53879,49779.26,53884.35,115.74,-5.35,-0.124528,-0.131310,0.367682,100.00,1
12873,0,49881,53859,49779.46,53884.30,101.54,-25.30,-0.124532,-0.131309,0.370963,100.00,1
12883,0,49872,53824,49779.65,53884.18,92.35,-60.18,-0.124536,-0.131307,0.373563,100.00,1
12892,0,49848,53803,49779.79,53884.02,68.21,-81.02,-0.124539,-0.131304,0.374808,100.00,1
12905,0,49839,53781,49779.91,53883.81,59.09,-102.81,-0.124541,-0.131300,0.375527,100.00,1
12916,0,49833,53763,49780.02,53883.57,52.98,-120.57,-0.124543,-0.131296,0.375869,100.00,1
12925,0,49819,53755,49780.10,53883.32,38.90,-128.32,-0.124545,-0.131291,0.375711,100.00,1
12942,0,49812,53748,49780.16,53883.05,31.84,-135.05,-0.124546,-0.131286,0.375318,100.00,1
12958,0,49814,53744,49780.23,53882.77,33.77,-138.77,-0.124548,-0.131281,0.374925,100.00,1
13005,0,49814,53755,49780.30,53882.52,33.70,-127.52,-0.124549,-0.131276,0.374650,100.00,1
13024,0,49816,53763,49780.38,53882.28,35.62,-119.28,-0.124550,-0.131272,0.374500,100.00,1
13034,0,49821,53765,49780.46,53882.05,40.54,-117.05,-0.124552,-0.131268,0.374499,100.00,1
13040,0,49825,53773,49780.55,53881.83,44.45,-108.83,-0.124554,-0.131264,0.374688,100.00,1
13079,0,49831,53775,49780.65,53881.62,50.35,-106.62,-0.124556,-0.131260,0.375090,100.00,1
13087,0,49830,53784,49780.75,53881.43,49.25,-97.43,-0.124558,-0.131256,0.375534,100.00,1
13094,0,49840,53800,49780.87,53881.27,59.13,-81.27,-0.124560,-0.131253,0.376476,100.00,1
13099,0,49848,53800,49781.01,53881.11,66.99,-81.11,-0.124563,-0.131250,0.377770,100.00,1
13103,0,49849,53808,49781.15,53880.96,67.85,-72.96,-0.124566,-0.131247,0.379165,100.00,1
13106,0,49849,53810,49781.29,53880.82,67.71,-70.82,-0.124569,-0.131245,0.380573,100.00,1
13108,0,49857,53813,49781.44,53880.69,75.56,-67.69,-0.124572,-0.131242,0.382405,100.00,1
13110,0,49850,53820,49781.57,53880.57,68.43,-60.57,-0.124574,-0.131240,0.383917,100.00,1
13112,0,49859,53824,49781.73,53880.45,77.27,-56.45,-0.124578,-0.131238,0.385921,100.00,1
13115,0,49863,53831,49781.89,53880.36,81.11,-49.36,-0.124581,-0.131236,0.388185,100.00,1
13117,0,49855,53833,49782.04,53880.26,72.96,-47.26,-0.124584,-0.131234,0.390011,100.00,1
13120,0,49872,53843,49782.22,53880.19,89.78,-37.19,-0.124588,-0.131233,0.392881,100.00,1
13121,0,49858,53835,49782.37,53880.10,75.62,-45.10,-0.124591,-0.131231,0.394872,100.00,1
13123,0,49867,53835,49782.55,53880.01,84.45,-45.01,-0.124594,-0.131230,0.397389,100.00,1
13129,0,49868,53840,49782.72,53879.93,85.28,-39.93,-0.124597,-0.131228,0.399986,100.00,1
13139,0,49862,53839,49782.88,53879.85,79.12,-40.85,-0.124601,-0.131227,0.402213,99.94,1
13150,0,49866,53838,49783.05,53879.77,82.95,-41.77,-0.124604,-0.131225,0.404674,99.88,1
13162,0,49866,53843,49783.21,53879.70,82.79,-36.70,-0.124607,-0.131224,0.407153,99.82,1
13172,0,49873,53834,49783.39,53879.61,89.61,-45.61,-0.124611,-0.131222,0.410039,99.75,1
13181,0,49865,53848,49783.56,53879.54,81.44,-31.54,-0.124614,-0.131221,0.412468,99.69,1
13192,0,49865,53853,49783.72,53879.49,81.28,-26.49,-0.124618,-0.131220,0.414912,99.63,1
13202,0,49869,53858,49783.89,53879.45,85.11,-21.45,-0.124621,-0.131219,0.417619,99.56,1
13212,0,49872,53862,49784.07,53879.41,87.93,-17.41,-0.124625,-0.131219,0.420528,99.49,1
13223,0,49871,53861,49784.25,53879.38,86.75,-18.38,-0.124628,-0.131218,0.423366,99.42,1
13231,0,49867,53863,49784.41,53879.35,82.59,-16.35,-0.124631,-0.131218,0.425949,99.35,1
13242,0,49877,53871,49784.60,53879.33,92.40,-8.33,-0.124635,-0.131217,0.429208,99.27,1
13250,0,49872,53879,49784.78,53879.33,87.22,-0.33,-0.124639,-0.131217,0.432124,99.20,1
13261,0,49879,53886,49784.97,53879.35,94.03,6.65,-0.124643,-0.131218,0.435520,99.11,1
13273,0,49886,53888,49785.17,53879.37,100.83,8.63,-0.124647,-0.131218,0.439430,99.01,1
13281,0,49885,53894,49785.37,53879.40,99.63,14.60,-0.124651,-0.131218,0.443243,98.92,1
13291,0,49880,53892,49785.56,53879.43,94.44,12.57,-0.124655,-0.131219,0.446677,98.83,1
13302,0,49885,53905,49785.76,53879.48,99.24,25.52,-0.124659,-0.131220,0.450444,98.74,1
13312,0,49885,53902,49785.96,53879.52,99.04,22.48,-0.124663,-0.131221,0.454211,98.64,1
13322,0,49886,53903,49786.16,53879.57,99.84,23.43,-0.124667,-0.131222,0.458042,98.55,1
13331,0,49890,53916,49786.37,53879.64,103.63,36.36,-0.124671,-0.131223,0.462122,98.45,1
13342,0,49896,53917,49786.59,53879.72,109.41,37.28,-0.124675,-0.131224,0.466675,98.33,1
13352,0,49889,53920,49786.80,53879.80,102.20,40.20,-0.124679,-0.131226,0.470620,98.23,1
13362,0,49892,53926,49787.01,53879.89,104.99,46.11,-0.124684,-0.131228,0.474752,98.13,1
13371,0,49887,53926,49787.21,53879.99,99.79,46.01,-0.124688,-0.131229,0.478472,98.04,1
13383,0,49897,53925,49787.43,53880.08,109.57,44.92,-0.124692,-0.131231,0.482999,97.93,1
13393,0,49895,53937,49787.65,53880.20,107.35,56.80,-0.124696,-0.131233,0.487240,97.82,1
13403,0,49893,53938,49787.86,53880.31,105.14,57.69,-0.124701,-0.131235,0.491289,97.72,1
13413,0,49897,53937,49788.08,53880.43,108.92,56.57,-0.124705,-0.131237,0.495660,97.61,1
13423,0,49893,53947,49788.29,53880.56,104.71,66.44,-0.124709,-0.131240,0.499578,97.51,1
13434,0,49899,53945,49788.51,53880.69,110.49,64.31,-0.124714,-0.131242,0.503999,97.40,1
13442,0,49899,53942,49788.73,53880.81,110.27,61.19,-0.124718,-0.131245,0.508428,97.29,1
