t_ms,trial_id,t_trial_ms,phase,red_raw,ir_raw,red_dc,ir_dc,red_ac,ir_ac,R,spo2,spo2_valid
2170502,1,0,0,47577,50961,47182.12,49851.32,394.87,1109.68,0.53569,96.46,1
2170542,1,40,0,47592,51005,47182.95,49853.62,409.05,1151.38,0.535337,96.47,1
2170582,1,80,0,47598,50970,47183.78,49855.86,414.22,1114.14,0.534982,96.47,1
2170622,1,120,0,47550,50832,47184.51,49857.81,365.49,974.19,0.534626,96.48,1
2170663,1,161,0,47486,50714,47185.12,49859.53,300.88,854.47,0.534269,96.48,1
2170703,1,201,0,47449,50674,47185.64,49861.16,263.36,812.84,0.533909,96.49,1
2170743,1,241,0,47446,50688,47186.17,49862.81,259.83,825.19,0.533546,96.49,1
2170783,1,281,0,47456,50719,47186.71,49864.53,269.29,854.47,0.53318,96.5,1
2170823,1,321,0,47472,50767,47187.28,49866.33,284.72,900.67,0.53281,96.5,1
2170863,1,361,0,47497,50811,47187.9,49868.22,309.1,942.78,0.532437,96.51,1
2170903,1,401,0,47511,50831,47188.55,49870.15,322.45,960.85,0.532062,96.52,1
2170943,1,441,0,47516,50849,47189.2,49872.11,326.8,976.89,0.531683,96.52,1
2170983,1,481,0,47518,50868,47189.86,49874.1,328.14,993.9,0.531302,96.53,1
2171023,1,521,0,47539,50906,47190.56,49876.17,348.44,1029.83,0.530918,96.53,1
2171063,1,561,0,47562,50956,47191.3,49878.33,370.7,1077.67,0.530533,96.54,1
2171103,1,601,0,47582,51004,47192.09,49880.58,389.91,1123.42,0.530145,96.55,1
2171143,1,641,0,47604,51054,47192.91,49882.93,411.09,1171.07,0.529756,96.55,1
2171183,1,681,0,47621,51100,47193.77,49885.36,427.23,1214.64,0.529365,96.56,1
2171223,1,721,0,47643,51227,47194.66,49888.05,448.34,1338.95,0.52897,96.56,1
2171263,1,761,0,47665,51365,47195.61,49891,469.39,1474,0.528568,96.57,1
2171303,1,801,0,47674,51170,47196.56,49893.56,477.44,1276.44,0.528167,96.58,1
2171343,1,841,0,47635,51044,47197.44,49895.86,437.56,1148.14,0.527768,96.58,1
2171383,1,881,0,47569,50921,47198.19,49897.91,370.81,1023.09,0.52737,96.59,1
2171424,1,922,0,47533,51367,47198.86,49900.86,334.14,1466.14,0.526957,96.6,1
2171464,1,962,0,47526,50875,47199.52,49902.8,326.48,972.2,0.526544,96.61,1
2171504,1,1002,0,47535,50919,47200.19,49904.84,334.81,1014.16,0.526129,96.61,1
2171544,1,1042,0,47550,50973,47200.89,49906.98,349.11,1066.02,0.525713,96.62,1
2171584,1,1082,0,47572,51003,47201.63,49909.17,370.37,1093.83,0.525296,96.63,1
2171624,1,1122,0,47581,50578,47202.39,49910.51,378.61,667.49,0.524888,96.64,1
2171664,1,1162,0,47578,50485,47203.14,49911.66,374.86,573.34,0.524488,96.64,1
2171704,1,1202,0,47580,51021,47203.9,49913.87,376.1,1107.13,0.524088,96.65,1
2171744,1,1242,0,47594,51058,47204.68,49916.16,389.32,1141.84,0.523687,96.66,1
2171784,1,1282,0,47612,51093,47205.5,49918.52,406.5,1174.48,0.523285,96.67,1
2171824,1,1322,0,47629,51131,47206.34,49920.95,422.66,1210.05,0.522883,96.67,1
2171864,1,1362,0,47645,51166,47207.22,49923.44,437.78,1242.56,0.522481,96.68,1
2171904,1,1402,0,47663,51206,47208.14,49926,454.86,1280,0.522079,96.69,1
2171944,1,1442,0,47676,51242,47209.07,49928.64,466.93,1313.36,0.521677,96.7,1
2171984,1,1482,0,47732,51263,47210.12,49931.31,521.88,1331.69,0.521279,96.71,1
2172024,1,1522,0,47682,51177,47211.07,49933.8,470.93,1243.2,0.520883,96.71,1
2172064,1,1562,0,47616,51012,47211.88,49935.96,404.12,1076.04,0.520488,96.72,1
2172104,1,1602,0,47549,50897,47212.55,49937.88,336.45,959.12,0.520094,96.73,1
2172144,1,1642,0,47849,50864,47213.83,49939.73,635.17,924.27,0.519721,96.74,1
2172185,1,1683,0,47980,50874,47215.36,49941.61,764.64,932.39,0.519381,96.75,1
2172225,1,1723,0,47521,50894,47215.98,49943.51,305.02,950.49,0.519039,96.76,1
2172265,1,1763,0,47532,50932,47216.61,49945.49,315.39,986.51,0.518695,96.76,1
2172305,1,1803,0,47541,50950,47217.26,49947.5,323.74,1002.5,0.518349,96.77,1
2172345,1,1843,0,47340,50937,47217.5,49949.48,122.5,987.52,0.517996,96.78,1
2172385,1,1883,0,47169,50934,47217.41,49951.45,-48.41,982.55,0.517635,96.79,1
2172425,1,1923,0,47543,50955,47218.06,49953.46,324.94,1001.54,0.517273,96.8,1
2172465,1,1963,0,47553,50992,47218.73,49955.54,334.27,1036.46,0.516909,96.81,1
2172505,1,2003,0,47573,51030,47219.44,49957.68,353.56,1072.32,0.516545,96.81,1
2172545,1,2043,0,47591,51065,47220.19,49959.9,370.81,1105.1,0.516179,96.82,1
2172585,1,2083,0,47608,51101,47220.96,49962.18,387.04,1138.82,0.515812,96.83,1
2172625,1,2123,0,47626,51140,47221.78,49964.54,404.22,1175.46,0.515445,96.84,1
2172665,1,2163,0,47642,51177,47222.62,49966.96,419.38,1210.04,0.515077,96.85,1
2172705,1,2203,0,47650,51181,47223.47,49969.39,426.53,1211.61,0.514709,96.86,1
2172745,1,2243,0,47624,51043,47224.27,49971.54,399.73,1071.46,0.514342,96.87,1
2172785,1,2283,0,47545,50849,47224.92,49973.3,320.08,875.7,0.513976,96.87,1
2172825,1,2323,0,47466,50734,47225.4,49974.82,240.6,759.18,0.51361,96.88,1
2172865,1,2363,0,47434,50687,47225.82,49976.25,208.18,710.75,0.513244,96.89,1
2172906,1,2404,0,47420,50675,47226.21,49977.65,193.79,697.35,0.512877,96.9,1
2172946,1,2444,0,47422,50669,47226.61,49979.03,195.39,689.97,0.512509,96.91,1
2172986,1,2484,0,47425,50702,47227,49980.48,198,721.52,0.51214,96.92,1
2173026,1,2524,0,47434,50722,47227.42,49981.96,206.58,740.04,0.511771,96.93,1
2173066,1,2564,0,47440,50724,47227.84,49983.45,212.16,740.55,0.511401,96.93,1
2173106,1,2604,0,47436,50715,47228.26,49984.91,207.74,730.09,0.51103,96.94,1
2173146,1,2644,0,47439,50735,47228.68,49986.41,210.32,748.59,0.510658,96.95,1
2173186,1,2684,0,47449,50773,47229.12,49987.98,219.87,785.02,0.510285,96.96,1
2173226,1,2724,0,47475,50819,47229.62,49989.65,245.38,829.35,0.509912,96.97,1
2173266,1,2764,0,47496,50855,47230.15,49991.38,265.85,863.62,0.509537,96.98,1
2173306,1,2804,0,47514,50895,47230.72,49993.19,283.28,901.81,0.509162,96.99,1
2173346,1,2844,0,47533,50934,47231.33,49995.07,301.67,938.93,0.508787,97,1
2173386,1,2884,0,47547,50971,47231.96,49997.02,315.04,973.98,0.508411,97,1
2173426,1,2924,0,47562,51011,47232.62,49999.05,329.38,1011.95,0.508034,97.01,1
2173466,1,2964,0,47578,51040,47233.31,50001.13,344.69,1038.87,0.507658,97.02,1
2173506,1,3004,0,47573,50959,47233.99,50003.05,339.01,955.95,0.507282,97.03,1
2173546,1,3044,0,47506,50764,47234.54,50004.57,271.46,759.43,0.506907,97.04,1
2173586,1,3084,0,47422,50616,47234.91,50005.8,187.09,610.2,0.506533,97.05,1
2173626,1,3124,0,47373,50556,47235.19,50006.9,137.81,549.1,0.506158,97.06,1
2173667,1,3165,0,47365,50536,47235.45,50007.96,129.55,528.04,0.505783,97.07,1
2173707,1,3205,0,47356,50535,47235.7,50009.01,120.3,525.99,0.505408,97.08,1
2173747,1,3245,0,47357,50568,47235.94,50010.13,121.06,557.87,0.505033,97.08,1
2173787,1,3285,0,47372,50600,47236.21,50011.31,135.79,588.69,0.504657,97.09,1
2173827,1,3325,0,47382,50611,47236.5,50012.51,145.5,598.49,0.50428,97.1,1
2173867,1,3365,0,47385,50608,47236.8,50013.7,148.2,594.3,0.503903,97.11,1
2173907,1,3405,0,47384,50620,47237.1,50014.92,146.9,605.08,0.503525,97.12,1
2173947,1,3445,0,47397,50655,47237.42,50016.2,159.58,638.8,0.503147,97.13,1
2173987,1,3485,0,47422,50704,47237.79,50017.57,184.21,686.43,0.502768,97.14,1
2174027,1,3525,0,47442,50747,47238.2,50019.04,203.8,727.96,0.502389,97.15,1
2174067,1,3565,0,47460,50789,47238.64,50020.58,221.36,768.42,0.502009,97.16,1
2174107,1,3605,0,47478,50833,47239.12,50022.2,238.87,810.8,0.501628,97.17,1
2174147,1,3645,0,47493,50862,47239.63,50023.88,253.37,838.12,0.501247,97.17,1
2174187,1,3685,0,47512,50895,47240.18,50025.62,271.82,869.37,0.500866,97.18,1
2174227,1,3725,0,47526,50930,47240.75,50027.43,285.25,902.57,0.500484,97.19,1
2174267,1,3765,0,47544,50967,47241.36,50029.31,302.64,937.69,0.500103,97.2,1
2174307,1,3805,0,47547,50925,47241.98,50031.11,305.02,893.89,0.499722,97.21,1
2174347,1,3845,0,47494,50747,47242.48,50032.54,251.52,714.46,0.499342,97.22,1
2174388,1,3886,0,47407,50574,47242.81,50033.62,164.19,540.37,0.498963,97.23,1
2174428,1,3926,0,47351,50508,47243.03,50034.57,107.97,473.43,0.498584,97.24,1
2174468,1,3966,0,47339,50502,47243.22,50035.51,95.78,466.49,0.498204,97.25,1
2174508,1,4006,0,47336,50515,47243.41,50036.47,92.59,478.53,0.497825,97.26,1
2174548,1,4046,0,47351,50547,47243.62,50037.5,107.37,509.5,0.497445,97.27,1
2174588,1,4086,0,47367,50579,47243.87,50038.58,123.13,540.42,0.497065,97.28,1
2174628,1,4126,0,47374,50588,47244.13,50039.68,129.87,548.32,0.496685,97.28,1
2174668,1,4166,0,47376,50655,47244.4,50040.91,131.6,614.09,0.496303,97.29,1
2174708,1,4206,0,47374,50591,47244.66,50042.02,129.34,548.98,0.495922,97.3,1
2174748,1,4246,0,47389,50617,47244.95,50043.17,144.05,573.83,0.49554,97.31,1
2174788,1,4286,0,47407,50664,47245.27,50044.41,161.73,619.59,0.495158,97.32,1
2174828,1,4326,0,47429,51106,47245.64,50046.54,183.36,1059.46,0.494769,97.33,1
2174868,1,4366,0,47444,51226,47246.04,50048.89,197.96,1177.11,0.494373,97.34,1
2174908,1,4406,0,47464,50795,47246.48,50050.39,217.52,744.61,0.493976,97.35,1
2174948,1,4446,0,47480,50819,47246.95,50051.93,233.05,767.07,0.49358,97.36,1
2174988,1,4486,0,47493,50849,47247.44,50053.52,245.56,795.48,0.493184,97.37,1
2175028,1,4526,0,47501,50563,47247.95,50054.54,253.05,508.46,0.492792,97.38,1
2175068,1,4566,0,47514,50483,47248.48,50055.4,265.52,427.6,0.492404,97.39,1
2175109,1,4607,0,47530,50937,47249.04,50057.16,280.96,879.84,0.492017,97.4,1
2175149,1,4647,0,47518,50834,47249.58,50058.72,268.42,775.28,0.491631,97.41,1
2175189,1,4687,0,47438,50623,47249.96,50059.85,188.04,563.15,0.491246,97.42,1
2175229,1,4727,0,47352,50467,47250.17,50060.66,101.83,406.34,0.490861,97.42,1
2175269,1,4767,0,47301,50407,47250.27,50061.36,50.73,345.64,0.490477,97.43,1
2175309,1,4807,0,47295,50395,47250.36,50062.03,44.64,332.97,0.490093,97.44,1
2175349,1,4847,0,47290,50398,47250.44,50062.7,39.56,335.3,0.489709,97.45,1
2175389,1,4887,0,47299,50431,47250.54,50063.44,48.46,367.56,0.489326,97.46,1
2175429,1,4927,0,47316,50462,47250.67,50064.23,65.33,397.77,0.488943,97.47,1
2175469,1,4967,0,47327,50471,47250.82,50065.05,76.18,405.95,0.488559,97.48,1
2175509,1,5007,0,47329,50468,47250.98,50065.86,78.02,402.14,0.488176,97.49,1
2175549,1,5047,0,47645,50478,47251.77,50066.68,393.23,411.32,0.487805,97.5,1
2175589,1,5087,0,47787,50513,47252.84,50067.58,534.16,445.42,0.487455,97.51,1
2175629,1,5127,0,47361,50555,47253.06,50068.55,107.94,486.45,0.487106,97.52,1
2175669,1,5167,0,47380,50601,47253.31,50069.62,126.69,531.38,0.486756,97.53,1
2175709,1,5207,0,47396,50649,47253.6,50070.78,142.4,578.22,0.486405,97.54,1
2175749,1,5247,0,47203,50693,47253.5,50072.03,-50.5,620.97,0.486052,97.55,1
2175789,1,5287,0,47053,50734,47253.1,50073.35,-200.1,660.65,0.485699,97.56,1
2175830,1,5328,0,47453,50767,47253.5,50074.74,199.5,692.26,0.485345,97.57,1
2175870,1,5368,0,47466,50801,47253.93,50076.19,212.07,724.81,0.484991,97.57,1
2175910,1,5408,0,47479,50840,47254.38,50077.72,224.62,762.28,0.484637,97.58,1
2175950,1,5448,0,47492,50881,47254.86,50079.33,237.14,801.67,0.484282,97.59,1
2175990,1,5488,0,47517,50925,47255.38,50081.02,261.62,843.98,0.483927,97.6,1
2176030,1,5528,0,47535,50947,47255.94,50082.75,279.06,864.25,0.483572,97.61,1
2176070,1,5568,0,47514,50818,47256.46,50084.23,257.54,733.77,0.483218,97.62,1
2176110,1,5608,0,47423,50585,47256.79,50085.23,166.21,499.77,0.482865,97.63,1
2176150,1,5648,0,47340,50432,47256.96,50085.93,83.04,346.07,0.482513,97.64,1
2176190,1,5688,0,47301,50378,47257.05,50086.51,43.95,291.49,0.482161,97.65,1
2176230,1,5728,0,47290,50366,47257.12,50087.07,32.88,278.93,0.481809,97.66,1
2176270,1,5768,0,47284,50368,47257.17,50087.63,26.83,280.37,0.481458,97.67,1
2176310,1,5808,0,47296,50402,47257.25,50088.26,38.75,313.74,0.481106,97.68,1
2176350,1,5848,0,47312,50428,47257.36,50088.94,54.64,339.06,0.480756,97.69,1
2176390,1,5888,0,47318,50439,47257.48,50089.64,60.52,349.36,0.480405,97.69,1
2176430,1,5928,0,47313,50430,47257.59,50090.33,55.41,339.67,0.480054,97.7,1
2176470,1,5968,0,47318,50446,47257.71,50091.04,60.29,354.96,0.479703,97.71,1
2176510,1,6008,0,47327,50478,47257.86,50091.81,69.14,386.19,0.479353,97.72,1
2176551,1,6049,0,47341,50520,47258.02,50092.67,82.98,427.33,0.479002,97.73,1
2176591,1,6089,0,47367,50576,47258.24,50093.64,108.76,482.36,0.478651,97.74,1
2176631,1,6129,0,47386,50631,47258.5,50094.71,127.5,536.29,0.478299,97.75,1
2176671,1,6169,0,47410,50678,47258.8,50095.88,151.2,582.12,0.477947,97.76,1
2176711,1,6209,0,47431,50716,47259.15,50097.12,171.85,618.87,0.477594,97.77,1
2176751,1,6249,0,47452,50764,47259.54,50098.46,192.46,665.54,0.477242,97.78,1
2176791,1,6289,0,47467,50806,47259.95,50099.88,207.05,706.12,0.476889,97.79,1
2176831,1,6329,0,47489,50849,47260.41,50101.38,228.59,747.62,0.476536,97.79,1
2176871,1,6369,0,47506,50893,47260.91,50102.96,245.09,790.04,0.476183,97.8,1
2176911,1,6409,0,47531,50940,47261.45,50104.64,269.55,835.36,0.47583,97.81,1
2176951,1,6449,0,47558,50981,47262.04,50106.39,295.96,874.61,0.475479,97.82,1
2176991,1,6489,0,47561,50915,47262.64,50108.01,298.36,806.99,0.47513,97.83,1
2177031,1,6529,0,47489,50700,47263.09,50109.2,225.91,590.8,0.474783,97.84,1
2177071,1,6569,0,47393,50517,47263.36,50110.01,129.64,406.99,0.474436,97.85,1
2177111,1,6609,0,47336,50437,47263.5,50110.67,72.5,326.33,0.474091,97.86,1
2177151,1,6649,0,47320,50428,47263.62,50111.3,56.38,316.7,0.473745,97.87,1
2177191,1,6689,0,47317,50437,47263.73,50111.96,53.27,325.04,0.4734,97.88,1
2177231,1,6729,0,47329,50476,47263.86,50112.69,65.14,363.31,0.473055,97.88,1
2177271,1,6769,0,47348,50510,47264.03,50113.48,83.97,396.52,0.472709,97.89,1
2177312,1,6810,0,47355,50518,47264.21,50114.29,90.79,403.71,0.472364,97.9,1
2177352,1,6850,0,47352,50514,47264.39,50115.09,87.61,398.91,0.472019,97.91,1
2177392,1,6890,0,47352,50523,47264.56,50115.91,87.44,407.09,0.471674,97.92,1
2177432,1,6930,0,47354,50553,47264.74,50116.79,89.26,436.21,0.471328,97.93,1
2177472,1,6970,0,47378,50596,47264.97,50117.75,113.03,478.25,0.470982,97.94,1
2177512,1,7010,0,47402,50651,47265.24,50118.81,136.76,532.19,0.470636,97.95,1
2177552,1,7050,0,47421,50709,47265.55,50120,155.45,589,0.47029,97.96,1
2177592,1,7090,0,47445,50756,47265.91,50121.27,179.09,634.73,0.469943,97.96,1
2177632,1,7130,0,47472,50797,47266.33,50122.62,205.67,674.38,0.469597,97.97,1
2177672,1,7170,0,47495,50838,47266.79,50124.05,228.21,713.95,0.469251,97.98,1
2177712,1,7210,0,47510,50871,47267.27,50125.55,242.73,745.45,0.468905,97.99,1
2177752,1,7250,0,47525,50906,47267.79,50127.11,257.21,778.89,0.468561,98,1
2177792,1,7290,0,47538,50938,47268.33,50128.74,269.67,809.26,0.468218,98.01,1
2177832,1,7330,0,47558,50977,47268.91,50130.44,289.09,846.56,0.467876,98.02,1
2177872,1,7370,0,47576,51014,47269.53,50132.21,306.47,881.79,0.467536,98.03,1
2177912,1,7410,0,47578,50959,47270.15,50133.86,307.85,825.14,0.467198,98.04,1
2177952,1,7450,0,47508,50750,47270.62,50135.1,237.37,614.9,0.466864,98.04,1
2177992,1,7490,0,47417,50565,47270.92,50135.96,146.08,429.04,0.46653,98.05,1
2178033,1,7531,0,47359,50493,47271.09,50136.67,87.91,356.33,0.466196,98.06,1
2178073,1,7571,0,47346,50548,47271.25,50137.5,74.75,410.5,0.465863,98.07,1
2178113,1,7611,0,47352,50666,47271.41,50138.55,80.59,527.45,0.465528,98.08,1
2178153,1,7651,0,47365,50567,47271.6,50139.41,93.4,427.59,0.465192,98.09,1
2178193,1,7691,0,47387,50598,47271.83,50140.33,115.17,457.67,0.464857,98.1,1
2178233,1,7731,0,47397,50603,47272.08,50141.26,124.92,461.74,0.464522,98.11,1
2178273,1,7771,0,47391,51034,47272.32,50143.04,118.68,890.96,0.46418,98.11,1
2178313,1,7811,0,47391,50610,47272.55,50143.98,118.45,466.02,0.463838,98.12,1
2178353,1,7851,0,47401,50637,47272.81,50144.96,128.19,492.04,0.463496,98.13,1
2178393,1,7891,0,47423,50678,47273.11,50146.03,149.89,531.97,0.463155,98.14,1
2178433,1,7931,0,47444,50722,47273.46,50147.18,170.54,574.82,0.462814,98.15,1
2178473,1,7971,0,47466,50405,47273.84,50147.7,192.16,257.3,0.462477,98.16,1
2178513,1,8011,0,47482,50348,47274.26,50148.1,207.74,199.9,0.462145,98.17,1
2178553,1,8051,0,47500,50852,47274.71,50149.51,225.29,702.49,0.461814,98.17,1
2178593,1,8091,0,47519,50887,47275.2,50150.99,243.8,736.01,0.461483,98.18,1
2178633,1,8131,0,47531,50917,47275.71,50152.52,255.29,764.48,0.461154,98.19,1
2178673,1,8171,0,47546,50949,47276.26,50154.12,269.74,794.88,0.460826,98.2,1
2178713,1,8211,0,47558,50985,47276.82,50155.78,281.18,829.22,0.4605,98.21,1
2178753,1,8251,0,47572,51022,47277.41,50157.52,294.59,864.48,0.460175,98.22,1
2178794,1,8292,0,47588,51010,47278.04,50159.22,309.96,850.78,0.459853,98.23,1
2178834,1,8332,0,47591,50829,47278.66,50160.56,312.34,668.44,0.459536,98.24,1
2178874,1,8372,0,47445,50606,47279,50161.45,166,444.55,0.459222,98.24,1
2178914,1,8412,0,47361,50469,47279.16,50162.07,81.84,306.93,0.458907,98.25,1
2178954,1,8452,0,47328,50431,47279.26,50162.61,48.74,268.39,0.458594,98.26,1
2178994,1,8492,0,47697,50428,47280.09,50163.14,416.91,264.86,0.458298,98.27,1
2179034,1,8532,0,47807,50446,47281.15,50163.71,525.85,282.29,0.458031,98.28,1
2179074,1,8572,0,47336,50488,47281.26,50164.36,54.74,323.64,0.457764,98.29,1
2179114,1,8612,0,47358,50514,47281.41,50165.05,76.59,348.95,0.457497,98.29,1
2179154,1,8652,0,47369,50513,47281.59,50165.75,87.41,347.25,0.45723,98.3,1
2179194,1,8692,0,47103,50508,47281.23,50166.44,-178.23,341.56,0.456966,98.31,1
2179234,1,8732,0,46956,50524,47280.59,50167.15,-324.59,356.85,0.456712,98.32,1
2179274,1,8772,0,47380,50562,47280.79,50167.94,99.21,394.06,0.456457,98.33,1
2179314,1,8812,0,47399,50601,47281.02,50168.81,117.98,432.19,0.456203,98.33,1
2179354,1,8852,0,47421,50651,47281.3,50169.77,139.7,481.23,0.455949,98.34,1
2179394,1,8892,0,47439,50698,47281.62,50170.83,157.38,527.17,0.455694,98.35,1
2179434,1,8932,0,47459,50743,47281.98,50171.98,177.02,571.02,0.455439,98.36,1
2179474,1,8972,0,47477,50784,47282.37,50173.2,194.63,610.8,0.455184,98.37,1
2179515,1,9013,0,47496,50816,47282.8,50174.49,213.2,641.51,0.454929,98.37,1
2179555,1,9053,0,47511,50850,47283.25,50175.84,227.75,674.16,0.454675,98.38,1
2179595,1,9093,0,47522,50894,47283.73,50177.28,238.27,716.72,0.454421,98.39,1
2179635,1,9133,0,47541,50925,47284.25,50178.77,256.75,746.23,0.454167,98.4,1
2179675,1,9173,0,47554,50970,47284.79,50180.36,269.21,789.64,0.453914,98.41,1
2179715,1,9213,0,47580,51010,47285.38,50182.02,294.62,827.98,0.453662,98.41,1
2179755,1,9253,0,47574,50921,47285.96,50183.5,288.04,737.5,0.453413,98.42,1
2179795,1,9293,0,47495,50690,47286.37,50184.51,208.62,505.49,0.453165,98.43,1
2179835,1,9333,0,47405,50504,47286.61,50185.15,118.39,318.85,0.452919,98.44,1
2179875,1,9373,0,47353,50424,47286.75,50185.63,66.25,238.37,0.452673,98.44,1
2179915,1,9413,0,47338,50414,47286.85,50186.09,51.15,227.91,0.452427,98.45,1
2179955,1,9453,0,47339,50431,47286.96,50186.58,52.04,244.42,0.452182,98.46,1
2179995,1,9493,0,47349,50471,47287.08,50187.15,61.92,283.85,0.451937,98.46,1
2180035,1,9533,0,47366,50498,47287.24,50187.77,78.76,310.23,0.451692,98.47,1
2180075,1,9573,0,47377,50502,47287.42,50188.4,89.58,313.6,0.451447,98.48,1
2180115,1,9613,0,47374,50492,47287.6,50189.01,86.4,302.99,0.451202,98.49,1
2180155,1,9653,0,47368,50501,47287.76,50189.64,80.24,311.36,0.450958,98.49,1
2180195,1,9693,0,47377,50530,47287.94,50190.32,89.06,339.68,0.450714,98.5,1
2180236,1,9734,0,47396,50572,47288.16,50191.09,107.84,380.91,0.450469,98.51,1
2180276,1,9774,0,47417,50619,47288.41,50191.94,128.59,427.06,0.450225,98.52,1
2180316,1,9814,0,47435,50674,47288.71,50192.91,146.29,481.09,0.449981,98.52,1
2180356,1,9854,0,47456,50726,47289.04,50193.97,166.96,532.03,0.449737,98.53,1
2180396,1,9894,0,47479,50764,47289.43,50195.11,189.57,568.89,0.449493,98.54,1
2180436,1,9934,0,47502,50802,47289.85,50196.33,212.15,605.67,0.44925,98.54,1
2180476,1,9974,0,47517,50848,47290.31,50197.63,226.69,650.37,0.449008,98.55,1
2180516,1,10014,0,47536,50884,47290.8,50199.01,245.2,684.99,0.448767,98.56,1
2180556,1,10054,0,47555,50928,47291.33,50200.47,263.67,727.53,0.448527,98.56,1
2180596,1,10094,0,47574,50966,47291.9,50202,282.1,764,0.448289,98.57,1
2180636,1,10134,0,47592,51009,47292.5,50203.62,299.5,805.38,0.448053,98.58,1
2180676,1,10174,0,47612,51000,47293.14,50205.21,318.86,794.79,0.447821,98.58,1
2180716,1,10214,0,47572,50821,47293.7,50206.45,278.3,614.55,0.447593,98.59,1
2180756,1,10254,0,47473,50591,47294.06,50207.21,178.94,383.79,0.447368,98.6,1
2180796,1,10294,0,47395,50464,47294.26,50207.73,100.74,256.27,0.447143,98.6,1
2180836,1,10334,0,47363,50442,47294.4,50208.2,68.6,233.8,0.446919,98.61,1
2180876,1,10374,0,47366,50452,47294.55,50208.69,71.45,243.31,0.446695,98.62,1
2180916,1,10414,0,47369,50483,47294.7,50209.24,74.3,273.76,0.446472,98.62,1
2180957,1,10455,0,47389,50524,47294.89,50209.87,94.11,314.13,0.446249,98.63,1
2180997,1,10495,0,47401,50536,47295.1,50210.52,105.9,325.48,0.446026,98.64,1
2181037,1,10535,0,47403,50526,47295.32,50211.15,107.68,314.85,0.445804,98.64,1
2181077,1,10575,0,47396,50526,47295.52,50211.79,100.48,314.21,0.445582,98.65,1
2181117,1,10615,0,47395,50536,47295.72,50212.43,99.28,323.57,0.445361,98.66,1
2181157,1,10655,0,47414,50572,47295.96,50213.15,118.04,358.85,0.44514,98.66,1
2181197,1,10695,0,47435,50624,47296.24,50213.98,138.76,410.02,0.444919,98.67,1
2181237,1,10735,0,47454,50675,47296.56,50214.9,157.44,460.1,0.444699,98.68,1
2181277,1,10775,0,47480,50717,47296.93,50215.9,183.07,501.1,0.44448,98.68,1
2181317,1,10815,0,47501,50751,47297.34,50216.97,203.66,534.03,0.444263,98.69,1
2181357,1,10855,0,47520,50783,47297.78,50218.11,222.22,564.89,0.444047,98.7,1
2181397,1,10895,0,47536,50814,47298.26,50219.3,237.74,594.7,0.443834,98.7,1
2181437,1,10935,0,47544,50842,47298.75,50220.54,245.25,621.46,0.443623,98.71,1
2181477,1,10975,0,47557,50894,47299.27,50221.89,257.73,672.11,0.443414,98.71,1
2181517,1,11015,0,47578,51024,47299.83,50223.5,278.17,800.5,0.443206,98.72,1
2181557,1,11055,0,47582,50859,47300.39,50224.77,281.61,634.23,0.443002,98.73,1
2181597,1,11095,0,47518,50651,47300.83,50225.62,217.17,425.37,0.442801,98.73,1
2181637,1,11135,0,47424,50442,47301.08,50226.06,122.92,215.94,0.442602,98.74,1
2181678,1,11176,0,47354,50761,47301.18,50227.13,52.82,533.87,0.4424,98.74,1
2181718,1,11216,0,47336,50828,47301.25,50228.33,34.75,599.67,0.442193,98.75,1
2181758,1,11256,0,47334,50350,47301.32,50228.58,32.68,121.42,0.441986,98.76,1
2181798,1,11296,0,47348,50396,47301.41,50228.91,46.59,167.09,0.44178,98.76,1
2181838,1,11336,0,47370,50436,47301.55,50229.33,68.45,206.67,0.441574,98.77,1
2181878,1,11376,0,47381,50117,47301.71,50229.11,79.29,-112.11,0.44137,98.77,1
2181918,1,11416,0,47380,50016,47301.87,50228.68,78.13,-212.68,0.441166,98.78,1
2181958,1,11456,0,47379,50435,47302.02,50229.09,76.98,205.91,0.440963,98.79,1
2181998,1,11496,0,47389,50465,47302.2,50229.57,86.8,235.43,0.44076,98.79,1
2182038,1,11536,0,47404,50506,47302.4,50230.12,101.6,275.88,0.440559,98.8,1
2182078,1,11576,0,47431,50554,47302.66,50230.77,128.34,323.23,0.440358,98.8,1
2182118,1,11616,0,47454,50599,47302.96,50231.51,151.04,367.49,0.440159,98.81,1
2182158,1,11656,0,47474,50641,47303.31,50232.33,170.69,408.67,0.439962,98.82,1
2182198,1,11696,0,47491,50683,47303.68,50233.23,187.32,449.77,0.439766,98.82,1
2182238,1,11736,0,47510,50712,47304.1,50234.19,205.9,477.81,0.439573,98.83,1
2182278,1,11776,0,47523,50734,47304.54,50235.19,218.46,498.81,0.439384,98.83,1
2182318,1,11816,0,47537,50764,47305,50236.25,232,527.75,0.439197,98.84,1
2182358,1,11856,0,47545,50798,47305.48,50237.37,239.52,560.63,0.439013,98.84,1
2182398,1,11896,0,47852,50839,47306.57,50238.57,545.43,600.43,0.438864,98.85,1
2182439,1,11937,0,47970,50843,47307.9,50239.79,662.1,603.21,0.438767,98.85,1
2182479,1,11977,0,47549,50675,47308.39,50240.66,240.61,434.34,0.438674,98.86,1
2182519,1,12017,0,47448,50412,47308.67,50241,139.33,171,0.438584,98.87,1
2182559,1,12057,0,47345,50235,47308.74,50240.99,36.26,-5.99,0.438493,98.87,1
2182599,1,12097,0,47147,50169,47308.42,50240.84,-161.42,-71.84,0.438407,98.88,1
2182639,1,12137,0,46986,50152,47307.78,50240.67,-321.78,-88.67,0.438334,98.88,1
2182679,1,12177,0,47282,50160,47307.73,50240.51,-25.73,-80.51,0.438261,98.89,1
2182719,1,12217,0,47287,50197,47307.69,50240.42,-20.69,-43.42,0.438189,98.89,1
2182759,1,12257,0,47309,50226,47307.69,50240.39,1.31,-14.39,0.438116,98.89,1
2182799,1,12297,0,46611,50225,47306.3,50240.36,-695.3,-15.36,0.438109,98.9,1
2182839,1,12337,0,47319,50210,47306.33,50240.3,12.67,-30.3,0.438102,98.9,1
2182879,1,12377,0,47320,50216,47306.36,50240.26,13.64,-24.26,0.438094,98.91,1
2182919,1,12417,0,47327,50254,47306.4,50240.29,20.6,13.71,0.438087,98.91,1
2182959,1,12457,0,47349,50292,47306.48,50240.39,42.52,51.61,0.43808,98.92,1
2182999,1,12497,0,47368,50338,47306.61,50240.59,61.39,97.41,0.438074,98.92,1
2183039,1,12537,0,47392,50382,47306.78,50240.87,85.22,141.13,0.438067,98.92,1
2183079,1,12577,0,47409,50422,47306.99,50241.23,102.01,180.77,0.438062,98.93,1
2183119,1,12617,0,47425,50455,47307.23,50241.66,117.77,213.34,0.438057,98.93,1
2183159,1,12657,0,47438,50488,47307.49,50242.16,130.51,245.84,0.438054,98.94,1
2183200,1,12698,0,47455,50511,47307.79,50242.7,147.21,268.3,0.438052,98.94,1
2183240,1,12738,0,47466,50547,47308.1,50243.3,157.9,303.7,0.438051,98.94,1
2183280,1,12778,0,47475,50589,47308.44,50244,166.56,345,0.438051,98.95,1
2183320,1,12818,0,47500,50632,47308.82,50244.77,191.18,387.23,0.438053,98.95,1
2183360,1,12858,0,47517,50629,47309.24,50245.54,207.76,383.46,0.438057,98.95,1
2183400,1,12898,0,47485,50454,47309.59,50245.96,175.41,208.04,0.438065,98.95,1
2183440,1,12938,0,47384,50191,47309.74,50245.85,74.26,-54.85,0.438074,98.96,1
2183480,1,12978,0,47287,50028,47309.7,50245.42,-22.7,-217.42,0.438081,98.96,1
2183520,1,13018,0,47251,49974,47309.58,50244.87,-58.58,-270.87,0.438087,98.96,1
2183560,1,13058,0,47243,49967,47309.45,50244.32,-66.45,-277.32,0.438092,98.96,1
2183600,1,13098,0,47242,49977,47309.31,50243.79,-67.31,-266.79,0.438095,98.97,1
2183640,1,13138,0,47256,50022,47309.21,50243.34,-53.21,-221.34,0.438098,98.97,1
2183680,1,13178,0,47276,50051,47309.14,50242.96,-33.14,-191.96,0.4381,98.97,1
2183720,1,13218,0,47285,50045,47309.09,50242.57,-24.09,-197.57,0.438101,98.97,1
2183760,1,13258,0,47285,50042,47309.05,50242.17,-24.05,-200.17,0.4381,98.98,1
2183800,1,13298,0,47282,50050,47308.99,50241.79,-26.99,-191.79,0.438099,98.98,1
2183840,1,13338,0,47296,50090,47308.97,50241.48,-12.97,-151.48,0.438098,98.98,1
2183880,1,13378,0,47316,50137,47308.98,50241.28,7.02,-104.28,0.438096,98.98,1
2183921,1,13419,0,47341,50184,47309.05,50241.16,31.95,-57.16,0.438094,98.98,1
2183961,1,13459,0,47362,50229,47309.16,50241.14,52.84,-12.14,0.438092,98.99,1
2184001,1,13499,0,47379,50272,47309.3,50241.2,69.7,30.8,0.438092,98.99,1
2184041,1,13539,0,47395,50304,47309.47,50241.33,85.53,62.67,0.438092,98.99,1
2184081,1,13579,0,47409,50329,47309.67,50241.5,99.33,87.5,0.438094,98.99,1
2184121,1,13619,0,47423,50365,47309.89,50241.75,113.11,123.25,0.438098,98.99,1
2184161,1,13659,0,47440,50404,47310.16,50242.08,129.84,161.92,0.438103,99,1
2184201,1,13699,0,47458,50448,47310.45,50242.49,147.55,205.51,0.438112,99,1
2184241,1,13739,0,47479,50488,47310.79,50242.98,168.21,245.02,0.438123,99,1
2184281,1,13779,0,47492,50433,47311.16,50243.37,180.84,189.63,0.438139,99,1
2184321,1,13819,0,47429,50196,47311.39,50243.27,117.61,-47.27,0.438157,99,1
2184361,1,13859,0,47322,49967,47311.42,50242.72,10.58,-275.72,0.438173,99,1
2184401,1,13899,0,47254,49867,47311.3,50241.97,-57.3,-374.97,0.438185,99,1
2184441,1,13939,0,47239,49857,47311.16,50241.2,-72.16,-384.2,0.438194,99.01,1
2184481,1,13979,0,47244,49876,47311.03,50240.47,-67.03,-364.47,0.438199,99.01,1
2184521,1,14019,0,47259,49921,47310.93,50239.84,-51.93,-318.84,0.438201,99.01,1
2184561,1,14059,0,47277,49959,47310.86,50239.28,-33.86,-280.28,0.438201,99.01,1
2184601,1,14099,0,47287,49962,47310.81,50238.72,-23.81,-276.72,0.438199,99.01,1
2184642,1,14140,0,47286,49944,47310.77,50238.13,-24.77,-294.13,0.438194,99.01,1
2184682,1,14180,0,47280,49943,47310.71,50237.54,-30.71,-294.54,0.438186,99.01,1
2184722,1,14220,0,47290,49974,47310.67,50237.02,-20.67,-263.02,0.438176,99.01,1
2184762,1,14260,0,47306,50023,47310.66,50236.59,-4.66,-213.59,0.438165,99.01,1
2184802,1,14300,0,47326,50070,47310.69,50236.26,15.31,-166.26,0.438153,99.01,1
2184842,1,14340,0,47354,50117,47310.78,50236.02,43.22,-119.02,0.438141,99.02,1
2184882,1,14380,0,47373,50165,47310.9,50235.88,62.1,-70.88,0.43813,99.02,1
2184922,1,14420,0,47394,50275,47311.07,50235.96,82.93,39.04,0.43812,99.02,1
2184962,1,14460,0,47411,50408,47311.27,50236.3,99.73,171.7,0.438111,99.02,1
2185002,1,14500,0,47429,50258,47311.51,50236.34,117.49,21.66,0.438104,99.02,1
2185042,1,14540,0,47449,50293,47311.79,50236.46,137.21,56.54,0.438102,99.02,1
2185082,1,14580,0,47461,50336,47312.09,50236.66,148.91,99.34,0.438104,99.02,1
2185122,1,14620,0,47480,50831,47312.42,50237.85,167.58,593.15,0.438099,99.02,1
2185162,1,14660,0,47497,50341,47312.79,50238.05,184.21,102.95,0.438101,99.02,1
2185202,1,14700,0,47443,50110,47313.05,50237.8,129.95,-127.8,0.438105,99.02,1
2185242,1,14740,0,47328,49849,47313.09,50237.02,14.91,-388.02,0.438105,99.02,1
2185282,1,14780,0,47238,49709,47312.94,50235.97,-74.94,-526.97,0.438096,99.02,1
2185322,1,14820,0,47209,49323,47312.73,50234.14,-103.73,-911.14,0.43806,99.03,1
2185363,1,14861,0,47205,49134,47312.52,50231.95,-107.52,-1097.95,0.437989,99.03,1
2185403,1,14901,0,47207,49696,47312.3,50230.87,-105.3,-534.87,0.437911,99.03,1
2185443,1,14941,0,47226,49752,47312.13,50229.92,-86.13,-477.92,0.437828,99.03,1
2185483,1,14981,0,47242,49781,47311.99,50229.02,-69.99,-448.02,0.43774,99.03,1
2185523,1,15021,0,47253,49780,47311.87,50228.12,-58.88,-448.12,0.437647,99.03,1
2185563,1,15061,0,47252,49781,47311.76,50227.23,-59.76,-446.23,0.437549,99.03,1
2185603,1,15101,0,47261,49813,47311.66,50226.4,-50.66,-413.4,0.437447,99.03,1
2185643,1,15141,0,47276,49866,47311.59,50225.68,-35.59,-359.68,0.437341,99.03,1
2185683,1,15181,0,47335,49923,47311.63,50225.07,23.37,-302.07,0.437233,99.03,1
2185723,1,15221,0,47331,49973,47311.67,50224.57,19.33,-251.57,0.437124,99.03,1
2185763,1,15261,0,47350,50020,47311.75,50224.16,38.25,-204.16,0.437014,99.04,1
2185803,1,15301,0,47380,50057,47311.89,50223.83,68.11,-166.83,0.436904,99.04,1
2185843,1,15341,0,47734,50096,47312.73,50223.58,421.27,-127.58,0.436832,99.04,1
2185883,1,15381,0,47827,50130,47313.76,50223.39,513.24,-93.39,0.436815,99.04,1
2185923,1,15421,0,47421,50155,47313.98,50223.25,107.02,-68.25,0.436799,99.04,1
2185963,1,15461,0,47435,50188,47314.22,50223.18,120.78,-35.18,0.436787,99.04,1
2186003,1,15501,0,47454,50233,47314.5,50223.2,139.5,9.8,0.436779,99.04,1
2186043,1,15541,0,47246,50276,47314.36,50223.31,-68.36,52.69,0.436771,99.04,1
2186083,1,15581,0,47150,50283,47314.04,50223.43,-164.04,59.57,0.436769,99.05,1
2186124,1,15622,0,47458,50091,47314.32,50223.17,143.68,-132.17,0.436771,99.05,1
2186164,1,15662,0,47351,49812,47314.4,50222.35,36.6,-410.35,0.436767,99.05,1
2186204,1,15702,0,47252,49643,47314.27,50221.19,-62.27,-578.19,0.436752,99.05,1
2186244,1,15742,0,47211,49607,47314.07,50219.96,-103.07,-612.96,0.436726,99.05,1
2186284,1,15782,0,47205,49605,47313.85,50218.73,-108.85,-613.73,0.43669,99.05,1
2186324,1,15822,0,47205,49620,47313.63,50217.54,-108.63,-597.54,0.436644,99.05,1
2186364,1,15862,0,47230,49679,47313.46,50216.46,-83.46,-537.46,0.436591,99.05,1
2186404,1,15902,0,47251,49731,47313.34,50215.5,-62.34,-484.5,0.43653,99.05,1
2186444,1,15942,0,47270,49744,47313.25,50214.55,-43.25,-470.55,0.436463,99.05,1
2186484,1,15982,0,47276,49739,47313.18,50213.61,-37.18,-474.61,0.436389,99.06,1
2186524,1,16022,0,47281,49758,47313.12,50212.7,-32.12,-454.7,0.436308,99.06,1
2186564,1,16062,0,47297,49799,47313.09,50211.87,-16.09,-412.87,0.436223,99.06,1
2186604,1,16102,0,47317,49857,47313.09,50211.16,3.91,-354.16,0.436133,99.06,1
2186644,1,16142,0,47347,49908,47313.16,50210.56,33.84,-302.56,0.436042,99.06,1
2186684,1,16182,0,47370,49956,47313.28,50210.05,56.72,-254.05,0.435949,99.06,1
2186724,1,16222,0,47387,50001,47313.43,50209.63,73.57,-208.63,0.435856,99.06,1
2186764,1,16262,0,47402,50044,47313.61,50209.3,88.39,-165.3,0.435764,99.06,1
2186804,1,16302,0,47421,50081,47313.82,50209.05,107.18,-128.05,0.435675,99.07,1
2186844,1,16342,0,47438,50116,47314.07,50208.87,123.93,-92.87,0.435589,99.07,1
2186885,1,16383,0,47451,50146,47314.34,50208.74,136.66,-62.74,0.435508,99.07,1
2186925,1,16423,0,47469,50187,47314.65,50208.7,154.35,-21.7,0.435432,99.07,1
2186965,1,16463,0,47488,50233,47315,50208.75,173,24.25,0.435363,99.07,1
2187005,1,16503,0,47504,50286,47315.38,50208.91,188.62,77.09,0.435303,99.07,1
2187045,1,16543,0,47527,50323,47315.8,50209.14,211.2,113.86,0.435253,99.07,1
2187085,1,16583,0,47531,50238,47316.23,50209.2,214.77,28.8,0.435213,99.08,1
2187125,1,16623,0,47457,49978,47316.52,50208.73,140.48,-230.73,0.435177,99.08,1
2187165,1,16663,0,47345,49752,47316.57,50207.82,28.43,-455.82,0.435133,99.08,1
2187205,1,16703,0,47281,49672,47316.5,50206.75,-35.5,-534.75,0.435078,99.08,1
2187245,1,16743,0,47268,49668,47316.41,50205.67,-48.41,-537.67,0.435015,99.08,1
2187285,1,16783,0,47278,49684,47316.33,50204.63,-38.33,-520.63,0.434941,99.08,1
2187325,1,16823,0,47285,49727,47316.27,50203.68,-31.27,-476.68,0.434861,99.08,1
2187365,1,16863,0,47307,49775,47316.25,50202.82,-9.25,-427.82,0.434774,99.08,1
2187405,1,16903,0,47323,49803,47316.27,50202.02,6.73,-399.02,0.434682,99.09,1
2187445,1,16943,0,47333,49798,47316.3,50201.21,16.7,-403.21,0.434584,99.09,1
2187485,1,16983,0,47330,49806,47316.33,50200.43,13.67,-394.43,0.434481,99.09,1
2187525,1,17023,0,47338,49836,47316.37,50199.7,21.62,-363.7,0.434375,99.09,1
2187565,1,17063,0,47357,49887,47316.46,50199.07,40.54,-312.07,0.434265,99.09,1
2187606,1,17104,0,47384,49941,47316.59,50198.56,67.41,-257.56,0.434155,99.09,1
2187646,1,17144,0,47405,49983,47316.77,50198.13,88.23,-215.13,0.434045,99.1,1
2187686,1,17184,0,47425,50035,47316.99,50197.8,108.01,-162.8,0.433938,99.1,1
2187726,1,17224,0,47439,50071,47317.24,50197.55,121.76,-126.55,0.433834,99.1,1
2187766,1,17264,0,47453,50106,47317.51,50197.37,135.49,-91.37,0.433735,99.1,1
2187806,1,17304,0,47474,50135,47317.82,50197.24,156.18,-62.24,0.433642,99.1,1
2187846,1,17344,0,47488,50166,47318.16,50197.18,169.84,-31.18,0.433556,99.1,1
2187886,1,17384,0,47508,50217,47318.55,50197.22,189.45,19.78,0.433481,99.11,1
2187926,1,17424,0,47527,50267,47318.96,50197.36,208.04,69.64,0.433416,99.11,1
2187966,1,17464,0,47550,50298,47319.43,50197.56,230.57,100.44,0.433365,99.11,1
2188006,1,17504,0,47543,50174,47319.88,50197.52,223.12,-23.52,0.433327,99.11,1
2188046,1,17544,0,47459,49923,47320.16,50196.97,138.84,-273.97,0.43329,99.11,1
2188086,1,17584,0,47366,49747,47320.25,50196.07,45.75,-449.07,0.433247,99.11,1
2188126,1,17624,0,47318,49708,47320.25,50195.09,-2.25,-487.09,0.433194,99.12,1
2188166,1,17664,0,47314,49722,47320.24,50194.15,-6.24,-472.15,0.433132,99.12,1
2188206,1,17704,0,47323,49756,47320.25,50193.27,2.75,-437.27,0.433062,99.12,1
2188246,1,17744,0,47348,49816,47320.3,50192.52,27.7,-376.52,0.432988,99.12,1
2188286,1,17784,0,47367,49856,47320.4,50191.85,46.6,-335.85,0.43291,99.12,1
2188326,1,17824,0,47377,49857,47320.51,50191.18,56.49,-334.18,0.432829,99.12,1
2188367,1,17865,0,47373,49852,47320.62,50190.5,52.38,-338.5,0.432744,99.13,1
2188407,1,17905,0,47378,49869,47320.73,50189.86,57.27,-320.86,0.432657,99.13,1
2188447,1,17945,0,47390,49918,47320.87,50189.32,69.12,-271.32,0.432568,99.13,1
2188487,1,17985,0,47408,49973,47321.05,50188.89,86.95,-215.89,0.432479,99.13,1
2188527,1,18025,0,47434,50265,47321.28,50189.04,112.72,75.96,0.432394,99.13,1
2188567,1,18065,0,47461,50435,47321.56,50189.54,139.44,245.46,0.432312,99.14,1
2188607,1,18105,0,47485,50132,47321.89,50189.42,163.11,-57.42,0.432238,99.14,1
2188647,1,18145,0,47503,50173,47322.25,50189.39,180.75,-16.39,0.432173,99.14,1
2188687,1,18185,0,47524,50212,47322.66,50189.44,201.34,22.56,0.432119,99.14,1
2188727,1,18225,0,47542,50149,47323.1,50189.36,218.9,-40.36,0.432079,99.14,1
2188767,1,18265,0,47554,50026,47323.56,50189.04,230.44,-163.04,0.432053,99.14,1
2188807,1,18305,0,47573,50313,47324.06,50189.29,248.94,123.71,0.432042,99.15,1
2188847,1,18345,0,47590,50359,47324.59,50189.62,265.41,169.37,0.43205,99.15,1
2188887,1,18385,0,47607,50392,47325.16,50190.03,281.84,201.97,0.432078,99.15,1
2188927,1,18425,0,47598,49655,47325.71,50188.96,272.29,-533.96,0.432112,99.15,1
2188967,1,18465,0,47507,49971,47326.07,50188.53,180.93,-217.53,0.432153,99.15,1
2189007,1,18505,0,47389,49750,47326.2,50187.65,62.8,-437.65,0.432186,99.15,1
2189047,1,18545,0,47324,49667,47326.2,50186.61,-2.2,-519.61,0.432206,99.15,1
2189087,1,18585,0,47305,49660,47326.15,50185.56,-21.15,-525.56,0.432213,99.16,1
2189128,1,18626,0,47303,49658,47326.11,50184.51,-23.11,-526.51,0.432208,99.16,1
2189168,1,18666,0,47307,49694,47326.07,50183.53,-19.07,-489.53,0.432192,99.16,1
2189208,1,18706,0,47328,49743,47326.07,50182.65,1.93,-439.65,0.432168,99.16,1
2189248,1,18746,0,47514,49766,47326.45,50181.82,187.55,-415.82,0.432146,99.16,1
2189288,1,18786,0,47614,49758,47327.03,50180.97,286.97,-422.97,0.432139,99.16,1
2189328,1,18826,0,47348,49772,47327.07,50180.15,20.93,-408.15,0.432124,99.16,1
2189368,1,18866,0,47359,49812,47327.14,50179.42,31.86,-367.42,0.432104,99.16,1
2189408,1,18906,0,47378,49867,47327.24,50178.79,50.76,-311.79,0.43208,99.16,1
2189448,1,18946,0,47398,49926,47327.39,50178.29,70.61,-252.29,0.432055,99.17,1
2189488,1,18986,0,47293,49973,47327.32,50177.88,-34.32,-204.88,0.432029,99.17,1
2189528,1,19026,0,47458,50020,47327.58,50177.56,130.42,-157.56,0.432006,99.17,1
2189568,1,19066,0,47478,50062,47327.88,50177.33,150.12,-115.33,0.431989,99.17,1
2189608,1,19106,0,47495,50093,47328.22,50177.16,166.78,-84.16,0.431979,99.17,1
2189648,1,19146,0,46916,50121,47327.39,50177.05,-411.39,-56.05,0.432016,99.17,1
2189688,1,19186,0,46841,50152,47326.42,50177.01,-485.42,-25.01,0.432115,99.17,1
2189728,1,19226,0,47533,50196,47326.84,50177.05,206.16,18.95,0.432225,99.17,1
2189768,1,19266,0,47552,50247,47327.29,50177.19,224.71,69.81,0.432348,99.17,1
2189808,1,19306,0,47571,50280,47327.78,50177.39,243.22,102.61,0.432486,99.17,1
2189849,1,19347,0,47574,50179,47328.27,50177.4,245.73,1.6,0.432639,99.17,1
2189889,1,19387,0,47486,49917,47328.59,50176.88,157.41,-259.88,0.432794,99.17,1
2189929,1,19427,0,47372,49707,47328.68,50175.94,43.32,-468.94,0.432937,99.17,1
2189969,1,19467,0,47312,49634,47328.64,50174.86,-16.64,-540.86,0.433064,99.17,1
2190009,1,19507,0,47307,49633,47328.6,50173.78,-21.6,-540.78,0.433176,99.17,1
2190049,1,19547,0,47303,49637,47328.55,50172.71,-25.55,-535.71,0.433273,99.17,1
2190089,1,19587,0,47309,49680,47328.51,50171.72,-19.51,-491.72,0.433357,99.17,1
2190129,1,19627,0,47334,49732,47328.52,50170.84,5.48,-438.84,0.433432,99.17,1
2190169,1,19667,0,47352,49745,47328.57,50169.99,23.43,-424.99,0.433497,99.17,1
2190209,1,19707,0,47355,49738,47328.62,50169.13,26.37,-431.13,0.433554,99.17,1
2190249,1,19747,0,47354,49749,47328.68,50168.29,25.32,-419.29,0.433602,99.17,1
2190289,1,19787,0,47363,49784,47328.75,50167.52,34.25,-383.52,0.433643,99.17,1
2190329,1,19827,0,47385,49836,47328.86,50166.86,56.14,-330.86,0.43368,99.17,1
2190369,1,19867,0,47407,49887,47329.02,50166.3,77.98,-279.3,0.433715,99.17,1
2190409,1,19907,0,47429,49937,47329.22,50165.85,99.78,-228.85,0.433749,99.17,1
2190449,1,19947,0,47451,49983,47329.46,50165.48,121.54,-182.48,0.433786,99.17,1
2190489,1,19987,0,47468,50026,47329.74,50165.21,138.26,-139.21,0.433827,99.17,1
2190529,1,20027,0,47481,50057,47330.05,50164.99,150.95,-107.99,0.433874,99.17,1
2190570,1,20068,0,47499,50091,47330.39,50164.84,168.61,-73.84,0.433928,99.17,1
2190610,1,20108,0,47509,50131,47330.75,50164.78,178.25,-33.78,0.43399,99.17,1
2190650,1,20148,0,47528,50180,47331.14,50164.81,196.86,15.19,0.434064,99.17,1
2190690,1,20188,0,47548,50187,47331.57,50164.86,216.43,22.14,0.43415,99.17,1
2190730,1,20228,0,47519,50017,47331.95,50164.56,187.05,-147.56,0.434244,99.17,1
2190770,1,20268,0,47424,49790,47332.13,50163.82,91.87,-373.82,0.434333,99.17,1
2190810,1,20308,0,47341,49664,47332.15,50162.82,8.85,-498.82,0.434409,99.16,1
2190850,1,20348,0,47317,49644,47332.12,50161.78,-15.13,-517.78,0.43447,99.16,1
2190890,1,20388,0,47319,49657,47332.1,50160.77,-13.1,-503.77,0.434518,99.16,1
2190930,1,20428,0,47331,49696,47332.1,50159.84,-1.1,-463.84,0.434555,99.16,1
2190970,1,20468,0,47355,49758,47332.15,50159.04,22.85,-401.04,0.434584,99.16,1
2191010,1,20508,0,47377,49788,47332.24,50158.3,44.76,-370.3,0.434607,99.16,1
2191050,1,20548,0,47376,49786,47332.33,50157.56,43.67,-371.56,0.434623,99.16,1
2191090,1,20588,0,47382,49786,47332.43,50156.82,49.57,-370.82,0.434633,99.16,1
2191130,1,20628,0,47387,49818,47332.54,50156.14,54.46,-338.14,0.434639,99.16,1
2191170,1,20668,0,47401,49870,47332.68,50155.57,68.32,-285.57,0.434642,99.16,1
2191210,1,20708,0,47422,49926,47332.86,50155.11,89.14,-229.11,0.434644,99.16,1
2191250,1,20748,0,47451,49983,47333.09,50154.77,117.91,-171.77,0.434649,99.16,1
2191291,1,20789,0,47474,50035,47333.37,50154.53,140.62,-119.53,0.434659,99.16,1
2191331,1,20829,0,47487,50083,47333.68,50154.39,153.32,-71.39,0.434676,99.15,1
2191371,1,20869,0,47509,50119,47334.04,50154.32,174.96,-35.32,0.434702,99.15,1
2191411,1,20909,0,47520,50157,47334.41,50154.33,185.59,2.67,0.434737,99.15,1
2191451,1,20949,0,47537,50190,47334.82,50154.4,202.18,35.6,0.434785,99.15,1
2191491,1,20989,0,47552,50235,47335.25,50154.57,216.75,80.43,0.434847,99.15,1
2191531,1,21029,0,47575,50288,47335.73,50154.84,239.27,133.16,0.434924,99.15,1
2191571,1,21069,0,47592,50314,47336.25,50155.16,255.75,158.84,0.435019,99.15,1
2191611,1,21109,0,47578,50165,47336.73,50155.18,241.27,9.82,0.435131,99.15,1
2191651,1,21149,0,47485,49898,47337.03,50154.66,147.97,-256.66,0.435245,99.15,1
2191691,1,21189,0,47384,49720,47337.12,50153.8,46.88,-433.8,0.435348,99.15,1
2191731,1,21229,0,47336,49663,47337.12,50152.82,-1.12,-489.82,0.435437,99.15,1
2191771,1,21269,0,47322,49650,47337.1,50151.81,-15.1,-501.81,0.435512,99.15,1
2191811,1,21309,0,47313,49677,47337.05,50150.86,-24.05,-473.86,0.435574,99.14,1
2191851,1,21349,0,47321,49679,47337.02,50149.92,-16.02,-470.92,0.435624,99.14,1
2191891,1,21389,0,47338,49726,47337.02,50149.07,0.98,-423.07,0.435664,99.14,1
2191931,1,21429,0,47354,49744,47337.06,50148.27,16.94,-404.27,0.435695,99.14,1
2191971,1,21469,0,47350,50090,47337.09,50148.15,12.91,-58.15,0.435726,99.14,1
2192011,1,21509,0,47354,50206,47337.12,50148.27,16.88,57.73,0.435757,99.14,1
2192052,1,21550,0,47365,49794,47337.18,50147.56,27.82,-353.56,0.435782,99.14,1
2192092,1,21590,0,47384,49849,47337.27,50146.96,46.73,-297.96,0.435802,99.14,1
2192132,1,21630,0,47406,49912,47337.41,50146.5,68.59,-234.5,0.43582,99.14,1
2192172,1,21670,0,47433,49705,47337.61,50145.61,95.39,-440.61,0.435831,99.14,1
2192212,1,21710,0,47456,49611,47337.84,50144.55,118.16,-533.55,0.435831,99.13,1
2192252,1,21750,0,47475,50057,47338.12,50144.37,136.88,-87.37,0.435837,99.13,1
2192292,1,21790,0,47493,50100,47338.43,50144.29,154.57,-44.29,0.43585,99.13,1
2192332,1,21830,0,47508,50142,47338.77,50144.29,169.23,-2.29,0.435871,99.13,1
2192372,1,21870,0,47535,50188,47339.17,50144.37,195.83,43.63,0.435905,99.13,1
2192412,1,21910,0,47561,50241,47339.61,50144.57,221.39,96.43,0.435953,99.13,1
2192452,1,21950,0,47570,50216,47340.07,50144.71,229.93,71.29,0.436017,99.13,1
2192492,1,21990,0,47525,50020,47340.45,50144.46,184.55,-124.46,0.436091,99.13,1
2192532,1,22030,0,47423,49800,47340.61,50143.78,82.39,-343.78,0.43616,99.13,1
2192572,1,22070,0,47350,49693,47340.63,50142.88,9.37,-449.88,0.436216,99.13,1
2192612,1,22110,0,47328,49672,47340.61,50141.94,-12.61,-469.94,0.43626,99.13,1
2192652,1,22150,0,47321,49673,47340.57,50141,-19.57,-468,0.436291,99.12,1
2192692,1,22190,0,47615,49695,47341.12,50140.11,273.88,-445.11,0.436335,99.12,1
2192733,1,22231,0,47722,49748,47341.88,50139.33,380.12,-391.33,0.436414,99.12,1
2192773,1,22271,0,47360,49788,47341.92,50138.62,18.08,-350.62,0.436485,99.12,1
2192813,1,22311,0,47370,49804,47341.98,50137.96,28.02,-333.96,0.436551,99.12,1
2192853,1,22351,0,47369,49815,47342.04,50137.31,26.96,-322.31,0.43661,99.12,1
2192893,1,22391,0,47206,49848,47341.77,50136.73,-135.77,-288.73,0.43667,99.12,1
2192933,1,22431,0,47110,49910,47341.3,50136.28,-231.3,-226.28,0.436743,99.12,1
2192973,1,22471,0,47434,49979,47341.49,50135.97,92.51,-156.97,0.436818,99.12,1
2193013,1,22511,0,47459,50043,47341.73,50135.79,117.27,-92.79,0.436895,99.11,1
2193053,1,22551,0,47490,50104,47342.02,50135.72,147.98,-31.72,0.43698,99.11,1
2193093,1,22591,0,47514,50145,47342.37,50135.74,171.63,9.26,0.437073,99.11,1
2193133,1,22631,0,47536,50193,47342.75,50135.86,193.25,57.14,0.437177,99.11,1
2193173,1,22671,0,47560,50241,47343.19,50136.07,216.81,104.93,0.437295,99.11,1
2193213,1,22711,0,47576,50291,47343.66,50136.38,232.34,154.62,0.437428,99.11,1
2193253,1,22751,0,47596,50314,47344.17,50136.74,251.83,177.26,0.437578,99.11,1
2193293,1,22791,0,47586,50192,47344.65,50136.85,241.35,55.15,0.437746,99.11,1
2193333,1,22831,0,47504,49989,47344.97,50136.56,159.03,-147.56,0.437919,99.1,1
2193373,1,22871,0,47425,49857,47345.13,50136,79.87,-279,0.438089,99.1,1
2193413,1,22911,0,47390,49824,47345.22,50135.38,44.78,-311.38,0.438252,99.1,1
2193454,1,22952,0,47387,49823,47345.31,50134.75,41.69,-311.75,0.438408,99.1,1
2193494,1,22992,0,47389,49845,47345.4,50134.18,43.6,-289.18,0.438559,99.1,1
2193534,1,23032,0,47402,49906,47345.51,50133.72,56.49,-227.72,0.438707,99.09,1
2193574,1,23072,0,47423,49960,47345.67,50133.37,77.33,-173.37,0.438855,99.09,1
2193614,1,23112,0,47442,49975,47345.86,50133.06,96.14,-158.06,0.439003,99.09,1
2193654,1,23152,0,47447,49990,47346.07,50132.77,100.93,-142.77,0.439152,99.09,1
2193694,1,23192,0,47456,50025,47346.29,50132.56,109.71,-107.56,0.439305,99.09,1
2193734,1,23232,0,47474,50081,47346.55,50132.46,127.45,-51.46,0.439462,99.08,1
2193774,1,23272,0,47505,50142,47346.86,50132.48,158.14,9.52,0.439627,99.08,1
2193814,1,23312,0,47532,50198,47347.23,50132.61,184.77,65.39,0.439802,99.08,1
2193854,1,23352,0,47555,50246,47347.65,50132.84,207.35,113.16,0.43999,99.08,1
2193894,1,23392,0,47576,50296,47348.11,50133.16,227.89,162.84,0.440193,99.07,1
2193934,1,23432,0,47592,50340,47348.6,50133.58,243.4,206.42,0.440411,99.07,1
2193974,1,23472,0,47612,50386,47349.12,50134.09,262.87,251.91,0.440647,99.07,1
2194014,1,23512,0,47632,50431,47349.69,50134.68,282.31,296.32,0.440901,99.07,1
2194054,1,23552,0,47650,50450,47350.29,50135.31,299.71,314.69,0.441175,99.06,1
2194094,1,23592,0,47627,50322,47350.85,50135.69,276.15,186.31,0.44147,99.06,1
2194134,1,23632,0,47553,50128,47351.25,50135.67,201.75,-7.67,0.441776,99.06,1
2194175,1,23673,0,47482,50015,47351.52,50135.43,130.48,-120.43,0.442086,99.05,1
2194215,1,23713,0,47456,49987,47351.73,50135.14,104.27,-148.14,0.442397,99.05,1
2194255,1,23753,0,47451,50004,47351.93,50134.87,99.07,-130.87,0.442708,99.05,1
2194295,1,23793,0,47455,50038,47352.13,50134.68,102.87,-96.68,0.443022,99.04,1
2194335,1,23833,0,47475,50096,47352.38,50134.61,122.62,-38.61,0.443339,99.04,1
2194375,1,23873,0,47503,50143,47352.68,50134.63,150.32,8.37,0.443662,99.04,1
2194415,1,23913,0,47511,50166,47353,50134.69,158,31.31,0.443993,99.03,1
2194455,1,23953,0,47521,50175,47353.33,50134.77,167.67,40.23,0.444332,99.03,1
2194495,1,23993,0,47527,50213,47353.68,50134.93,173.32,78.07,0.444679,99.02,1
2194535,1,24033,0,47549,50260,47354.07,50135.18,194.93,124.82,0.445036,99.02,1
2194575,1,24073,0,47575,50317,47354.51,50135.54,220.49,181.46,0.445406,99.01,1
2194615,1,24113,0,47606,50378,47355.02,50136.03,250.98,241.97,0.44579,99.01,1
2194655,1,24153,0,47623,50437,47355.55,50136.63,267.45,300.37,0.446188,99,1
2194695,1,24193,0,47648,50482,47356.14,50137.32,291.86,344.68,0.4466,99,1
2194735,1,24233,0,47668,50522,47356.77,50138.09,311.23,383.91,0.447028,98.99,1
2194775,1,24273,0,47684,50569,47357.42,50138.95,326.58,430.05,0.447471,98.99,1
2194815,1,24313,0,47697,50613,47358.1,50139.9,338.9,473.1,0.447926,98.98,1
2194855,1,24353,0,47719,50670,47358.82,50140.96,360.18,529.04,0.448391,98.98,1
2194896,1,24394,0,47743,50718,47359.59,50142.12,383.41,575.88,0.448866,98.97,1
2194936,1,24434,0,47753,50671,47360.38,50143.18,392.62,527.82,0.449358,98.97,1
2194976,1,24474,0,47694,50486,47361.05,50143.87,332.95,342.13,0.449868,98.96,1
2195016,1,24514,0,47608,50322,47361.55,50144.23,246.45,177.77,0.450391,98.95,1
2195056,1,24554,0,47558,50261,47361.94,50144.46,196.06,116.54,0.450921,98.95,1
2195096,1,24594,0,47553,50254,47362.32,50144.68,190.68,109.32,0.451459,98.94,1
2195136,1,24634,0,47551,50278,47362.7,50144.95,188.3,133.05,0.452003,98.93,1
2195176,1,24674,0,47564,50333,47363.11,50145.33,200.89,187.67,0.452554,98.92,1
2195216,1,24714,0,47589,50488,47363.56,50146.02,225.44,341.98,0.453105,98.92,1
2195256,1,24754,0,47603,50395,47364.04,50146.52,238.96,248.48,0.453665,98.91,1
2195296,1,24794,0,47613,50401,47364.54,50147.03,248.46,253.97,0.454233,98.9,1
2195336,1,24834,0,47619,50422,47365.05,50147.58,253.95,274.42,0.45481,98.89,1
2195376,1,24874,0,47629,50875,47365.58,50149.04,263.42,725.96,0.455351,98.88,1
2195416,1,24914,0,47648,51040,47366.14,50150.82,281.86,889.18,0.455838,98.88,1
2195456,1,24954,0,47674,50567,47366.76,50151.65,307.24,415.35,0.456333,98.87,1
2195496,1,24994,0,47693,50622,47367.41,50152.59,325.59,469.41,0.456834,98.86,1
2195536,1,25034,0,47712,50668,47368.11,50153.62,343.89,514.37,0.45734,98.85,1
2195576,1,25074,0,47731,50397,47368.83,50154.11,362.17,242.89,0.457872,98.84,1
2195616,1,25114,0,47745,50291,47369.59,50154.39,375.41,136.61,0.458435,98.83,1
2195657,1,25155,0,47761,50786,47370.37,50155.65,390.63,630.35,0.458998,98.82,1
2195697,1,25195,0,47777,50831,47371.19,50157,405.81,674,0.459558,98.81,1
2195737,1,25235,0,47797,50879,47372.04,50158.45,424.96,720.55,0.460114,98.8,1
2195777,1,25275,0,47816,50935,47372.93,50160,443.07,775,0.460663,98.79,1
2195817,1,25315,0,47831,50923,47373.85,50161.53,457.15,761.47,0.461208,98.78,1
2195857,1,25355,0,47794,50773,47374.69,50162.75,419.31,610.25,0.46176,98.77,1
2195897,1,25395,0,47719,50604,47375.38,50163.64,343.62,440.36,0.46232,98.76,1
2195937,1,25435,0,47662,50531,47375.95,50164.37,286.05,366.63,0.462884,98.75,1
2195977,1,25475,0,47655,50538,47376.51,50165.12,278.49,372.88,0.463452,98.74,1
2196017,1,25515,0,47662,50554,47377.08,50165.9,284.92,388.1,0.464022,98.73,1
2196057,1,25555,0,47678,50601,47377.68,50166.77,300.32,434.23,0.464594,98.72,1
2196097,1,25595,0,47964,50641,47378.86,50167.72,585.14,473.28,0.465215,98.71,1
2196137,1,25635,0,48066,50652,47380.23,50168.69,685.77,483.31,0.465903,98.7,1
2196177,1,25675,0,47700,50639,47380.87,50169.63,319.12,469.37,0.46659,98.69,1
2196217,1,25715,0,47697,50652,47381.51,50170.59,315.49,481.41,0.467276,98.68,1
2196257,1,25755,0,47707,50679,47382.16,50171.61,324.84,507.39,0.467958,98.67,1
2196297,1,25795,0,47590,50724,47382.58,50172.72,207.42,551.28,0.468622,98.66,1
2196337,1,25835,0,47496,50771,47382.8,50173.92,113.2,597.08,0.469261,98.65,1
2196377,1,25875,0,47751,50813,47383.54,50175.2,367.46,637.8,0.469892,98.63,1
2196418,1,25916,0,47770,50841,47384.32,50176.53,385.68,664.47,0.470515,98.62,1
2196458,1,25956,0,47783,50883,47385.11,50177.95,397.89,705.05,0.471129,98.61,1
2196498,1,25996,0,47165,50927,47384.68,50179.45,-219.68,747.55,0.471711,98.6,1
2196538,1,26036,0,47810,50962,47385.53,50181.01,424.47,780.99,0.472283,98.59,1
2196578,1,26076,0,47827,51002,47386.41,50182.66,440.59,819.34,0.472842,98.57,1
2196618,1,26116,0,47848,51036,47387.34,50184.36,460.66,851.64,0.473388,98.56,1
2196658,1,26156,0,47838,50938,47388.24,50185.87,449.76,752.13,0.473931,98.55,1
2196698,1,26196,0,47768,50737,47389,50186.98,379,550.02,0.474477,98.54,1
2196738,1,26236,0,47686,50583,47389.59,50187.77,296.41,395.23,0.475025,98.52,1
2196778,1,26276,0,47651,50523,47390.12,50188.44,260.88,334.56,0.475575,98.51,1
2196818,1,26316,0,47639,50513,47390.62,50189.09,248.38,323.91,0.476127,98.5,1
2196858,1,26356,0,47636,50523,47391.11,50189.76,244.89,333.24,0.47668,98.49,1
2196898,1,26396,0,47641,50568,47391.61,50190.52,249.39,377.48,0.477231,98.47,1
2196938,1,26436,0,47661,50598,47392.15,50191.34,268.85,406.66,0.477783,98.46,1
2196978,1,26476,0,47671,50607,47392.71,50192.17,278.29,414.83,0.478334,98.45,1
2197018,1,26516,0,47668,50594,47393.26,50192.97,274.74,401.03,0.478886,98.44,1
2197058,1,26556,0,47663,50607,47393.8,50193.8,269.2,413.2,0.479436,98.42,1
2197098,1,26596,0,47672,50647,47394.36,50194.71,277.64,452.29,0.479985,98.41,1
2197138,1,26636,0,47690,50695,47394.95,50195.71,295.05,499.29,0.480531,98.4,1
2197179,1,26677,0,47713,50741,47395.59,50196.8,317.41,544.2,0.481072,98.39,1
2197219,1,26717,0,47729,50793,47396.25,50198,332.75,595,0.481609,98.37,1
2197259,1,26757,0,47747,50840,47396.96,50199.28,350.04,640.72,0.482138,98.36,1
2197299,1,26797,0,47766,50887,47397.7,50200.66,368.3,686.34,0.482659,98.35,1
2197339,1,26837,0,47785,50922,47398.47,50202.1,386.53,719.9,0.483172,98.33,1
2197379,1,26877,0,47801,50962,47399.28,50203.62,401.72,758.38,0.483675,98.32,1
2197419,1,26917,0,47818,51010,47400.12,50205.23,417.88,804.77,0.484167,98.31,1
2197459,1,26957,0,47839,51056,47401,50206.94,438,849.06,0.484648,98.3,1
2197499,1,26997,0,47862,51073,47401.92,50208.67,460.08,864.33,0.485119,98.28,1
2197539,1,27037,0,47845,50938,47402.8,50210.13,442.2,727.87,0.485589,98.27,1
2197579,1,27077,0,47757,50705,47403.52,50211.12,353.48,493.87,0.486061,98.26,1
2197619,1,27117,0,47669,50546,47404.05,50211.8,264.95,334.2,0.486536,98.25,1
2197659,1,27157,0,47622,50483,47404.48,50212.34,217.52,270.66,0.487013,98.23,1
2197699,1,27197,0,47607,50466,47404.89,50212.85,202.11,253.15,0.487489,98.22,1
2197739,1,27237,0,47601,50467,47405.29,50213.36,195.71,253.64,0.487967,98.21,1
2197779,1,27277,0,47607,50502,47405.69,50213.93,201.31,288.07,0.488444,98.2,1
2197819,1,27317,0,47624,50535,47406.13,50214.58,217.87,320.42,0.488921,98.18,1
2197859,1,27357,0,47629,50544,47406.57,50215.24,222.43,328.76,0.489398,98.17,1
2197900,1,27398,0,47628,50540,47407.02,50215.89,220.98,324.11,0.489874,98.16,1
2197940,1,27438,0,47628,50554,47407.46,50216.57,220.54,337.43,0.49035,98.15,1
2197980,1,27478,0,47638,50590,47407.92,50217.32,230.08,372.68,0.490825,98.13,1
2198020,1,27518,0,47654,50648,47408.41,50218.18,245.59,429.82,0.491297,98.12,1
2198060,1,27558,0,47680,50703,47408.96,50219.15,271.04,483.85,0.491766,98.11,1
2198100,1,27598,0,47707,50753,47409.55,50220.22,297.45,532.78,0.492231,98.1,1
2198140,1,27638,0,47727,50807,47410.19,50221.4,316.81,585.6,0.492691,98.08,1
2198180,1,27678,0,47748,50856,47410.87,50222.67,337.13,633.33,0.493145,98.07,1
2198220,1,27718,0,47764,50894,47411.57,50224.01,352.43,669.99,0.493592,98.06,1
2198260,1,27758,0,47783,50931,47412.32,50225.43,370.68,705.57,0.494033,98.05,1
2198300,1,27798,0,47804,50970,47413.1,50226.92,390.9,743.08,0.494465,98.03,1
2198340,1,27838,0,47825,51017,47413.93,50228.5,411.07,788.5,0.49489,98.02,1
2198380,1,27878,0,47842,51046,47414.78,50230.14,427.22,815.86,0.495306,98.01,1
2198420,1,27918,0,47832,50935,47415.62,50231.55,416.38,703.45,0.495721,98,1
2198460,1,27958,0,47753,50712,47416.29,50232.51,336.71,479.49,0.496138,97.99,1
2198500,1,27998,0,47665,50540,47416.79,50233.12,248.21,306.87,0.496557,97.97,1
2198540,1,28038,0,47614,50482,47417.19,50233.62,196.81,248.37,0.496977,97.96,1
2198580,1,28078,0,47597,50476,47417.55,50234.11,179.45,241.89,0.497398,97.95,1
2198620,1,28118,0,47596,50484,47417.91,50234.61,178.09,249.39,0.497818,97.94,1
2198661,1,28159,0,47603,50522,47418.28,50235.18,184.72,286.82,0.498237,97.93,1
2198701,1,28199,0,47625,50549,47418.69,50235.81,206.31,313.19,0.498656,97.91,1
2198741,1,28239,0,47627,50554,47419.11,50236.45,207.89,317.55,0.499074,97.9,1
2198781,1,28279,0,47620,50551,47419.51,50237.08,200.49,313.92,0.499492,97.89,1
2198821,1,28319,0,47620,50847,47419.91,50238.3,200.09,608.7,0.499897,97.88,1
2198861,1,28359,0,47631,50965,47420.34,50239.75,210.66,725.25,0.500283,97.87,1
2198901,1,28399,0,47653,50648,47420.8,50240.57,232.2,407.43,0.500667,97.86,1
2198941,1,28439,0,47669,50703,47421.3,50241.5,247.7,461.5,0.501048,97.84,1
2198981,1,28479,0,47690,50747,47421.84,50242.51,268.16,504.49,0.501426,97.83,1
2199021,1,28519,0,47715,50633,47422.42,50243.29,292.58,389.71,0.501807,97.82,1
2199061,1,28559,0,47736,50551,47423.05,50243.91,312.95,307.09,0.502194,97.81,1
2199101,1,28599,0,47749,50859,47423.7,50245.14,325.3,613.86,0.502578,97.8,1
2199141,1,28639,0,47764,50892,47424.39,50246.43,339.61,645.57,0.502956,97.79,1
2199181,1,28679,0,47777,50929,47425.09,50247.8,351.91,681.2,0.503328,97.78,1
2199221,1,28719,0,47795,50239,47425.84,50247.79,369.16,-8.79,0.503716,97.77,1
2199261,1,28759,0,47800,50923,47426.59,50249.14,373.41,673.86,0.5041,97.75,1
2199301,1,28799,0,47751,50726,47427.23,50250.09,323.77,475.91,0.504485,97.74,1
2199341,1,28839,0,47652,50516,47427.68,50250.62,224.32,265.38,0.504873,97.73,1
2199381,1,28879,0,47584,50404,47428,50250.93,156,153.07,0.505261,97.72,1
2199422,1,28920,0,47551,50372,47428.24,50251.17,122.76,120.83,0.50565,97.71,1
2199462,1,28960,0,47540,50370,47428.47,50251.41,111.53,118.59,0.506038,97.7,1
2199502,1,29000,0,47540,50399,47428.69,50251.71,111.31,147.29,0.506426,97.69,1
2199542,1,29040,0,47720,50434,47429.27,50252.07,290.73,181.93,0.506822,97.68,1
2199582,1,29080,0,47854,50448,47430.12,50252.47,423.87,195.53,0.507237,97.67,1
2199622,1,29120,0,47572,50447,47430.41,50252.86,141.59,194.14,0.507652,97.66,1
2199662,1,29160,0,47567,50451,47430.68,50253.26,136.32,197.74,0.508067,97.65,1
2199702,1,29200,0,47574,50479,47430.97,50253.71,143.03,225.29,0.50848,97.64,1
2199742,1,29240,0,47583,50522,47431.28,50254.25,151.72,267.75,0.508892,97.62,1
2199782,1,29280,0,47466,50569,47431.35,50254.88,34.65,314.12,0.509297,97.61,1
2199822,1,29320,0,47638,50617,47431.76,50255.61,206.24,361.39,0.509701,97.6,1
2199862,1,29360,0,47655,50665,47432.21,50256.43,222.79,408.57,0.510102,97.59,1
2199902,1,29400,0,47675,50707,47432.7,50257.33,242.3,449.67,0.5105,97.58,1
2199942,1,29440,0,47197,50739,47432.23,50258.29,-235.23,480.71,0.510893,97.57,1
2199982,1,29480,0,47013,50769,47431.39,50259.32,-418.39,509.68,0.511295,97.56,1
2200022,1,29520,0,47718,50801,47431.97,50260.4,286.03,540.6,0.511692,97.55,1
2200062,1,29560,0,47730,50844,47432.57,50261.57,297.43,582.43,0.512084,97.54,1
2200102,1,29600,0,47748,50877,47433.2,50262.8,314.8,614.2,0.512469,97.53,1
2200143,1,29641,0,47764,50909,47433.86,50264.09,330.14,644.91,0.512847,97.52,1
2200183,1,29681,0,47756,50809,47434.51,50265.18,321.49,543.82,0.513224,97.51,1
2200223,1,29721,0,47677,50567,47434.99,50265.79,242.01,301.21,0.513604,97.5,1
2200263,1,29761,0,47570,50359,47435.26,50265.98,134.74,93.02,0.513984,97.49,1
2200303,1,29801,0,47501,50259,47435.39,50265.96,65.61,-6.96,0.514363,97.48,1
2200343,1,29841,0,47482,50226,47435.49,50265.89,46.51,-39.89,0.514741,97.47,1
2200383,1,29881,0,47467,50209,47435.55,50265.77,31.45,-56.77,0.515119,97.46,1
2200423,1,29921,0,47463,50236,47435.61,50265.71,27.39,-29.71,0.515495,97.45,1
2200463,1,29961,0,47480,50273,47435.7,50265.73,44.3,7.27,0.51587,97.44,1
2200503,1,30001,1,47492,50287,47435.81,50265.77,56.19,21.23,0.516245,97.43,1
2200543,1,30041,1,47498,50280,47435.93,50265.8,62.07,14.2,0.516619,97.42,1
2200583,1,30081,1,47495,50281,47436.05,50265.84,58.95,15.16,0.516992,97.4,1
2200623,1,30121,1,47501,50311,47436.19,50265.93,64.81,45.07,0.517365,97.39,1
2200663,1,30161,1,47515,50353,47436.35,50266.1,78.65,86.9,0.517737,97.38,1
2200703,1,30201,1,47534,50398,47436.54,50266.37,97.46,131.63,0.518108,97.37,1
2200743,1,30241,1,47556,50446,47436.78,50266.73,119.22,179.27,0.518479,97.36,1
2200783,1,30281,1,47568,50482,47437.04,50267.16,130.96,214.84,0.518848,97.35,1
2200823,1,30321,1,47587,50519,47437.34,50267.66,149.66,251.34,0.519217,97.34,1
2200863,1,30361,1,47603,50554,47437.68,50268.24,165.32,285.76,0.519584,97.33,1
2200903,1,30401,1,47619,50585,47438.04,50268.87,180.96,316.12,0.519949,97.32,1
2200944,1,30442,1,47630,50619,47438.43,50269.58,191.57,349.42,0.520312,97.31,1
2200984,1,30482,1,47646,50661,47438.84,50270.36,207.16,390.64,0.520672,97.3,1
2201024,1,30522,1,47660,50705,47439.29,50271.23,220.71,433.77,0.521028,97.29,1
2201064,1,30562,1,47679,50750,47439.77,50272.19,239.23,477.81,0.521378,97.28,1
2201104,1,30602,1,47692,50747,47440.27,50273.14,251.73,473.86,0.521726,97.27,1
2201144,1,30642,1,47662,50571,47440.72,50273.74,221.28,297.26,0.522074,97.27,1
2201184,1,30682,1,47563,50316,47440.96,50273.82,122.04,42.18,0.522424,97.26,1
2201224,1,30722,1,47468,50160,47441.02,50273.6,26.98,-113.6,0.522773,97.25,1
2201264,1,30762,1,47427,50106,47440.99,50273.27,-13.99,-167.27,0.523118,97.24,1
2201304,1,30802,1,47417,50083,47440.95,50272.89,-23.95,-189.89,0.523461,97.23,1
2201344,1,30842,1,47405,50083,47440.87,50272.51,-35.88,-189.51,0.5238,97.22,1
2201384,1,30882,1,47417,50117,47440.83,50272.2,-23.83,-155.2,0.524138,97.21,1
2201424,1,30922,1,47427,50144,47440.8,50271.95,-13.8,-127.95,0.524473,97.2,1
2201464,1,30962,1,47433,50140,47440.79,50271.68,-7.79,-131.68,0.524807,97.19,1
2201504,1,31002,1,47430,50128,47440.77,50271.4,-10.77,-143.4,0.525138,97.18,1
2201544,1,31042,1,47427,50141,47440.74,50271.14,-13.74,-130.14,0.525468,97.17,1
2201584,1,31082,1,47437,50178,47440.73,50270.96,-3.73,-92.96,0.525795,97.16,1
2201624,1,31122,1,47457,50219,47440.77,50270.86,16.23,-51.86,0.526122,97.15,1
2201664,1,31162,1,47472,50256,47440.83,50270.83,31.17,-14.83,0.526448,97.14,1
2201705,1,31203,1,47490,50293,47440.93,50270.87,49.07,22.12,0.526773,97.13,1
2201745,1,31243,1,47504,50335,47441.05,50271,62.95,64,0.527098,97.12,1
2201785,1,31283,1,47517,50375,47441.21,50271.21,75.79,103.79,0.527422,97.11,1
2201825,1,31323,1,47530,50402,47441.39,50271.48,88.61,130.52,0.527745,97.1,1
2201865,1,31363,1,47543,50429,47441.59,50271.79,101.41,157.21,0.528068,97.09,1
2201905,1,31403,1,47559,50456,47441.82,50272.16,117.18,183.84,0.52839,97.09,1
2201945,1,31443,1,47568,50500,47442.08,50272.62,125.92,227.38,0.528711,97.08,1
2201985,1,31483,1,47589,50543,47442.37,50273.16,146.62,269.84,0.529029,97.07,1
2202025,1,31523,1,47609,50579,47442.71,50273.78,166.29,305.22,0.529346,97.06,1
2202065,1,31563,1,47611,50495,47443.05,50274.22,167.95,220.78,0.529664,97.05,1
2202105,1,31603,1,47534,50243,47443.23,50274.16,90.77,-31.16,0.529982,97.04,1
2202145,1,31643,1,47426,50019,47443.2,50273.65,-17.2,-254.65,0.530295,97.03,1
2202185,1,31683,1,47360,49932,47443.03,50272.97,-83.03,-340.97,0.530601,97.02,1
2202225,1,31723,1,47331,49926,47442.81,50272.28,-111.81,-346.28,0.5309,97.01,1
2202265,1,31763,1,47331,50016,47442.59,50271.77,-111.59,-255.77,0.531196,97,1
2202305,1,31803,1,47337,49941,47442.37,50271.11,-105.37,-330.11,0.531486,97,1
2202345,1,31843,1,47348,49981,47442.19,50270.53,-94.19,-289.53,0.531771,96.99,1
2202385,1,31883,1,47358,49988,47442.02,50269.96,-84.02,-281.96,0.532051,96.98,1
2202425,1,31923,1,47356,50389,47441.85,50270.2,-85.85,118.8,0.532331,96.97,1
2202466,1,31964,1,47351,50471,47441.67,50270.61,-90.67,200.39,0.532609,96.96,1
2202506,1,32004,1,47356,50001,47441.5,50270.07,-85.5,-269.07,0.532883,96.95,1
2202546,1,32044,1,47369,50051,47441.35,50269.63,-72.35,-218.63,0.533154,96.94,1
2202586,1,32084,1,47392,50098,47441.25,50269.29,-49.25,-171.29,0.533422,96.94,1
2202626,1,32124,1,47413,49815,47441.2,50268.38,-28.2,-453.38,0.533675,96.93,1
2202666,1,32164,1,47433,49741,47441.18,50267.32,-8.18,-526.32,0.533909,96.92,1
2202706,1,32204,1,47449,50222,47441.2,50267.23,7.8,-45.23,0.534142,96.91,1
2202746,1,32244,1,47468,50255,47441.25,50267.21,26.75,-12.21,0.534375,96.9,1
2202786,1,32284,1,47487,50290,47441.35,50267.26,45.65,22.74,0.534607,96.9,1
2202826,1,32324,1,47502,50324,47441.47,50267.37,60.53,56.63,0.534839,96.89,1
2202866,1,32364,1,47516,50363,47441.62,50267.56,74.38,95.44,0.535071,96.88,1
2202906,1,32404,1,47535,50402,47441.8,50267.83,93.2,134.17,0.535302,96.87,1
2202946,1,32444,1,47554,50430,47442.03,50268.16,111.97,161.84,0.535534,96.86,1
2202986,1,32484,1,47611,50323,47442.37,50268.27,168.63,54.73,0.535771,96.86,1
2203026,1,32524,1,47463,50088,47442.41,50267.91,20.59,-179.91,0.536005,96.85,1
2203066,1,32564,1,47365,49916,47442.26,50267.2,-77.26,-351.2,0.536231,96.84,1
2203106,1,32604,1,47318,49861,47442.02,50266.39,-124.02,-405.39,0.536447,96.83,1
2203147,1,32645,1,47676,49853,47442.48,50265.57,233.52,-412.57,0.536662,96.83,1
2203187,1,32685,1,47821,49875,47443.24,50264.79,377.76,-389.79,0.536897,96.82,1
2203227,1,32725,1,47320,49918,47443,50264.09,-123,-346.09,0.537125,96.81,1
2203267,1,32765,1,47330,49945,47442.77,50263.46,-112.77,-318.46,0.537349,96.8,1
2203307,1,32805,1,47336,49940,47442.56,50262.81,-106.56,-322.81,0.537566,96.8,1
2203347,1,32845,1,47063,49932,47441.8,50262.15,-378.8,-330.15,0.537806,96.79,1
2203387,1,32885,1,46893,49952,47440.7,50261.54,-547.7,-309.54,0.538102,96.78,1
2203427,1,32925,1,47346,49998,47440.52,50261.01,-94.52,-263.01,0.538394,96.77,1
2203467,1,32965,1,47370,50051,47440.37,50260.59,-70.37,-209.59,0.538682,96.77,1
2203507,1,33005,1,47397,50096,47440.29,50260.26,-43.29,-164.26,0.538968,96.76,1
2203547,1,33045,1,47423,50138,47440.25,50260.02,-17.25,-122.02,0.539253,96.75,1
2203587,1,33085,1,47436,50178,47440.25,50259.86,-4.25,-81.86,0.539535,96.75,1
2203627,1,33125,1,47449,50204,47440.27,50259.75,8.73,-55.75,0.539817,96.74,1
2203667,1,33165,1,47461,50225,47440.31,50259.68,20.69,-34.68,0.540098,96.73,1
2203707,1,33205,1,47469,50252,47440.37,50259.66,28.63,-7.66,0.540378,96.72,1
2203747,1,33245,1,47484,50287,47440.46,50259.72,43.54,27.28,0.540658,96.72,1
2203787,1,33285,1,47497,50331,47440.57,50259.86,56.43,71.14,0.540937,96.71,1
2203827,1,33325,1,47512,50353,47440.71,50260.05,71.29,92.95,0.541215,96.7,1
2203868,1,33366,1,47499,50229,47440.83,50259.99,58.17,-30.99,0.541494,96.7,1
2203908,1,33406,1,47416,50012,47440.79,50259.49,-24.79,-247.49,0.541767,96.69,1
2203948,1,33446,1,47321,49859,47440.55,50258.69,-119.55,-399.69,0.542029,96.68,1
2203988,1,33486,1,47281,49811,47440.23,50257.8,-159.23,-446.8,0.542279,96.67,1
2204028,1,33526,1,47274,49807,47439.9,50256.9,-165.9,-449.9,0.542519,96.67,1
2204068,1,33566,1,47274,49827,47439.57,50256.04,-165.57,-429.04,0.54275,96.66,1
2204108,1,33606,1,47286,49875,47439.26,50255.28,-153.26,-380.28,0.542973,96.65,1
2204148,1,33646,1,47314,49911,47439.01,50254.59,-125.01,-343.59,0.543191,96.65,1
2204188,1,33686,1,47321,49916,47438.78,50253.91,-117.78,-337.91,0.543402,96.64,1
2204228,1,33726,1,47325,49915,47438.55,50253.24,-113.55,-338.24,0.543606,96.63,1
2204268,1,33766,1,47331,49943,47438.34,50252.62,-107.34,-309.62,0.543805,96.62,1
2204308,1,33806,1,47343,49985,47438.15,50252.08,-95.15,-267.08,0.543999,96.62,1
2204348,1,33846,1,47365,50040,47438,50251.66,-73,-211.66,0.544191,96.61,1
2204388,1,33886,1,47389,50089,47437.91,50251.34,-48.91,-162.34,0.544381,96.6,1
2204428,1,33926,1,47411,50140,47437.86,50251.11,-26.86,-111.11,0.544569,96.6,1
2204468,1,33966,1,47430,50188,47437.84,50250.99,-7.84,-62.99,0.544757,96.59,1
2204508,1,34006,1,47447,50227,47437.86,50250.94,9.14,-23.94,0.544943,96.59,1
2204548,1,34046,1,47461,50261,47437.91,50250.96,23.09,10.04,0.54513,96.58,1
2204589,1,34087,1,47477,50296,47437.98,50251.05,39.02,44.95,0.545316,96.57,1
2204629,1,34127,1,47491,50344,47438.09,50251.24,52.91,92.76,0.545501,96.57,1
2204669,1,34167,1,47512,50404,47438.24,50251.55,73.76,152.45,0.545686,96.56,1
2204709,1,34207,1,47537,50454,47438.44,50251.95,98.56,202.05,0.545869,96.55,1
2204749,1,34247,1,47550,50423,47438.66,50252.3,111.34,170.7,0.546052,96.55,1
2204789,1,34287,1,47507,50253,47438.8,50252.3,68.2,0.7,0.546235,96.54,1
2204829,1,34327,1,47418,50075,47438.76,50251.95,-20.76,-176.95,0.546416,96.54,1
2204869,1,34367,1,47359,49995,47438.6,50251.44,-79.6,-256.44,0.546592,96.53,1
2204909,1,34407,1,47344,49988,47438.41,50250.91,-94.41,-262.91,0.546764,96.52,1
2204949,1,34447,1,47346,49986,47438.23,50250.38,-92.23,-264.38,0.546931,96.52,1
2204989,1,34487,1,47353,50021,47438.06,50249.93,-85.06,-228.93,0.547095,96.51,1
2205029,1,34527,1,47370,50071,47437.92,50249.57,-67.92,-178.57,0.547257,96.51,1
2205069,1,34567,1,47382,50093,47437.81,50249.26,-55.81,-156.26,0.547417,96.5,1
2205109,1,34607,1,47391,50100,47437.72,50248.96,-46.72,-148.96,0.547576,96.49,1
2205149,1,34647,1,47396,50118,47437.64,50248.7,-41.64,-130.7,0.547732,96.49,1
2205189,1,34687,1,47410,50167,47437.58,50248.54,-27.58,-81.54,0.547888,96.48,1
2205229,1,34727,1,47430,50227,47437.57,50248.5,-7.57,-21.5,0.548044,96.48,1
2205269,1,34767,1,47458,50287,47437.61,50248.57,20.39,38.43,0.548199,96.47,1
2205310,1,34808,1,47488,50348,47437.71,50248.77,50.29,99.23,0.548353,96.47,1
2205350,1,34848,1,47508,50405,47437.85,50249.09,70.15,155.91,0.548506,96.46,1
2205390,1,34888,1,47530,50464,47438.04,50249.52,91.96,214.48,0.548657,96.46,1
2205430,1,34928,1,47553,50517,47438.27,50250.05,114.73,266.95,0.548804,96.45,1
2205470,1,34968,1,47573,50566,47438.54,50250.68,134.46,315.32,0.548947,96.45,1
2205510,1,35008,1,47597,50614,47438.85,50251.41,158.15,362.59,0.549084,96.44,1
2205550,1,35048,1,47620,50672,47439.21,50252.25,180.79,419.75,0.549215,96.44,1
2205590,1,35088,1,47642,50739,47439.62,50253.23,202.38,485.77,0.549335,96.43,1
2205630,1,35128,1,47671,50803,47440.09,50254.33,230.91,548.67,0.549443,96.43,1
2205670,1,35168,1,47696,50976,47440.6,50255.78,255.4,720.22,0.549525,96.42,1
2205710,1,35208,1,47665,50934,47441.05,50257.14,223.95,676.86,0.549583,96.42,1
2205750,1,35248,1,47592,50505,47441.35,50257.63,150.65,247.37,0.549642,96.41,1
2205790,1,35288,1,47541,50429,47441.55,50257.98,99.45,171.02,0.549701,96.41,1
2205830,1,35328,1,47522,50405,47441.71,50258.27,80.29,146.73,0.54976,96.4,1
2205870,1,35368,1,47516,50370,47441.86,50258.5,74.14,111.5,0.54982,96.4,1
2205910,1,35408,1,47511,50271,47442,50258.53,69,12.47,0.54988,96.39,1
2205950,1,35448,1,47532,50470,47442.18,50258.95,89.82,211.05,0.54994,96.39,1
2205990,1,35488,1,47544,50496,47442.39,50259.43,101.61,236.57,0.549997,96.38,1
2206030,1,35528,1,47550,50504,47442.6,50259.92,107.4,244.08,0.550052,96.38,1
2206071,1,35569,1,47555,49965,47442.83,50259.33,112.17,-294.33,0.550104,96.38,1
2206111,1,35609,1,47562,49912,47443.07,50258.64,118.93,-346.64,0.550149,96.37,1
2206151,1,35649,1,47581,50615,47443.34,50259.35,137.66,355.65,0.55019,96.37,1
2206191,1,35689,1,47603,50670,47443.66,50260.18,159.34,409.82,0.550223,96.37,1
2206231,1,35729,1,47636,50729,47444.05,50261.11,191.95,467.89,0.55025,96.36,1
2206271,1,35769,1,47657,50782,47444.48,50262.16,212.52,519.84,0.550267,96.36,1
2206311,1,35809,1,47674,50836,47444.94,50263.3,229.06,572.7,0.550274,96.35,1
2206351,1,35849,1,47698,50890,47445.45,50264.56,252.55,625.44,0.550269,96.35,1
2206391,1,35889,1,47829,50937,47446.21,50265.91,382.79,671.09,0.550271,96.35,1
2206431,1,35929,1,47964,50983,47447.25,50267.34,516.75,715.66,0.550307,96.34,1
2206471,1,35969,1,47766,51031,47447.89,50268.87,318.11,762.13,0.550326,96.34,1
2206511,1,36009,1,47788,51087,47448.57,50270.5,339.43,816.5,0.55033,96.34,1
2206551,1,36049,1,47807,51137,47449.29,50272.24,357.71,864.76,0.550316,96.34,1
2206591,1,36089,1,48369,51184,47451.13,50274.06,917.87,909.94,0.550433,96.33,1
2206631,1,36129,1,47787,51186,47451.8,50275.89,335.2,910.11,0.550523,96.33,1
2206671,1,36169,1,47813,51063,47452.52,50277.46,360.48,785.54,0.550601,96.33,1
2206711,1,36209,1,47743,50922,47453.11,50278.75,289.89,643.25,0.550672,96.32,1
2206751,1,36249,1,47695,50856,47453.59,50279.91,241.41,576.09,0.550735,96.32,1
2206792,1,36290,1,47202,50838,47453.09,50281.02,-251.09,556.98,0.550793,96.32,1
2206832,1,36330,1,47045,50831,47452.27,50282.12,-407.27,548.87,0.550866,96.32,1
2206872,1,36370,1,47669,50852,47452.71,50283.27,216.29,568.73,0.55093,96.31,1
2206912,1,36410,1,47682,50891,47453.17,50284.48,228.83,606.52,0.550983,96.31,1
2206952,1,36450,1,47698,50908,47453.66,50285.73,244.34,622.27,0.551027,96.31,1
2206992,1,36490,1,47703,50920,47454.16,50287,248.84,633,0.551062,96.31,1
2207032,1,36530,1,47702,50939,47454.66,50288.3,247.34,650.7,0.551086,96.3,1
2207072,1,36570,1,47713,50974,47455.18,50289.68,257.82,684.32,0.551099,96.3,1
2207112,1,36610,1,47736,51021,47455.74,50291.14,280.26,729.86,0.5511,96.3,1
2207152,1,36650,1,47758,51062,47456.34,50292.68,301.66,769.32,0.55109,96.3,1
2207192,1,36690,1,47777,51106,47456.98,50294.31,320.02,811.69,0.551067,96.29,1
2207232,1,36730,1,47795,51153,47457.66,50296.03,337.34,856.97,0.551032,96.29,1
2207272,1,36770,1,47810,51193,47458.37,50297.83,351.63,895.17,0.550983,96.29,1
2207312,1,36810,1,47829,51234,47459.11,50299.7,369.89,934.3,0.550922,96.29,1
2207352,1,36850,1,47843,51273,47459.88,50301.65,383.12,971.35,0.550847,96.29,1
2207392,1,36890,1,47856,51309,47460.67,50303.67,395.33,1005.33,0.550759,96.28,1
2207432,1,36930,1,47869,51349,47461.49,50305.76,407.51,1043.24,0.550657,96.28,1
2207472,1,36970,1,47883,51389,47462.33,50307.93,420.67,1081.07,0.550542,96.28,1
2207513,1,37011,1,47902,51433,47463.21,50310.18,438.79,1122.82,0.550413,96.28,1
2207553,1,37051,1,47917,51472,47464.12,50312.5,452.88,1159.5,0.550272,96.28,1
2207593,1,37091,1,47930,51488,47465.05,50314.86,464.95,1173.14,0.550119,96.28,1
2207633,1,37131,1,47908,51386,47465.94,50317,442.06,1069,0.54996,96.28,1
2207673,1,37171,1,47846,51242,47466.7,50318.85,379.3,923.15,0.549796,96.28,1
2207713,1,37211,1,47797,51173,47467.36,50320.56,329.64,852.44,0.549626,96.28,1
2207753,1,37251,1,47782,51161,47467.99,50322.25,314.01,838.75,0.549451,96.28,1
2207793,1,37291,1,47773,51157,47468.6,50323.92,304.4,833.08,0.54927,96.28,1
2207833,1,37331,1,47779,51167,47469.22,50325.61,309.78,841.39,0.549083,96.28,1
2207873,1,37371,1,47789,51198,47469.86,50327.35,319.14,870.65,0.548891,96.28,1
2207913,1,37411,1,47800,51211,47470.52,50329.12,329.48,881.88,0.548692,96.28,1
2207953,1,37451,1,47801,51209,47471.19,50330.88,329.81,878.12,0.548489,96.28,1
2207993,1,37491,1,47800,51214,47471.85,50332.65,328.15,881.35,0.548281,96.28,1
2208033,1,37531,1,47803,51234,47472.51,50334.45,330.49,899.55,0.548067,96.28,1
2208073,1,37571,1,47814,51265,47473.2,50336.32,340.8,928.68,0.547848,96.28,1
2208113,1,37611,1,47827,51304,47473.9,50338.25,353.1,965.75,0.547622,96.28,1
2208153,1,37651,1,47837,51341,47474.63,50340.26,362.37,1000.74,0.547391,96.28,1
2208193,1,37691,1,47853,51373,47475.39,50342.33,377.61,1030.67,0.547153,96.28,1
2208234,1,37732,1,47869,51410,47476.18,50344.46,392.82,1065.54,0.546909,96.28,1
2208274,1,37772,1,47880,51436,47476.98,50346.65,403.02,1089.35,0.546659,96.28,1
2208314,1,37812,1,47893,51472,47477.82,50348.9,415.18,1123.1,0.546404,96.29,1
2208354,1,37852,1,47900,51508,47478.66,50351.22,421.34,1156.78,0.546142,96.29,1
2208394,1,37892,1,47913,51543,47479.53,50353.61,433.47,1189.39,0.545874,96.29,1
2208434,1,37932,1,47929,51577,47480.43,50356.06,448.57,1220.94,0.545599,96.29,1
2208474,1,37972,1,47940,51621,47481.35,50358.59,458.65,1262.41,0.545318,96.29,1
2208514,1,38012,1,47957,51666,47482.3,50361.21,474.7,1304.79,0.545031,96.3,1
2208554,1,38052,1,47979,51693,47483.3,50363.87,495.7,1329.13,0.544739,96.3,1
2208594,1,38092,1,47973,51611,47484.28,50366.37,488.72,1244.63,0.544444,96.3,1
2208634,1,38132,1,47913,51461,47485.14,50368.56,427.86,1092.44,0.544148,96.3,1
2208674,1,38172,1,47854,51363,47485.88,50370.55,368.12,992.45,0.54385,96.31,1
2208714,1,38212,1,47831,51339,47486.57,50372.48,344.43,966.52,0.543549,96.31,1
2208754,1,38252,1,47824,51335,47487.25,50374.41,336.75,960.59,0.543245,96.31,1
2208794,1,38292,1,47819,51326,47487.91,50376.32,331.09,949.68,0.542939,96.32,1
2208834,1,38332,1,47819,51344,47488.57,50378.25,330.43,965.75,0.542629,96.32,1
2208874,1,38372,1,47827,51360,47489.25,50380.22,337.75,979.78,0.542316,96.32,1
2208914,1,38412,1,47825,51355,47489.93,50382.17,335.07,972.83,0.542,96.33,1
2208954,1,38452,1,47817,51348,47490.58,50384.1,326.42,963.9,0.541682,96.33,1
2208995,1,38493,1,47821,51353,47491.24,50386.04,329.76,966.96,0.54136,96.34,1
2209035,1,38533,1,47825,51383,47491.91,50388.04,333.09,994.96,0.541036,96.34,1
2209075,1,38573,1,47831,51548,47492.59,50390.36,338.41,1157.64,0.540704,96.34,1
2209115,1,38613,1,47848,51680,47493.3,50392.94,354.7,1287.06,0.540362,96.35,1
2209155,1,38653,1,47862,51489,47494.04,50395.13,367.96,1093.87,0.540017,96.35,1
2209195,1,38693,1,47876,51523,47494.8,50397.39,381.2,1125.61,0.539669,96.36,1
2209235,1,38733,1,47890,51562,47495.6,50399.72,394.4,1162.28,0.539317,96.36,1
2209275,1,38773,1,47901,51588,47496.41,50402.1,404.59,1185.9,0.538962,96.37,1
2209315,1,38813,1,47919,51531,47497.26,50404.36,421.74,1126.64,0.538607,96.37,1
2209355,1,38853,1,47932,51654,47498.13,50406.86,433.87,1247.14,0.538249,96.38,1
2209395,1,38893,1,47946,51686,47499.03,50409.42,446.97,1276.58,0.537889,96.38,1
2209435,1,38933,1,47958,51723,47499.95,50412.05,458.05,1310.95,0.537525,96.39,1
2209475,1,38973,1,47974,51279,47500.89,50413.78,473.11,865.22,0.53717,96.39,1
2209515,1,39013,1,47986,51214,47501.87,50415.38,484.13,798.62,0.536825,96.4,1
2209555,1,39053,1,47998,51772,47502.86,50418.1,495.14,1353.9,0.536479,96.41,1
2209595,1,39093,1,47956,51636,47503.77,50420.54,452.23,1215.46,0.536131,96.41,1
2209635,1,39133,1,47889,51499,47504.54,50422.7,384.46,1076.3,0.535783,96.42,1
2209675,1,39173,1,47843,51446,47505.22,50424.74,337.78,1021.26,0.535432,96.42,1
2209716,1,39214,1,47829,51432,47505.87,50426.76,323.13,1005.24,0.535079,96.43,1
2209756,1,39254,1,47825,51424,47506.51,50428.75,318.49,995.25,0.534724,96.43,1
2209796,1,39294,1,47847,51431,47507.19,50430.76,339.81,1000.24,0.534368,96.44,1
2209836,1,39334,1,47958,51451,47508.09,50432.8,449.91,1018.2,0.534015,96.45,1
2209876,1,39374,1,47829,51459,47508.74,50434.86,320.26,1024.14,0.53366,96.45,1
2209916,1,39414,1,47831,51453,47509.38,50436.89,321.62,1016.11,0.533302,96.46,1
2209956,1,39454,1,47828,51461,47510.02,50438.95,317.98,1022.05,0.532942,96.47,1
2209996,1,39494,1,48292,51477,47511.59,50441.02,780.41,1035.98,0.53261,96.47,1
2210036,1,39534,1,47924,51512,47512.41,50443.17,411.59,1068.83,0.532279,96.48,1
2210076,1,39574,1,47860,51546,47513.11,50445.37,346.89,1100.63,0.531945,96.49,1
2210116,1,39614,1,47877,51572,47513.84,50447.63,363.16,1124.37,0.531607,96.49,1
2210156,1,39654,1,47888,51605,47514.59,50449.95,373.41,1155.05,0.531267,96.5,1
2210196,1,39694,1,47528,51639,47514.61,50452.32,13.39,1186.68,0.530914,96.51,1
2210236,1,39734,1,47391,51666,47514.37,50454.75,-123.37,1211.25,0.530551,96.51,1
2210276,1,39774,1,47922,51688,47515.18,50457.22,406.82,1230.78,0.530185,96.52,1
2210316,1,39814,1,47931,51715,47516.02,50459.74,414.98,1255.26,0.529817,96.53,1
2210356,1,39854,1,47938,51742,47516.86,50462.3,421.14,1279.7,0.529447,96.53,1
2210396,1,39894,1,47949,51776,47517.73,50464.93,431.27,1311.07,0.529073,96.54,1
2210436,1,39934,1,47962,51810,47518.62,50467.62,443.38,1342.38,0.528698,96.55,1
2210477,1,39975,1,47972,51840,47519.52,50470.37,452.48,1369.63,0.528319,96.56,1
2210517,1,40015,1,47983,51840,47520.45,50473.11,462.55,1366.89,0.527939,96.56,1
2210557,1,40055,1,47951,51721,47521.32,50475.61,429.68,1245.39,0.527559,96.57,1
2210597,1,40095,1,47889,51579,47522.05,50477.82,366.95,1101.18,0.527177,96.58,1
2210637,1,40135,1,47842,51503,47522.7,50479.87,319.3,1023.13,0.526794,96.59,1
2210677,1,40175,1,47822,51490,47523.3,50481.89,298.7,1008.11,0.526409,96.59,1
2210717,1,40215,1,47818,51483,47523.89,50483.89,294.11,999.11,0.526022,96.6,1
2210757,1,40255,1,47815,51478,47524.47,50485.88,290.53,992.12,0.525634,96.61,1
2210797,1,40295,1,47822,51496,47525.07,50487.91,296.93,1008.09,0.525244,96.62,1
2210837,1,40335,1,47831,51500,47525.68,50489.93,305.32,1010.07,0.524852,96.62,1
2210877,1,40375,1,47829,51486,47526.29,50491.93,302.71,994.07,0.52446,96.63,1
2210917,1,40415,1,47819,51480,47526.87,50493.9,292.12,986.1,0.524066,96.64,1
2210957,1,40455,1,47815,51489,47527.45,50495.89,287.55,993.11,0.52367,96.65,1
2210997,1,40495,1,47824,51511,47528.05,50497.93,295.95,1013.07,0.523273,96.66,1
2211037,1,40535,1,47839,51542,47528.67,50500.02,310.33,1041.98,0.522874,96.66,1
2211077,1,40575,1,47848,51572,47529.31,50502.16,318.69,1069.84,0.522474,96.67,1
2211117,1,40615,1,47858,51595,47529.97,50504.35,328.03,1090.65,0.522072,96.68,1
2211157,1,40655,1,47867,51623,47530.65,50506.59,336.35,1116.41,0.521668,96.69,1
2211198,1,40696,1,47876,51648,47531.34,50508.87,344.66,1139.13,0.521263,96.7,1
2211238,1,40736,1,47885,51674,47532.05,50511.2,352.95,1162.8,0.520856,96.71,1
2211278,1,40776,1,47896,51704,47532.78,50513.59,363.22,1190.41,0.520448,96.71,1
2211318,1,40816,1,47902,51732,47533.52,50516.03,368.48,1215.97,0.520038,96.72,1
2211358,1,40856,1,47914,51763,47534.28,50518.52,379.72,1244.48,0.519626,96.73,1
2211398,1,40896,1,47929,51792,47535.07,50521.07,393.93,1270.93,0.519212,96.74,1
2211438,1,40936,1,47949,51835,47535.89,50523.7,413.11,1311.3,0.518797,96.75,1
2211478,1,40976,1,47958,51870,47536.74,50526.39,421.26,1343.61,0.518381,96.76,1
2211518,1,41016,1,47962,51816,47537.59,50528.98,424.41,1287.02,0.517964,96.77,1
2211558,1,41056,1,47918,51662,47538.35,50531.24,379.65,1130.76,0.517548,96.78,1
2211598,1,41096,1,47851,51530,47538.98,50533.24,312.02,996.76,0.517131,96.78,1
2211638,1,41136,1,47810,51481,47539.52,50535.14,270.48,945.86,0.516714,96.79,1
2211678,1,41176,1,47795,51471,47540.03,50537.01,254.97,933.99,0.516295,96.8,1
2211718,1,41216,1,47792,51448,47540.54,50538.84,251.46,909.16,0.515876,96.81,1
2211758,1,41256,1,47790,51443,47541.04,50540.64,248.96,902.36,0.515456,96.82,1
2211798,1,41296,1,47791,51447,47541.54,50542.46,249.46,904.54,0.515036,96.83,1
2211838,1,41336,1,47791,51442,47542.04,50544.26,248.96,897.74,0.514614,96.84,1
2211878,1,41376,1,47781,51431,47542.52,50546.03,238.48,884.97,0.514192,96.85,1
2211919,1,41417,1,47776,51424,47542.98,50547.79,233.02,876.21,0.513769,96.86,1
2211959,1,41457,1,47779,51438,47543.46,50549.57,235.54,888.43,0.513345,96.87,1
2211999,1,41497,1,47786,51467,47543.94,50551.41,242.06,915.59,0.512921,96.88,1
2212039,1,41537,1,47795,51501,47544.45,50553.31,250.55,947.69,0.512495,96.89,1
2212079,1,41577,1,47807,51531,47544.97,50555.27,262.03,975.73,0.512068,96.89,1
2212119,1,41617,1,47821,51561,47545.53,50557.28,275.47,1003.72,0.511639,96.9,1
2212159,1,41657,1,47835,51591,47546.11,50559.35,288.89,1031.65,0.51121,96.91,1
2212199,1,41697,1,47847,51620,47546.71,50561.47,300.29,1058.53,0.51078,96.92,1
2212239,1,41737,1,47856,51647,47547.33,50563.64,308.67,1083.36,0.510349,96.93,1
2212279,1,41777,1,47874,51672,47547.99,50565.86,326.01,1106.14,0.509917,96.94,1
2212319,1,41817,1,47888,51699,47548.67,50568.13,339.33,1130.87,0.509484,96.95,1
2212359,1,41857,1,47897,51728,47549.37,50570.45,347.63,1157.55,0.509051,96.96,1
2212399,1,41897,1,47908,51767,47550.09,50572.84,357.91,1194.16,0.508617,96.97,1
2212439,1,41937,1,47927,51801,47550.84,50575.3,376.16,1225.7,0.508183,96.98,1
2212479,1,41977,1,47939,51816,47551.62,50577.79,387.38,1238.21,0.507749,96.99,1
2212519,1,42017,1,47925,51868,47552.36,50580.37,372.64,1287.63,0.507313,97,1
2212559,1,42057,1,47862,51810,47552.98,50582.83,309.02,1227.17,0.506874,97.01,1
2212599,1,42097,1,47791,51421,47553.46,50584.5,237.54,836.5,0.506436,97.02,1
2212639,1,42137,1,47758,51374,47553.87,50586.09,204.13,787.91,0.505997,97.03,1
2212680,1,42178,1,47745,51351,47554.25,50587.62,190.75,763.38,0.505558,97.04,1
2212720,1,42218,1,47730,51329,47554.61,50589.1,175.39,739.9,0.505119,97.05,1
2212760,1,42258,1,47726,51203,47554.95,50590.33,171.05,612.67,0.504681,97.06,1
2212800,1,42298,1,47725,51340,47555.29,50591.83,169.71,748.17,0.504242,97.07,1
2212840,1,42338,1,47728,51327,47555.64,50593.3,172.36,733.7,0.503803,97.08,1
2212880,1,42378,1,47716,51313,47555.96,50594.75,160.04,718.25,0.503363,97.09,1
2212920,1,42418,1,47716,50857,47556.28,50595.27,159.72,261.73,0.502926,97.1,1
2212960,1,42458,1,47719,50664,47556.61,50595.41,162.39,68.59,0.502491,97.11,1
2213000,1,42498,1,47735,51371,47556.96,50596.96,178.04,774.04,0.502056,97.12,1
2213040,1,42538,1,47756,51407,47557.36,50598.59,198.64,808.41,0.50162,97.13,1
2213080,1,42578,1,47769,51428,47557.79,50600.25,211.21,827.75,0.501183,97.14,1
2213120,1,42618,1,47782,51456,47558.24,50601.96,223.76,854.04,0.500747,97.15,1
2213160,1,42658,1,47789,51484,47558.7,50603.72,230.3,880.28,0.50031,97.16,1
2213200,1,42698,1,47800,51509,47559.18,50605.54,240.82,903.46,0.499872,97.17,1
2213240,1,42738,1,47838,51528,47559.74,50607.38,278.26,920.62,0.499435,97.18,1
2213280,1,42778,1,47943,51554,47560.51,50609.28,382.49,944.72,0.499002,97.19,1
2213320,1,42818,1,47833,51579,47561.06,50611.22,271.94,967.78,0.498568,97.2,1
2213360,1,42858,1,47845,51609,47561.63,50613.21,283.37,995.79,0.498134,97.21,1
2213401,1,42899,1,47857,51643,47562.22,50615.28,294.78,1027.72,0.4977,97.22,1
2213441,1,42939,1,48324,51675,47563.75,50617.4,760.25,1057.6,0.497292,97.23,1
2213481,1,42979,1,48419,51660,47565.46,50619.48,853.54,1040.52,0.496916,97.24,1
2213521,1,43019,1,47839,51504,47566,50621.25,273,882.75,0.496541,97.25,1
2213561,1,43059,1,47760,51323,47566.39,50622.66,193.61,700.34,0.496166,97.26,1
2213601,1,43099,1,47699,51226,47566.66,50623.87,132.34,602.13,0.49579,97.27,1
2213641,1,43139,1,47279,51193,47566.09,50625.01,-287.09,567.99,0.495418,97.28,1
2213681,1,43179,1,47161,51163,47565.28,50626.09,-404.28,536.91,0.495054,97.29,1
2213721,1,43219,1,47645,51140,47565.44,50627.11,79.56,512.89,0.494689,97.31,1
2213761,1,43259,1,47650,51141,47565.61,50628.14,84.39,512.86,0.494325,97.32,1
2213801,1,43299,1,47647,51135,47565.77,50629.16,81.23,505.84,0.49396,97.33,1
2213841,1,43339,1,47646,51117,47565.93,50630.13,80.07,486.87,0.493595,97.34,1
2213881,1,43379,1,47642,51109,47566.09,50631.09,75.91,477.91,0.493229,97.35,1
2213921,1,43419,1,47635,51108,47566.23,50632.05,68.77,475.95,0.492864,97.36,1
2213961,1,43459,1,47640,51131,47566.37,50633.05,73.62,497.95,0.492499,97.37,1
2214001,1,43499,1,47658,51154,47566.56,50634.09,91.44,519.91,0.492133,97.38,1
2214041,1,43539,1,47666,51186,47566.76,50635.2,99.24,550.8,0.491766,97.39,1
2214081,1,43579,1,47674,51208,47566.97,50636.35,107.03,571.65,0.4914,97.4,1
2214122,1,43620,1,47681,51233,47567.2,50637.54,113.8,595.46,0.491032,97.4,1
2214162,1,43660,1,47695,51260,47567.46,50638.79,127.54,621.21,0.490664,97.41,1
2214202,1,43700,1,47705,51280,47567.74,50640.07,137.26,639.93,0.490296,97.42,1
2214242,1,43740,1,47713,51310,47568.03,50641.41,144.97,668.59,0.489926,97.43,1
2214282,1,43780,1,47724,51336,47568.34,50642.8,155.66,693.2,0.489556,97.44,1
2214322,1,43820,1,47741,51365,47568.69,50644.25,172.31,720.75,0.489185,97.45,1
2214362,1,43860,1,47753,51405,47569.06,50645.77,183.94,759.23,0.488813,97.46,1
2214402,1,43900,1,47771,51450,47569.47,50647.38,201.53,802.62,0.488441,97.47,1
2214442,1,43940,1,47789,51458,47569.91,50649,219.09,809,0.488067,97.48,1
2214482,1,43980,1,47774,51330,47570.32,50650.37,203.68,679.63,0.487694,97.49,1
2214522,1,44020,1,47699,51132,47570.58,50651.33,128.42,480.67,0.487322,97.5,1
2214562,1,44060,1,47623,51009,47570.68,50652.05,52.32,356.95,0.486949,97.51,1
2214602,1,44100,1,47587,50957,47570.72,50652.66,16.28,304.34,0.486578,97.52,1
2214642,1,44140,1,47573,50921,47570.72,50653.2,2.28,267.8,0.486207,97.53,1
2214682,1,44180,1,47559,50888,47570.7,50653.67,-11.7,234.33,0.485836,97.54,1
2214722,1,44220,1,47550,50891,47570.66,50654.14,-20.66,236.86,0.485467,97.55,1
2214762,1,44260,1,47555,50899,47570.63,50654.64,-15.63,244.36,0.485098,97.56,1
2214802,1,44300,1,47552,50887,47570.59,50655.1,-18.59,231.9,0.48473,97.57,1
2214843,1,44341,1,47547,50868,47570.55,50655.53,-23.55,212.47,0.484362,97.58,1
2214883,1,44381,1,47544,50875,47570.5,50655.97,-26.5,219.03,0.483996,97.59,1
2214923,1,44421,1,47549,50904,47570.45,50656.46,-21.45,247.54,0.48363,97.6,1
2214963,1,44461,1,47564,50942,47570.44,50657.04,-6.44,284.96,0.483264,97.61,1
2215003,1,44501,1,47583,50972,47570.47,50657.67,12.53,314.33,0.482899,97.62,1
2215043,1,44541,1,47597,51007,47570.52,50658.37,26.48,348.63,0.482534,97.63,1
2215083,1,44581,1,47612,51039,47570.61,50659.13,41.39,379.87,0.48217,97.64,1
2215123,1,44621,1,47622,51068,47570.71,50659.95,51.29,408.05,0.481805,97.65,1
2215163,1,44661,1,47638,51101,47570.85,50660.84,67.15,440.16,0.48144,97.66,1
2215203,1,44701,1,47656,51125,47571.02,50661.77,84.98,463.23,0.481075,97.67,1
2215243,1,44741,1,47669,51146,47571.22,50662.73,97.78,483.27,0.480709,97.68,1
2215283,1,44781,1,47679,51178,47571.43,50663.77,107.57,514.23,0.480344,97.68,1
2215323,1,44821,1,47699,51216,47571.69,50664.87,127.31,551.13,0.479978,97.69,1
2215363,1,44861,1,47708,51251,47571.96,50666.04,136.04,584.96,0.479612,97.7,1
2215403,1,44901,1,47728,51262,47572.28,50667.23,155.72,594.77,0.479246,97.71,1
2215443,1,44941,1,47708,51138,47572.55,50668.18,135.45,469.82,0.47888,97.72,1
2215483,1,44981,1,47627,50933,47572.66,50668.71,54.34,264.29,0.478516,97.73,1
2215523,1,45021,1,47550,50798,47572.62,50668.97,-22.62,129.03,0.478152,97.74,1
2215563,1,45061,1,47511,50739,47572.5,50669.11,-61.5,69.89,0.47779,97.75,1
2215604,1,45102,1,47493,50701,47572.34,50669.18,-79.34,31.82,0.477429,97.76,1
2215644,1,45142,1,47474,50670,47572.14,50669.18,-98.14,0.82,0.47707,97.77,1
2215684,1,45182,1,47472,50687,47571.95,50669.21,-99.95,17.79,0.476713,97.78,1
2215724,1,45222,1,47476,50696,47571.75,50669.27,-95.75,26.73,0.476357,97.79,1
2215764,1,45262,1,47481,50683,47571.57,50669.3,-90.57,13.7,0.476004,97.8,1
2215804,1,45302,1,47475,50673,47571.38,50669.3,-96.38,3.7,0.475652,97.81,1
2215844,1,45342,1,47473,50688,47571.19,50669.34,-98.19,18.66,0.475302,97.82,1
2215884,1,45382,1,47483,50722,47571.01,50669.45,-88.01,52.55,0.474954,97.83,1
2215924,1,45422,1,47504,50865,47570.88,50669.84,-66.88,195.16,0.474607,97.84,1
2215964,1,45462,1,47521,51007,47570.78,50670.52,-49.78,336.48,0.47426,97.84,1
2216004,1,45502,1,47537,50824,47570.71,50670.82,-33.71,153.18,0.473913,97.85,1
2216044,1,45542,1,47556,50858,47570.69,50671.2,-14.69,186.8,0.473568,97.86,1
2216084,1,45582,1,47567,50891,47570.68,50671.64,-3.68,219.36,0.473223,97.87,1
2216124,1,45622,1,47581,51395,47570.7,50673.09,10.3,721.91,0.472874,97.88,1
2216164,1,45662,1,47595,50892,47570.75,50673.53,24.25,218.47,0.472526,97.89,1
2216204,1,45702,1,47606,50973,47570.82,50674.13,35.18,298.87,0.472178,97.9,1
2216244,1,45742,1,47618,51008,47570.92,50674.8,47.08,333.2,0.471831,97.91,1
2216284,1,45782,1,47638,51040,47571.05,50675.53,66.95,364.47,0.471483,97.92,1
2216325,1,45823,1,47651,50675,47571.21,50675.53,79.79,-0.53,0.471137,97.93,1
2216365,1,45863,1,47667,50490,47571.41,50675.16,95.59,-185.16,0.470792,97.94,1
2216405,1,45903,1,47650,50990,47571.57,50675.79,78.43,314.21,0.470448,97.95,1
2216445,1,45943,1,47572,50789,47571.57,50676.02,0.43,112.98,0.470105,97.95,1
2216485,1,45983,1,47497,50650,47571.42,50675.96,-74.42,-25.96,0.469764,97.96,1
2216525,1,46023,1,47460,50594,47571.2,50675.8,-111.2,-81.8,0.469425,97.97,1
2216565,1,46063,1,47447,50563,47570.95,50675.58,-123.95,-112.58,0.469088,97.98,1
2216605,1,46103,1,47432,50545,47570.68,50675.32,-138.68,-130.32,0.468753,97.99,1
2216645,1,46143,1,47432,50562,47570.4,50675.09,-138.4,-113.09,0.468422,98,1
2216685,1,46183,1,47525,50587,47570.31,50674.91,-45.31,-87.91,0.468091,98.01,1
2216725,1,46223,1,47457,50583,47570.08,50674.73,-113.08,-91.73,0.467763,98.02,1
2216765,1,46263,1,47454,50580,47569.85,50674.54,-115.85,-94.54,0.467437,98.03,1
2216805,1,46303,1,47457,50590,47569.63,50674.37,-112.63,-84.37,0.467113,98.03,1
2216845,1,46343,1,47862,50627,47570.21,50674.28,291.79,-47.28,0.466799,98.04,1
2216885,1,46383,1,47957,50658,47570.99,50674.25,386.01,-16.25,0.4665,98.05,1
2216925,1,46423,1,47499,50698,47570.84,50674.3,-71.84,23.7,0.466204,98.06,1
2216965,1,46463,1,47515,50736,47570.73,50674.42,-55.73,61.58,0.465908,98.07,1
2217005,1,46503,1,47531,50767,47570.66,50674.61,-39.66,92.39,0.465613,98.08,1
2217045,1,46543,1,47265,50804,47570.05,50674.87,-305.05,129.13,0.465329,98.09,1
2217086,1,46584,1,47172,50832,47569.25,50675.19,-397.25,156.81,0.465062,98.1,1
2217126,1,46624,1,47567,50861,47569.25,50675.56,-2.25,185.44,0.464795,98.1,1
2217166,1,46664,1,47581,50895,47569.27,50676,11.73,219,0.464528,98.11,1
2217206,1,46704,1,47595,50930,47569.32,50676.51,25.68,253.49,0.464261,98.12,1
2217246,1,46744,1,47611,50971,47569.41,50677.1,41.59,293.9,0.463995,98.13,1
2217286,1,46784,1,47633,51016,47569.54,50677.78,63.46,338.22,0.463727,98.14,1
2217326,1,46824,1,47649,51054,47569.7,50678.53,79.3,375.47,0.46346,98.15,1
2217366,1,46864,1,47658,51005,47569.88,50679.18,88.12,325.82,0.463193,98.15,1
2217406,1,46904,1,47602,50817,47569.95,50679.46,32.05,137.54,0.462926,98.16,1
2217446,1,46944,1,47524,50654,47569.86,50679.41,-45.86,-25.41,0.46266,98.17,1
2217486,1,46984,1,47481,50568,47569.68,50679.19,-88.68,-111.19,0.462396,98.18,1
2217526,1,47024,1,47458,50539,47569.46,50678.91,-111.46,-139.91,0.462134,98.19,1
2217566,1,47064,1,47440,50506,47569.2,50678.57,-129.2,-172.57,0.461874,98.2,1
2217606,1,47104,1,47430,50510,47568.92,50678.23,-138.92,-168.23,0.461617,98.2,1
2217646,1,47144,1,47441,50535,47568.67,50677.95,-127.67,-142.95,0.461362,98.21,1
2217686,1,47184,1,47452,50544,47568.44,50677.68,-116.44,-133.68,0.461109,98.22,1
2217726,1,47224,1,47448,50542,47568.2,50677.41,-120.2,-135.41,0.460859,98.23,1
2217766,1,47264,1,47446,50545,47567.96,50677.15,-121.96,-132.15,0.46061,98.23,1
2217806,1,47304,1,47452,50574,47567.73,50676.95,-115.73,-102.95,0.460364,98.24,1
2217847,1,47345,1,47468,50612,47567.53,50676.82,-99.53,-64.82,0.46012,98.25,1
2217887,1,47385,1,47484,50653,47567.36,50676.77,-83.36,-23.77,0.459877,98.26,1
2217927,1,47425,1,47503,50695,47567.23,50676.81,-64.23,18.19,0.459636,98.26,1
2217967,1,47465,1,47520,50739,47567.14,50676.93,-47.14,62.07,0.459396,98.27,1
2218007,1,47505,1,47537,50773,47567.08,50677.13,-30.08,95.87,0.459156,98.28,1
2218047,1,47545,1,47558,50811,47567.07,50677.4,-9.07,133.6,0.458916,98.29,1
2218087,1,47585,1,47569,50838,47567.07,50677.72,1.93,160.28,0.458677,98.29,1
2218127,1,47625,1,47578,50876,47567.09,50678.12,10.91,197.88,0.458439,98.3,1
2218167,1,47665,1,47595,50912,47567.15,50678.59,27.85,233.41,0.4582,98.31,1
2218207,1,47705,1,47618,50954,47567.25,50679.14,50.75,274.86,0.45796,98.32,1
2218247,1,47745,1,47642,50995,47567.41,50679.77,74.59,315.23,0.457721,98.32,1
2218287,1,47785,1,47660,50994,47567.59,50680.4,92.41,313.6,0.457482,98.33,1
2218327,1,47825,1,47626,50846,47567.71,50680.73,58.29,165.27,0.457243,98.34,1
2218367,1,47865,1,47539,50654,47567.66,50680.68,-28.66,-26.68,0.457006,98.35,1
2218407,1,47905,1,47478,50545,47567.48,50680.41,-89.48,-135.41,0.456769,98.35,1
2218447,1,47945,1,47449,50503,47567.24,50680.06,-118.24,-177.06,0.456535,98.36,1
2218487,1,47985,1,47437,50478,47566.98,50679.66,-129.98,-201.66,0.456304,98.37,1
2218527,1,48025,1,47421,50470,47566.7,50679.24,-145.7,-209.24,0.456075,98.37,1
2218567,1,48065,1,47432,50504,47566.43,50678.89,-134.43,-174.89,0.455849,98.38,1
2218608,1,48106,1,47442,50519,47566.18,50678.57,-124.18,-159.57,0.455625,98.39,1
2218648,1,48146,1,47441,50517,47565.93,50678.25,-124.93,-161.25,0.455404,98.39,1
2218688,1,48186,1,47440,50511,47565.68,50677.92,-125.68,-166.92,0.455185,98.4,1
2218728,1,48226,1,47441,50540,47565.43,50677.64,-124.43,-137.64,0.454969,98.41,1
2218768,1,48266,1,47457,50574,47565.21,50677.44,-108.21,-103.44,0.454755,98.41,1
2218808,1,48306,1,47475,50618,47565.04,50677.32,-90.04,-59.32,0.454543,98.42,1
2218848,1,48346,1,47497,50665,47564.9,50677.3,-67.9,-12.3,0.454332,98.43,1
2218888,1,48386,1,47513,50708,47564.8,50677.36,-51.8,30.64,0.454123,98.43,1
2218928,1,48426,1,47533,50751,47564.73,50677.51,-31.73,73.49,0.453913,98.44,1
2218968,1,48466,1,47548,50783,47564.7,50677.72,-16.7,105.28,0.453705,98.45,1
2219008,1,48506,1,47569,50813,47564.71,50677.99,4.29,135.01,0.453496,98.45,1
2219048,1,48546,1,47584,50842,47564.75,50678.32,19.25,163.68,0.453288,98.46,1
2219088,1,48586,1,47598,50883,47564.82,50678.73,33.18,204.27,0.45308,98.47,1
2219128,1,48626,1,47613,50920,47564.92,50679.21,48.08,240.79,0.452871,98.47,1
2219168,1,48666,1,47632,50963,47565.05,50679.79,66.95,283.21,0.452662,98.48,1
2219208,1,48706,1,47648,50960,47565.22,50680.35,82.78,279.65,0.452453,98.49,1
2219248,1,48746,1,47614,50807,47565.32,50680.6,48.68,126.4,0.452245,98.49,1
2219288,1,48786,1,47522,50608,47565.23,50680.46,-43.23,-72.46,0.452038,98.5,1
2219328,1,48826,1,47460,50497,47565.02,50680.09,-105.02,-183.09,0.451833,98.5,1
2219369,1,48867,1,47425,50455,47564.75,50679.64,-139.75,-224.64,0.45163,98.51,1
2219409,1,48907,1,47408,50478,47564.43,50679.24,-156.43,-201.24,0.451431,98.52,1
2219449,1,48947,1,47397,50428,47564.1,50678.74,-167.1,-250.74,0.451236,98.52,1
2219489,1,48987,1,47404,50467,47563.78,50678.32,-159.78,-211.32,0.451045,98.53,1
2219529,1,49027,1,47422,50490,47563.5,50677.94,-141.5,-187.94,0.450858,98.53,1
2219569,1,49067,1,47424,50849,47563.22,50678.29,-139.22,170.71,0.450673,98.54,1
2219609,1,49107,1,47426,50958,47562.95,50678.85,-136.95,279.15,0.450491,98.55,1
2219649,1,49147,1,47422,50525,47562.67,50678.54,-140.67,-153.54,0.450312,98.55,1
2219689,1,49187,1,47443,50567,47562.43,50678.32,-119.43,-111.32,0.450136,98.56,1
2219729,1,49227,1,47469,50612,47562.24,50678.19,-93.24,-66.19,0.449962,98.56,1
2219769,1,49267,1,47492,50405,47562.1,50677.64,-70.1,-272.64,0.449788,98.57,1
2219809,1,49307,1,47506,50299,47561.99,50676.88,-55.99,-377.88,0.449611,98.58,1
2219849,1,49347,1,47524,50734,47561.92,50677,-37.92,57,0.449435,98.58,1
2219889,1,49387,1,47540,50772,47561.87,50677.19,-21.87,94.81,0.449259,98.59,1
2219929,1,49427,1,47555,50801,47561.86,50677.44,-6.86,123.56,0.449083,98.59,1
2219969,1,49467,1,47569,50840,47561.88,50677.77,7.12,162.23,0.448908,98.6,1
2220009,1,49507,1,47585,50881,47561.93,50678.18,23.07,202.82,0.448732,98.6,1
2220049,1,49547,1,47601,50930,47562,50678.68,39,251.32,0.448555,98.61,1
2220089,1,49587,1,47624,50976,47562.13,50679.28,61.87,296.72,0.448377,98.61,1
2220130,1,49628,1,47636,50975,47562.28,50679.87,73.72,295.13,0.448198,98.62,1
2220170,1,49668,1,47604,50837,47562.36,50680.19,41.64,156.81,0.44802,98.63,1
2220210,1,49708,1,47529,50670,47562.3,50680.17,-33.3,-10.17,0.447842,98.63,1
2220250,1,49748,1,47464,50583,47562.1,50679.98,-98.1,-96.98,0.447667,98.64,1
2220290,1,49788,1,47652,50560,47562.28,50679.74,89.72,-119.74,0.447493,98.64,1
2220330,1,49828,1,47737,50541,47562.63,50679.46,174.37,-138.46,0.447325,98.65,1
2220370,1,49868,1,47427,50546,47562.36,50679.2,-135.36,-133.2,0.447162,98.65,1
2220410,1,49908,1,47440,50598,47562.12,50679.04,-122.12,-81.04,0.447001,98.66,1
2220450,1,49948,1,47454,50628,47561.91,50678.93,-107.91,-50.93,0.446844,98.66,1
2220490,1,49988,1,47420,50631,47561.62,50678.84,-141.62,-47.84,0.446691,98.67,1
2220530,1,50028,1,47305,50639,47561.11,50678.76,-256.11,-39.76,0.446553,98.67,1
2220570,1,50068,1,47475,50673,47560.94,50678.75,-85.94,-5.75,0.446416,98.68,1
2220610,1,50108,1,47491,50721,47560.8,50678.84,-69.8,42.16,0.446281,98.68,1
2220650,1,50148,1,47510,50772,47560.7,50679.02,-50.7,92.98,0.446146,98.69,1
2220690,1,50188,1,46991,50817,47559.57,50679.3,-568.57,137.7,0.44608,98.69,1
2220730,1,50228,1,46914,50865,47558.28,50679.67,-644.28,185.33,0.446096,98.7,1
2220770,1,50268,1,47569,50906,47558.3,50680.12,10.7,225.87,0.44611,98.7,1
2220810,1,50308,1,47581,50941,47558.35,50680.65,22.65,260.35,0.446122,98.71,1
2220850,1,50348,1,47595,50982,47558.42,50681.25,36.58,300.75,0.44613,98.71,1
2220891,1,50389,1,47615,51024,47558.54,50681.94,56.46,342.06,0.446136,98.71,1
2220931,1,50429,1,47632,51074,47558.68,50682.73,73.32,391.27,0.446137,98.72,1
2220971,1,50469,1,47649,51121,47558.87,50683.61,90.13,437.39,0.446133,98.72,1
2221011,1,50509,1,47669,51173,47559.09,50684.59,109.91,488.41,0.446123,98.73,1
2221051,1,50549,1,47675,51131,47559.32,50685.48,115.68,445.52,0.446108,98.73,1
2221091,1,50589,1,47630,50975,47559.47,50686.06,70.53,288.94,0.446092,98.73,1
2221131,1,50629,1,47556,50858,47559.46,50686.41,-3.46,171.59,0.446075,98.74,1
2221171,1,50669,1,47520,50818,47559.39,50686.67,-39.39,131.33,0.446058,98.74,1
2221211,1,50709,1,47516,50806,47559.3,50686.91,-43.3,119.09,0.44604,98.74,1
2221251,1,50749,1,47508,50800,47559.2,50687.14,-51.2,112.86,0.446023,98.75,1
2221291,1,50789,1,47513,50821,47559.11,50687.41,-46.11,133.59,0.446006,98.75,1
2221331,1,50829,1,47526,50859,47559.04,50687.75,-33.04,171.25,0.445988,98.75,1
2221371,1,50869,1,47534,50868,47558.99,50688.11,-24.99,179.89,0.445968,98.76,1
2221411,1,50909,1,47533,50880,47558.94,50688.5,-25.94,191.5,0.445948,98.76,1
2221451,1,50949,1,47539,50901,47558.9,50688.93,-19.9,212.07,0.445926,98.76,1
2221491,1,50989,1,47554,50936,47558.89,50689.42,-4.89,246.58,0.445902,98.76,1
2221531,1,51029,1,47570,50982,47558.92,50690.01,11.08,291.99,0.445875,98.77,1
2221571,1,51069,1,47587,51032,47558.98,50690.69,28.02,341.31,0.445844,98.77,1
2221611,1,51109,1,47606,51081,47559.07,50691.47,46.93,389.53,0.445807,98.77,1
2221651,1,51149,1,47623,51121,47559.2,50692.33,63.8,428.67,0.445765,98.77,1
2221692,1,51190,1,47639,51164,47559.36,50693.28,79.64,470.72,0.445715,98.78,1
2221732,1,51230,1,47657,51201,47559.55,50694.29,97.45,506.71,0.445659,98.78,1
2221772,1,51270,1,47665,51240,47559.77,50695.39,105.23,544.61,0.445594,98.78,1
2221812,1,51310,1,47685,51288,47560.02,50696.57,124.98,591.43,0.445521,98.78,1
2221852,1,51350,1,47703,51331,47560.3,50697.84,142.7,633.16,0.445438,98.79,1
2221892,1,51390,1,47720,51388,47560.62,50699.23,159.37,688.77,0.445345,98.79,1
2221932,1,51430,1,47744,51423,47560.99,50700.68,183.01,722.32,0.445242,98.79,1
2221972,1,51470,1,47738,51360,47561.35,50702,176.65,658,0.445132,98.79,1
2222012,1,51510,1,47690,51222,47561.61,50703.04,128.39,518.96,0.445017,98.8,1
2222052,1,51550,1,47640,51134,47561.76,50703.9,78.24,430.1,0.444898,98.8,1
2222092,1,51590,1,47617,51106,47561.87,50704.71,55.13,401.29,0.444774,98.8,1
2222132,1,51630,1,47602,51091,47561.96,50705.48,40.04,385.52,0.444647,98.8,1
2222172,1,51670,1,47590,51086,47562.02,50706.24,27.98,379.76,0.444515,98.81,1
2222212,1,51710,1,47594,51108,47562.08,50707.05,31.92,400.95,0.444379,98.81,1
2222252,1,51750,1,47611,51142,47562.18,50707.92,48.82,434.08,0.444238,98.81,1
2222292,1,51790,1,47613,51148,47562.28,50708.8,50.72,439.2,0.444092,98.81,1
2222332,1,51830,1,47609,51153,47562.37,50709.69,46.63,443.31,0.44394,98.82,1
2222372,1,51870,1,47613,51172,47562.48,50710.62,50.52,461.38,0.443783,98.82,1
2222412,1,51910,1,47626,51209,47562.61,50711.62,63.39,497.38,0.44362,98.82,1
2222453,1,51951,1,47641,51255,47562.76,50712.71,78.24,542.29,0.443449,98.82,1
2222493,1,51991,1,47660,51297,47562.96,50713.87,97.04,583.12,0.443271,98.83,1
2222533,1,52031,1,47679,51345,47563.19,50715.14,115.81,629.86,0.443084,98.83,1
2222573,1,52071,1,47694,51395,47563.45,50716.5,130.55,678.5,0.442888,98.83,1
2222613,1,52111,1,47713,51432,47563.75,50717.93,149.25,714.07,0.442684,98.84,1
2222653,1,52151,1,47731,51467,47564.09,50719.43,166.91,747.57,0.44247,98.84,1
2222693,1,52191,1,47745,51507,47564.45,50721.01,180.55,785.99,0.442248,98.84,1
2222733,1,52231,1,47759,51556,47564.84,50722.68,194.16,833.32,0.442017,98.85,1
2222773,1,52271,1,47781,51603,47565.28,50724.44,215.72,878.56,0.441777,98.85,1
2222813,1,52311,1,47801,51645,47565.75,50726.29,235.25,918.71,0.441529,98.85,1
2222853,1,52351,1,47816,51629,47566.25,50728.09,249.75,900.91,0.441275,98.86,1
2222893,1,52391,1,47781,51509,47566.68,50729.66,214.32,779.34,0.441017,98.86,1
2222933,1,52431,1,47721,51415,47566.99,50731.03,154.01,683.97,0.440755,98.86,1
2222973,1,52471,1,47685,51378,47567.23,50732.32,117.77,645.68,0.440487,98.87,1
2223013,1,52511,1,47678,51425,47567.45,50733.71,110.55,691.29,0.440211,98.87,1
2223053,1,52551,1,47668,51354,47567.65,50734.95,100.35,619.05,0.43993,98.87,1
2223093,1,52591,1,47663,51371,47567.84,50736.23,95.16,634.77,0.439644,98.88,1
2223133,1,52631,1,47667,51398,47568.04,50737.55,98.96,660.45,0.43935,98.88,1
2223173,1,52671,1,47678,51762,47568.27,50739.6,109.73,1022.4,0.439039,98.89,1
2223214,1,52712,1,47676,51869,47568.48,50741.86,107.52,1127.14,0.438706,98.89,1
2223254,1,52752,1,47676,51422,47568.7,50743.23,107.3,678.77,0.438368,98.9,1
2223294,1,52792,1,47685,51454,47568.93,50744.65,116.07,709.35,0.438024,98.9,1
2223334,1,52832,1,47700,51495,47569.19,50746.15,130.81,748.85,0.437675,98.91,1
2223374,1,52872,1,47714,51286,47569.48,50747.23,144.52,538.77,0.437325,98.91,1
2223414,1,52912,1,47731,51180,47569.8,50748.1,161.2,431.9,0.436979,98.91,1
2223454,1,52952,1,47745,51607,47570.16,50749.82,174.84,857.18,0.436626,98.92,1
2223494,1,52992,1,47760,51646,47570.54,50751.61,189.46,894.39,0.436268,98.93,1
2223534,1,53032,1,47774,51686,47570.95,50753.48,203.05,932.52,0.435904,98.93,1
2223574,1,53072,1,47790,51714,47571.38,50755.41,218.62,958.59,0.435535,98.94,1
2223614,1,53112,1,47809,51755,47571.86,50757.41,237.14,997.59,0.435162,98.94,1
2223654,1,53152,1,47827,51790,47572.37,50759.47,254.63,1030.53,0.434785,98.95,1
2223694,1,53192,1,47839,51818,47572.91,50761.59,266.09,1056.41,0.434406,98.95,1
2223734,1,53232,1,47833,51748,47573.43,50763.56,259.57,984.44,0.434025,98.96,1
2223774,1,53272,1,47781,51641,47573.84,50765.32,207.16,875.68,0.433642,98.96,1
2223814,1,53312,1,47735,51574,47574.17,50766.94,160.83,807.06,0.433255,98.97,1
2223854,1,53352,1,47715,51558,47574.45,50768.52,140.55,789.48,0.432864,98.98,1
2223894,1,53392,1,47951,51542,47575.2,50770.07,375.8,771.93,0.43249,98.98,1
2223934,1,53432,1,48046,51539,47576.14,50771.61,469.86,767.39,0.432145,98.99,1
2223975,1,53473,1,47699,51558,47576.39,50773.18,122.61,784.82,0.431795,99,1
2224015,1,53513,1,47704,51581,47576.65,50774.8,127.35,806.2,0.43144,99,1
2224055,1,53553,1,47706,51586,47576.91,50776.42,129.09,809.58,0.431079,99.01,1
2224095,1,53593,1,47541,51591,47576.84,50778.05,-35.84,812.95,0.43071,99.02,1
2224135,1,53633,1,47413,51614,47576.51,50779.72,-163.51,834.28,0.430338,99.02,1
2224175,1,53673,1,47722,51654,47576.8,50781.47,145.2,872.53,0.429961,99.03,1
2224215,1,53713,1,47742,51692,47577.14,50783.3,164.86,908.7,0.429578,99.04,1
2224255,1,53753,1,47760,51731,47577.5,50785.2,182.5,945.8,0.429191,99.04,1
2224295,1,53793,1,47777,51765,47577.9,50787.16,199.1,977.84,0.428799,99.05,1
2224335,1,53833,1,47791,51787,47578.33,50789.16,212.67,997.84,0.428403,99.06,1
2224375,1,53873,1,47799,51820,47578.77,50791.22,220.23,1028.78,0.428004,99.07,1
2224415,1,53913,1,47810,51846,47579.23,50793.33,230.77,1052.67,0.427601,99.07,1
2224455,1,53953,1,47829,51875,47579.73,50795.49,249.27,1079.51,0.427196,99.08,1
2224495,1,53993,1,47841,51917,47580.26,50797.74,260.74,1119.26,0.426788,99.09,1
2224535,1,54033,1,47854,51944,47580.8,50800.03,273.2,1143.97,0.426378,99.1,1
2224575,1,54073,1,47849,51906,47581.34,50802.25,267.66,1103.75,0.425967,99.1,1
2224616,1,54114,1,47810,51798,47581.8,50804.24,228.2,993.76,0.425554,99.11,1
2224656,1,54154,1,47762,51722,47582.16,50806.07,179.84,915.93,0.425139,99.12,1
2224696,1,54194,1,47735,51696,47582.47,50807.86,152.53,888.14,0.42472,99.13,1
2224736,1,54234,1,47719,51682,47582.75,50809.61,136.25,872.39,0.424298,99.13,1
2224776,1,54274,1,47713,51667,47583.01,50811.32,129.99,855.68,0.423872,99.14,1
2224816,1,54314,1,47718,51691,47583.28,50813.08,134.72,877.92,0.423443,99.15,1
2224856,1,54354,1,47728,51717,47583.57,50814.89,144.43,902.11,0.42301,99.16,1
2224896,1,54394,1,47730,51720,47583.86,50816.7,146.14,903.3,0.422574,99.17,1
2224936,1,54434,1,47734,51722,47584.16,50818.52,149.84,903.48,0.422135,99.18,1
2224976,1,54474,1,47736,51737,47584.46,50820.36,151.54,916.64,0.421693,99.18,1
2225016,1,54514,1,47749,51765,47584.8,50822.25,164.2,942.75,0.421248,99.19,1
2225056,1,54554,1,47755,51798,47585.14,50824.2,169.86,973.8,0.4208,99.2,1
2225096,1,54594,1,47772,51828,47585.51,50826.21,186.49,1001.79,0.420349,99.21,1
2225136,1,54634,1,47784,51853,47585.91,50828.26,198.09,1024.74,0.419896,99.22,1
2225176,1,54674,1,47795,51881,47586.33,50830.37,208.67,1050.63,0.419441,99.23,1
2225216,1,54714,1,47799,51911,47586.75,50832.53,212.25,1078.47,0.418983,99.24,1
2225256,1,54754,1,47817,51937,47587.21,50834.74,229.79,1102.26,0.418524,99.25,1
2225297,1,54795,1,47823,51964,47587.69,50837,235.31,1127,0.418064,99.25,1
2225337,1,54835,1,47836,51997,47588.18,50839.32,247.82,1157.68,0.417602,99.26,1
2225377,1,54875,1,47850,52034,47588.71,50841.71,261.29,1192.29,0.417139,99.27,1
2225417,1,54915,1,47852,52004,47589.23,50844.04,262.77,1159.96,0.416677,99.28,1
2225457,1,54955,1,47815,51905,47589.69,50846.16,225.31,1058.84,0.416213,99.29,1
2225497,1,54995,1,47772,51837,47590.05,50848.15,181.95,988.85,0.415748,99.3,1
2225537,1,55035,1,47750,51811,47590.37,50850.07,159.62,960.93,0.415281,99.31,1
2225577,1,55075,1,47738,51798,47590.67,50851.97,147.33,946.03,0.414811,99.32,1
2225617,1,55115,1,47736,51785,47590.96,50853.84,145.04,931.16,0.41434,99.33,1
2225657,1,55155,1,47737,51802,47591.26,50855.74,145.74,946.26,0.413866,99.34,1
2225697,1,55195,1,47753,51823,47591.58,50857.68,161.42,965.32,0.41339,99.35,1
2225737,1,55235,1,47753,51827,47591.91,50859.62,161.09,967.38,0.412913,99.36,1
2225777,1,55275,1,47748,51824,47592.22,50861.55,155.78,962.45,0.412433,99.37,1
2225817,1,55315,1,47751,51834,47592.54,50863.49,158.46,970.51,0.411952,99.38,1
2225857,1,55355,1,47758,51861,47592.87,50865.49,165.13,995.51,0.411469,99.39,1
2225897,1,55395,1,47765,51891,47593.21,50867.54,171.79,1023.46,0.410984,99.4,1
2225937,1,55435,1,47778,51921,47593.59,50869.65,184.41,1051.35,0.410498,99.41,1
2225978,1,55476,1,47795,51949,47593.99,50871.81,201.01,1077.19,0.41001,99.42,1
2226018,1,55516,1,47800,51970,47594.4,50874.01,205.6,1095.99,0.409522,99.43,1
2226058,1,55556,1,47806,51996,47594.83,50876.25,211.17,1119.75,0.409032,99.44,1
2226098,1,55596,1,47816,52031,47595.27,50878.57,220.73,1152.43,0.408541,99.45,1
2226138,1,55636,1,47829,52060,47595.74,50880.93,233.26,1179.07,0.40805,99.46,1
2226178,1,55676,1,47847,52093,47596.25,50883.36,250.75,1209.64,0.407559,99.47,1
2226218,1,55716,1,47861,52126,47596.78,50885.84,264.22,1240.16,0.407068,99.48,1
2226258,1,55756,1,47871,52123,47597.33,50888.32,273.67,1234.68,0.406578,99.49,1
2226298,1,55796,1,47839,52024,47597.81,50890.59,241.19,1133.41,0.406088,99.5,1
2226338,1,55836,1,47797,51952,47598.21,50892.72,198.79,1059.28,0.405599,99.51,1
2226378,1,55876,1,47768,51922,47598.55,50894.78,169.45,1027.22,0.405107,99.52,1
2226418,1,55916,1,47767,52202,47598.89,50897.39,168.11,1304.61,0.404612,99.54,1
2226458,1,55956,1,47761,52280,47599.21,50900.16,161.79,1379.84,0.40411,99.55,1
2226498,1,55996,1,47757,51914,47599.53,50902.19,157.47,1011.81,0.403607,99.56,1
2226538,1,56036,1,47769,51935,47599.87,50904.25,169.13,1030.75,0.403103,99.57,1
2226578,1,56076,1,47772,51933,47600.21,50906.31,171.79,1026.69,0.402599,99.58,1
2226618,1,56116,1,47767,51763,47600.55,50908.03,166.45,854.97,0.402095,99.59,1
2226658,1,56156,1,47764,51658,47600.88,50909.53,163.12,748.47,0.401593,99.6,1
2226698,1,56196,1,47770,51966,47601.22,50911.64,168.78,1054.36,0.40109,99.61,1
2226739,1,56237,1,47782,51995,47601.58,50913.81,180.42,1081.19,0.400586,99.62,1
2226779,1,56277,1,47795,52025,47601.97,50916.03,193.03,1108.97,0.400081,99.63,1
2226819,1,56317,1,47807,51332,47602.38,50916.86,204.62,415.14,0.399581,99.65,1
2226859,1,56357,1,47817,52085,47602.81,50919.2,214.19,1165.8,0.399081,99.66,1
2226899,1,56397,1,47827,52110,47603.26,50921.58,223.74,1188.42,0.39858,99.67,1
2226939,1,56437,1,47837,52133,47603.73,50924.01,233.27,1208.99,0.39808,99.68,1
2226979,1,56477,1,47848,52170,47604.21,50926.5,243.79,1243.5,0.39758,99.69,1
2227019,1,56517,1,47863,52210,47604.73,50929.07,258.27,1280.93,0.39708,99.7,1
2227059,1,56557,1,47878,52242,47605.28,50931.7,272.72,1310.3,0.396581,99.71,1
2227099,1,56597,1,47899,52249,47605.87,50934.33,293.13,1314.67,0.396085,99.71,1
2227139,1,56637,1,48032,52166,47606.72,50936.8,425.28,1229.2,0.3956,99.72,1
2227179,1,56677,1,48108,52080,47607.73,50939.09,500.27,1140.91,0.395134,99.73,1
2227219,1,56717,1,47804,52046,47608.12,50941.3,195.88,1104.7,0.394668,99.74,1
2227259,1,56757,1,47791,52041,47608.49,50943.5,182.51,1097.5,0.394201,99.75,1
2227299,1,56797,1,47787,52026,47608.85,50945.67,178.15,1080.33,0.393732,99.75,1
2227339,1,56837,1,47787,52037,47609.21,50947.85,177.79,1089.15,0.393263,99.76,1
2227379,1,56877,1,47665,52061,47609.32,50950.08,55.68,1110.92,0.39279,99.77,1
2227419,1,56917,1,47793,52064,47609.69,50952.31,183.31,1111.69,0.392316,99.78,1
2227459,1,56957,1,47790,52061,47610.05,50954.53,179.95,1106.47,0.391841,99.78,1
2227500,1,56998,1,47786,52064,47610.4,50956.75,175.6,1107.25,0.391364,99.79,1
2227540,1,57038,1,47334,52085,47609.85,50959,-275.85,1126,0.390891,99.8,1
2227580,1,57078,1,47144,52113,47608.92,50961.31,-464.92,1151.69,0.390433,99.8,1
2227620,1,57118,1,47814,52154,47609.33,50963.7,204.67,1190.3,0.389974,99.81,1
2227660,1,57158,1,47825,52184,47609.77,50966.14,215.23,1217.86,0.389513,99.81,1
2227700,1,57198,1,47841,52208,47610.23,50968.62,230.77,1239.38,0.389053,99.82,1
2227740,1,57238,1,47854,52237,47610.72,50971.16,243.28,1265.84,0.388592,99.82,1
2227780,1,57278,1,47866,52265,47611.23,50973.75,254.77,1291.25,0.388131,99.83,1
2227820,1,57318,1,47873,52292,47611.75,50976.39,261.25,1315.61,0.38767,99.83,1
2227860,1,57358,1,47889,52325,47612.31,50979.09,276.69,1345.91,0.38721,99.84,1
2227900,1,57398,1,47905,52357,47612.89,50981.85,292.11,1375.15,0.386751,99.84,1
2227940,1,57438,1,47917,52370,47613.5,50984.62,303.5,1385.38,0.386293,99.85,1
2227980,1,57478,1,47909,52304,47614.1,50987.27,294.9,1316.73,0.385837,99.85,1
2228020,1,57518,1,47863,52223,47614.6,50989.74,248.4,1233.26,0.385382,99.86,1
2228060,1,57558,1,47833,52181,47615.04,50992.12,217.96,1188.88,0.384926,99.86,1
2228100,1,57598,1,47820,52167,47615.45,50994.47,204.55,1172.53,0.38447,99.87,1
2228140,1,57638,1,47814,52158,47615.84,50996.8,198.16,1161.2,0.384013,99.87,1
2228180,1,57678,1,47806,52159,47616.23,50999.12,189.77,1159.88,0.383555,99.87,1
2228220,1,57718,1,47811,52184,47616.62,51001.5,194.38,1182.5,0.383097,99.88,1
2228261,1,57759,1,47821,52189,47617.03,51003.87,203.97,1185.13,0.382638,99.88,1
2228301,1,57799,1,47818,52182,47617.43,51006.23,200.57,1175.77,0.382179,99.89,1
2228341,1,57839,1,47815,52189,47617.82,51008.6,197.18,1180.4,0.381719,99.89,1
2228381,1,57879,1,47815,52210,47618.22,51011,196.78,1199,0.381258,99.89,1
2228421,1,57919,1,47824,52241,47618.63,51013.46,205.37,1227.54,0.380797,99.9,1
2228461,1,57959,1,47838,52269,47619.07,51015.97,218.93,1253.03,0.380335,99.9,1
2228501,1,57999,1,47853,52296,47619.54,51018.54,233.46,1277.46,0.379873,99.9,1
2228541,1,58039,1,47860,52329,47620.02,51021.16,239.98,1307.84,0.379412,99.9,1
2228581,1,58079,1,47869,52348,47620.52,51023.81,248.48,1324.19,0.37895,99.91,1
2228621,1,58119,1,47887,52380,47621.06,51026.53,265.94,1353.47,0.378489,99.91,1
2228661,1,58159,1,47899,52399,47621.62,51029.27,277.38,1369.73,0.378029,99.91,1
2228701,1,58199,1,47912,52424,47622.2,51032.06,289.8,1391.94,0.37757,99.92,1
2228741,1,58239,1,47921,52451,47622.8,51034.9,298.2,1416.1,0.377113,99.92,1
2228781,1,58279,1,47923,52423,47623.4,51037.68,299.6,1385.32,0.376657,99.92,1
2228821,1,58319,1,47885,52330,47623.92,51040.27,261.08,1289.73,0.376202,99.92,1
2228861,1,58359,1,47852,52273,47624.38,51042.73,227.62,1230.27,0.375748,99.93,1
2228901,1,58399,1,47833,52260,47624.8,51045.17,208.2,1214.83,0.375294,99.93,1
2228941,1,58439,1,47823,52246,47625.2,51047.57,197.8,1198.43,0.374839,99.93,1
2228981,1,58479,1,47816,52239,47625.58,51049.95,190.42,1189.05,0.374383,99.93,1
2229021,1,58519,1,47816,52256,47625.96,51052.37,190.04,1203.63,0.373927,99.93,1
2229062,1,58560,1,47825,52271,47626.36,51054.8,198.64,1216.2,0.373471,99.94,1
2229102,1,58600,1,47822,52264,47626.75,51057.22,195.25,1206.78,0.373015,99.94,1
2229142,1,58640,1,47819,52270,47627.14,51059.65,191.86,1210.35,0.372557,99.94,1
2229182,1,58680,1,47818,52287,47627.52,51062.11,190.48,1224.89,0.3721,99.94,1
2229222,1,58720,1,47828,52306,47627.92,51064.59,200.08,1241.41,0.371642,99.94,1
2229262,1,58760,1,47843,52337,47628.35,51067.14,214.65,1269.86,0.371183,99.94,1
2229302,1,58800,1,47853,52365,47628.8,51069.74,224.2,1295.26,0.370725,99.95,1
2229342,1,58840,1,47862,52390,47629.27,51072.38,232.73,1317.62,0.370267,99.95,1
2229382,1,58880,1,47873,52416,47629.76,51075.07,243.24,1340.93,0.369809,99.95,1
2229422,1,58920,1,47889,52431,47630.28,51077.78,258.72,1353.22,0.369352,99.95,1
2229462,1,58960,1,47899,52454,47630.82,51080.54,268.18,1373.46,0.368896,99.95,1
2229502,1,59000,1,47910,52478,47631.37,51083.33,278.62,1394.67,0.368441,99.95,1
2229542,1,59040,1,47914,52504,47631.94,51086.18,282.06,1417.82,0.367987,99.96,1
2229582,1,59080,1,47919,52493,47632.52,51088.99,286.48,1404.01,0.367535,99.96,1
2229622,1,59120,1,47897,52402,47633.05,51091.62,263.95,1310.38,0.367084,99.96,1
2229662,1,59160,1,47849,52340,47633.48,51094.12,215.52,1245.88,0.366634,99.96,1
2229702,1,59200,1,47823,52309,47633.86,51096.55,189.14,1212.45,0.366183,99.96,1
2229742,1,59240,1,47814,52292,47634.22,51098.94,179.78,1193.06,0.365731,99.96,1
2229782,1,59280,1,47811,52279,47634.58,51101.3,176.42,1177.7,0.36528,99.96,1
2229823,1,59321,1,47806,52290,47634.92,51103.68,171.08,1186.32,0.364827,99.96,1
2229863,1,59361,1,47808,52372,47635.27,51106.22,172.73,1265.78,0.364374,99.97,1
2229903,1,59401,1,47812,52309,47635.62,51108.63,176.37,1200.37,0.363921,99.97,1
2229943,1,59441,1,47808,52310,47635.97,51111.03,172.03,1198.97,0.363466,99.97,1
2229983,1,59481,1,47809,52320,47636.32,51113.45,172.68,1206.55,0.363012,99.97,1
2230023,1,59521,1,47820,52706,47636.69,51116.64,183.31,1589.36,0.362554,99.97,1
2230063,1,59561,1,47831,52814,47637.08,51120.03,193.92,1693.97,0.362093,99.97,1
2230103,1,59601,1,47840,52409,47637.48,51122.61,202.52,1286.39,0.361632,99.97,1
2230143,1,59641,1,47855,52427,47637.92,51125.22,217.08,1301.78,0.361171,99.97,1
2230183,1,59681,1,47864,52448,47638.37,51127.87,225.62,1320.13,0.36071,99.97,1
2230223,1,59721,1,47875,52216,47638.85,51130.04,236.15,1085.96,0.360252,99.97,1
2230263,1,59761,1,47889,52126,47639.35,51132.04,249.65,993.96,0.359796,99.97,1
2230303,1,59801,1,47897,52520,47639.86,51134.81,257.14,1385.19,0.359342,99.98,1
2230343,1,59841,1,47904,52517,47640.39,51137.58,263.61,1379.42,0.358889,99.98,1
2230383,1,59881,1,47885,52448,47640.89,51140.2,244.11,1307.8,0.358437,99.98,1
2230423,1,59921,1,47848,52369,47641.3,51142.66,206.7,1226.34,0.357985,99.98,1
2230463,1,59961,1,47818,52343,47641.66,51145.06,176.34,1197.94,0.357533,99.98,1
2230503,1,60001,2,47806,52330,47641.98,51147.43,164.02,1182.57,0.357081,99.98,1
2230543,1,60041,2,47797,52309,47642.3,51149.75,154.7,1159.25,0.356629,99.98,1
2230584,1,60082,2,47793,52318,47642.6,51152.09,150.4,1165.91,0.356176,99.98,1
2230624,1,60122,2,47799,52341,47642.91,51154.47,156.09,1186.53,0.355723,99.98,1
2230664,1,60162,2,47800,52345,47643.23,51156.85,156.77,1188.15,0.355269,99.98,1
2230704,1,60202,2,47796,52342,47643.54,51159.22,152.46,1182.78,0.354815,99.98,1
2230744,1,60242,2,48089,52357,47644.43,51161.62,444.57,1195.38,0.354371,99.98,1
2230784,1,60282,2,48246,52383,47645.63,51164.07,600.37,1218.93,0.35395,99.98,1
2230824,1,60322,2,47819,52404,47645.98,51166.55,173.02,1237.45,0.353527,99.98,1
2230864,1,60362,2,47831,52433,47646.35,51169.08,184.65,1263.92,0.353104,99.98,1
2230904,1,60402,2,47843,52451,47646.74,51171.65,196.26,1279.35,0.352681,99.98,1
2230944,1,60442,2,47624,52476,47646.7,51174.26,-22.7,1301.74,0.352255,99.98,1
2230984,1,60482,2,47445,52505,47646.3,51176.92,-201.3,1328.08,0.351828,99.99,1
2231024,1,60522,2,47868,52516,47646.74,51179.6,221.26,1336.4,0.351401,99.99,1
2231064,1,60562,2,47878,52503,47647.21,51182.25,230.79,1320.75,0.350975,99.99,1
2231104,1,60602,2,47849,52434,47647.61,51184.75,201.39,1249.25,0.350549,99.99,1
2231144,1,60642,2,47811,52377,47647.94,51187.14,163.06,1189.86,0.350123,99.99,1
2231184,1,60682,2,47791,52352,47648.23,51189.47,142.77,1162.53,0.349695,99.99,1
2231225,1,60723,2,47786,52345,47648.51,51191.79,137.49,1153.21,0.349268,99.99,1
2231265,1,60763,2,47778,52334,47648.77,51194.07,129.23,1139.93,0.348839,99.99,1
2231305,1,60803,2,47783,52355,47649.04,51196.39,133.96,1158.61,0.34841,99.99,1
2231345,1,60843,2,47788,52381,47649.32,51198.77,138.68,1182.23,0.347979,99.99,1
2231385,1,60883,2,47793,52377,47649.61,51201.12,143.39,1175.88,0.347549,99.99,1
2231425,1,60923,2,47790,52380,47649.89,51203.48,140.11,1176.52,0.347117,99.99,1
2231465,1,60963,2,47794,52399,47650.18,51205.87,143.82,1193.13,0.346685,99.99,1
2231505,1,61003,2,47804,52429,47650.48,51208.32,153.52,1220.68,0.346252,99.99,1
2231545,1,61043,2,47815,52454,47650.82,51210.82,164.18,1243.18,0.345819,99.99,1
2231585,1,61083,2,47831,52479,47651.18,51213.36,179.82,1265.64,0.345385,99.99,1
2231625,1,61123,2,47842,52503,47651.56,51215.94,190.44,1287.06,0.344952,99.99,1
2231665,1,61163,2,47853,52523,47651.96,51218.55,201.04,1304.45,0.344518,99.99,1
2231705,1,61203,2,47863,52549,47652.39,51221.22,210.61,1327.78,0.344084,99.99,1
2231745,1,61243,2,47871,52564,47652.82,51223.91,218.18,1340.09,0.344084,99.99,0
2231785,1,61283,2,47869,52527,47653.26,51226.52,215.74,1300.48,0.344084,99.99,0
2231825,1,61323,2,47835,52447,47653.62,51228.96,181.38,1218.04,0.344084,99.99,0
2231865,1,61363,2,47803,52412,47653.92,51231.32,149.08,1180.68,0.344084,99.99,0
