t_ms,trial_id,t_trial_ms,phase,red_raw,ir_raw,red_dc,ir_dc,red_ac,ir_ac,R,spo2,spo2_valid
327088,1,0,0,52230,56257,52034.87,55744.71,195.12,512.29,0.406700,99.70,1
327129,1,41,0,52251,56303,52035.31,55745.83,215.69,557.17,0.406560,99.71,1
327169,1,81,0,52264,56351,52035.77,55747.04,228.23,603.96,0.406423,99.71,1
327209,1,121,0,52278,56401,52036.25,55748.35,241.75,652.65,0.406287,99.72,1
327249,1,161,0,52299,56453,52036.78,55749.76,262.22,703.24,0.406153,99.72,1
327289,1,201,0,52312,56414,52037.33,55751.09,274.67,662.91,0.406023,99.72,1
327329,1,241,0,52269,56258,52037.79,55752.10,231.21,505.90,0.405896,99.73,1
327369,1,281,0,52225,56237,52038.17,55753.07,186.83,483.93,0.405771,99.73,1
327409,1,321,0,52245,56315,52038.58,55754.20,206.42,560.80,0.405646,99.74,1
327449,1,361,0,52280,56371,52039.07,55755.43,240.93,615.57,0.405525,99.74,1
327489,1,401,0,52290,56394,52039.57,55756.71,250.43,637.29,0.405405,99.74,1
327529,1,441,0,52307,56428,52040.11,55758.05,266.89,669.95,0.405288,99.75,1
327569,1,481,0,52313,56445,52040.65,55759.43,272.35,685.57,0.405175,99.75,1
327609,1,521,0,52310,56453,52041.19,55760.82,268.81,692.18,0.405063,99.75,1
327649,1,561,0,52319,56476,52041.75,55762.25,277.25,713.75,0.404954,99.76,1
327689,1,601,0,52329,56505,52042.32,55763.74,286.68,741.26,0.404848,99.76,1
327729,1,641,0,52340,56547,52042.92,55765.30,297.08,781.70,0.404743,99.76,1
327769,1,681,0,52350,56581,52043.54,55766.94,306.46,814.06,0.404641,99.77,1
327809,1,721,0,52360,56617,52044.17,55768.64,315.83,848.36,0.404541,99.77,1
327850,1,762,0,52369,56647,52044.82,55770.40,324.18,876.60,0.404443,99.78,1
327890,1,802,0,52377,56685,52045.49,55772.23,331.51,912.77,0.404346,99.78,1
327930,1,842,0,52389,56722,52046.18,55774.13,342.82,947.87,0.404251,99.78,1
327970,1,882,0,52398,56760,52046.88,55776.11,351.12,983.89,0.404156,99.79,1
328010,1,922,0,52414,56795,52047.61,55778.14,366.39,1016.86,0.404063,99.79,1
328050,1,962,0,52420,56749,52048.36,55780.09,371.64,968.91,0.403973,99.79,1
328090,1,1002,0,52379,56637,52049.02,55781.80,329.98,855.20,0.403886,99.80,1
328130,1,1042,0,52351,56635,52049.63,55783.51,301.37,851.49,0.403799,99.80,1
328170,1,1082,0,52376,56707,52050.28,55785.36,325.72,921.64,0.403712,99.80,1
328210,1,1122,0,52405,56749,52050.99,55787.29,354.01,961.71,0.403628,99.81,1
328250,1,1162,0,52407,56758,52051.71,55789.23,355.29,968.77,0.403544,99.81,1
328290,1,1202,0,52412,56769,52052.43,55791.19,359.57,977.81,0.403462,99.81,1
328330,1,1242,0,52411,56764,52053.15,55793.13,357.85,970.87,0.403382,99.81,1
328370,1,1282,0,52410,56788,52053.86,55795.12,356.14,992.87,0.403302,99.82,1
328410,1,1322,0,52418,56844,52054.59,55797.22,363.41,1046.78,0.403222,99.82,1
328450,1,1362,0,52437,56893,52055.36,55799.41,381.64,1093.59,0.403143,99.82,1
328490,1,1402,0,52446,56927,52056.14,55801.67,389.86,1125.33,0.403063,99.83,1
328531,1,1443,0,52460,56964,52056.95,55804.00,403.05,1160.00,0.402983,99.83,1
328571,1,1483,0,52466,56974,52057.77,55806.34,408.23,1167.66,0.402903,99.83,1
328611,1,1523,0,52459,56985,52058.57,55808.70,400.43,1176.30,0.402823,99.84,1
328651,1,1563,0,52462,56989,52059.38,55811.06,402.62,1177.94,0.402742,99.84,1
328691,1,1603,0,52464,57007,52060.20,55813.45,403.80,1193.55,0.402660,99.84,1
328731,1,1643,0,52469,57030,52061.02,55815.89,407.98,1214.11,0.402577,99.84,1
328771,1,1683,0,52482,57064,52061.86,55818.38,420.14,1245.62,0.402494,99.85,1
328811,1,1723,0,52485,56992,52062.71,55820.73,422.29,1171.27,0.402411,99.85,1
328851,1,1763,0,52436,56869,52063.45,55822.83,372.55,1046.17,0.402330,99.85,1
328891,1,1803,0,52409,56854,52064.14,55824.89,344.86,1029.11,0.402247,99.86,1
328931,1,1843,0,52422,56909,52064.86,55827.06,357.14,1081.94,0.402164,99.86,1
328971,1,1883,0,52436,56928,52065.61,55829.26,370.39,1098.74,0.402080,99.86,1
329011,1,1923,0,52436,56934,52066.35,55831.47,369.65,1102.53,0.401996,99.86,1
329051,1,1963,0,52435,56936,52067.09,55833.68,367.91,1102.32,0.401910,99.87,1
329091,1,2003,0,52431,56925,52067.82,55835.87,363.18,1089.13,0.401824,99.87,1
329131,1,2043,0,52423,56921,52068.53,55838.04,354.47,1082.96,0.401738,99.87,1
329172,1,2084,0,52424,56936,52069.24,55840.24,354.76,1095.76,0.401649,99.87,1
329212,1,2124,0,52428,56963,52069.96,55842.48,358.04,1120.52,0.401560,99.88,1
329252,1,2164,0,52439,56993,52070.70,55844.79,368.30,1148.21,0.401469,99.88,1
329292,1,2204,0,52446,57016,52071.45,55847.13,374.55,1168.87,0.401376,99.88,1
329332,1,2244,0,52449,57031,52072.21,55849.50,376.79,1181.50,0.401282,99.88,1
329372,1,2284,0,52458,57053,52072.98,55851.91,385.02,1201.09,0.401187,99.89,1
329412,1,2324,0,52459,57084,52073.75,55854.37,385.25,1229.63,0.401090,99.89,1
329452,1,2364,0,52468,57108,52074.54,55856.88,393.46,1251.12,0.400990,99.89,1
329492,1,2404,0,52481,57130,52075.36,55859.43,405.64,1270.57,0.400890,99.89,1
329532,1,2444,0,52486,57146,52076.18,55862.00,409.82,1284.00,0.400788,99.90,1
329572,1,2484,0,52477,57052,52076.98,55864.39,400.02,1187.61,0.400685,99.90,1
329612,1,2524,0,52429,56969,52077.69,55866.60,351.31,1102.40,0.400582,99.90,1
329652,1,2564,0,52418,56993,52078.37,55868.85,339.62,1124.15,0.400477,99.91,1
329692,1,2604,0,52440,57049,52079.10,55871.21,360.90,1177.79,0.400371,99.91,1
329732,1,2644,0,52452,57078,52079.84,55873.63,372.16,1204.37,0.400262,99.91,1
329772,1,2684,0,52453,57095,52080.59,55876.07,372.41,1218.93,0.400152,99.91,1
329812,1,2724,0,52454,57089,52081.34,55878.50,372.66,1210.50,0.400041,99.92,1
329853,1,2765,0,52448,57081,52082.07,55880.91,365.93,1200.09,0.399927,99.92,1
329893,1,2805,0,52443,57090,52082.80,55883.32,360.20,1206.68,0.399812,99.92,1
329933,1,2845,0,52444,57118,52083.52,55885.80,360.48,1232.20,0.399694,99.92,1
329973,1,2885,0,52451,57157,52084.25,55888.34,366.75,1268.66,0.399574,99.93,1
330013,1,2925,0,52469,57185,52085.02,55890.93,383.98,1294.07,0.399452,99.93,1
330053,1,2965,0,52478,57212,52085.81,55893.58,392.19,1318.42,0.399327,99.93,1
330093,1,3005,0,52481,57237,52086.61,55896.27,394.39,1340.73,0.399200,99.93,1
330133,1,3045,0,52494,57258,52087.42,55898.99,406.58,1359.01,0.399071,99.93,1
330173,1,3085,0,52498,57273,52088.25,55901.74,409.75,1371.26,0.398940,99.94,1
330213,1,3125,0,52503,57287,52089.08,55904.52,413.92,1382.48,0.398807,99.94,1
330253,1,3165,0,52503,57305,52089.91,55907.32,413.09,1397.68,0.398673,99.94,1
330293,1,3205,0,52488,57205,52090.70,55909.91,397.30,1295.09,0.398537,99.94,1
330333,1,3245,0,52450,57128,52091.42,55912.35,358.58,1215.65,0.398400,99.94,1
330373,1,3285,0,52439,57158,52092.12,55914.84,346.88,1243.16,0.398260,99.94,1
330413,1,3325,0,52452,57224,52092.84,55917.46,359.16,1306.54,0.398118,99.95,1
330453,1,3365,0,52470,57265,52093.59,55920.16,376.41,1344.84,0.397973,99.95,1
330494,1,3406,0,52476,57281,52094.36,55922.88,381.64,1358.12,0.397826,99.95,1
330534,1,3446,0,52480,57277,52095.13,55925.59,384.87,1351.41,0.397677,99.95,1
330574,1,3486,0,52469,57277,52095.88,55928.30,373.12,1348.70,0.397526,99.95,1
330614,1,3526,0,52464,57275,52096.62,55930.99,367.38,1344.01,0.397372,99.95,1
330654,1,3566,0,52469,57302,52097.37,55933.73,371.63,1368.27,0.397215,99.96,1
330694,1,3606,0,52480,57339,52098.13,55936.55,381.87,1402.45,0.397056,99.96,1
330734,1,3646,0,52489,57367,52098.91,55939.41,390.09,1427.59,0.396894,99.96,1
330774,1,3686,0,52498,57386,52099.71,55942.30,398.29,1443.70,0.396730,99.96,1
330814,1,3726,0,52504,57402,52100.52,55945.23,403.48,1456.77,0.396564,99.96,1
330854,1,3766,0,52508,57414,52101.34,55948.16,406.66,1465.84,0.396395,99.96,1
330894,1,3806,0,52512,57425,52102.16,55951.12,409.84,1473.88,0.396224,99.96,1
330934,1,3846,0,52509,57443,52102.98,55954.11,406.02,1488.89,0.396051,99.96,1
330974,1,3886,0,52515,57450,52103.80,55957.10,411.20,1492.90,0.395876,99.97,1
331014,1,3926,0,52496,57342,52104.59,55959.87,391.41,1382.13,0.395700,99.97,1
331054,1,3966,0,52450,57255,52105.28,55962.46,344.72,1292.54,0.395522,99.97,1
331094,1,4006,0,52432,57281,52105.94,55965.09,326.06,1315.91,0.395341,99.97,1
331134,1,4046,0,52450,57347,52106.63,55967.86,343.37,1379.14,0.395158,99.97,1
331175,1,4087,0,52471,57376,52107.36,55970.68,363.64,1405.32,0.394972,99.97,1
331215,1,4127,0,52467,57390,52108.08,55973.52,358.92,1416.48,0.394783,99.97,1
331255,1,4167,0,52466,57399,52108.80,55976.37,357.20,1422.63,0.394592,99.97,1
331295,1,4207,0,52466,57390,52109.51,55979.20,356.49,1410.80,0.394399,99.97,1
331335,1,4247,0,52462,57394,52110.22,55982.03,351.78,1411.97,0.394203,99.97,1
331375,1,4287,0,52466,57420,52110.93,55984.91,355.07,1435.09,0.394005,99.97,1
331415,1,4327,0,52472,57454,52111.66,55987.85,360.34,1466.15,0.393803,99.98,1
331455,1,4367,0,52487,57476,52112.41,55990.82,374.59,1485.18,0.393600,99.98,1
331495,1,4407,0,52492,57493,52113.17,55993.83,378.83,1499.17,0.393394,99.98,1
331535,1,4447,0,52495,57519,52113.94,55996.88,381.06,1522.12,0.393185,99.98,1
331575,1,4487,0,52500,57536,52114.71,55999.96,385.29,1536.04,0.392974,99.98,1
331615,1,4527,0,52501,57548,52115.48,56003.05,385.52,1544.95,0.392761,99.98,1
331655,1,4567,0,52509,57558,52116.27,56006.17,392.73,1551.83,0.392545,99.98,1
331695,1,4607,0,52500,57492,52117.04,56009.14,382.96,1482.86,0.392328,99.98,1
331735,1,4647,0,52449,57372,52117.71,56011.87,331.29,1360.13,0.392110,99.98,1
331775,1,4687,0,52420,57357,52118.31,56014.56,301.69,1342.44,0.391888,99.98,1
331816,1,4728,0,52428,57412,52118.93,56017.36,309.07,1394.64,0.391664,99.98,1
331856,1,4768,0,52445,57457,52119.59,56020.23,325.41,1436.77,0.391438,99.98,1
331896,1,4808,0,52452,57477,52120.25,56023.15,331.75,1453.85,0.391209,99.98,1
331936,1,4848,0,52455,57483,52120.93,56026.07,334.07,1456.93,0.390977,99.98,1
331976,1,4888,0,52453,57478,52121.59,56028.98,331.41,1449.02,0.390743,99.98,1
332016,1,4928,0,52447,57466,52122.24,56031.85,324.76,1434.15,0.390507,99.98,1
332056,1,4968,0,52444,57484,52122.89,56034.76,321.11,1449.24,0.390269,99.98,1
332096,1,5008,0,52449,57513,52123.54,56037.71,325.46,1475.29,0.390027,99.99,1
332136,1,5048,0,52461,57533,52124.21,56040.71,336.79,1492.29,0.389783,99.99,1
332176,1,5088,0,52468,57554,52124.90,56043.73,343.10,1510.27,0.389537,99.99,1
332216,1,5128,0,52470,57566,52125.59,56046.78,344.41,1519.22,0.389289,99.99,1
332256,1,5168,0,52471,57585,52126.29,56049.86,344.71,1535.14,0.389038,99.99,1
332296,1,5208,0,52472,57593,52126.98,56052.95,345.02,1540.05,0.388785,99.99,1
332336,1,5248,0,52472,57599,52127.67,56056.04,344.33,1542.96,0.388530,99.99,1
332376,1,5288,0,52467,57548,52128.35,56059.02,338.65,1488.98,0.388273,99.99,1
332416,1,5328,0,52420,57421,52128.93,56061.75,291.07,1359.25,0.388014,99.99,1
332456,1,5368,0,52383,57383,52129.44,56064.39,253.56,1318.61,0.387753,99.99,1
332497,1,5409,0,52384,57429,52129.95,56067.12,254.05,1361.88,0.387489,99.99,1
332537,1,5449,0,52401,57469,52130.50,56069.93,270.50,1399.07,0.387222,99.99,1
332577,1,5489,0,52411,57489,52131.06,56072.77,279.94,1416.23,0.386953,99.99,1
332617,1,5529,0,52408,57501,52131.61,56075.63,276.39,1425.37,0.386682,99.99,1
332657,1,5569,0,52406,57484,52132.16,56078.45,273.84,1405.55,0.386408,99.99,1
332697,1,5609,0,52401,57470,52132.70,56081.23,268.30,1388.77,0.386132,99.99,1
332737,1,5649,0,52395,57475,52133.23,56084.02,261.77,1390.98,0.385853,99.99,1
332777,1,5689,0,52396,57497,52133.76,56086.85,262.24,1410.15,0.385572,99.99,1
332817,1,5729,0,52404,57519,52134.30,56089.71,269.70,1429.29,0.385289,99.99,1
332857,1,5769,0,52410,57525,52134.86,56092.59,275.14,1432.41,0.385003,99.99,1
332897,1,5809,0,52408,57531,52135.40,56095.46,272.60,1435.54,0.384716,99.99,1
332937,1,5849,0,52411,57543,52135.95,56098.36,275.05,1444.64,0.384425,99.99,1
332977,1,5889,0,52405,57543,52136.49,56101.25,268.51,1441.75,0.384133,99.99,1
333017,1,5929,0,52403,57549,52137.03,56104.15,265.97,1444.85,0.383838,99.99,1
333057,1,5969,0,52401,57501,52137.55,56106.95,263.45,1394.05,0.383541,99.99,1
333097,1,6009,0,52359,57372,52138.00,56109.48,221.00,1262.52,0.383242,99.99,1
333137,1,6049,0,52316,57317,52138.36,56111.90,177.64,1205.10,0.382942,99.99,1
333177,1,6089,0,52309,57353,52138.70,56114.38,170.30,1238.62,0.382639,99.99,1
333218,1,6130,0,52323,57390,52139.07,56116.93,183.93,1273.07,0.382333,99.99,1
333258,1,6170,0,52328,57392,52139.45,56119.48,188.55,1272.52,0.382025,99.99,1
333298,1,6210,0,52319,57384,52139.81,56122.02,179.19,1261.98,0.381716,99.99,1
333338,1,6250,0,52310,57363,52140.15,56124.50,169.85,1238.50,0.381403,99.99,1
333378,1,6290,0,52294,57329,52140.46,56126.91,153.54,1202.09,0.381089,99.99,1
333418,1,6330,0,52286,57322,52140.75,56129.30,145.25,1192.70,0.380772,99.99,1
333458,1,6370,0,52284,57341,52141.04,56131.73,142.96,1209.27,0.380454,99.99,1
333498,1,6410,0,52285,57350,52141.33,56134.16,143.67,1215.84,0.380132,99.99,1
333538,1,6450,0,52282,57356,52141.61,56136.61,140.39,1219.39,0.379809,100.00,1
333578,1,6490,0,52287,57358,52141.90,56139.05,145.10,1218.95,0.379483,100.00,1
333618,1,6530,0,52285,57357,52142.19,56141.49,142.81,1215.51,0.379155,100.00,1
333658,1,6570,0,52281,57367,52142.47,56143.95,138.53,1223.05,0.378825,100.00,1
333698,1,6610,0,52276,57363,52142.74,56146.39,133.26,1216.61,0.378492,100.00,1
333738,1,6650,0,52258,57247,52142.97,56148.59,115.03,1098.41,0.378158,100.00,1
333778,1,6690,0,52208,57132,52143.10,56150.56,64.90,981.44,0.377822,100.00,1
333818,1,6730,0,52176,57123,52143.17,56152.50,32.83,970.50,0.377484,100.00,1
333858,1,6770,0,52176,57152,52143.23,56154.50,32.77,997.50,0.377145,100.00,1
333898,1,6810,0,52176,57161,52143.30,56156.52,32.70,1004.48,0.376804,100.00,1
333939,1,6851,0,52174,57150,52143.36,56158.51,30.64,991.49,0.376462,100.00,1
333979,1,6891,0,52163,57126,52143.40,56160.45,19.60,965.55,0.376118,100.00,1
334019,1,6931,0,52144,57092,52143.41,56162.31,0.59,929.69,0.375773,100.00,1
334059,1,6971,0,52133,57077,52143.39,56164.14,-10.39,912.86,0.375426,100.00,1
334099,1,7011,0,52125,57079,52143.35,56165.97,-18.35,913.03,0.375078,100.00,1
334139,1,7051,0,52130,57095,52143.33,56167.83,-13.33,927.17,0.374729,100.00,1
334179,1,7091,0,52130,57109,52143.30,56169.71,-13.30,939.29,0.374379,100.00,1
334219,1,7131,0,52129,57115,52143.28,56171.61,-14.28,943.39,0.374027,100.00,1
334259,1,7171,0,52136,57123,52143.27,56173.51,-7.27,949.49,0.373673,100.00,1
334299,1,7211,0,52139,57122,52143.26,56175.41,-4.26,946.59,0.373318,100.00,1
334339,1,7251,0,52137,57119,52143.25,56177.29,-6.25,941.71,0.372962,100.00,1
334379,1,7291,0,52113,56990,52143.19,56178.92,-30.19,811.08,0.372605,100.00,1
334419,1,7331,0,52057,56872,52143.02,56180.30,-86.02,691.70,0.372249,100.00,1
334459,1,7371,0,52031,56857,52142.79,56181.66,-111.79,675.34,0.371892,100.00,1
334499,1,7411,0,52032,56891,52142.57,56183.08,-110.57,707.92,0.371536,100.00,1
334539,1,7451,0,52041,56901,52142.37,56184.52,-101.37,716.48,0.371181,100.00,1
334579,1,7491,0,52040,56900,52142.17,56185.95,-102.17,714.05,0.370825,100.00,1
334620,1,7532,0,52037,56885,52141.96,56187.35,-104.96,697.65,0.370469,100.00,1
334660,1,7572,0,52019,56861,52141.71,56188.70,-122.71,672.30,0.370115,100.00,1
334700,1,7612,0,52014,56849,52141.46,56190.02,-127.46,658.98,0.369760,100.00,1
334740,1,7652,0,52011,56862,52141.20,56191.36,-130.20,670.64,0.369407,100.00,1
334780,1,7692,0,52019,56880,52140.96,56192.74,-121.96,687.26,0.369054,100.00,1
334820,1,7732,0,52019,56896,52140.71,56194.15,-121.71,701.85,0.368701,100.00,1
334860,1,7772,0,52029,56917,52140.49,56195.59,-111.49,721.41,0.368349,100.00,1
334900,1,7812,0,52036,56932,52140.29,56197.07,-104.29,734.93,0.367997,100.00,1
334940,1,7852,0,52040,56945,52140.09,56198.56,-100.09,746.44,0.367644,100.00,1
334980,1,7892,0,52048,56927,52139.90,56200.02,-91.90,726.98,0.367292,100.00,1
335020,1,7932,0,52016,56759,52139.66,56201.14,-123.66,557.86,0.366940,100.00,1
335060,1,7972,0,51946,56628,52139.27,56202.00,-193.27,426.00,0.366592,100.00,1
335100,1,8012,0,51919,56618,52138.83,56202.83,-219.83,415.17,0.366246,100.00,1
335140,1,8052,0,51928,56639,52138.41,56203.70,-210.41,435.30,0.365904,100.00,1
335180,1,8092,0,51932,56628,52138.00,56204.55,-206.00,423.45,0.365564,100.00,1
335220,1,8132,0,51926,56624,52137.58,56205.39,-211.58,418.61,0.365228,100.00,1
335260,1,8172,0,51929,56621,52137.16,56206.23,-208.16,414.77,0.364894,100.00,1
335301,1,8213,0,51923,56602,52136.74,56207.02,-213.74,394.98,0.364564,100.00,1
335341,1,8253,0,51921,56590,52136.31,56207.79,-215.31,382.21,0.364237,100.00,1
335381,1,8293,0,51921,56606,52135.88,56208.58,-214.88,397.42,0.363913,100.00,1
335421,1,8333,0,51924,56639,52135.46,56209.45,-211.46,429.55,0.363593,100.00,1
335461,1,8373,0,51941,56656,52135.07,56210.34,-194.07,445.66,0.363275,100.00,1
335501,1,8413,0,51951,56682,52134.70,56211.29,-183.70,470.71,0.362959,100.00,1
335541,1,8453,0,51965,56708,52134.36,56212.28,-169.36,495.72,0.362645,100.00,1
335581,1,8493,0,51977,56728,52134.05,56213.31,-157.05,514.69,0.362332,100.00,1
335621,1,8533,0,51987,56748,52133.76,56214.38,-146.76,533.62,0.362021,100.00,1
335661,1,8573,0,51988,56665,52133.47,56215.29,-145.47,449.71,0.361711,100.00,1
335701,1,8613,0,51934,56481,52133.07,56215.82,-199.07,265.18,0.361405,100.00,1
335741,1,8653,0,51884,56425,52132.57,56216.23,-248.57,208.77,0.361103,100.00,1
335781,1,8693,0,51890,56448,52132.09,56216.70,-242.09,231.30,0.360806,100.00,1
335821,1,8733,0,51904,56450,52131.64,56217.17,-227.64,232.83,0.360513,100.00,1
335861,1,8773,0,51909,56431,52131.19,56217.60,-222.19,213.40,0.360223,100.00,1
335901,1,8813,0,51910,56453,52130.75,56218.07,-220.75,234.93,0.359938,100.00,1
335941,1,8853,0,51913,56445,52130.32,56218.53,-217.32,226.47,0.359656,100.00,1
335981,1,8893,0,51914,56429,52129.89,56218.95,-215.89,210.05,0.359378,100.00,1
336022,1,8934,0,51912,56432,52129.45,56219.37,-217.45,212.62,0.359103,100.00,1
336062,1,8974,0,51927,56462,52129.05,56219.86,-202.05,242.14,0.358832,100.00,1
336102,1,9014,0,51936,56492,52128.67,56220.41,-192.67,271.59,0.358564,100.00,1
336142,1,9054,0,51953,56518,52128.32,56221.01,-175.32,296.99,0.358299,100.00,1
336182,1,9094,0,51967,56539,52128.00,56221.64,-161.00,317.36,0.358035,100.00,1
336222,1,9134,0,51979,56565,52127.70,56222.33,-148.70,342.67,0.357774,100.00,1
336262,1,9174,0,51994,56592,52127.43,56223.07,-133.43,368.93,0.357513,100.00,1
336302,1,9214,0,52003,56580,52127.19,56223.79,-124.19,356.21,0.357255,100.00,1
336342,1,9254,0,51986,56433,52126.91,56224.21,-140.91,208.79,0.356998,100.00,1
336382,1,9294,0,51928,56317,52126.51,56224.39,-198.51,92.61,0.356744,100.00,1
336422,1,9334,0,51922,56334,52126.11,56224.61,-204.11,109.39,0.356495,100.00,1
336462,1,9374,0,51933,56352,52125.72,56224.87,-192.72,127.13,0.356248,100.00,1
336502,1,9414,0,51947,56344,52125.36,56225.11,-178.36,118.89,0.356005,100.00,1
336542,1,9454,0,51948,56358,52125.01,56225.37,-177.01,132.62,0.355764,100.00,1
336582,1,9494,0,51956,56366,52124.68,56225.66,-168.68,140.34,0.355527,100.00,1
336622,1,9534,0,51956,56364,52124.34,56225.93,-168.34,138.07,0.355292,100.00,1
336662,1,9574,0,51960,56371,52124.01,56226.23,-164.01,144.77,0.355059,100.00,1
336703,1,9615,0,51972,56393,52123.71,56226.56,-151.71,166.44,0.354829,100.00,1
336743,1,9655,0,51984,56421,52123.43,56226.95,-139.43,194.05,0.354601,100.00,1
336783,1,9695,0,51993,56453,52123.18,56227.41,-130.18,225.59,0.354374,100.00,1
336823,1,9735,0,52008,56483,52122.95,56227.92,-114.95,255.08,0.354149,100.00,1
336863,1,9775,0,52016,56498,52122.73,56228.46,-106.73,269.54,0.353925,100.00,1
336903,1,9815,0,52029,56524,52122.55,56229.05,-93.55,294.95,0.353702,100.00,1
336943,1,9855,0,52042,56554,52122.39,56229.71,-80.39,324.29,0.353480,100.00,1
336983,1,9895,0,52052,56561,52122.25,56230.37,-70.25,330.63,0.353258,100.00,1
337023,1,9935,0,52035,56435,52122.07,56230.78,-87.07,204.22,0.353037,100.00,1
337063,1,9975,0,51992,56337,52121.82,56231.00,-129.82,106.00,0.352818,100.00,1
337103,1,10015,0,51988,56353,52121.55,56231.24,-133.55,121.76,0.352601,100.00,1
337143,1,10055,0,52001,56385,52121.31,56231.55,-120.31,153.45,0.352386,100.00,1
337183,1,10095,0,52010,56381,52121.09,56231.85,-111.09,149.15,0.352173,100.00,1
337223,1,10135,0,52011,56400,52120.87,56232.19,-109.87,167.81,0.351961,100.00,1
337263,1,10175,0,52026,56412,52120.68,56232.55,-94.68,179.45,0.351750,100.00,1
337303,1,10215,0,52027,56404,52120.50,56232.89,-93.50,171.11,0.351540,100.00,1
337343,1,10255,0,52028,56416,52120.31,56233.26,-92.31,182.74,0.351332,100.00,1
337383,1,10295,0,52038,56445,52120.15,56233.68,-82.15,211.32,0.351124,100.00,1
337424,1,10336,0,52050,56472,52120.01,56234.16,-70.01,237.84,0.350917,100.00,1
337464,1,10376,0,52055,56496,52119.88,56234.68,-64.88,261.32,0.350711,100.00,1
337504,1,10416,0,52065,56520,52119.77,56235.25,-54.77,284.75,0.350505,100.00,1
337544,1,10456,0,52071,56539,52119.67,56235.86,-48.67,303.14,0.350300,100.00,1
337584,1,10496,0,52079,56553,52119.59,56236.50,-40.59,316.50,0.350094,100.00,1
337624,1,10536,0,52091,56580,52119.54,56237.19,-28.54,342.81,0.349889,100.00,1
337664,1,10576,0,52101,56603,52119.50,56237.92,-18.50,365.08,0.349683,100.00,1
337704,1,10616,0,52097,56522,52119.46,56238.49,-22.46,283.51,0.349478,100.00,1
337744,1,10656,0,52054,56410,52119.33,56238.84,-65.33,171.16,0.349273,100.00,1
337784,1,10696,0,52038,56420,52119.17,56239.20,-81.17,180.80,0.349070,100.00,1
337824,1,10736,0,52059,56462,52119.05,56239.64,-60.05,222.36,0.348867,100.00,1
337864,1,10776,0,52069,56469,52118.96,56240.11,-49.96,228.89,0.348664,100.00,1
337904,1,10816,0,52069,56489,52118.86,56240.61,-49.86,248.39,0.348462,100.00,1
337944,1,10856,0,52083,56501,52118.79,56241.13,-35.79,259.87,0.348261,100.00,1
337984,1,10896,0,52082,56493,52118.72,56241.63,-36.72,251.37,0.348059,100.00,1
338024,1,10936,0,52078,56504,52118.64,56242.16,-40.64,261.84,0.347858,100.00,1
338064,1,10976,0,52084,56532,52118.57,56242.74,-34.57,289.26,0.347657,100.00,1
338104,1,11016,0,52101,56564,52118.54,56243.39,-17.54,320.61,0.347456,100.00,1
338145,1,11057,0,52111,56588,52118.52,56244.08,-7.52,343.92,0.347255,100.00,1
338185,1,11097,0,52120,56617,52118.52,56244.82,1.48,372.18,0.347054,100.00,1
338225,1,11137,0,52128,56639,52118.54,56245.61,9.46,393.39,0.346852,100.00,1
338265,1,11177,0,52129,56661,52118.57,56246.45,10.43,414.55,0.346649,100.00,1
338305,1,11217,0,52148,56691,52118.62,56247.34,29.37,443.66,0.346446,100.00,1
338345,1,11257,0,52158,56715,52118.71,56248.27,39.29,466.73,0.346242,100.00,1
338385,1,11297,0,52148,56629,52118.77,56249.04,29.23,379.96,0.346038,100.00,1
338425,1,11337,0,52105,56539,52118.74,56249.62,-13.74,289.38,0.345834,100.00,1
338465,1,11377,0,52103,56567,52118.71,56250.25,-15.71,316.75,0.345629,100.00,1
338505,1,11417,0,52123,56606,52118.72,56250.97,4.28,355.03,0.345425,100.00,1
338545,1,11457,0,52136,56619,52118.75,56251.71,17.25,367.29,0.345219,100.00,1
338585,1,11497,0,52133,56645,52118.79,56252.50,14.21,392.50,0.345014,100.00,1
338625,1,11537,0,52149,56658,52118.85,56253.31,30.15,404.69,0.344808,100.00,1
338665,1,11577,0,52154,56652,52118.92,56254.11,35.08,397.89,0.344602,100.00,1
338705,1,11617,0,52150,56660,52118.98,56254.92,31.02,405.08,0.344395,100.00,1
338745,1,11657,0,52151,56675,52119.05,56255.76,31.95,419.24,0.344187,100.00,1
338785,1,11697,0,52157,56704,52119.12,56256.66,37.88,447.34,0.343979,100.00,1
338826,1,11738,0,52166,56729,52119.22,56257.61,46.78,471.39,0.343770,100.00,1
338866,1,11778,0,52172,56754,52119.32,56258.60,52.68,495.40,0.343560,100.00,1
338906,1,11818,0,52179,56789,52119.45,56259.66,59.55,529.34,0.343349,100.00,1
338946,1,11858,0,52190,56813,52119.59,56260.77,70.41,552.23,0.343137,100.00,1
338986,1,11898,0,52201,56851,52119.75,56261.96,81.25,589.04,0.342923,100.00,1
339026,1,11938,0,52219,56877,52119.95,56263.19,99.05,613.81,0.342709,100.00,1
339066,1,11978,0,52212,56815,52120.13,56264.29,91.87,550.71,0.342493,100.00,1
339106,1,12018,0,52174,56699,52120.24,56265.16,53.76,433.84,0.342278,100.00,1
339146,1,12058,0,52157,56698,52120.32,56266.03,36.68,431.97,0.342062,100.00,1
339186,1,12098,0,52172,56736,52120.42,56266.97,51.58,469.03,0.341845,100.00,1
339226,1,12138,0,52184,56751,52120.55,56267.94,63.45,483.06,0.341627,100.00,1
339266,1,12178,0,52186,56762,52120.68,56268.93,65.32,493.07,0.341408,100.00,1
339306,1,12218,0,52193,56791,52120.83,56269.98,72.17,521.02,0.341189,100.00,1
339346,1,12258,0,52200,56803,52120.99,56271.04,79.01,531.96,0.340969,100.00,1
339386,1,12298,0,52204,56808,52121.16,56272.12,82.84,535.88,0.340748,100.00,1
339426,1,12338,0,52205,56826,52121.32,56273.23,83.68,552.77,0.340527,100.00,1
339466,1,12378,0,52211,56861,52121.50,56274.40,89.50,586.60,0.340304,100.00,1
339506,1,12418,0,52225,56896,52121.71,56275.65,103.29,620.35,0.340080,100.00,1
339547,1,12459,0,52234,56915,52121.94,56276.93,112.06,638.07,0.339856,100.00,1
339587,1,12499,0,52239,56947,52122.17,56278.27,116.83,668.73,0.339630,100.00,1
339627,1,12539,0,52248,56979,52122.43,56279.67,125.57,699.33,0.339403,100.00,1
339667,1,12579,0,52255,57002,52122.69,56281.12,132.31,720.88,0.339176,100.00,1
339707,1,12619,0,52265,57038,52122.98,56282.63,142.02,755.37,0.338946,100.00,1
339747,1,12659,0,52281,57059,52123.29,56284.19,157.71,774.81,0.338717,100.00,1
339787,1,12699,0,52268,56961,52123.58,56285.54,144.42,675.46,0.338487,100.00,1
339827,1,12739,0,52220,56871,52123.78,56286.71,96.22,584.29,0.338256,100.00,1
339867,1,12779,0,52218,56894,52123.97,56287.93,94.03,606.07,0.338024,100.00,1
339907,1,12819,0,52233,56922,52124.19,56289.20,108.81,632.80,0.337792,100.00,1
339947,1,12859,0,52238,56924,52124.42,56290.47,113.58,633.53,0.337559,100.00,1
339987,1,12899,0,52230,56947,52124.63,56291.79,105.37,655.21,0.337324,100.00,1
340027,1,12939,0,52245,56962,52124.87,56293.13,120.13,668.87,0.337089,100.00,1
340067,1,12979,0,52251,56968,52125.12,56294.48,125.87,673.52,0.336853,100.00,1
340107,1,13019,0,52250,56974,52125.37,56295.84,124.62,678.16,0.336616,100.00,1
340147,1,13059,0,52252,56996,52125.63,56297.24,126.37,698.76,0.336378,100.00,1
340187,1,13099,0,52258,57018,52125.89,56298.68,132.11,719.32,0.336140,100.00,1
340228,1,13140,0,52268,57041,52126.18,56300.17,141.82,740.83,0.335901,100.00,1
340268,1,13180,0,52268,57059,52126.46,56301.69,141.54,757.31,0.335660,100.00,1
340308,1,13220,0,52276,57083,52126.77,56303.25,149.23,779.75,0.335419,100.00,1
340348,1,13260,0,52275,57101,52127.06,56304.85,147.94,796.15,0.335177,100.00,1
340388,1,13300,0,52287,57122,52127.38,56306.48,159.62,815.52,0.334933,100.00,1
340428,1,13340,0,52294,57150,52127.72,56308.17,166.28,841.83,0.334689,100.00,1
340468,1,13380,0,52304,57167,52128.07,56309.89,175.93,857.11,0.334445,100.00,1
340508,1,13420,0,52291,57071,52128.40,56311.41,162.60,759.59,0.334200,100.00,1
340548,1,13460,0,52249,56988,52128.64,56312.77,120.36,675.23,0.333955,100.00,1
340588,1,13500,0,52245,57013,52128.88,56314.17,116.12,698.83,0.333708,100.00,1
340628,1,13540,0,52260,57049,52129.14,56315.64,130.86,733.36,0.333461,100.00,1
340668,1,13580,0,52266,57055,52129.41,56317.12,136.59,737.87,0.333213,100.00,1
340708,1,13620,0,52265,57062,52129.69,56318.62,135.31,743.38,0.332964,100.00,1
340748,1,13660,0,52274,57079,52129.98,56320.14,144.02,758.86,0.332714,100.00,1
340788,1,13700,0,52270,57069,52130.26,56321.64,139.74,747.36,0.332464,100.00,1
340828,1,13740,0,52267,57078,52130.53,56323.16,136.47,754.84,0.332213,100.00,1
340868,1,13780,0,52269,57090,52130.81,56324.69,138.19,765.31,0.331961,100.00,1
340909,1,13821,0,52278,57112,52131.11,56326.27,146.89,785.73,0.331708,100.00,1
340949,1,13861,0,52279,57129,52131.40,56327.87,147.60,801.13,0.331455,100.00,1
340989,1,13901,0,52281,57143,52131.70,56329.50,149.30,813.50,0.331200,100.00,1
341029,1,13941,0,52283,57165,52132.01,56331.18,150.99,833.82,0.330944,100.00,1
341069,1,13981,0,52286,57172,52132.32,56332.86,153.68,839.14,0.330688,100.00,1
341109,1,14021,0,52293,57189,52132.64,56334.57,160.36,854.43,0.330430,100.00,1
341149,1,14061,0,52297,57211,52132.97,56336.33,164.03,874.67,0.330172,100.00,1
341189,1,14101,0,52301,57183,52133.30,56338.02,167.70,844.98,0.329913,100.00,1
341229,1,14141,0,52265,57074,52133.57,56339.50,131.43,734.50,0.329653,100.00,1
341269,1,14181,0,52238,57039,52133.78,56340.90,104.22,698.10,0.329393,100.00,1
341309,1,14221,0,52251,57085,52134.02,56342.39,116.98,742.61,0.329131,100.00,1
341349,1,14261,0,52265,57115,52134.28,56343.93,130.72,771.07,0.328868,100.00,1
341389,1,14301,0,52260,57119,52134.53,56345.48,125.47,773.52,0.328604,100.00,1
341429,1,14341,0,52269,57124,52134.80,56347.04,134.20,776.96,0.328340,100.00,1
341469,1,14381,0,52265,57121,52135.06,56348.59,129.94,772.41,0.328074,100.00,1
341509,1,14421,0,52255,57113,52135.30,56350.12,119.70,762.87,0.327807,100.00,1
341549,1,14461,0,52251,57122,52135.54,56351.67,115.46,770.33,0.327539,100.00,1
341589,1,14501,0,52255,57146,52135.78,56353.26,119.22,792.74,0.327269,100.00,1
341630,1,14542,0,52260,57157,52136.03,56354.87,123.97,802.13,0.326998,100.00,1
341670,1,14582,0,52260,57171,52136.28,56356.50,123.72,814.50,0.326725,100.00,1
341710,1,14622,0,52260,57187,52136.53,56358.17,123.47,828.83,0.326451,100.00,1
341750,1,14662,0,52268,57201,52136.80,56359.86,131.20,841.14,0.326175,100.00,1
341790,1,14702,0,52267,57214,52137.06,56361.57,129.94,852.43,0.325898,100.00,1
341830,1,14742,0,52272,57235,52137.33,56363.32,134.67,871.68,0.325619,100.00,1
341870,1,14782,0,52275,57232,52137.61,56365.05,137.39,866.95,0.325339,100.00,1
341910,1,14822,0,52255,57130,52137.84,56366.59,117.16,763.41,0.325058,100.00,1
341950,1,14862,0,52226,57081,52138.02,56368.02,87.98,712.98,0.324775,100.00,1
341990,1,14902,0,52226,57127,52138.19,56369.54,87.81,757.46,0.324491,100.00,1
342030,1,14942,0,52245,57170,52138.41,56371.14,106.59,798.86,0.324205,100.00,1
342070,1,14982,0,52255,57191,52138.64,56372.78,116.36,818.22,0.323917,100.00,1
342110,1,15022,0,52258,57202,52138.88,56374.44,119.12,827.56,0.323628,100.00,1
342150,1,15062,0,52259,57200,52139.12,56376.09,119.88,823.91,0.323338,100.00,1
342190,1,15102,0,52252,57193,52139.35,56377.73,112.65,815.27,0.323047,100.00,1
342230,1,15142,0,52248,57202,52139.57,56379.37,108.43,822.62,0.322753,100.00,1
342270,1,15182,0,52252,57224,52139.79,56381.07,112.21,842.93,0.322458,100.00,1
342311,1,15223,0,52258,57249,52140.03,56382.80,117.97,866.20,0.322161,100.00,1
342351,1,15263,0,52263,57265,52140.28,56384.57,122.72,880.43,0.321863,100.00,1
342391,1,15303,0,52266,57284,52140.53,56386.37,125.47,897.63,0.321563,100.00,1
342431,1,15343,0,52264,57301,52140.78,56388.20,123.22,912.80,0.321261,100.00,1
342471,1,15383,0,52268,57315,52141.04,56390.06,126.96,924.94,0.320957,100.00,1
342511,1,15423,0,52276,57332,52141.30,56391.95,134.70,940.05,0.320651,100.00,1
342551,1,15463,0,52278,57353,52141.58,56393.87,136.42,959.13,0.320344,100.00,1
342591,1,15503,0,52269,57255,52141.84,56395.59,127.16,859.41,0.320035,100.00,1
342631,1,15543,0,52222,57163,52142.00,56397.12,80.00,765.87,0.319726,100.00,1
342671,1,15583,0,52214,57185,52142.14,56398.70,71.86,786.30,0.319414,100.00,1
342711,1,15623,0,52232,57235,52142.32,56400.38,89.68,834.62,0.319100,100.00,1
342751,1,15663,0,52245,57258,52142.53,56402.09,102.47,855.91,0.318785,100.00,1
342791,1,15703,0,52243,57267,52142.73,56403.82,100.27,863.18,0.318468,100.00,1
342831,1,15743,0,52246,57281,52142.94,56405.58,103.06,875.42,0.318149,100.00,1
342871,1,15783,0,52249,57284,52143.15,56407.34,105.85,876.66,0.317828,100.00,1
342911,1,15823,0,52245,57288,52143.36,56409.10,101.64,878.90,0.317506,100.00,1
342951,1,15863,0,52245,57305,52143.56,56410.89,101.44,894.11,0.317182,100.00,1
342991,1,15903,0,52252,57340,52143.78,56412.75,108.22,927.25,0.316856,100.00,1
343032,1,15944,0,52261,57364,52144.01,56414.65,116.99,949.35,0.316528,100.00,1
343072,1,15984,0,52270,57400,52144.27,56416.62,125.73,983.37,0.316198,100.00,1
343112,1,16024,0,52271,57428,52144.52,56418.65,126.48,1009.35,0.315866,100.00,1
343152,1,16064,0,52284,57448,52144.80,56420.71,139.20,1027.29,0.315533,100.00,1
343192,1,16104,0,52289,57466,52145.09,56422.80,143.91,1043.20,0.315198,100.00,1
343232,1,16144,0,52296,57496,52145.39,56424.95,150.61,1071.05,0.314861,100.00,1
343272,1,16184,0,52303,57473,52145.71,56427.05,157.29,1045.95,0.314523,100.00,1
343312,1,16224,0,52269,57349,52145.96,56428.89,123.04,920.11,0.314185,100.00,1
343352,1,16264,0,52232,57308,52146.13,56430.65,85.87,877.35,0.313845,100.00,1
343392,1,16304,0,52242,57355,52146.32,56432.50,95.68,922.50,0.313845,100.00,0
343432,1,16344,0,52257,57405,52146.54,56434.45,110.46,970.55,0.313845,100.00,0
343472,1,16384,0,52266,57420,52146.79,56436.42,119.21,983.58,0.313845,100.00,0
343512,1,16424,0,52267,57431,52147.03,56438.41,119.97,992.59,0.313845,100.00,0
343552,1,16464,0,52270,57430,52147.27,56440.39,122.73,989.61,0.313845,100.00,0
343592,1,16504,0,52265,57426,52147.51,56442.37,117.49,983.63,0.313845,100.00,0
343632,1,16544,0,52258,57430,52147.73,56444.34,110.27,985.66,0.313845,100.00,0
343672,1,16584,0,52261,57453,52147.96,56446.36,113.04,1006.64,0.313845,100.00,0
343713,1,16625,0,52269,57479,52148.20,56448.43,120.80,1030.57,0.313845,100.00,0
343753,1,16665,0,52273,57498,52148.45,56450.53,124.55,1047.47,0.313845,100.00,0
343793,1,16705,0,52275,57523,52148.71,56452.68,126.29,1070.32,0.313845,100.00,0
343833,1,16745,0,52280,57548,52148.97,56454.87,131.03,1093.13,0.313845,100.00,0
343873,1,16785,0,52286,57560,52149.25,56457.08,136.75,1102.92,0.313845,100.00,0
343913,1,16825,0,52291,57578,52149.54,56459.32,141.46,1118.68,0.313845,100.00,0
343953,1,16865,0,52292,57595,52149.82,56461.59,142.18,1133.41,0.313845,100.00,0
343993,1,16905,0,52277,57487,52150.07,56463.64,126.93,1023.36,0.313845,100.00,0
344033,1,16945,0,52237,57397,52150.25,56465.51,86.75,931.49,0.313845,100.00,0
344073,1,16985,0,52226,57416,52150.40,56467.41,75.60,948.59,0.313845,100.00,0
344113,1,17025,0,52240,57464,52150.58,56469.41,89.42,994.59,0.313845,100.00,0
344153,1,17065,0,52246,57488,52150.77,56471.45,95.23,1016.55,0.313845,100.00,0
344193,1,17105,0,52251,57499,52150.98,56473.50,100.02,1025.50,0.313845,100.00,0
344233,1,17145,0,52254,57503,52151.18,56475.56,102.82,1027.44,0.313845,100.00,0
344273,1,17185,0,52249,57493,52151.38,56477.60,97.62,1015.40,0.313845,100.00,0
344313,1,17225,0,52243,57498,52151.56,56479.64,91.44,1018.36,0.313845,100.00,0
344353,1,17265,0,52243,57511,52151.75,56481.70,91.25,1029.30,0.313845,100.00,0
344394,1,17306,0,52245,57537,52151.93,56483.82,93.07,1053.18,0.313845,100.00,0
344434,1,17346,0,52253,57553,52152.14,56485.96,100.86,1067.04,0.313845,100.00,0
344474,1,17386,0,52251,57573,52152.34,56488.13,98.66,1084.87,0.313845,100.00,0
344514,1,17426,0,52253,57589,52152.54,56490.34,100.46,1098.66,0.313845,100.00,0
344554,1,17466,0,52253,57597,52152.74,56492.55,100.26,1104.45,0.313845,100.00,0
344594,1,17506,0,52262,57614,52152.96,56494.80,109.04,1119.20,0.313845,100.00,0
344634,1,17546,0,52259,57631,52153.18,56497.07,105.82,1133.93,0.313845,100.00,0
344674,1,17586,0,52255,57552,52153.38,56499.18,101.62,1052.82,0.313845,100.00,0
344714,1,17626,0,52211,57447,52153.50,56501.08,57.50,945.92,0.313845,100.00,0
344754,1,17666,0,52194,57438,52153.58,56502.95,40.42,935.05,0.313845,100.00,0
344794,1,17706,0,52203,57487,52153.68,56504.92,49.32,982.08,0.313845,100.00,0
344834,1,17746,0,52218,57527,52153.81,56506.97,64.19,1020.03,0.313845,100.00,0
344874,1,17786,0,52223,57537,52153.95,56509.03,69.05,1027.97,0.313845,100.00,0
344914,1,17826,0,52221,57529,52154.09,56511.07,66.91,1017.93,0.313845,100.00,0
344954,1,17866,0,52214,57512,52154.21,56513.08,59.79,998.92,0.313845,100.00,0
344994,1,17906,0,52204,57501,52154.31,56515.05,49.69,985.95,0.313845,100.00,0
345034,1,17946,0,52194,57512,52154.39,56517.05,39.61,994.95,0.313845,100.00,0
345074,1,17986,0,52201,57530,52154.48,56519.08,46.52,1010.92,0.313845,100.00,0
345115,1,18027,0,52205,57553,52154.59,56521.15,50.41,1031.85,0.313845,100.00,0
345155,1,18067,0,52201,57564,52154.68,56523.23,46.32,1040.77,0.313845,100.00,0
345195,1,18107,0,52203,57582,52154.78,56525.35,48.22,1056.65,0.313845,100.00,0
345235,1,18147,0,52205,57595,52154.88,56527.49,50.12,1067.51,0.313845,100.00,0
345275,1,18187,0,52209,57601,52154.99,56529.64,54.01,1071.36,0.313845,100.00,0
345315,1,18227,0,52212,57606,52155.11,56531.79,56.89,1074.21,0.313845,100.00,0
345355,1,18267,0,52197,57511,52155.19,56533.75,41.81,977.25,0.313845,100.00,0
345395,1,18307,0,52154,57423,52155.19,56535.54,-1.19,887.46,0.313845,100.00,0
345435,1,18347,0,52140,57433,52155.16,56537.33,-15.16,895.67,0.313845,100.00,0
345475,1,18387,0,52157,57490,52155.17,56539.24,1.83,950.76,0.313845,100.00,0
345515,1,18427,0,52171,57523,52155.20,56541.21,15.80,981.79,0.313845,100.00,0
345555,1,18467,0,52177,57537,52155.25,56543.20,21.75,993.80,0.313845,100.00,0
345595,1,18507,0,52174,57527,52155.29,56545.17,18.71,981.83,0.313845,100.00,0
345635,1,18547,0,52170,57502,52155.32,56547.08,14.68,954.92,0.313845,100.00,0
345675,1,18587,0,52156,57496,52155.32,56548.98,0.68,947.02,0.313845,100.00,0
345715,1,18627,0,52156,57506,52155.32,56550.89,0.68,955.11,0.313845,100.00,0
345755,1,18667,0,52153,57528,52155.32,56552.85,-2.32,975.15,0.313845,100.00,0
345796,1,18708,0,52158,57538,52155.33,56554.82,2.67,983.18,0.313845,100.00,0
345836,1,18748,0,52165,57552,52155.35,56556.82,9.65,995.18,0.313845,100.00,0
345876,1,18788,0,52159,57573,52155.36,56558.86,3.64,1014.14,0.313845,100.00,0
345916,1,18828,0,52163,57589,52155.37,56560.92,7.63,1028.08,0.313845,100.00,0
345956,1,18868,0,52166,57600,52155.39,56563.00,10.61,1037.00,0.313845,100.00,0
345996,1,18908,0,52155,57506,52155.39,56564.88,-0.39,941.12,0.313845,100.00,0
346036,1,18948,0,52114,57416,52155.31,56566.59,-41.31,849.41,0.313845,100.00,0
346076,1,18988,0,52096,57429,52155.20,56568.31,-59.20,860.69,0.313845,100.00,0
346116,1,19028,0,52115,57491,52155.12,56570.16,-40.12,920.84,0.313845,100.00,0
346156,1,19068,0,52134,57523,52155.08,56572.07,-21.08,950.93,0.313845,100.00,0
346196,1,19108,0,52143,57540,52155.05,56574.00,-12.05,966.00,0.313845,100.00,0
346236,1,19148,0,52141,57536,52155.03,56575.93,-14.03,960.07,0.313845,100.00,0
346276,1,19188,0,52136,57521,52154.99,56577.82,-18.99,943.18,0.313845,100.00,0
346316,1,19228,0,52127,57512,52154.94,56579.69,-27.94,932.31,0.313845,100.00,0
346356,1,19268,0,52125,57525,52154.88,56581.58,-29.88,943.42,0.313845,100.00,0
346396,1,19308,0,52128,57547,52154.83,56583.52,-26.83,963.48,0.313845,100.00,0
346436,1,19348,0,52132,57566,52154.79,56585.48,-22.79,980.52,0.313845,100.00,0
346476,1,19388,0,52135,57586,52154.75,56587.48,-19.75,998.52,0.313845,100.00,0
346517,1,19429,0,52138,57597,52154.71,56589.50,-16.71,1007.50,0.313845,100.00,0
346557,1,19469,0,52139,57615,52154.68,56591.55,-15.68,1023.45,0.313845,100.00,0
346597,1,19509,0,52141,57630,52154.66,56593.63,-13.66,1036.37,0.313845,100.00,0
346637,1,19549,0,52129,57533,52154.61,56595.51,-25.61,937.49,0.313845,100.00,0
346677,1,19589,0,52083,57413,52154.46,56597.15,-71.46,815.85,0.313845,100.00,0
346717,1,19629,0,52061,57421,52154.28,56598.80,-93.28,822.20,0.313845,100.00,0
346757,1,19669,0,52074,57482,52154.12,56600.57,-80.12,881.43,0.313845,100.00,0
346797,1,19709,0,52091,57517,52153.99,56602.40,-62.99,914.60,0.313845,100.00,0
346837,1,19749,0,52103,57525,52153.89,56604.25,-50.89,920.75,0.313845,100.00,0
346877,1,19789,0,52109,57527,52153.80,56606.10,-44.80,920.90,0.313845,100.00,0
346917,1,19829,0,52104,57528,52153.70,56607.94,-49.70,920.06,0.313845,100.00,0
346957,1,19869,0,52097,57521,52153.59,56609.77,-56.59,911.23,0.313845,100.00,0
346997,1,19909,0,52097,57531,52153.48,56611.61,-56.48,919.39,0.313845,100.00,0
347037,1,19949,0,52104,57547,52153.38,56613.48,-49.38,933.52,0.313845,100.00,0
347077,1,19989,0,52111,57568,52153.30,56615.39,-42.30,952.61,0.313845,100.00,0
347117,1,20029,0,52109,57580,52153.21,56617.32,-44.21,962.68,0.313845,100.00,0
347157,1,20069,0,52107,57603,52153.12,56619.30,-46.12,983.70,0.313845,100.00,0
347198,1,20110,0,52114,57616,52153.04,56621.29,-39.04,994.71,0.313845,100.00,0
347238,1,20150,0,52118,57630,52152.97,56623.31,-34.97,1006.69,0.313845,100.00,0
347278,1,20190,0,52123,57609,52152.91,56625.29,-29.91,983.71,0.313845,100.00,0
347318,1,20230,0,52085,57468,52152.78,56626.97,-67.78,841.03,0.313845,100.00,0
347358,1,20270,0,52039,57392,52152.55,56628.50,-113.55,763.50,0.313845,100.00,0
347398,1,20310,0,52033,57422,52152.32,56630.09,-119.32,791.91,0.313845,100.00,0
347438,1,20350,0,52047,57475,52152.11,56631.79,-105.11,843.21,0.313845,100.00,0
347478,1,20390,0,52057,57483,52151.92,56633.49,-94.92,849.51,0.313845,100.00,0
347518,1,20430,0,52058,57488,52151.73,56635.20,-93.73,852.80,0.313845,100.00,0
347558,1,20470,0,52063,57483,52151.55,56636.89,-88.55,846.11,0.313845,100.00,0
347598,1,20510,0,52057,57465,52151.37,56638.55,-94.37,826.45,0.313845,100.00,0
347638,1,20550,0,52054,57473,52151.17,56640.22,-97.17,832.78,0.313845,100.00,0
347678,1,20590,0,52054,57485,52150.98,56641.91,-96.98,843.09,0.313845,100.00,0
347718,1,20630,0,52060,57500,52150.80,56643.63,-90.80,856.37,0.313845,100.00,0
347758,1,20670,0,52067,57518,52150.63,56645.38,-83.63,872.62,0.313845,100.00,0
347798,1,20710,0,52067,57530,52150.47,56647.15,-83.47,882.85,0.313845,100.00,0
347838,1,20750,0,52070,57539,52150.31,56648.94,-80.31,890.06,0.313845,100.00,0
347879,1,20791,0,52066,57552,52150.14,56650.75,-84.14,901.25,0.313845,100.00,0
347919,1,20831,0,52068,57560,52149.98,56652.57,-81.98,907.43,0.313845,100.00,0
347959,1,20871,0,52063,57498,52149.80,56654.26,-86.80,843.74,0.313845,100.00,0
347999,1,20911,0,52018,57356,52149.54,56655.66,-131.54,700.34,0.313845,100.00,0
348039,1,20951,0,51978,57305,52149.20,56656.96,-171.20,648.04,0.313845,100.00,0
348079,1,20991,0,51982,57350,52148.87,56658.35,-166.87,691.65,0.313845,100.00,0
348119,1,21031,0,52000,57388,52148.57,56659.81,-148.57,728.19,0.313845,100.00,0
348159,1,21071,0,52005,57395,52148.29,56661.29,-143.29,733.71,0.313845,100.00,0
348199,1,21111,0,52013,57402,52148.02,56662.77,-135.02,739.23,0.313845,100.00,0
348239,1,21151,0,52012,57387,52147.75,56664.22,-135.75,722.78,0.313845,100.00,0
348279,1,21191,0,52006,57373,52147.47,56665.64,-141.47,707.36,0.313845,100.00,0
348319,1,21231,0,52001,57382,52147.18,56667.07,-146.18,714.93,0.313845,100.00,0
348359,1,21271,0,52008,57398,52146.90,56668.54,-138.90,729.46,0.313845,100.00,0
348399,1,21311,0,52013,57417,52146.63,56670.04,-133.63,746.96,0.313845,100.00,0
348439,1,21351,0,52016,57429,52146.37,56671.55,-130.37,757.45,0.313845,100.00,0
348479,1,21391,0,52018,57439,52146.12,56673.09,-128.12,765.91,0.313845,100.00,0
348519,1,21431,0,52019,57452,52145.86,56674.65,-126.86,777.35,0.313845,100.00,0
348560,1,21472,0,52018,57459,52145.61,56676.22,-127.61,782.78,0.313845,100.00,0
348600,1,21512,0,52021,57475,52145.36,56677.82,-124.36,797.18,0.313845,100.00,0
348640,1,21552,0,52021,57450,52145.12,56679.36,-124.12,770.64,0.313845,100.00,0
348680,1,21592,0,51991,57303,52144.81,56680.61,-153.81,622.39,0.313845,100.00,0
348720,1,21632,0,51934,57193,52144.39,56681.64,-210.39,511.36,0.313845,100.00,0
348760,1,21672,0,51923,57215,52143.95,56682.71,-220.95,532.29,0.313845,100.00,0
348800,1,21712,0,51936,57266,52143.53,56683.87,-207.53,582.12,0.313845,100.00,0
348840,1,21752,0,51950,57261,52143.14,56685.03,-193.14,575.97,0.313845,100.00,0
348880,1,21792,0,51949,57261,52142.76,56686.18,-193.76,574.82,0.313845,100.00,0
348920,1,21832,0,51953,57249,52142.38,56687.31,-189.38,561.69,0.313845,100.00,0
348960,1,21872,0,51943,57222,52141.98,56688.38,-198.98,533.62,0.313845,100.00,0
349000,1,21912,0,51936,57222,52141.57,56689.45,-205.57,532.55,0.313845,100.00,0
349040,1,21952,0,51936,57230,52141.16,56690.54,-205.16,539.46,0.313845,100.00,0
349080,1,21992,0,51943,57240,52140.77,56691.64,-197.77,548.36,0.313845,100.00,0
349120,1,22032,0,51945,57253,52140.37,56692.76,-195.37,560.24,0.313845,100.00,0
349160,1,22072,0,51943,57257,52139.98,56693.89,-196.98,563.11,0.313845,100.00,0
349200,1,22112,0,51945,57258,52139.59,56695.02,-194.59,562.98,0.313845,100.00,0
349241,1,22153,0,51941,57259,52139.20,56696.15,-198.20,562.85,0.313845,100.00,0
349281,1,22193,0,51943,57265,52138.81,56697.29,-195.81,567.71,0.313845,100.00,0
349321,1,22233,0,51940,57251,52138.41,56698.40,-198.41,552.60,0.313845,100.00,0
349361,1,22273,0,51913,57105,52137.96,56699.21,-224.96,405.79,0.313845,100.00,0
349401,1,22313,0,51860,57000,52137.41,56699.82,-277.41,300.18,0.313845,100.00,0
349441,1,22353,0,51848,57018,52136.83,56700.45,-288.83,317.55,0.313845,100.00,0
349481,1,22393,0,51863,57062,52136.29,56701.18,-273.29,360.82,0.313845,100.00,0
349521,1,22433,0,51872,57067,52135.76,56701.91,-263.76,365.09,0.313845,100.00,0
349561,1,22473,0,51877,57077,52135.24,56702.66,-258.24,374.34,0.313845,100.00,0
349601,1,22513,0,51885,57062,52134.74,56703.38,-249.74,358.62,0.313845,100.00,0
349641,1,22553,0,51878,57040,52134.23,56704.05,-256.23,335.95,0.313845,100.00,0
349681,1,22593,0,51871,57039,52133.71,56704.73,-262.71,334.27,0.313845,100.00,0
349721,1,22633,0,51877,57054,52133.20,56705.43,-256.20,348.57,0.313845,100.00,0
349761,1,22673,0,51885,57074,52132.70,56706.16,-247.70,367.84,0.313845,100.00,0
349801,1,22713,0,51892,57083,52132.22,56706.92,-240.22,376.08,0.313506,100.00,1
349841,1,22753,0,51891,57100,52131.74,56707.71,-240.74,392.29,0.313175,100.00,1
349881,1,22793,0,51893,57107,52131.26,56708.51,-238.26,398.49,0.312853,100.00,1
349921,1,22833,0,51900,57114,52130.80,56709.32,-230.80,404.68,0.312538,100.00,1
349962,1,22874,0,51902,57126,52130.34,56710.16,-228.34,415.84,0.312230,100.00,1
350002,1,22914,0,51903,57099,52129.89,56710.93,-226.89,388.07,0.311930,100.00,1
350042,1,22954,0,51868,56951,52129.37,56711.41,-261.37,239.59,0.311639,100.00,1
350082,1,22994,0,51820,56861,52128.75,56711.71,-308.75,149.29,0.311362,100.00,1
350122,1,23034,0,51812,56892,52128.12,56712.08,-316.12,179.92,0.311099,100.00,1
350162,1,23074,0,51833,56926,52127.53,56712.51,-294.53,213.49,0.310849,100.00,1
350202,1,23114,0,51841,56936,52126.96,56712.96,-285.96,223.04,0.310609,100.00,1
350242,1,23154,0,51847,56953,52126.40,56713.44,-279.40,239.56,0.310380,100.00,1
350282,1,23194,0,51861,56952,52125.87,56713.92,-264.87,238.08,0.310161,100.00,1
350322,1,23234,0,51859,56938,52125.34,56714.37,-266.34,223.63,0.309951,100.00,1
350362,1,23274,0,51857,56946,52124.80,56714.83,-267.80,231.17,0.309751,100.00,1
350402,1,23314,0,51864,56967,52124.28,56715.34,-260.28,251.66,0.309560,100.00,1
350442,1,23354,0,51876,56994,52123.79,56715.89,-247.79,278.11,0.309377,100.00,1
350482,1,23394,0,51891,57013,52123.32,56716.49,-232.32,296.51,0.309201,100.00,1
350522,1,23434,0,51898,57034,52122.87,56717.12,-224.87,316.87,0.309031,100.00,1
350562,1,23474,0,51903,57052,52122.43,56717.80,-219.43,334.20,0.308867,100.00,1
350602,1,23514,0,51910,57068,52122.01,56718.50,-212.01,349.50,0.308709,100.00,1
350643,1,23555,0,51911,57085,52121.59,56719.23,-210.59,365.77,0.308556,100.00,1
350683,1,23595,0,51924,57112,52121.20,56720.02,-197.20,391.98,0.308408,100.00,1
350723,1,23635,0,51928,57077,52120.81,56720.73,-192.81,356.27,0.308263,100.00,1
350763,1,23675,0,51891,56927,52120.35,56721.15,-229.35,205.85,0.308126,100.00,1
350803,1,23715,0,51844,56850,52119.80,56721.41,-275.80,128.59,0.307999,100.00,1
350843,1,23755,0,51846,56889,52119.25,56721.74,-273.25,167.26,0.307882,100.00,1
350883,1,23795,0,51863,56916,52118.74,56722.13,-255.74,193.87,0.307773,100.00,1
350923,1,23835,0,51871,56915,52118.25,56722.52,-247.25,192.48,0.307672,100.00,1
350963,1,23875,0,51879,56931,52117.77,56722.94,-238.77,208.06,0.307579,100.00,1
351003,1,23915,0,51892,56944,52117.32,56723.38,-225.32,220.62,0.307492,100.00,1
351043,1,23955,0,51895,56941,52116.88,56723.82,-221.88,217.18,0.307412,100.00,1
351083,1,23995,0,51897,56947,52116.45,56724.27,-219.45,222.73,0.307337,100.00,1
351123,1,24035,0,51903,56967,52116.02,56724.76,-213.02,242.24,0.307269,100.00,1
351163,1,24075,0,51919,56994,52115.62,56725.30,-196.62,268.70,0.307204,100.00,1
351203,1,24115,0,51926,57018,52115.25,56725.88,-189.25,292.12,0.307144,100.00,1
351243,1,24155,0,51931,57042,52114.88,56726.52,-183.88,315.48,0.307088,100.00,1
351283,1,24195,0,51940,57062,52114.53,56727.19,-174.53,334.81,0.307035,100.00,1
351324,1,24236,0,51947,57075,52114.20,56727.88,-167.20,347.12,0.306985,100.00,1
351364,1,24276,0,51954,57096,52113.88,56728.62,-159.88,367.38,0.306937,100.00,1
351404,1,24316,0,51962,57123,52113.58,56729.41,-151.58,393.59,0.306891,100.00,1
351444,1,24356,0,51972,57138,52113.30,56730.23,-141.30,407.77,0.306846,100.00,1
351484,1,24396,0,51965,57031,52113.00,56730.83,-148.00,300.17,0.306803,100.00,1
351524,1,24436,0,51916,56897,52112.61,56731.16,-196.61,165.84,0.306765,100.00,1
351564,1,24476,0,51891,56897,52112.16,56731.50,-221.16,165.50,0.306734,100.00,1
351604,1,24516,0,51902,56938,52111.75,56731.91,-209.75,206.09,0.306709,100.00,1
351644,1,24556,0,51914,56941,52111.35,56732.33,-197.35,208.67,0.306688,100.00,1
351684,1,24596,0,51918,56941,52110.96,56732.75,-192.96,208.25,0.306673,100.00,1
351724,1,24636,0,51930,56962,52110.61,56733.21,-180.61,228.79,0.306661,100.00,1
351764,1,24676,0,51940,56970,52110.27,56733.68,-170.27,236.32,0.306653,100.00,1
351804,1,24716,0,51939,56965,52109.93,56734.15,-170.93,230.85,0.306649,100.00,1
351844,1,24756,0,51942,56977,52109.59,56734.64,-167.59,242.36,0.306647,100.00,1
351884,1,24796,0,51952,57003,52109.28,56735.18,-157.28,267.82,0.306649,100.00,1
351924,1,24836,0,51959,57024,52108.98,56735.75,-149.98,288.25,0.306653,100.00,1
351964,1,24876,0,51966,57046,52108.69,56736.37,-142.69,309.62,0.306658,100.00,1
352004,1,24916,0,51972,57065,52108.42,56737.04,-136.42,327.96,0.306665,100.00,1
352045,1,24957,0,51985,57082,52108.17,56737.73,-123.17,344.27,0.306673,100.00,1
352085,1,24997,0,51988,57098,52107.93,56738.45,-119.93,359.55,0.306682,100.00,1
352125,1,25037,0,51991,57122,52107.70,56739.22,-116.70,382.78,0.306690,100.00,1
352165,1,25077,0,52002,57150,52107.49,56740.04,-105.49,409.96,0.306699,100.00,1
352205,1,25117,0,52007,57156,52107.29,56740.87,-100.29,415.12,0.306706,100.00,1
352245,1,25157,0,52002,57042,52107.08,56741.48,-105.08,300.52,0.306715,100.00,1
352285,1,25197,0,51940,56908,52106.75,56741.82,-166.75,166.18,0.306727,100.00,1
352325,1,25237,0,51922,56910,52106.38,56742.15,-184.38,167.85,0.306744,100.00,1
352365,1,25277,0,51939,56940,52106.05,56742.55,-167.05,197.45,0.306764,100.00,1
352405,1,25317,0,51948,56944,52105.73,56742.96,-157.73,201.04,0.306788,100.00,1
352445,1,25357,0,51949,56946,52105.42,56743.36,-156.42,202.64,0.306815,100.00,1
352485,1,25397,0,51955,56956,52105.12,56743.79,-150.12,212.21,0.306845,100.00,1
352525,1,25437,0,51956,56954,52104.82,56744.21,-148.82,209.79,0.306877,100.00,1
352565,1,25477,0,51956,56943,52104.52,56744.61,-148.52,198.39,0.306913,100.00,1
352605,1,25517,0,51959,56960,52104.23,56745.04,-145.23,214.96,0.306951,100.00,1
352645,1,25557,0,51960,56977,52103.95,56745.51,-143.95,231.49,0.306991,100.00,1
352685,1,25597,0,51970,57001,52103.68,56746.02,-133.68,254.98,0.307033,100.00,1
352726,1,25638,0,51980,57013,52103.43,56746.55,-123.43,266.45,0.307077,100.00,1
352766,1,25678,0,51985,57026,52103.20,56747.11,-118.20,278.89,0.307122,100.00,1
352806,1,25718,0,51986,57043,52102.96,56747.71,-116.96,295.29,0.307167,100.00,1
352846,1,25758,0,51991,57057,52102.74,56748.33,-111.74,308.67,0.307213,100.00,1
352886,1,25798,0,51994,57064,52102.53,56748.96,-108.53,315.04,0.307260,100.00,1
352926,1,25838,0,52003,57087,52102.33,56749.64,-99.33,337.36,0.307306,100.00,1
352966,1,25878,0,52011,57071,52102.15,56750.28,-91.15,320.72,0.307352,100.00,1
353006,1,25918,0,51981,56921,52101.91,56750.62,-120.91,170.37,0.307400,100.00,1
353046,1,25958,0,51929,56827,52101.56,56750.78,-172.56,76.22,0.307453,100.00,1
353086,1,25998,0,51928,56856,52101.21,56750.99,-173.21,105.01,0.307510,100.00,1
353126,1,26038,0,51944,56885,52100.90,56751.26,-156.90,133.74,0.307572,100.00,1
353166,1,26078,0,51951,56893,52100.61,56751.54,-149.61,141.46,0.307636,100.00,1
353206,1,26118,0,51950,56901,52100.30,56751.84,-150.30,149.16,0.307704,100.00,1
353246,1,26158,0,51954,56886,52100.01,56752.11,-146.01,133.89,0.307775,100.00,1
353286,1,26198,0,51950,56865,52099.71,56752.34,-149.71,112.66,0.307850,100.00,1
353326,1,26238,0,51944,56861,52099.41,56752.56,-155.41,108.44,0.307929,100.00,1
353366,1,26278,0,51947,56878,52099.10,56752.81,-152.10,125.19,0.308011,100.00,1
353406,1,26318,0,51953,56902,52098.81,56753.11,-145.81,148.89,0.308096,100.00,1
353447,1,26359,0,51956,56916,52098.53,56753.44,-142.53,162.56,0.308184,100.00,1
353487,1,26399,0,51964,56934,52098.26,56753.80,-134.26,180.20,0.308275,100.00,1
353527,1,26439,0,51971,56955,52098.00,56754.21,-127.00,200.79,0.308367,100.00,1
353567,1,26479,0,51977,56968,52097.76,56754.64,-120.76,213.36,0.308462,100.00,1
353607,1,26519,0,51986,56979,52097.54,56755.09,-111.54,223.91,0.308557,100.00,1
353647,1,26559,0,51989,56998,52097.32,56755.57,-108.32,242.43,0.308653,100.00,1
353687,1,26599,0,51993,56968,52097.12,56756.00,-104.12,212.00,0.308750,100.00,1
353727,1,26639,0,51961,56817,52096.85,56756.12,-135.85,60.88,0.308850,100.00,1
353767,1,26679,0,51922,56755,52096.50,56756.12,-174.50,-1.12,0.308956,100.00,1
353807,1,26719,0,51928,56793,52096.16,56756.20,-168.16,36.80,0.309066,100.00,1
353847,1,26759,0,51947,56834,52095.87,56756.36,-148.87,77.64,0.309181,100.00,1
353887,1,26799,0,51954,56854,52095.59,56756.55,-141.59,97.45,0.309298,100.00,1
353927,1,26839,0,51965,56866,52095.32,56756.77,-130.32,109.23,0.309419,100.00,1
353967,1,26879,0,51966,56851,52095.07,56756.96,-129.07,94.04,0.309542,100.00,1
354007,1,26919,0,51960,56836,52094.80,56757.12,-134.80,78.88,0.309668,100.00,1
354047,1,26959,0,51960,56847,52094.53,56757.30,-134.53,89.70,0.309797,100.00,1
354087,1,26999,0,51970,56872,52094.28,56757.53,-124.28,114.47,0.309928,100.00,1
354128,1,27040,0,51979,56900,52094.05,56757.82,-115.05,142.18,0.310062,100.00,1
354168,1,27080,0,51985,56922,52093.84,56758.14,-108.84,163.86,0.310196,100.00,1
354208,1,27120,0,51997,56945,52093.64,56758.52,-96.64,186.48,0.310332,100.00,1
354248,1,27160,0,52003,56974,52093.46,56758.95,-90.46,215.05,0.310468,100.00,1
354288,1,27200,0,52016,56993,52093.31,56759.42,-77.31,233.58,0.310603,100.00,1
354328,1,27240,0,52025,57019,52093.18,56759.94,-68.18,259.06,0.310738,100.00,1
354368,1,27280,0,52035,57044,52093.06,56760.51,-58.06,283.49,0.310871,100.00,1
354408,1,27320,0,52044,57029,52092.96,56761.05,-48.96,267.95,0.311002,100.00,1
354448,1,27360,0,52014,56866,52092.81,56761.26,-78.81,104.74,0.311134,100.00,1
354488,1,27400,0,51967,56756,52092.56,56761.25,-125.56,-5.25,0.311270,100.00,1
354528,1,27440,0,51964,56778,52092.30,56761.29,-128.30,16.71,0.311408,100.00,1
354568,1,27480,0,51980,56826,52092.08,56761.42,-112.08,64.58,0.311548,100.00,1
354608,1,27520,0,51990,56830,52091.88,56761.56,-101.88,68.44,0.311691,100.00,1
354648,1,27560,0,51996,56840,52091.69,56761.72,-95.69,78.28,0.311834,100.00,1
354688,1,27600,0,52002,56842,52091.51,56761.88,-89.51,80.12,0.311979,100.00,1
354728,1,27640,0,52002,56834,52091.33,56762.02,-89.33,71.98,0.312126,100.00,1
354768,1,27680,0,52002,56833,52091.16,56762.17,-89.16,70.83,0.312273,100.00,1
354808,1,27720,0,52008,56855,52090.99,56762.36,-82.99,92.64,0.312421,100.00,1
354849,1,27761,0,52018,56888,52090.85,56762.61,-72.85,125.39,0.312570,100.00,1
354889,1,27801,0,52034,56913,52090.73,56762.91,-56.73,150.09,0.312718,100.00,1
354929,1,27841,0,52040,56943,52090.63,56763.27,-50.63,179.73,0.312866,100.00,1
354969,1,27881,0,52051,56974,52090.55,56763.70,-39.55,210.30,0.313012,100.00,1
355009,1,27921,0,52061,56992,52090.50,56764.15,-29.50,227.85,0.313157,100.00,1
355049,1,27961,0,52071,57023,52090.46,56764.67,-19.46,258.33,0.313300,100.00,1
355089,1,28001,0,52077,57049,52090.43,56765.24,-13.43,283.76,0.313441,100.00,1
355129,1,28041,0,52094,57076,52090.44,56765.86,3.56,310.14,0.313578,100.00,1
355169,1,28081,0,52090,56958,52090.44,56766.25,-0.44,191.75,0.313714,100.00,1
355209,1,28121,0,52039,56797,52090.34,56766.31,-51.34,30.69,0.313850,100.00,1
355249,1,28161,0,52011,56778,52090.18,56766.34,-79.18,11.66,0.313988,100.00,1
355289,1,28201,0,52018,56830,52090.04,56766.46,-72.04,63.54,0.314126,100.00,1
355329,1,28241,0,52038,56854,52089.93,56766.64,-51.93,87.36,0.314264,100.00,1
355369,1,28281,0,52045,56860,52089.84,56766.83,-44.84,93.17,0.314402,100.00,1
355409,1,28321,0,52053,56871,52089.77,56767.04,-36.77,103.96,0.314540,100.00,1
355449,1,28361,0,52056,56877,52089.70,56767.26,-33.70,109.74,0.314677,100.00,1
355489,1,28401,0,52055,56871,52089.64,56767.47,-34.64,103.53,0.314814,100.00,1
355529,1,28441,0,52053,56884,52089.57,56767.70,-36.57,116.30,0.314951,100.00,1
355570,1,28482,0,52066,56914,52089.52,56768.00,-23.52,146.00,0.315086,100.00,1
355610,1,28522,0,52075,56950,52089.49,56768.36,-14.49,181.64,0.315221,100.00,1
355650,1,28562,0,52085,56988,52089.48,56768.80,-4.48,219.20,0.315353,100.00,1
355690,1,28602,0,52094,57016,52089.50,56769.30,4.50,246.70,0.315483,100.00,1
355730,1,28642,0,52110,57045,52089.54,56769.86,20.46,275.14,0.315611,100.00,1
355770,1,28682,0,52124,57075,52089.61,56770.47,34.39,304.53,0.315736,100.00,1
355810,1,28722,0,52128,57103,52089.69,56771.14,38.31,331.86,0.315857,100.00,1
355850,1,28762,0,52144,57131,52089.80,56771.86,54.20,359.14,0.315975,100.00,1
355890,1,28802,0,52155,57079,52089.93,56772.48,65.07,306.52,0.316092,100.00,1
355930,1,28842,0,52112,56916,52089.98,56772.77,22.02,143.23,0.316207,100.00,1
355970,1,28882,0,52069,56866,52089.94,56772.95,-20.94,93.05,0.316322,100.00,1
356010,1,28922,0,52074,56918,52089.91,56773.25,-15.91,144.75,0.316436,100.00,1
356050,1,28962,0,52100,56966,52089.93,56773.63,10.07,192.37,0.316548,100.00,1
356090,1,29002,0,52108,56977,52089.97,56774.04,18.03,202.96,0.316659,100.00,1
356130,1,29042,0,52111,56998,52090.01,56774.49,20.99,223.51,0.316768,100.00,1
356170,1,29082,0,52117,57008,52090.07,56774.96,26.93,233.04,0.316876,100.00,1
356210,1,29122,0,52118,57000,52090.12,56775.41,27.87,224.59,0.316981,100.00,1
356251,1,29163,0,52120,57015,52090.19,56775.89,29.81,239.11,0.317085,100.00,1
356291,1,29203,0,52123,57042,52090.25,56776.43,32.75,265.57,0.317187,100.00,1
356331,1,29243,0,52135,57081,52090.34,56777.04,44.66,303.96,0.317285,100.00,1
356371,1,29283,0,52149,57121,52090.46,56777.72,58.54,343.28,0.317381,100.00,1
356411,1,29323,0,52163,57149,52090.61,56778.46,72.39,370.54,0.317474,100.00,1
356451,1,29363,0,52170,57181,52090.77,56779.27,79.23,401.73,0.317563,100.00,1
356491,1,29403,0,52178,57210,52090.94,56780.13,87.06,429.87,0.317649,100.00,1
356531,1,29443,0,52192,57242,52091.14,56781.06,100.86,460.94,0.317730,100.00,1
356571,1,29483,0,52209,57270,52091.38,56782.04,117.62,487.96,0.317809,100.00,1
356611,1,29523,0,52211,57188,52091.62,56782.85,119.37,405.15,0.317886,100.00,1
356651,1,29563,0,52163,57044,52091.77,56783.37,71.23,260.62,0.317963,100.00,1
356691,1,29603,0,52129,57025,52091.84,56783.86,37.16,241.14,0.318038,100.00,1
356731,1,29643,0,52139,57089,52091.94,56784.47,47.06,304.53,0.318110,100.00,1
356771,1,29683,0,52165,57129,52092.09,56785.16,72.91,343.84,0.318180,100.00,1
356811,1,29723,0,52175,57149,52092.25,56785.89,82.75,363.11,0.318248,100.00,1
356851,1,29763,0,52179,57159,52092.43,56786.64,86.57,372.36,0.318314,100.00,1
356891,1,29803,0,52174,57157,52092.59,56787.38,81.41,369.62,0.318378,100.00,1
356931,1,29843,0,52172,57156,52092.75,56788.12,79.25,367.88,0.318439,100.00,1
356972,1,29884,0,52173,57168,52092.91,56788.88,80.09,379.12,0.318497,100.00,1
357012,1,29924,0,52179,57196,52093.09,56789.70,85.91,406.30,0.318552,100.00,1
357052,1,29964,0,52188,57230,52093.28,56790.58,94.72,439.42,0.318605,100.00,1
357092,1,30004,1,52200,57260,52093.49,56791.52,106.51,468.48,0.318653,100.00,1
357132,1,30044,1,52207,57285,52093.72,56792.51,113.28,492.49,0.318699,100.00,1
357172,1,30084,1,52219,57311,52093.97,56793.55,125.03,517.45,0.318741,100.00,1
357212,1,30124,1,52224,57340,52094.23,56794.64,129.77,545.36,0.318779,100.00,1
357252,1,30164,1,52232,57362,52094.51,56795.78,137.49,566.22,0.318814,100.00,1
357292,1,30204,1,52243,57362,52094.80,56796.91,148.20,565.09,0.318846,100.00,1
357332,1,30244,1,52224,57229,52095.06,56797.78,128.94,431.22,0.318879,100.00,1
357372,1,30284,1,52172,57123,52095.22,56798.43,76.78,324.57,0.318909,100.00,1
357412,1,30324,1,52159,57143,52095.35,56799.12,63.65,343.87,0.318938,100.00,1
357452,1,30364,1,52175,57205,52095.51,56799.94,79.49,405.06,0.318964,100.00,1
357492,1,30404,1,52194,57232,52095.71,56800.80,98.29,431.20,0.318987,100.00,1
357532,1,30444,1,52202,57250,52095.92,56801.70,106.08,448.30,0.319008,100.00,1
357572,1,30484,1,52201,57239,52096.13,56802.58,104.87,436.42,0.319027,100.00,1
357612,1,30524,1,52195,57222,52096.33,56803.42,98.67,418.58,0.319044,100.00,1
357652,1,30564,1,52184,57218,52096.51,56804.25,87.49,413.75,0.319058,100.00,1
357693,1,30605,1,52191,57236,52096.70,56805.11,94.30,430.89,0.319070,100.00,1
357733,1,30645,1,52199,57262,52096.91,56806.03,102.09,455.97,0.319079,100.00,1
357773,1,30685,1,52204,57282,52097.12,56806.98,106.88,475.02,0.319086,100.00,1
357813,1,30725,1,52206,57305,52097.34,56807.98,108.66,497.02,0.319089,100.00,1
357853,1,30765,1,52212,57315,52097.57,56808.99,114.43,506.01,0.319090,100.00,1
357893,1,30805,1,52219,57330,52097.82,56810.04,121.18,519.96,0.319087,100.00,1
357933,1,30845,1,52222,57343,52098.07,56811.10,123.93,531.90,0.319082,100.00,1
357973,1,30885,1,52215,57277,52098.30,56812.04,116.70,464.96,0.319075,100.00,1
358013,1,30925,1,52173,57137,52098.45,56812.69,74.55,324.31,0.319068,100.00,1
358053,1,30965,1,52145,57101,52098.55,56813.27,46.45,287.73,0.319058,100.00,1
358093,1,31005,1,52150,57146,52098.65,56813.93,51.35,332.07,0.319047,100.00,1
358133,1,31045,1,52169,57191,52098.79,56814.69,70.21,376.31,0.319033,100.00,1
358173,1,31085,1,52176,57217,52098.95,56815.49,77.05,401.51,0.319017,100.00,1
358213,1,31125,1,52182,57215,52099.12,56816.29,82.88,398.71,0.318998,100.00,1
358253,1,31165,1,52178,57192,52099.28,56817.05,78.72,374.95,0.318978,100.00,1
358293,1,31205,1,52168,57168,52099.42,56817.75,68.58,350.25,0.318957,100.00,1
358333,1,31245,1,52161,57180,52099.54,56818.48,61.46,361.52,0.318932,100.00,1
358373,1,31285,1,52169,57203,52099.68,56819.25,69.32,383.75,0.318906,100.00,1
358413,1,31325,1,52174,57216,52099.83,56820.04,74.17,395.96,0.318877,100.00,1
358454,1,31366,1,52175,57221,52099.98,56820.85,75.02,400.15,0.318846,100.00,1
358494,1,31406,1,52174,57233,52100.13,56821.67,73.87,411.33,0.318812,100.00,1
358534,1,31446,1,52174,57247,52100.28,56822.52,73.72,424.48,0.318775,100.00,1
358574,1,31486,1,52176,57231,52100.43,56823.34,75.57,407.66,0.318736,100.00,1
358614,1,31526,1,52151,57105,52100.54,56823.91,50.46,281.09,0.318696,100.00,1
358654,1,31566,1,52109,57015,52100.55,56824.29,8.45,190.71,0.318654,100.00,1
358694,1,31606,1,52092,57032,52100.54,56824.71,-8.54,207.29,0.318612,100.00,1
358734,1,31646,1,52108,57071,52100.55,56825.20,7.45,245.80,0.318568,100.00,1
358774,1,31686,1,52122,57106,52100.60,56825.77,21.40,280.23,0.318522,100.00,1
358814,1,31726,1,52135,57125,52100.67,56826.37,34.33,298.63,0.318475,100.00,1
358854,1,31766,1,52136,57104,52100.74,56826.93,35.26,277.07,0.318425,100.00,1
358894,1,31806,1,52120,57070,52100.78,56827.41,19.22,242.59,0.318375,100.00,1
358934,1,31846,1,52109,57050,52100.80,56827.86,8.20,222.14,0.318323,100.00,1
358974,1,31886,1,52110,57056,52100.82,56828.32,9.18,227.68,0.318270,100.00,1
359014,1,31926,1,52111,57070,52100.84,56828.80,10.16,241.20,0.318215,100.00,1
359054,1,31966,1,52113,57086,52100.87,56829.32,12.13,256.68,0.318159,100.00,1
359094,1,32006,1,52116,57094,52100.90,56829.85,15.10,264.15,0.318101,100.00,1
359134,1,32046,1,52108,57095,52100.91,56830.38,7.09,264.62,0.318041,100.00,1
359175,1,32087,1,52104,57026,52100.92,56830.77,3.08,195.23,0.317980,100.00,1
359215,1,32127,1,52055,56888,52100.83,56830.89,-45.83,57.11,0.317920,100.00,1
359255,1,32167,1,52016,56849,52100.66,56830.93,-84.66,18.07,0.317863,100.00,1
359295,1,32207,1,52019,56886,52100.50,56831.04,-81.50,54.96,0.317809,100.00,1
359335,1,32247,1,52033,56914,52100.37,56831.21,-67.37,82.79,0.317757,100.00,1
359375,1,32287,1,52042,56935,52100.25,56831.42,-58.25,103.58,0.317705,100.00,1
359415,1,32327,1,52045,56934,52100.14,56831.63,-55.14,102.37,0.317655,100.00,1
359455,1,32367,1,52039,56903,52100.02,56831.77,-61.02,71.23,0.317607,100.00,1
359495,1,32407,1,52026,56875,52099.87,56831.86,-73.87,43.14,0.317561,100.00,1
359535,1,32447,1,52023,56876,52099.72,56831.95,-76.72,44.05,0.317517,100.00,1
359575,1,32487,1,52032,56890,52099.59,56832.07,-67.59,57.93,0.317476,100.00,1
359615,1,32527,1,52035,56908,52099.46,56832.22,-64.46,75.78,0.317436,100.00,1
359655,1,32567,1,52037,56921,52099.34,56832.40,-62.34,88.60,0.317397,100.00,1
359695,1,32607,1,52042,56932,52099.22,56832.60,-57.22,99.40,0.317360,100.00,1
359735,1,32647,1,52037,56868,52099.10,56832.68,-62.10,35.32,0.317325,100.00,1
359775,1,32687,1,51989,56716,52098.88,56832.45,-109.88,-116.45,0.317294,100.00,1
359815,1,32727,1,51941,56657,52098.57,56832.10,-157.57,-175.10,0.317274,100.00,1
359855,1,32767,1,51938,56693,52098.25,56831.82,-160.25,-138.82,0.317264,100.00,1
359896,1,32808,1,51953,56727,52097.96,56831.61,-144.96,-104.61,0.317263,100.00,1
359936,1,32848,1,51962,56748,52097.69,56831.45,-135.69,-83.45,0.317270,100.00,1
359976,1,32888,1,51966,56751,52097.43,56831.29,-131.43,-80.29,0.317284,100.00,1
360016,1,32928,1,51959,56736,52097.15,56831.10,-138.15,-95.10,0.317306,100.00,1
360056,1,32968,1,51950,56725,52096.86,56830.89,-146.86,-105.89,0.317337,100.00,1
360096,1,33008,1,51954,56735,52096.57,56830.70,-142.57,-95.70,0.317377,100.00,1
360136,1,33048,1,51957,56757,52096.29,56830.55,-139.29,-73.55,0.317424,100.00,1
360176,1,33088,1,51961,56782,52096.02,56830.46,-135.02,-48.46,0.317480,100.00,1
360216,1,33128,1,51974,56810,52095.78,56830.42,-121.78,-20.42,0.317542,100.00,1
360256,1,33168,1,51981,56820,52095.55,56830.40,-114.55,-10.40,0.317610,100.00,1
360296,1,33208,1,51990,56832,52095.34,56830.41,-105.34,1.59,0.317682,100.00,1
360336,1,33248,1,51986,56775,52095.12,56830.30,-109.12,-55.30,0.317760,100.00,1
360376,1,33288,1,51943,56633,52094.82,56829.90,-151.82,-196.90,0.317845,100.00,1
360416,1,33328,1,51901,56586,52094.43,56829.41,-193.43,-243.41,0.317945,100.00,1
360456,1,33368,1,51903,56631,52094.05,56829.02,-191.05,-198.02,0.318059,100.00,1
360496,1,33408,1,51923,56663,52093.71,56828.69,-170.71,-165.69,0.318184,100.00,1
360536,1,33448,1,51922,56660,52093.37,56828.35,-171.37,-168.35,0.318320,100.00,1
360576,1,33488,1,51925,56677,52093.03,56828.05,-168.03,-151.05,0.318467,100.00,1
360616,1,33528,1,51932,56677,52092.71,56827.75,-160.71,-150.75,0.318623,100.00,1
360657,1,33569,1,51922,56657,52092.37,56827.41,-170.37,-170.41,0.318791,100.00,1
360697,1,33609,1,51920,56670,52092.03,56827.10,-172.03,-157.10,0.318969,100.00,1
360737,1,33649,1,51923,56697,52091.69,56826.84,-168.69,-129.84,0.319159,100.00,1
360777,1,33689,1,51936,56718,52091.38,56826.62,-155.38,-108.62,0.319357,100.00,1
360817,1,33729,1,51942,56742,52091.09,56826.46,-149.09,-84.46,0.319565,100.00,1
360857,1,33769,1,51954,56767,52090.81,56826.34,-136.81,-59.34,0.319780,100.00,1
360897,1,33809,1,51957,56790,52090.55,56826.27,-133.55,-36.27,0.320002,100.00,1
360937,1,33849,1,51964,56811,52090.30,56826.24,-126.30,-15.24,0.320230,100.00,1
360977,1,33889,1,51979,56822,52090.07,56826.23,-111.07,-4.23,0.320463,100.00,1
361017,1,33929,1,51972,56724,52089.84,56826.03,-117.84,-102.03,0.320701,100.00,1
361057,1,33969,1,51926,56601,52089.51,56825.58,-163.51,-224.58,0.320947,100.00,1
361097,1,34009,1,51902,56614,52089.14,56825.16,-187.14,-211.16,0.321205,100.00,1
361137,1,34049,1,51918,56664,52088.80,56824.84,-170.80,-160.84,0.321474,100.00,1
361177,1,34089,1,51932,56676,52088.48,56824.54,-156.48,-148.54,0.321751,100.00,1
361217,1,34129,1,51930,56682,52088.17,56824.26,-158.17,-142.26,0.322037,100.00,1
361257,1,34169,1,51931,56690,52087.86,56823.99,-156.86,-133.99,0.322332,100.00,1
361297,1,34209,1,51930,56684,52087.54,56823.71,-157.54,-139.71,0.322635,100.00,1
361337,1,34249,1,51929,56679,52087.23,56823.43,-158.23,-144.43,0.322948,100.00,1
361378,1,34290,1,51928,56694,52086.91,56823.17,-158.91,-129.17,0.323269,100.00,1
361418,1,34330,1,51933,56718,52086.61,56822.96,-153.61,-104.96,0.323599,100.00,1
361458,1,34370,1,51943,56747,52086.32,56822.81,-143.32,-75.81,0.323937,100.00,1
361498,1,34410,1,51943,56768,52086.04,56822.70,-143.04,-54.70,0.324283,100.00,1
361538,1,34450,1,51956,56784,52085.78,56822.62,-129.78,-38.63,0.324635,100.00,1
361578,1,34490,1,51964,56803,52085.54,56822.59,-121.54,-19.59,0.324993,100.00,1
361618,1,34530,1,51968,56826,52085.30,56822.59,-117.30,3.41,0.325356,100.00,1
361658,1,34570,1,51978,56847,52085.09,56822.64,-107.09,24.36,0.325722,100.00,1
361698,1,34610,1,51985,56849,52084.89,56822.70,-99.89,26.30,0.326093,100.00,1
361738,1,34650,1,51969,56729,52084.66,56822.51,-115.66,-93.51,0.326467,100.00,1
361778,1,34690,1,51928,56651,52084.34,56822.17,-156.34,-171.17,0.326850,100.00,1
361818,1,34730,1,51920,56689,52084.02,56821.91,-164.02,-132.91,0.327242,100.00,1
361858,1,34770,1,51937,56738,52083.72,56821.74,-146.72,-83.74,0.327642,100.00,1
361898,1,34810,1,51951,56751,52083.46,56821.60,-132.46,-70.60,0.328049,100.00,1
361938,1,34850,1,51955,56760,52083.20,56821.48,-128.20,-61.48,0.328462,100.00,1
361978,1,34890,1,51957,56754,52082.95,56821.34,-125.95,-67.34,0.328880,100.00,1
362018,1,34930,1,51945,56745,52082.68,56821.19,-137.68,-76.19,0.329306,100.00,1
362058,1,34970,1,51943,56744,52082.40,56821.04,-139.40,-77.04,0.329739,100.00,1
362099,1,35011,1,51946,56766,52082.13,56820.93,-136.13,-54.93,0.330180,100.00,1
362139,1,35051,1,51952,56787,52081.87,56820.86,-129.87,-33.86,0.330626,100.00,1
362179,1,35091,1,51955,56805,52081.62,56820.83,-126.62,-15.83,0.331079,100.00,1
362219,1,35131,1,51956,56826,52081.37,56820.84,-125.37,5.16,0.331539,100.00,1
362259,1,35171,1,51966,56841,52081.14,56820.89,-115.14,20.11,0.332003,100.00,1
362299,1,35211,1,51973,56858,52080.93,56820.96,-107.93,37.04,0.332471,100.00,1
362339,1,35251,1,51974,56880,52080.71,56821.08,-106.71,58.92,0.332943,100.00,1
362379,1,35291,1,51983,56898,52080.52,56821.24,-97.52,76.76,0.333418,100.00,1
362419,1,35331,1,51993,56913,52080.35,56821.42,-87.35,91.58,0.333894,100.00,1
362459,1,35371,1,51988,56831,52080.16,56821.44,-92.16,9.56,0.334373,100.00,1
362499,1,35411,1,51946,56731,52079.90,56821.26,-133.90,-90.26,0.334858,100.00,1
362539,1,35451,1,51927,56738,52079.59,56821.10,-152.59,-83.10,0.335353,100.00,1
362579,1,35491,1,51937,56795,52079.31,56821.05,-142.31,-26.05,0.335857,100.00,1
362619,1,35531,1,51950,56817,52079.05,56821.04,-129.05,-4.04,0.336368,100.00,1
362659,1,35571,1,51954,56823,52078.80,56821.04,-124.80,1.96,0.336884,100.00,1
362699,1,35611,1,51956,56824,52078.55,56821.05,-122.55,2.95,0.337407,100.00,1
362739,1,35651,1,51947,56808,52078.29,56821.03,-131.29,-13.03,0.337938,100.00,1
362779,1,35691,1,51940,56802,52078.02,56820.99,-138.02,-18.99,0.338476,100.00,1
362820,1,35732,1,51944,56811,52077.75,56820.97,-133.75,-9.97,0.339022,100.00,1
362860,1,35772,1,51945,56838,52077.49,56821.01,-132.49,16.99,0.339575,100.00,1
362900,1,35812,1,51949,56855,52077.23,56821.08,-128.23,33.92,0.340135,100.00,1
362940,1,35852,1,51949,56874,52076.98,56821.18,-127.98,52.82,0.340701,100.00,1
362980,1,35892,1,51954,56891,52076.73,56821.32,-122.73,69.68,0.341273,100.00,1
363020,1,35932,1,51962,56902,52076.51,56821.49,-114.51,80.51,0.341850,100.00,1
363060,1,35972,1,51968,56922,52076.29,56821.69,-108.29,100.31,0.342429,100.00,1
363100,1,36012,1,51970,56940,52076.08,56821.93,-106.08,118.07,0.343011,100.00,1
363140,1,36052,1,51976,56953,52075.88,56822.19,-99.88,130.81,0.343595,100.00,1
363180,1,36092,1,51980,56968,52075.69,56822.48,-95.69,145.52,0.344178,100.00,1
363220,1,36132,1,51985,56905,52075.51,56822.65,-90.51,82.35,0.344764,100.00,1
363260,1,36172,1,51939,56798,52075.24,56822.61,-136.24,-24.61,0.345358,100.00,1
363300,1,36212,1,51913,56797,52074.91,56822.55,-161.91,-25.55,0.345964,100.00,1
363340,1,36252,1,51925,56853,52074.62,56822.62,-149.62,30.38,0.346581,100.00,1
363380,1,36292,1,51942,56882,52074.35,56822.74,-132.35,59.26,0.347205,100.00,1
363420,1,36332,1,51950,56897,52074.11,56822.89,-124.11,74.11,0.347834,100.00,1
363460,1,36372,1,51949,56896,52073.86,56823.04,-124.86,72.96,0.348470,100.00,1
363500,1,36412,1,51941,56880,52073.59,56823.15,-132.59,56.85,0.349113,100.00,1
363540,1,36452,1,51932,56867,52073.31,56823.24,-141.31,43.76,0.349765,100.00,1
363581,1,36493,1,51927,56883,52073.02,56823.36,-146.02,59.64,0.350426,100.00,1
363621,1,36533,1,51934,56900,52072.74,56823.52,-138.74,76.48,0.351095,100.00,1
363661,1,36573,1,51933,56925,52072.46,56823.72,-139.46,101.28,0.351772,100.00,1
363701,1,36613,1,51939,56939,52072.20,56823.95,-133.20,115.05,0.352454,100.00,1
363741,1,36653,1,51943,56947,52071.94,56824.20,-128.94,122.80,0.353142,100.00,1
363781,1,36693,1,51943,56973,52071.68,56824.50,-128.68,148.50,0.353833,100.00,1
363821,1,36733,1,51950,56984,52071.44,56824.82,-121.44,159.18,0.354526,100.00,1
363861,1,36773,1,51956,56996,52071.21,56825.16,-115.21,170.84,0.355220,100.00,1
363901,1,36813,1,51957,57003,52070.98,56825.52,-113.98,177.48,0.355914,100.00,1
363941,1,36853,1,51962,57009,52070.77,56825.89,-108.77,183.11,0.356608,100.00,1
363981,1,36893,1,51946,56923,52070.52,56826.08,-124.52,96.92,0.357306,100.00,1
364021,1,36933,1,51907,56843,52070.19,56826.12,-163.19,16.88,0.358018,100.00,1
364061,1,36973,1,51894,56857,52069.84,56826.18,-175.84,30.82,0.358746,100.00,1
364101,1,37013,1,51905,56910,52069.51,56826.35,-164.51,83.65,0.359485,100.00,1
364141,1,37053,1,51917,56941,52069.21,56826.58,-152.21,114.42,0.360234,100.00,1
364181,1,37093,1,51921,56946,52068.91,56826.82,-147.91,119.18,0.360990,100.00,1
364222,1,37134,1,51918,56937,52068.61,56827.04,-150.61,109.96,0.361755,100.00,1
364262,1,37174,1,51906,56918,52068.29,56827.23,-162.29,90.77,0.362532,100.00,1
364302,1,37214,1,51893,56914,52067.94,56827.40,-174.94,86.60,0.363322,100.00,1
364342,1,37254,1,51891,56929,52067.59,56827.61,-176.59,101.39,0.364127,100.00,1
364382,1,37294,1,51900,56947,52067.25,56827.85,-167.25,119.15,0.364942,100.00,1
364422,1,37334,1,51904,56972,52066.93,56828.14,-162.93,143.86,0.365767,100.00,1
364462,1,37374,1,51909,56992,52066.61,56828.46,-157.61,163.54,0.366597,100.00,1
364502,1,37414,1,51915,57003,52066.31,56828.82,-151.31,174.18,0.367433,100.00,1
364542,1,37454,1,51919,57008,52066.02,56829.18,-147.02,178.82,0.368272,100.00,1
364582,1,37494,1,51919,57016,52065.73,56829.55,-146.73,186.45,0.369114,100.00,1
364622,1,37534,1,51915,57025,52065.43,56829.94,-150.43,195.06,0.369959,100.00,1
364662,1,37574,1,51923,57033,52065.14,56830.35,-142.14,202.65,0.370805,100.00,1
364702,1,37614,1,51913,56983,52064.84,56830.66,-151.84,152.34,0.371656,100.00,1
364742,1,37654,1,51879,56884,52064.46,56830.77,-185.46,53.23,0.372525,100.00,1
364782,1,37694,1,51855,56866,52064.05,56830.84,-209.05,35.16,0.373416,100.00,1
364822,1,37734,1,51862,56922,52063.64,56831.02,-201.64,90.98,0.374326,100.00,1
364863,1,37775,1,51874,56956,52063.27,56831.27,-189.27,124.73,0.375250,100.00,1
364903,1,37815,1,51881,56975,52062.90,56831.56,-181.90,143.44,0.376186,100.00,1
364943,1,37855,1,51881,56977,52062.54,56831.85,-181.54,145.15,0.377133,100.00,1
364983,1,37895,1,51872,56967,52062.16,56832.12,-190.16,134.87,0.378094,100.00,1
365023,1,37935,1,51865,56944,52061.77,56832.35,-196.77,111.65,0.379072,100.00,1
365063,1,37975,1,51863,56955,52061.37,56832.60,-198.37,122.40,0.380065,100.00,1
365103,1,38015,1,51863,56979,52060.98,56832.89,-197.98,146.11,0.381073,100.00,1
365143,1,38055,1,51872,56994,52060.60,56833.21,-188.60,160.79,0.382092,100.00,1
365183,1,38095,1,51878,57013,52060.24,56833.57,-182.24,179.43,0.383118,100.00,1
365223,1,38135,1,51882,57025,52059.88,56833.96,-177.88,191.04,0.384150,100.00,1
365263,1,38175,1,51885,57033,52059.54,56834.36,-174.54,198.64,0.385186,100.00,1
365303,1,38215,1,51888,57039,52059.20,56834.77,-171.20,204.23,0.386225,100.00,1
365343,1,38255,1,51885,57049,52058.85,56835.20,-173.85,213.80,0.387267,100.00,1
365383,1,38295,1,51884,57053,52058.50,56835.63,-174.50,217.37,0.388310,100.00,1
365423,1,38335,1,51878,56976,52058.14,56835.91,-180.14,140.09,0.389364,100.00,1
365463,1,38375,1,51836,56895,52057.70,56836.04,-221.70,58.96,0.390441,100.00,1
365503,1,38415,1,51814,56899,52057.21,56836.16,-243.21,62.84,0.391547,100.00,1
365543,1,38455,1,51827,56947,52056.75,56836.39,-229.75,110.61,0.392675,100.00,1
365584,1,38496,1,51840,56978,52056.32,56836.67,-216.32,141.33,0.393820,100.00,1
365624,1,38536,1,51845,56987,52055.90,56836.97,-210.90,150.03,0.394980,100.00,1
365664,1,38576,1,51840,56986,52055.47,56837.27,-215.47,148.73,0.396156,100.00,1
365704,1,38616,1,51838,56964,52055.04,56837.53,-217.04,126.47,0.397349,100.00,1
365744,1,38656,1,51828,56960,52054.58,56837.77,-226.58,122.23,0.398563,100.00,1
365784,1,38696,1,51828,56973,52054.13,56838.05,-226.13,134.95,0.399795,100.00,1
365824,1,38736,1,51829,56995,52053.68,56838.36,-224.68,156.64,0.401044,100.00,1
365864,1,38776,1,51843,57010,52053.26,56838.71,-210.26,171.29,0.402303,100.00,1
365904,1,38816,1,51841,57019,52052.84,56839.07,-211.84,179.93,0.403573,99.99,1
365944,1,38856,1,51843,57029,52052.42,56839.45,-209.42,189.55,0.404852,99.99,1
365984,1,38896,1,51847,57038,52052.01,56839.85,-205.01,198.15,0.406138,99.99,1
366024,1,38936,1,51846,57041,52051.60,56840.25,-205.60,200.75,0.407429,99.98,1
366064,1,38976,1,51845,57047,52051.19,56840.67,-206.19,206.33,0.408726,99.98,1
366104,1,39016,1,51837,57054,52050.76,56841.10,-213.76,212.90,0.410029,99.97,1
366144,1,39056,1,51831,56978,52050.32,56841.37,-219.32,136.63,0.411347,99.96,1
366185,1,39097,1,51790,56892,52049.80,56841.47,-259.80,50.53,0.412696,99.95,1
366225,1,39137,1,51772,56896,52049.25,56841.58,-277.25,54.42,0.414080,99.94,1
366265,1,39177,1,51785,56950,52048.72,56841.80,-263.72,108.20,0.415492,99.93,1
366305,1,39217,1,51796,56976,52048.22,56842.07,-252.22,133.93,0.416926,99.92,1
366345,1,39257,1,51798,56982,52047.72,56842.35,-249.72,139.65,0.418381,99.91,1
366385,1,39297,1,51798,56979,52047.22,56842.62,-249.22,136.37,0.419857,99.90,1
366425,1,39337,1,51791,56966,52046.71,56842.87,-255.71,123.12,0.421356,99.89,1
366465,1,39377,1,51786,56958,52046.19,56843.11,-260.19,114.89,0.422881,99.87,1
366505,1,39417,1,51788,56968,52045.67,56843.36,-257.67,124.64,0.424429,99.86,1
366545,1,39457,1,51790,56976,52045.16,56843.62,-255.16,132.38,0.425998,99.84,1
366585,1,39497,1,51793,56990,52044.66,56843.91,-251.66,146.09,0.427586,99.83,1
366625,1,39537,1,51790,57002,52044.15,56844.23,-254.15,157.77,0.429192,99.81,1
366665,1,39577,1,51788,57007,52043.64,56844.56,-255.64,162.44,0.430816,99.79,1
366705,1,39617,1,51790,57010,52043.13,56844.89,-253.13,165.11,0.432455,99.77,1
366745,1,39657,1,51782,57014,52042.61,56845.23,-260.61,168.77,0.434112,99.76,1
366785,1,39697,1,51780,57019,52042.09,56845.58,-262.09,173.42,0.435786,99.74,1
366826,1,39738,1,51781,57021,52041.57,56845.93,-260.57,175.07,0.437475,99.72,1
366866,1,39778,1,51768,56962,52041.02,56846.16,-273.02,115.84,0.439189,99.70,1
366906,1,39818,1,51731,56868,52040.40,56846.21,-309.40,21.79,0.440945,99.67,1
366946,1,39858,1,51710,56870,52039.74,56846.26,-329.74,23.74,0.442747,99.65,1
366986,1,39898,1,51719,56911,52039.10,56846.39,-320.10,64.61,0.444591,99.63,1
367026,1,39938,1,51731,56943,52038.49,56846.59,-307.49,96.41,0.446470,99.60,1
367066,1,39978,1,51735,56953,52037.88,56846.80,-302.88,106.20,0.448381,99.58,1
367106,1,40018,1,51740,56953,52037.29,56847.02,-297.29,105.98,0.450323,99.56,1
367146,1,40058,1,51734,56935,52036.68,56847.20,-302.68,87.80,0.452298,99.53,1
367186,1,40098,1,51724,56918,52036.06,56847.34,-312.06,70.66,0.454311,99.50,1
367226,1,40138,1,51720,56922,52035.43,56847.49,-315.43,74.51,0.456360,99.48,1
367266,1,40178,1,51720,56939,52034.80,56847.68,-314.80,91.32,0.458445,99.45,1
367306,1,40218,1,51721,56945,52034.18,56847.87,-313.18,97.13,0.460564,99.42,1
367346,1,40258,1,51723,56954,52033.55,56848.09,-310.55,105.91,0.462715,99.39,1
367386,1,40298,1,51718,56957,52032.93,56848.30,-314.93,108.70,0.464898,99.36,1
367426,1,40338,1,51715,56969,52032.29,56848.55,-317.29,120.45,0.467113,99.33,1
367466,1,40378,1,51711,56970,52031.65,56848.79,-320.65,121.21,0.469359,99.30,1
367506,1,40418,1,51707,56969,52031.00,56849.04,-324.00,119.96,0.471638,99.26,1
367547,1,40459,1,51706,56977,52030.36,56849.29,-324.36,127.71,0.473947,99.23,1
367587,1,40499,1,51708,56954,52029.71,56849.50,-321.71,104.50,0.476289,99.20,1
367627,1,40539,1,51675,56856,52029.00,56849.52,-354.00,6.48,0.478680,99.16,1
367667,1,40579,1,51642,56818,52028.23,56849.46,-386.23,-31.46,0.481129,99.13,1
367707,1,40619,1,51644,56855,52027.46,56849.47,-383.46,5.53,0.483634,99.09,1
367747,1,40659,1,51659,56890,52026.73,56849.55,-367.73,40.45,0.486190,99.05,1
367787,1,40699,1,51661,56902,52026.00,56849.66,-365.00,52.34,0.488794,99.01,1
367827,1,40739,1,51661,56902,52025.27,56849.76,-364.27,52.24,0.491445,98.97,1
367867,1,40779,1,51660,56884,52024.54,56849.83,-364.54,34.17,0.494145,98.93,1
367907,1,40819,1,51655,56869,52023.80,56849.87,-368.80,19.13,0.496895,98.89,1
367947,1,40859,1,51648,56870,52023.05,56849.91,-375.05,20.09,0.499696,98.85,1
367987,1,40899,1,51645,56886,52022.30,56849.99,-377.30,36.01,0.502548,98.81,1
368027,1,40939,1,51645,56894,52021.54,56850.08,-376.54,43.92,0.505450,98.77,1
368067,1,40979,1,51647,56900,52020.80,56850.18,-373.80,49.82,0.508400,98.72,1
368107,1,41019,1,51647,56902,52020.05,56850.29,-373.05,51.71,0.511398,98.68,1
368147,1,41059,1,51639,56913,52019.29,56850.41,-380.29,62.59,0.514443,98.63,1
368187,1,41099,1,51639,56916,52018.53,56850.54,-379.53,65.46,0.517537,98.58,1
368228,1,41140,1,51633,56917,52017.76,56850.68,-384.76,66.32,0.520678,98.54,1
368268,1,41180,1,51634,56922,52017.00,56850.82,-383.00,71.18,0.523867,98.49,1
368308,1,41220,1,51631,56936,52016.23,56850.99,-385.23,85.01,0.527100,98.44,1
368348,1,41260,1,51625,56882,52015.45,56851.05,-390.45,30.95,0.530386,98.39,1
368388,1,41300,1,51594,56785,52014.61,56850.93,-420.61,-65.93,0.533730,98.33,1
368428,1,41340,1,51569,56788,52013.71,56850.80,-444.71,-62.80,0.537141,98.28,1
368468,1,41380,1,51576,56828,52012.84,56850.76,-436.84,-22.76,0.540618,98.23,1
368508,1,41420,1,51592,56846,52012.00,56850.75,-420.00,-4.75,0.544155,98.17,1
368548,1,41460,1,51595,56849,52011.17,56850.75,-416.17,-1.75,0.547751,98.12,1
368588,1,41500,1,51593,56838,52010.33,56850.72,-417.33,-12.72,0.551405,98.06,1
368628,1,41540,1,51585,56821,52009.48,56850.66,-424.48,-29.66,0.555120,98.00,1
368668,1,41580,1,51574,56810,52008.61,56850.59,-434.61,-40.59,0.558896,97.94,1
368708,1,41620,1,51571,56811,52007.74,56850.51,-436.74,-39.51,0.562734,97.88,1
368748,1,41660,1,51569,56828,52006.86,56850.46,-437.86,-22.46,0.566636,97.82,1
368788,1,41700,1,51574,56833,52006.00,56850.43,-432.00,-17.43,0.570599,97.76,1
368828,1,41740,1,51570,56841,52005.13,56850.41,-435.13,-9.41,0.574624,97.69,1
368868,1,41780,1,51565,56848,52004.25,56850.41,-439.25,-2.41,0.578711,97.63,1
368909,1,41821,1,51565,56850,52003.37,56850.41,-438.37,-0.41,0.582862,97.56,1
368949,1,41861,1,51564,56854,52002.49,56850.42,-438.49,3.58,0.587074,97.50,1
368989,1,41901,1,51559,56868,52001.61,56850.45,-442.61,17.55,0.591349,97.43,1
369029,1,41941,1,51560,56870,52000.72,56850.49,-440.72,19.51,0.595685,97.36,1
369069,1,41981,1,51561,56884,51999.84,56850.56,-438.84,33.44,0.600081,97.29,1
369109,1,42021,1,51558,56833,51998.96,56850.53,-440.96,-17.53,0.604538,97.22,1
369149,1,42061,1,51526,56737,51998.02,56850.30,-472.02,-113.30,0.609049,97.14,1
369189,1,42101,1,51510,56735,51997.04,56850.07,-487.04,-115.07,0.613618,97.07,1
369229,1,42141,1,51517,56770,51996.08,56849.91,-479.08,-79.91,0.618250,96.99,1
369269,1,42181,1,51531,56790,51995.15,56849.79,-464.15,-59.79,0.622944,96.91,1
369309,1,42221,1,51530,56789,51994.22,56849.67,-464.22,-60.67,0.627699,96.84,1
369349,1,42261,1,51525,56777,51993.29,56849.53,-468.29,-72.53,0.632513,96.76,1
369389,1,42301,1,51520,56759,51992.34,56849.35,-472.34,-90.35,0.637383,96.68,1
369429,1,42341,1,51508,56742,51991.37,56849.13,-483.37,-107.13,0.642307,96.59,1
369469,1,42381,1,51503,56754,51990.39,56848.95,-487.39,-94.95,0.647290,96.51,1
369509,1,42421,1,51501,56762,51989.42,56848.77,-488.42,-86.77,0.652332,96.43,1
369550,1,42462,1,51502,56770,51988.45,56848.62,-486.45,-78.62,0.657436,96.34,1
369590,1,42502,1,51506,56781,51987.48,56848.48,-481.48,-67.48,0.662600,96.25,1
369630,1,42542,1,51505,56796,51986.52,56848.38,-481.52,-52.38,0.667829,96.16,1
369670,1,42582,1,51505,56798,51985.55,56848.29,-480.55,-50.29,0.673121,96.08,1
369710,1,42622,1,51507,56810,51984.60,56848.21,-477.60,-38.21,0.678478,95.98,1
369750,1,42662,1,51511,56816,51983.65,56848.15,-472.65,-32.15,0.683897,95.89,1
369790,1,42702,1,51513,56833,51982.71,56848.12,-469.71,-15.12,0.689379,95.80,1
369830,1,42742,1,51512,56850,51981.77,56848.12,-469.77,1.87,0.694924,95.70,1
369870,1,42782,1,51522,56816,51980.85,56848.06,-458.85,-32.06,0.700527,95.61,1
369910,1,42822,1,51490,56712,51979.87,56847.79,-489.87,-135.79,0.706162,95.51,1
369950,1,42862,1,51465,56675,51978.84,56847.45,-513.84,-172.45,0.711816,95.41,1
369990,1,42902,1,51471,56713,51977.83,56847.18,-506.83,-134.18,0.711816,95.41,0
370030,1,42942,1,51476,56737,51976.82,56846.96,-500.82,-109.96,0.711816,95.41,0
370070,1,42982,1,51486,56737,51975.84,56846.75,-489.84,-109.75,0.711816,95.41,0
370110,1,43022,1,51479,56731,51974.85,56846.52,-495.85,-115.52,0.711816,95.41,0
370150,1,43062,1,51472,56710,51973.85,56846.24,-501.85,-136.24,0.711816,95.41,0
370190,1,43102,1,51464,56695,51972.83,56845.94,-508.83,-150.94,0.711816,95.41,0
370231,1,43143,1,51460,56692,51971.80,56845.64,-511.80,-153.64,0.711816,95.41,0
370271,1,43183,1,51456,56699,51970.77,56845.34,-514.77,-146.34,0.711816,95.41,0
370311,1,43223,1,51457,56718,51969.75,56845.09,-512.75,-127.09,0.711816,95.41,0
370351,1,43263,1,51461,56731,51968.73,56844.86,-507.73,-113.86,0.711816,95.41,0
370391,1,43303,1,51463,56743,51967.72,56844.66,-504.72,-101.66,0.711816,95.41,0
370431,1,43343,1,51471,56752,51966.73,56844.48,-495.73,-92.48,0.711816,95.41,0
370471,1,43383,1,51475,56762,51965.75,56844.31,-490.75,-82.31,0.711816,95.41,0
370511,1,43423,1,51479,56778,51964.77,56844.18,-485.77,-66.18,0.711816,95.41,0
370551,1,43463,1,51483,56784,51963.81,56844.06,-480.81,-60.06,0.711816,95.41,0
370591,1,43503,1,51489,56793,51962.86,56843.96,-473.86,-50.96,0.711816,95.41,0
370631,1,43543,1,51498,56806,51961.93,56843.89,-463.93,-37.89,0.711816,95.41,0
370671,1,43583,1,51486,56733,51960.98,56843.67,-474.98,-110.67,0.711816,95.41,0
370711,1,43623,1,51447,56630,51959.96,56843.24,-512.96,-213.24,0.711816,95.41,0
370751,1,43663,1,51431,56625,51958.90,56842.81,-527.90,-217.81,0.711816,95.41,0
370791,1,43703,1,51437,56658,51957.86,56842.44,-520.86,-184.44,0.711816,95.41,0
370831,1,43743,1,51449,56673,51956.84,56842.11,-507.84,-169.11,0.711816,95.41,0
370871,1,43783,1,51446,56671,51955.82,56841.77,-509.82,-170.77,0.711816,95.41,0
370911,1,43823,1,51443,56658,51954.80,56841.40,-511.80,-183.40,0.711816,95.41,0
370952,1,43864,1,51438,56637,51953.77,56840.99,-515.77,-203.99,0.711816,95.41,0
370992,1,43904,1,51433,56633,51952.73,56840.58,-519.73,-207.58,0.711816,95.41,0
371032,1,43944,1,51432,56645,51951.69,56840.19,-519.69,-195.19,0.711816,95.41,0
371072,1,43984,1,51440,56661,51950.67,56839.83,-510.67,-178.83,0.711816,95.41,0
371112,1,44024,1,51447,56673,51949.66,56839.50,-502.66,-166.50,0.711816,95.41,0
371152,1,44064,1,51452,56689,51948.67,56839.20,-496.67,-150.20,0.711816,95.41,0
371192,1,44104,1,51454,56699,51947.68,56838.92,-493.68,-139.92,0.711816,95.41,0
371232,1,44144,1,51460,56709,51946.71,56838.66,-486.71,-129.66,0.711816,95.41,0
371272,1,44184,1,51468,56710,51945.75,56838.41,-477.75,-128.41,0.711816,95.41,0
371312,1,44224,1,51471,56721,51944.80,56838.18,-473.80,-117.18,0.711816,95.41,0
371352,1,44264,1,51478,56736,51943.87,56837.97,-465.87,-101.97,0.711816,95.41,0
371392,1,44304,1,51480,56747,51942.94,56837.79,-462.94,-90.79,0.711816,95.41,0
371432,1,44344,1,51485,56695,51942.03,56837.51,-457.03,-142.51,0.711816,95.41,0
371472,1,44384,1,51448,56592,51941.04,56837.02,-493.04,-245.02,0.711816,95.41,0
371512,1,44424,1,51421,56573,51940.00,56836.49,-519.00,-263.49,0.711816,95.41,0
371552,1,44464,1,51427,56607,51938.98,56836.04,-511.98,-229.04,0.711816,95.41,0
371592,1,44504,1,51442,56629,51937.98,56835.62,-495.98,-206.62,0.711816,95.41,0
371633,1,44545,1,51446,56630,51937.00,56835.21,-491.00,-205.21,0.711816,95.41,0
371673,1,44585,1,51444,56623,51936.02,56834.79,-492.02,-211.79,0.711816,95.41,0
371713,1,44625,1,51442,56616,51935.03,56834.35,-493.03,-218.35,0.711816,95.41,0
371753,1,44665,1,51440,56606,51934.04,56833.89,-494.04,-227.89,0.711816,95.41,0
371793,1,44705,1,51444,56613,51933.06,56833.45,-489.06,-220.45,0.711816,95.41,0
371833,1,44745,1,51450,56630,51932.09,56833.05,-482.09,-203.05,0.711816,95.41,0
371873,1,44785,1,51455,56654,51931.14,56832.69,-476.14,-178.69,0.711816,95.41,0
371913,1,44825,1,51460,56673,51930.20,56832.37,-470.20,-159.37,0.711816,95.41,0
371953,1,44865,1,51472,56682,51929.29,56832.07,-457.29,-150.07,0.711816,95.41,0
371993,1,44905,1,51480,56690,51928.39,56831.79,-448.39,-141.79,0.711816,95.41,0
372033,1,44945,1,51485,56698,51927.50,56831.53,-442.50,-133.53,0.711816,95.41,0
372073,1,44985,1,51488,56708,51926.62,56831.28,-438.62,-123.28,0.711816,95.41,0
372113,1,45025,1,51491,56723,51925.75,56831.07,-434.75,-108.07,0.711816,95.41,0
372153,1,45065,1,51500,56726,51924.90,56830.86,-424.90,-104.86,0.711816,95.41,0
372193,1,45105,1,51491,56672,51924.03,56830.54,-433.03,-158.54,0.711816,95.41,0
372233,1,45145,1,51453,56582,51923.09,56830.05,-470.09,-248.05,0.711816,95.41,0
372273,1,45185,1,51439,56577,51922.12,56829.54,-483.12,-252.54,0.711816,95.41,0
372314,1,45226,1,51449,56611,51921.18,56829.11,-472.18,-218.11,0.711816,95.41,0
372354,1,45266,1,51461,56635,51920.26,56828.72,-459.26,-193.72,0.711816,95.41,0
372394,1,45306,1,51462,56638,51919.34,56828.34,-457.34,-190.34,0.711816,95.41,0
372434,1,45346,1,51463,56635,51918.43,56827.95,-455.43,-192.95,0.711816,95.41,0
372474,1,45386,1,51465,56619,51917.53,56827.54,-452.53,-208.54,0.711816,95.41,0
372514,1,45426,1,51464,56618,51916.62,56827.12,-452.62,-209.12,0.711816,95.41,0
372554,1,45466,1,51466,56639,51915.72,56826.74,-449.72,-187.74,0.711816,95.41,0
372594,1,45506,1,51472,56659,51914.84,56826.41,-442.84,-167.41,0.711816,95.41,0
372634,1,45546,1,51487,56681,51913.98,56826.12,-426.98,-145.12,0.711816,95.41,0
372674,1,45586,1,51495,56692,51913.14,56825.85,-418.14,-133.85,0.711816,95.41,0
372714,1,45626,1,51503,56697,51912.32,56825.59,-409.32,-128.59,0.711816,95.41,0
372754,1,45666,1,51502,56716,51911.50,56825.37,-409.50,-109.37,0.711816,95.41,0
372794,1,45706,1,51509,56717,51910.70,56825.16,-401.70,-108.16,0.711816,95.41,0
372834,1,45746,1,51514,56726,51909.91,56824.96,-395.91,-98.96,0.711816,95.41,0
372874,1,45786,1,51516,56742,51909.12,56824.80,-393.12,-82.80,0.711816,95.41,0
372914,1,45826,1,51517,56749,51908.34,56824.65,-391.34,-75.65,0.711816,95.41,0
372954,1,45866,1,51510,56681,51907.54,56824.37,-397.54,-143.37,0.711816,95.41,0
372994,1,45906,1,51472,56592,51906.67,56823.90,-434.67,-231.90,0.711816,95.41,0
373035,1,45947,1,51459,56594,51905.78,56823.45,-446.78,-229.45,0.711816,95.41,0
373075,1,45987,1,51471,56631,51904.91,56823.06,-433.91,-192.06,0.711816,95.41,0
373115,1,46027,1,51479,56641,51904.06,56822.70,-425.06,-181.70,0.711816,95.41,0
373155,1,46067,1,51477,56647,51903.21,56822.35,-426.21,-175.35,0.711816,95.41,0
373195,1,46107,1,51482,56639,51902.37,56821.98,-420.37,-182.98,0.711816,95.41,0
373235,1,46147,1,51481,56630,51901.53,56821.60,-420.53,-191.60,0.711816,95.41,0
373275,1,46187,1,51478,56639,51900.68,56821.24,-422.68,-182.24,0.711816,95.41,0
373315,1,46227,1,51486,56651,51899.85,56820.90,-413.85,-169.90,0.711816,95.41,0
373355,1,46267,1,51501,56673,51899.05,56820.61,-398.05,-147.61,0.711816,95.41,0
373395,1,46307,1,51505,56685,51898.27,56820.34,-393.27,-135.34,0.711816,95.41,0
373435,1,46347,1,51514,56696,51897.50,56820.09,-383.50,-124.09,0.711816,95.41,0
373475,1,46387,1,51516,56697,51896.74,56819.84,-380.74,-122.84,0.711816,95.41,0
373515,1,46427,1,51513,56704,51895.98,56819.61,-382.98,-115.61,0.711816,95.41,0
373555,1,46467,1,51520,56712,51895.23,56819.40,-375.23,-107.40,0.711816,95.41,0
373595,1,46507,1,51521,56724,51894.48,56819.21,-373.48,-95.21,0.711816,95.41,0
373635,1,46547,1,51520,56732,51893.73,56819.04,-373.73,-87.04,0.711816,95.41,0
373675,1,46587,1,51525,56743,51893.00,56818.89,-368.00,-75.89,0.711816,95.41,0
373715,1,46627,1,51521,56674,51892.26,56818.60,-371.26,-144.60,0.711816,95.41,0
373756,1,46668,1,51484,56582,51891.44,56818.12,-407.44,-236.12,0.711816,95.41,0
373796,1,46708,1,51463,56589,51890.59,56817.67,-427.59,-228.67,0.711816,95.41,0
373836,1,46748,1,51475,56626,51889.76,56817.29,-414.76,-191.29,0.711816,95.41,0
373876,1,46788,1,51487,56631,51888.95,56816.91,-401.95,-185.91,0.711816,95.41,0
373916,1,46828,1,51487,56629,51888.15,56816.54,-401.15,-187.54,0.711816,95.41,0
373956,1,46868,1,51489,56638,51887.36,56816.18,-398.36,-178.18,0.711816,95.41,0
373996,1,46908,1,51491,56634,51886.56,56815.82,-395.56,-181.82,0.711816,95.41,0
374036,1,46948,1,51491,56632,51885.77,56815.45,-394.77,-183.45,0.711816,95.41,0
374076,1,46988,1,51494,56644,51884.99,56815.11,-390.99,-171.11,0.711816,95.41,0
374116,1,47028,1,51507,56653,51884.24,56814.79,-377.24,-161.79,0.711816,95.41,0
374156,1,47068,1,51509,56667,51883.49,56814.50,-374.49,-147.50,0.711816,95.41,0
374196,1,47108,1,51512,56682,51882.75,56814.23,-370.75,-132.23,0.711816,95.41,0
374236,1,47148,1,51516,56682,51882.02,56813.97,-366.02,-131.97,0.711816,95.41,0
374276,1,47188,1,51520,56689,51881.29,56813.72,-361.29,-124.72,0.711816,95.41,0
374316,1,47228,1,51518,56699,51880.57,56813.50,-362.57,-114.50,0.711816,95.41,0
374356,1,47268,1,51518,56708,51879.84,56813.29,-361.84,-105.29,0.711816,95.41,0
374396,1,47308,1,51523,56717,51879.13,56813.09,-356.13,-96.09,0.711816,95.41,0
374437,1,47349,1,51527,56725,51878.43,56812.92,-351.43,-87.92,0.711816,95.41,0
374477,1,47389,1,51517,56669,51877.71,56812.63,-360.71,-143.63,0.711816,95.41,0
374517,1,47429,1,51485,56585,51876.92,56812.18,-391.92,-227.18,0.711816,95.41,0
374557,1,47469,1,51465,56593,51876.10,56811.74,-411.10,-218.74,0.711816,95.41,0
374597,1,47509,1,51484,56621,51875.32,56811.36,-391.32,-190.36,0.711816,95.41,0
374637,1,47549,1,51493,56633,51874.55,56811.01,-381.55,-178.01,0.711816,95.41,0
374677,1,47589,1,51493,56641,51873.79,56810.67,-380.79,-169.67,0.711816,95.41,0
374717,1,47629,1,51501,56645,51873.05,56810.34,-372.05,-165.34,0.711816,95.41,0
374757,1,47669,1,51504,56634,51872.31,56809.99,-368.31,-175.99,0.711816,95.41,0
374797,1,47709,1,51502,56632,51871.57,56809.63,-369.57,-177.63,0.711816,95.41,0
374837,1,47749,1,51504,56644,51870.84,56809.30,-366.84,-165.30,0.711816,95.41,0
374877,1,47789,1,51502,56658,51870.10,56809.00,-368.10,-151.00,0.711816,95.41,0
374917,1,47829,1,51516,56666,51869.39,56808.72,-353.39,-142.72,0.711816,95.41,0
374957,1,47869,1,51517,56674,51868.69,56808.45,-351.69,-134.45,0.711816,95.41,0
374997,1,47909,1,51520,56686,51867.99,56808.21,-347.99,-122.21,0.711816,95.41,0
375037,1,47949,1,51518,56694,51867.29,56807.98,-349.29,-113.98,0.711816,95.41,0
375077,1,47989,1,51517,56702,51866.59,56807.77,-349.59,-105.77,0.711816,95.41,0
375118,1,48030,1,51517,56709,51865.89,56807.57,-348.89,-98.57,0.711816,95.41,0
375158,1,48070,1,51524,56724,51865.21,56807.41,-341.21,-83.41,0.711816,95.41,0
375198,1,48110,1,51524,56741,51864.53,56807.28,-340.53,-66.28,0.711816,95.41,0
375238,1,48150,1,51527,56685,51863.86,56807.04,-336.86,-122.04,0.711816,95.41,0
375278,1,48190,1,51496,56595,51863.12,56806.61,-367.12,-211.61,0.711816,95.41,0
375318,1,48230,1,51476,56594,51862.35,56806.19,-386.35,-212.19,0.711816,95.41,0
375358,1,48270,1,51486,56638,51861.60,56805.86,-375.60,-167.86,0.711816,95.41,0
375398,1,48310,1,51502,56645,51860.88,56805.54,-358.88,-160.54,0.711816,95.41,0
375438,1,48350,1,51504,56643,51860.17,56805.21,-356.17,-162.21,0.711816,95.41,0
375478,1,48390,1,51506,56644,51859.46,56804.89,-353.46,-160.89,0.711816,95.41,0
375518,1,48430,1,51503,56640,51858.75,56804.56,-355.75,-164.56,0.711816,95.41,0
375558,1,48470,1,51500,56630,51858.04,56804.21,-358.04,-174.21,0.711816,95.41,0
375598,1,48510,1,51505,56646,51857.34,56803.90,-352.34,-157.90,0.711816,95.41,0
375638,1,48550,1,51506,56654,51856.63,56803.60,-350.63,-149.60,0.711816,95.41,0
375678,1,48590,1,51510,56669,51855.94,56803.33,-345.94,-134.33,0.711816,95.41,0
375718,1,48630,1,51517,56679,51855.27,56803.09,-338.27,-124.09,0.711816,95.41,0
375758,1,48670,1,51517,56686,51854.59,56802.85,-337.59,-116.85,0.711816,95.41,0
375799,1,48711,1,51518,56690,51853.92,56802.63,-335.92,-112.63,0.711816,95.41,0
375839,1,48751,1,51518,56702,51853.25,56802.43,-335.25,-100.43,0.711816,95.41,0
375879,1,48791,1,51524,56713,51852.59,56802.25,-328.59,-89.25,0.711816,95.41,0
375919,1,48831,1,51527,56731,51851.94,56802.11,-324.94,-71.11,0.711816,95.41,0
375959,1,48871,1,51526,56745,51851.29,56802.00,-325.29,-57.00,0.711816,95.41,0
375999,1,48911,1,51536,56697,51850.66,56801.79,-314.66,-104.79,0.711816,95.41,0
376039,1,48951,1,51503,56613,51849.96,56801.42,-346.96,-188.42,0.711816,95.41,0
376079,1,48991,1,51484,56606,51849.23,56801.03,-365.23,-195.03,0.711816,95.41,0
376119,1,49031,1,51496,56647,51848.53,56800.72,-352.53,-153.72,0.711816,95.41,0
376159,1,49071,1,51510,56655,51847.85,56800.43,-337.85,-145.43,0.711816,95.41,0
376199,1,49111,1,51514,56651,51847.18,56800.14,-333.18,-149.14,0.711816,95.41,0
376239,1,49151,1,51519,56661,51846.53,56799.86,-327.53,-138.86,0.711816,95.41,0
376279,1,49191,1,51514,56649,51845.86,56799.56,-331.86,-150.56,0.711816,95.41,0
376319,1,49231,1,51511,56645,51845.20,56799.25,-334.20,-154.25,0.711816,95.41,0
376359,1,49271,1,51512,56649,51844.53,56798.95,-332.53,-149.95,0.711816,95.41,0
376399,1,49311,1,51520,56665,51843.88,56798.68,-323.88,-133.68,0.711816,95.41,0
376439,1,49351,1,51524,56682,51843.25,56798.45,-319.25,-116.45,0.711816,95.41,0
376479,1,49391,1,51525,56689,51842.61,56798.23,-317.61,-109.23,0.711816,95.41,0
376520,1,49432,1,51527,56694,51841.98,56798.03,-314.98,-104.03,0.711816,95.41,0
376560,1,49472,1,51529,56707,51841.36,56797.85,-312.36,-90.85,0.711816,95.41,0
376600,1,49512,1,51532,56719,51840.74,56797.69,-308.74,-78.69,0.711816,95.41,0
376640,1,49552,1,51530,56734,51840.12,56797.57,-310.12,-63.57,0.711816,95.41,0
376680,1,49592,1,51537,56747,51839.51,56797.46,-302.51,-50.46,0.711816,95.41,0
376720,1,49632,1,51544,56761,51838.92,56797.39,-294.92,-36.39,0.711816,95.41,0
376760,1,49672,1,51551,56751,51838.35,56797.30,-287.35,-46.30,0.711816,95.41,0
376800,1,49712,1,51524,56646,51837.72,56797.00,-313.72,-151.00,0.711816,95.41,0
376840,1,49752,1,51494,56606,51837.03,56796.62,-343.03,-190.62,0.711816,95.41,0
376880,1,49792,1,51504,56642,51836.37,56796.32,-332.37,-154.32,0.711816,95.41,0
376920,1,49832,1,51519,56663,51835.73,56796.05,-316.73,-133.05,0.711816,95.41,0
376960,1,49872,1,51524,56659,51835.11,56795.78,-311.11,-136.78,0.711816,95.41,0
377000,1,49912,1,51522,56666,51834.49,56795.52,-312.49,-129.52,0.711816,95.41,0
377040,1,49952,1,51523,56658,51833.87,56795.25,-310.87,-137.25,0.711816,95.41,0
377080,1,49992,1,51524,56643,51833.25,56794.94,-309.25,-151.94,0.711816,95.41,0
377120,1,50032,1,51519,56645,51832.62,56794.64,-313.62,-149.64,0.711816,95.41,0
377160,1,50072,1,51521,56661,51832.00,56794.38,-311.00,-133.38,0.711816,95.41,0
377200,1,50112,1,51523,56678,51831.38,56794.15,-308.38,-116.15,0.711816,95.41,0
377241,1,50153,1,51529,56689,51830.78,56793.94,-301.78,-104.94,0.711816,95.41,0
377281,1,50193,1,51535,56692,51830.19,56793.74,-295.19,-101.74,0.711816,95.41,0
377321,1,50233,1,51530,56709,51829.59,56793.57,-299.59,-84.57,0.711816,95.41,0
377361,1,50273,1,51527,56716,51828.99,56793.42,-301.99,-77.42,0.711816,95.41,0
377401,1,50313,1,51539,56730,51828.41,56793.29,-289.41,-63.29,0.711816,95.41,0
377441,1,50353,1,51544,56744,51827.84,56793.20,-283.84,-49.20,0.711816,95.41,0
377481,1,50393,1,51549,56763,51827.29,56793.14,-278.29,-30.14,0.711816,95.41,0
377521,1,50433,1,51555,56777,51826.75,56793.11,-271.75,-16.11,0.711816,95.41,0
377561,1,50473,1,51550,56699,51826.20,56792.92,-276.20,-93.92,0.711816,95.41,0
377601,1,50513,1,51515,56608,51825.57,56792.55,-310.57,-184.55,0.711816,95.41,0
377641,1,50553,1,51502,56618,51824.93,56792.20,-322.93,-174.20,0.711816,95.41,0
377681,1,50593,1,51511,56658,51824.30,56791.94,-313.30,-133.94,0.711816,95.41,0
377721,1,50633,1,51517,56666,51823.69,56791.69,-306.69,-125.69,0.711816,95.41,0
377761,1,50673,1,51522,56668,51823.09,56791.44,-301.09,-123.44,0.711816,95.41,0
377801,1,50713,1,51525,56661,51822.50,56791.18,-297.50,-130.18,0.711816,95.41,0
377841,1,50753,1,51521,56649,51821.89,56790.90,-300.89,-141.90,0.711816,95.41,0
377881,1,50793,1,51516,56644,51821.29,56790.61,-305.29,-146.61,0.711816,95.41,0
377921,1,50833,1,51522,56661,51820.69,56790.35,-298.69,-129.35,0.711816,95.41,0
377962,1,50874,1,51524,56673,51820.09,56790.12,-296.09,-117.12,0.711816,95.41,0
378002,1,50914,1,51526,56688,51819.51,56789.91,-293.51,-101.91,0.711816,95.41,0
378042,1,50954,1,51529,56706,51818.93,56789.75,-289.93,-83.75,0.711816,95.41,0
378082,1,50994,1,51533,56721,51818.36,56789.61,-285.36,-68.61,0.711816,95.41,0
378122,1,51034,1,51537,56725,51817.80,56789.48,-280.80,-64.48,0.711816,95.41,0
378162,1,51074,1,51542,56740,51817.25,56789.38,-275.25,-49.38,0.711816,95.41,0
378202,1,51114,1,51546,56760,51816.70,56789.32,-270.70,-29.32,0.711816,95.41,0
378242,1,51154,1,51551,56775,51816.17,56789.30,-265.17,-14.30,0.711816,95.41,0
378282,1,51194,1,51560,56795,51815.66,56789.31,-255.66,5.69,0.711816,95.41,0
378322,1,51234,1,51568,56784,51815.17,56789.30,-247.17,-5.30,0.711816,95.41,0
378362,1,51274,1,51546,56681,51814.63,56789.09,-268.63,-108.09,0.711816,95.41,0
378402,1,51314,1,51513,56633,51814.03,56788.77,-301.03,-155.77,0.711816,95.41,0
378442,1,51354,1,51509,56672,51813.42,56788.54,-304.42,-116.54,0.711816,95.41,0
378482,1,51394,1,51526,56697,51812.85,56788.36,-286.85,-91.36,0.711816,95.41,0
378522,1,51434,1,51533,56696,51812.29,56788.18,-279.29,-92.18,0.711816,95.41,0
378562,1,51474,1,51531,56702,51811.73,56788.01,-280.73,-86.01,0.711816,95.41,0
378602,1,51514,1,51528,56696,51811.16,56787.82,-283.16,-91.82,0.711816,95.41,0
378642,1,51554,1,51527,56690,51810.59,56787.63,-283.59,-97.63,0.711816,95.41,0
378683,1,51595,1,51521,56690,51810.02,56787.43,-289.02,-97.43,0.711816,95.41,0
378723,1,51635,1,51528,56710,51809.45,56787.28,-281.45,-77.28,0.711816,95.41,0
378763,1,51675,1,51531,56732,51808.90,56787.17,-277.90,-55.17,0.711816,95.41,0
378803,1,51715,1,51535,56747,51808.35,56787.09,-273.35,-40.09,0.711816,95.41,0
378843,1,51755,1,51540,56755,51807.82,56787.03,-267.82,-32.03,0.711816,95.41,0
378883,1,51795,1,51545,56773,51807.29,56787.00,-262.29,-14.00,0.711816,95.41,0
378923,1,51835,1,51548,56791,51806.78,56787.01,-258.78,3.99,0.711816,95.41,0
378963,1,51875,1,51553,56803,51806.27,56787.05,-253.27,15.95,0.711816,95.41,0
379003,1,51915,1,51564,56820,51805.79,56787.11,-241.79,32.89,0.711816,95.41,0
379043,1,51955,1,51570,56833,51805.32,56787.21,-235.32,45.79,0.711816,95.41,0
379083,1,51995,1,51577,56847,51804.86,56787.33,-227.86,59.67,0.711816,95.41,0
379123,1,52035,1,51573,56797,51804.40,56787.35,-231.40,9.65,0.711816,95.41,0
379163,1,52075,1,51536,56701,51803.86,56787.18,-267.86,-86.18,0.711816,95.41,0
379203,1,52115,1,51519,56694,51803.29,56786.99,-284.29,-92.99,0.711816,95.41,0
379243,1,52155,1,51531,56740,51802.75,56786.90,-271.75,-46.90,0.711816,95.41,0
379283,1,52195,1,51537,56761,51802.22,56786.85,-265.22,-25.85,0.711816,95.41,0
379323,1,52235,1,51539,56766,51801.70,56786.81,-262.70,-20.81,0.711816,95.41,0
379363,1,52275,1,51541,56767,51801.18,56786.77,-260.18,-19.77,0.711816,95.41,0
379404,1,52316,1,51537,56759,51800.65,56786.71,-263.65,-27.71,0.711816,95.41,0
379444,1,52356,1,51536,56752,51800.12,56786.65,-264.12,-34.65,0.711816,95.41,0
379484,1,52396,1,51535,56765,51799.59,56786.61,-264.59,-21.61,0.711816,95.41,0
379524,1,52436,1,51537,56791,51799.07,56786.62,-262.07,4.38,0.711816,95.41,0
379564,1,52476,1,51545,56811,51798.56,56786.67,-253.56,24.33,0.711816,95.41,0
379604,1,52516,1,51555,56823,51798.08,56786.74,-243.08,36.26,0.711816,95.41,0
379644,1,52556,1,51563,56842,51797.61,56786.86,-234.61,55.14,0.711816,95.41,0
379684,1,52596,1,51561,56855,51797.14,56786.99,-236.14,68.01,0.711816,95.41,0
379724,1,52636,1,51566,56868,51796.68,56787.16,-230.68,80.84,0.711816,95.41,0
379764,1,52676,1,51572,56870,51796.23,56787.32,-224.23,82.68,0.711816,95.41,0
379804,1,52716,1,51580,56879,51795.80,56787.51,-215.80,91.49,0.711816,95.41,0
379844,1,52756,1,51579,56893,51795.36,56787.72,-216.36,105.28,0.711816,95.41,0
379884,1,52796,1,51582,56891,51794.94,56787.93,-212.94,103.07,0.711816,95.41,0
379924,1,52836,1,51559,56787,51794.47,56787.93,-235.47,-0.93,0.711816,95.41,0
379964,1,52876,1,51526,56731,51793.93,56787.81,-267.93,-56.81,0.711816,95.41,0
380004,1,52916,1,51518,56765,51793.38,56787.77,-275.38,-22.77,0.711816,95.41,0
380044,1,52956,1,51533,56806,51792.86,56787.81,-259.86,18.19,0.711816,95.41,0
380084,1,52996,1,51537,56808,51792.35,56787.85,-255.35,20.15,0.711816,95.41,0
380125,1,53037,1,51538,56809,51791.84,56787.89,-253.84,21.11,0.711816,95.41,0
380165,1,53077,1,51534,56805,51791.33,56787.93,-257.33,17.07,0.711816,95.41,0
380205,1,53117,1,51531,56796,51790.81,56787.95,-259.81,8.05,0.711816,95.41,0
380245,1,53157,1,51528,56795,51790.29,56787.96,-262.29,7.04,0.711816,95.41,0
380285,1,53197,1,51528,56813,51789.76,56788.02,-261.76,24.98,0.711816,95.41,0
380325,1,53237,1,51538,56838,51789.26,56788.12,-251.26,49.88,0.711816,95.41,0
380365,1,53277,1,51547,56859,51788.77,56788.26,-241.77,70.74,0.711816,95.41,0
380405,1,53317,1,51555,56877,51788.31,56788.44,-233.31,88.56,0.711816,95.41,0
380445,1,53357,1,51556,56879,51787.84,56788.62,-231.84,90.37,0.711816,95.41,0
380485,1,53397,1,51562,56890,51787.39,56788.83,-225.39,101.17,0.711816,95.41,0
380525,1,53437,1,51564,56896,51786.95,56789.04,-222.95,106.96,0.711816,95.41,0
380565,1,53477,1,51563,56903,51786.50,56789.27,-223.50,113.73,0.711816,95.41,0
380605,1,53517,1,51564,56911,51786.06,56789.52,-222.06,121.48,0.711816,95.41,0
380645,1,53557,1,51571,56910,51785.63,56789.76,-214.63,120.24,0.711816,95.41,0
380685,1,53597,1,51550,56809,51785.16,56789.80,-235.16,19.20,0.711816,95.41,0
380725,1,53637,1,51506,56744,51784.60,56789.71,-278.60,-45.71,0.711816,95.41,0
380765,1,53677,1,51500,56772,51784.04,56789.68,-284.04,-17.68,0.711816,95.41,0
380806,1,53718,1,51511,56811,51783.49,56789.72,-272.49,21.28,0.711816,95.41,0
380846,1,53758,1,51525,56822,51782.98,56789.79,-257.98,32.21,0.711816,95.41,0
380886,1,53798,1,51520,56830,51782.45,56789.87,-262.45,40.13,0.711816,95.41,0
380926,1,53838,1,51523,56825,51781.94,56789.94,-258.94,35.06,0.711816,95.41,0
380966,1,53878,1,51517,56805,51781.41,56789.97,-264.41,15.03,0.711816,95.41,0
381006,1,53918,1,51517,56807,51780.88,56790.00,-263.88,17.00,0.711816,95.41,0
381046,1,53958,1,51515,56828,51780.35,56790.08,-265.35,37.92,0.711816,95.41,0
381086,1,53998,1,51525,56843,51779.84,56790.19,-254.84,52.81,0.711816,95.41,0
381126,1,54038,1,51532,56861,51779.35,56790.33,-247.35,70.67,0.711816,95.41,0
381166,1,54078,1,51539,56871,51778.87,56790.50,-239.87,80.50,0.711816,95.41,0
381206,1,54118,1,51544,56882,51778.40,56790.68,-234.40,91.32,0.711816,95.41,0
381246,1,54158,1,51541,56892,51777.93,56790.88,-236.93,101.12,0.711816,95.41,0
381286,1,54198,1,51545,56899,51777.46,56791.10,-232.46,107.90,0.711816,95.41,0
381326,1,54238,1,51547,56905,51777.00,56791.33,-230.00,113.67,0.711816,95.41,0
381366,1,54278,1,51551,56917,51776.55,56791.59,-225.55,125.41,0.711816,95.41,0
381406,1,54318,1,51546,56887,51776.09,56791.78,-230.09,95.22,0.711816,95.41,0
381446,1,54358,1,51514,56779,51775.57,56791.75,-261.57,-12.75,0.711816,95.41,0
381487,1,54399,1,51486,56737,51774.99,56791.64,-288.99,-54.64,0.711816,95.41,0
381527,1,54439,1,51480,56770,51774.40,56791.60,-294.40,-21.60,0.711816,95.41,0
381567,1,54479,1,51492,56807,51773.84,56791.63,-281.84,15.37,0.711816,95.41,0
381607,1,54519,1,51501,56813,51773.29,56791.68,-272.29,21.32,0.711816,95.41,0
381647,1,54559,1,51502,56813,51772.75,56791.72,-270.75,21.28,0.711816,95.41,0
381687,1,54599,1,51500,56802,51772.21,56791.74,-272.21,10.26,0.711816,95.41,0
381727,1,54639,1,51497,56792,51771.66,56791.75,-274.66,0.25,0.711816,95.41,0
381767,1,54679,1,51491,56796,51771.10,56791.76,-280.10,4.24,0.711816,95.41,0
381807,1,54719,1,51497,56809,51770.55,56791.79,-273.55,17.21,0.711816,95.41,0
381847,1,54759,1,51505,56823,51770.02,56791.86,-265.02,31.14,0.711816,95.41,0
381887,1,54799,1,51509,56840,51769.50,56791.95,-260.50,48.05,0.711816,95.41,0
381927,1,54839,1,51515,56850,51768.99,56792.07,-253.99,57.93,0.711816,95.41,0
381967,1,54879,1,51515,56855,51768.48,56792.20,-253.48,62.80,0.711816,95.41,0
382007,1,54919,1,51517,56857,51767.98,56792.33,-250.98,64.67,0.711816,95.41,0
382047,1,54959,1,51517,56859,51767.48,56792.47,-250.48,66.53,0.711816,95.41,0
382087,1,54999,1,51513,56876,51766.98,56792.64,-253.98,83.36,0.711816,95.41,0
382128,1,55040,1,51516,56877,51766.48,56792.81,-250.48,84.19,0.711816,95.41,0
382168,1,55080,1,51504,56788,51765.95,56792.80,-261.95,-4.80,0.711816,95.41,0
382208,1,55120,1,51457,56705,51765.34,56792.62,-308.34,-87.62,0.711816,95.41,0
382248,1,55160,1,51444,56706,51764.70,56792.45,-320.70,-86.45,0.711816,95.41,0
382288,1,55200,1,51456,56747,51764.08,56792.36,-308.08,-45.36,0.711816,95.41,0
382328,1,55240,1,51467,56772,51763.48,56792.32,-296.48,-20.32,0.711816,95.41,0
382368,1,55280,1,51467,56775,51762.89,56792.29,-295.89,-17.29,0.711816,95.41,0
382408,1,55320,1,51473,56768,51762.32,56792.25,-289.32,-24.25,0.711816,95.41,0
382448,1,55360,1,51477,56753,51761.75,56792.17,-284.75,-39.17,0.711816,95.41,0
382488,1,55400,1,51473,56741,51761.17,56792.07,-288.17,-51.07,0.711816,95.41,0
382528,1,55440,1,51471,56753,51760.59,56791.99,-289.59,-38.99,0.711816,95.41,0
382568,1,55480,1,51474,56770,51760.02,56791.95,-286.02,-21.95,0.711816,95.41,0
382608,1,55520,1,51480,56781,51759.46,56791.93,-279.46,-10.93,0.711816,95.41,0
382648,1,55560,1,51485,56790,51758.92,56791.92,-273.92,-1.92,0.711816,95.41,0
382688,1,55600,1,51481,56800,51758.36,56791.94,-277.36,8.06,0.711816,95.41,0
382728,1,55640,1,51484,56804,51757.82,56791.97,-273.82,12.03,0.711816,95.41,0
382768,1,55680,1,51482,56813,51757.27,56792.01,-275.27,20.99,0.711816,95.41,0
382809,1,55721,1,51484,56815,51756.72,56792.06,-272.72,22.94,0.711816,95.41,0
382849,1,55761,1,51481,56830,51756.17,56792.14,-275.17,37.86,0.711816,95.41,0
382889,1,55801,1,51478,56764,51755.61,56792.08,-277.61,-28.08,0.711816,95.41,0
382929,1,55841,1,51441,56672,51754.98,56791.84,-313.98,-119.84,0.711816,95.41,0
382969,1,55881,1,51423,56666,51754.32,56791.59,-331.32,-125.59,0.711816,95.41,0
383009,1,55921,1,51432,56713,51753.68,56791.44,-321.68,-78.44,0.711816,95.41,0
383049,1,55961,1,51445,56733,51753.06,56791.32,-308.06,-58.32,0.711816,95.41,0
383089,1,56001,1,51452,56730,51752.46,56791.20,-300.46,-61.20,0.711816,95.41,0
383129,1,56041,1,51460,56727,51751.87,56791.07,-291.87,-64.07,0.711816,95.41,0
383169,1,56081,1,51453,56709,51751.28,56790.91,-298.28,-81.91,0.711816,95.41,0
383209,1,56121,1,51444,56706,51750.66,56790.74,-306.66,-84.74,0.711816,95.41,0
383249,1,56161,1,51450,56711,51750.06,56790.59,-300.06,-79.59,0.711816,95.41,0
383289,1,56201,1,51454,56726,51749.47,56790.46,-295.47,-64.46,0.711816,95.41,0
383329,1,56241,1,51455,56738,51748.89,56790.36,-293.89,-52.36,0.711816,95.41,0
383369,1,56281,1,51455,56747,51748.30,56790.27,-293.30,-43.27,0.711816,95.41,0
383409,1,56321,1,51461,56754,51747.73,56790.20,-286.73,-36.20,0.711816,95.41,0
383450,1,56362,1,51459,56754,51747.15,56790.13,-288.15,-36.13,0.711816,95.41,0
383490,1,56402,1,51457,56765,51746.57,56790.08,-289.57,-25.08,0.711816,95.41,0
383530,1,56442,1,51462,56776,51746.01,56790.05,-284.01,-14.05,0.711816,95.41,0
383570,1,56482,1,51466,56794,51745.45,56790.06,-279.45,3.94,0.711816,95.41,0
383610,1,56522,1,51470,56779,51744.90,56790.04,-274.90,-11.04,0.711816,95.41,0
383650,1,56562,1,51445,56676,51744.30,56789.82,-299.30,-113.82,0.711816,95.41,0
383690,1,56602,1,51415,56632,51743.64,56789.50,-328.64,-157.50,0.711816,95.41,0
383730,1,56642,1,51414,56669,51742.99,56789.27,-328.99,-120.27,0.711816,95.41,0
383770,1,56682,1,51429,56697,51742.36,56789.08,-313.36,-92.08,0.711816,95.41,0
383810,1,56722,1,51440,56695,51741.76,56788.89,-301.76,-93.89,0.711816,95.41,0
383850,1,56762,1,51445,56693,51741.17,56788.70,-296.17,-95.70,0.711816,95.41,0
383890,1,56802,1,51440,56697,51740.57,56788.52,-300.57,-91.52,0.711816,95.41,0
383930,1,56842,1,51438,56690,51739.96,56788.32,-301.96,-98.32,0.711816,95.41,0
383970,1,56882,1,51446,56692,51739.37,56788.13,-293.37,-96.13,0.711816,95.41,0
384010,1,56922,1,51451,56708,51738.80,56787.97,-287.80,-79.97,0.711816,95.41,0
384050,1,56962,1,51454,56730,51738.23,56787.86,-284.23,-57.86,0.711816,95.41,0
384090,1,57002,1,51458,56736,51737.68,56787.76,-279.68,-51.76,0.711816,95.41,0
384130,1,57042,1,51460,56751,51737.12,56787.69,-277.12,-36.69,0.711816,95.41,0
384171,1,57083,1,51466,56753,51736.58,56787.62,-270.58,-34.62,0.711816,95.41,0
384211,1,57123,1,51468,56772,51736.05,56787.59,-268.05,-15.59,0.711816,95.41,0
384251,1,57163,1,51466,56780,51735.51,56787.57,-269.51,-7.57,0.711816,95.41,0
384291,1,57203,1,51478,56801,51734.99,56787.60,-256.99,13.40,0.711816,95.41,0
384331,1,57243,1,51483,56807,51734.49,56787.64,-251.49,19.36,0.711816,95.41,0
384371,1,57283,1,51474,56734,51733.97,56787.54,-259.97,-53.54,0.711816,95.41,0
384411,1,57323,1,51443,56653,51733.39,56787.27,-290.39,-134.27,0.711816,95.41,0
384451,1,57363,1,51431,56666,51732.79,56787.02,-301.79,-121.02,0.711816,95.41,0
384491,1,57403,1,51447,56699,51732.21,56786.85,-285.21,-87.85,0.711816,95.41,0
384531,1,57443,1,51456,56700,51731.66,56786.68,-275.66,-86.68,0.711816,95.41,0
384571,1,57483,1,51456,56704,51731.11,56786.51,-275.11,-82.51,0.711816,95.41,0
384611,1,57523,1,51458,56702,51730.57,56786.34,-272.57,-84.34,0.711816,95.41,0
384651,1,57563,1,51458,56688,51730.03,56786.15,-272.03,-98.15,0.711816,95.41,0
384691,1,57603,1,51449,56686,51729.46,56785.95,-280.46,-99.95,0.711816,95.41,0
384731,1,57643,1,51453,56697,51728.91,56785.77,-275.91,-88.77,0.711816,95.41,0
384772,1,57684,1,51461,56711,51728.38,56785.62,-267.38,-74.62,0.711816,95.41,0
384812,1,57724,1,51466,56728,51727.86,56785.51,-261.86,-57.51,0.711816,95.41,0
384852,1,57764,1,51470,56741,51727.34,56785.43,-257.34,-44.43,0.711816,95.41,0
384892,1,57804,1,51472,56755,51726.83,56785.37,-254.83,-30.37,0.711816,95.41,0
384932,1,57844,1,51481,56762,51726.34,56785.32,-245.34,-23.32,0.711816,95.41,0
384972,1,57884,1,51483,56775,51725.86,56785.30,-242.86,-10.30,0.711816,95.41,0
385012,1,57924,1,51492,56795,51725.39,56785.32,-233.39,9.68,0.711816,95.41,0
385052,1,57964,1,51502,56812,51724.95,56785.37,-222.95,26.62,0.711816,95.41,0
385092,1,58004,1,51508,56807,51724.51,56785.42,-216.51,21.58,0.711816,95.41,0
385132,1,58044,1,51490,56698,51724.04,56785.25,-234.04,-87.25,0.711816,95.41,0
385172,1,58084,1,51450,56639,51723.50,56784.95,-273.50,-145.95,0.711816,95.41,0
385212,1,58124,1,51446,56658,51722.94,56784.70,-276.94,-126.70,0.711816,95.41,0
385252,1,58164,1,51461,56689,51722.42,56784.51,-261.42,-95.51,0.711816,95.41,0
385292,1,58204,1,51466,56683,51721.91,56784.30,-255.91,-101.30,0.711816,95.41,0
385332,1,58244,1,51461,56691,51721.39,56784.12,-260.39,-93.12,0.711816,95.41,0
385372,1,58284,1,51465,56684,51720.87,56783.92,-255.87,-99.92,0.711816,95.41,0
385413,1,58325,1,51460,56666,51720.36,56783.69,-260.36,-117.69,0.711816,95.41,0
385453,1,58365,1,51460,56674,51719.84,56783.47,-259.84,-109.47,0.711816,95.41,0
385493,1,58405,1,51460,56691,51719.32,56783.29,-259.32,-92.29,0.711816,95.41,0
385533,1,58445,1,51468,56707,51718.82,56783.13,-250.82,-76.13,0.711816,95.41,0
385573,1,58485,1,51483,56728,51718.35,56783.02,-235.35,-55.02,0.711816,95.41,0
385613,1,58525,1,51482,56745,51717.87,56782.95,-235.87,-37.95,0.711816,95.41,0
385653,1,58565,1,51495,56766,51717.43,56782.92,-222.43,-16.92,0.711816,95.41,0
385693,1,58605,1,51505,56774,51717.01,56782.90,-212.01,-8.90,0.711816,95.41,0
385733,1,58645,1,51516,56786,51716.61,56782.91,-200.61,3.09,0.711816,95.41,0
385773,1,58685,1,51515,56794,51716.20,56782.93,-201.20,11.07,0.711816,95.41,0
385813,1,58725,1,51520,56816,51715.81,56783.00,-195.81,33.00,0.711816,95.41,0
385853,1,58765,1,51530,56823,51715.44,56783.08,-185.44,39.92,0.711816,95.41,0
385893,1,58805,1,51516,56727,51715.04,56782.97,-199.04,-55.97,0.711816,95.41,0
385933,1,58845,1,51475,56642,51714.56,56782.69,-239.56,-140.69,0.711816,95.41,0
385973,1,58885,1,51460,56658,51714.05,56782.45,-254.05,-124.45,0.711816,95.41,0
386013,1,58925,1,51472,56693,51713.57,56782.27,-241.57,-89.27,0.711816,95.41,0
386054,1,58966,1,51483,56691,51713.11,56782.09,-230.11,-91.09,0.711816,95.41,0
386094,1,59006,1,51478,56692,51712.64,56781.91,-234.64,-89.91,0.711816,95.41,0
386134,1,59046,1,51475,56697,51712.17,56781.74,-237.17,-84.74,0.711816,95.41,0
386174,1,59086,1,51482,56687,51711.71,56781.55,-229.71,-94.55,0.711816,95.41,0
386214,1,59126,1,51482,56689,51711.25,56781.37,-229.25,-92.37,0.711816,95.41,0
386254,1,59166,1,51488,56713,51710.80,56781.23,-222.80,-68.23,0.711816,95.41,0
386294,1,59206,1,51500,56737,51710.38,56781.15,-210.38,-44.15,0.711816,95.41,0
386334,1,59246,1,51507,56752,51709.98,56781.09,-202.98,-29.09,0.711816,95.41,0
386374,1,59286,1,51521,56764,51709.60,56781.06,-188.60,-17.06,0.711816,95.41,0
386414,1,59326,1,51524,56776,51709.23,56781.05,-185.23,-5.05,0.711816,95.41,0
386454,1,59366,1,51529,56792,51708.87,56781.07,-179.87,10.93,0.711816,95.41,0
386494,1,59406,1,51533,56793,51708.52,56781.10,-175.52,11.90,0.711816,95.41,0
386534,1,59446,1,51539,56807,51708.18,56781.15,-169.18,25.85,0.711816,95.41,0
386574,1,59486,1,51547,56815,51707.86,56781.22,-160.86,33.78,0.711816,95.41,0
386614,1,59526,1,51545,56836,51707.54,56781.33,-162.54,54.67,0.711816,95.41,0
386654,1,59566,1,51546,56769,51707.22,56781.31,-161.22,-12.31,0.711816,95.41,0
386695,1,59607,1,51505,56668,51706.82,56781.08,-201.82,-113.08,0.711816,95.41,0
386735,1,59647,1,51483,56658,51706.37,56780.84,-223.37,-122.84,0.711816,95.41,0
386775,1,59687,1,51494,56706,51705.95,56780.69,-211.95,-74.69,0.711816,95.41,0
386815,1,59727,1,51509,56712,51705.56,56780.55,-196.56,-68.55,0.711816,95.41,0
386855,1,59767,1,51503,56714,51705.16,56780.42,-202.16,-66.42,0.711816,95.41,0
386895,1,59807,1,51511,56724,51704.77,56780.30,-193.77,-56.30,0.711816,95.41,0
386935,1,59847,1,51516,56718,51704.39,56780.18,-188.39,-62.18,0.711816,95.41,0
386975,1,59887,1,51518,56710,51704.02,56780.04,-186.02,-70.04,0.711816,95.41,0
387015,1,59927,1,51526,56723,51703.67,56779.93,-177.67,-56.93,0.711816,95.41,0
387055,1,59967,1,51532,56743,51703.32,56779.85,-171.32,-36.85,0.711816,95.41,0
387095,1,60007,1,51537,56763,51702.99,56779.82,-165.99,-16.82,0.711816,95.41,0
387135,1,60047,1,51543,56767,51702.67,56779.80,-159.67,-12.80,0.711816,95.41,0
387175,1,60087,1,51548,56775,51702.36,56779.79,-154.36,-4.79,0.711816,95.41,0
387215,1,60127,1,51551,56791,51702.06,56779.81,-151.06,11.19,0.711816,95.41,0
387255,1,60167,1,51552,56793,51701.77,56779.84,-149.77,13.16,0.711816,95.41,0
387295,1,60207,1,51553,56802,51701.47,56779.89,-148.47,22.11,0.711816,95.41,0
387336,1,60248,1,51562,56821,51701.19,56779.97,-139.19,41.03,0.711816,95.41,0
387376,1,60288,1,51564,56837,51700.92,56780.09,-136.92,56.91,0.711816,95.41,0
387416,1,60328,1,51569,56809,51700.66,56780.14,-131.66,28.86,0.711816,95.41,0
387456,1,60368,1,51538,56693,51700.33,56779.97,-162.33,-86.97,0.711816,95.41,0
387496,1,60408,1,51504,56663,51699.94,56779.74,-195.94,-116.74,0.711816,95.41,0
387536,1,60448,1,51509,56710,51699.56,56779.60,-190.56,-69.60,0.711816,95.41,0
387576,1,60488,1,51532,56737,51699.23,56779.52,-167.23,-42.52,0.711816,95.41,0
387616,1,60528,1,51543,56732,51698.92,56779.43,-155.92,-47.43,0.711816,95.41,0
387656,1,60568,1,51550,56736,51698.62,56779.34,-148.62,-43.34,0.711816,95.41,0
387696,1,60608,1,51549,56733,51698.32,56779.25,-149.32,-46.25,0.711816,95.41,0
387736,1,60648,1,51545,56718,51698.02,56779.13,-153.02,-61.13,0.711816,95.41,0
387776,1,60688,1,51549,56723,51697.72,56779.02,-148.72,-56.02,0.711816,95.41,0
387816,1,60728,1,51553,56744,51697.43,56778.95,-144.43,-34.95,0.711816,95.41,0
387856,1,60768,1,51556,56759,51697.15,56778.91,-141.15,-19.91,0.711816,95.41,0
