t_ms,trial_id,t_trial_ms,phase,red_raw,ir_raw,red_dc,ir_dc,red_ac,ir_ac,R,spo2,spo2_valid
916546,1,0,0,45184,49038,45318.48,49313.37,-134.48,-275.37,0.364397,100.00,1
916586,1,40,0,45179,49093,45318.20,49312.93,-139.20,-219.93,0.364516,100.00,1
916626,1,80,0,45208,49179,45317.98,49312.66,-109.98,-133.66,0.364638,100.00,1
916666,1,120,0,45241,49250,45317.83,49312.54,-76.83,-62.54,0.364762,100.00,1
916706,1,160,0,45271,49311,45317.73,49312.54,-46.73,-1.54,0.364886,100.00,1
916746,1,200,0,45295,49349,45317.69,49312.61,-22.69,36.39,0.365010,100.00,1
916786,1,240,0,45298,49353,45317.65,49312.70,-19.65,40.30,0.365134,100.00,1
916826,1,280,0,45290,49340,45317.60,49312.75,-27.60,27.25,0.365257,100.00,1
916866,1,320,0,45288,49353,45317.54,49312.83,-29.54,40.17,0.365381,100.00,1
916906,1,360,0,45294,49389,45317.49,49312.98,-23.49,76.02,0.365504,100.00,1
916946,1,400,0,45310,49434,45317.48,49313.23,-7.48,120.77,0.365626,100.00,1
916986,1,440,0,45331,49479,45317.50,49313.56,13.50,165.44,0.365745,100.00,1
917027,1,481,0,45343,49515,45317.55,49313.96,25.45,201.04,0.365863,100.00,1
917067,1,521,0,45354,49552,45317.63,49314.44,36.37,237.56,0.365977,100.00,1
917107,1,561,0,45366,49590,45317.73,49314.99,48.27,275.01,0.366088,100.00,1
917147,1,601,0,45366,49525,45317.82,49315.41,48.18,209.59,0.366197,100.00,1
917187,1,641,0,45298,49344,45317.79,49315.47,-19.79,28.53,0.366306,100.00,1
917227,1,681,0,45230,49247,45317.61,49315.33,-87.61,-68.33,0.366417,100.00,1
917267,1,721,0,45209,49264,45317.39,49315.23,-108.39,-51.23,0.366533,100.00,1
917307,1,761,0,45234,49321,45317.23,49315.24,-83.23,5.76,0.366652,100.00,1
917347,1,801,0,45255,49373,45317.11,49315.36,-62.11,57.64,0.366772,100.00,1
917387,1,841,0,45276,49418,45317.02,49315.57,-41.02,102.43,0.366891,100.00,1
917427,1,881,0,45294,49455,45316.98,49315.85,-22.98,139.15,0.367009,100.00,1
917467,1,921,0,45293,49469,45316.93,49316.16,-23.93,152.84,0.367126,100.00,1
917507,1,961,0,45298,49468,45316.90,49316.46,-18.90,151.54,0.367241,100.00,1
917547,1,1001,0,45295,49487,45316.86,49316.80,-21.86,170.20,0.367354,100.00,1
917587,1,1041,0,45301,49516,45316.82,49317.20,-15.82,198.80,0.367465,100.00,1
917627,1,1081,0,45311,49551,45316.81,49317.67,-5.81,233.33,0.367571,100.00,1
917668,1,1122,0,45324,49584,45316.83,49318.21,7.17,265.79,0.367673,100.00,1
917708,1,1162,0,45331,49617,45316.86,49318.80,14.14,298.20,0.367769,100.00,1
917748,1,1202,0,45340,49653,45316.91,49319.47,23.09,333.53,0.367858,100.00,1
917788,1,1242,0,45351,49672,45316.98,49320.18,34.02,351.82,0.367939,100.00,1
917828,1,1282,0,45330,49579,45317.00,49320.70,13.00,258.30,0.368016,100.00,1
917868,1,1322,0,45281,49506,45316.93,49321.07,-35.93,184.93,0.368091,100.00,1
917908,1,1362,0,45256,49497,45316.81,49321.42,-60.81,175.58,0.368166,100.00,1
917948,1,1402,0,45258,49531,45316.70,49321.84,-58.70,209.16,0.368239,100.00,1
917988,1,1442,0,45284,49579,45316.63,49322.36,-32.63,256.64,0.368309,100.00,1
918028,1,1482,0,45303,49623,45316.61,49322.96,-13.61,300.04,0.368373,100.00,1
918068,1,1522,0,45316,49661,45316.61,49323.64,-0.61,337.36,0.368429,100.00,1
918108,1,1562,0,45323,49686,45316.62,49324.36,6.38,361.64,0.368478,100.00,1
918148,1,1602,0,45327,49705,45316.64,49325.12,10.36,379.87,0.368517,100.00,1
918188,1,1642,0,45330,49732,45316.67,49325.94,13.33,406.06,0.368546,100.00,1
918228,1,1682,0,45336,49771,45316.71,49326.83,19.29,444.17,0.368563,100.00,1
918268,1,1722,0,45350,49811,45316.78,49327.80,33.22,483.20,0.368568,100.00,1
918309,1,1763,0,45361,49847,45316.87,49328.84,44.13,518.16,0.368558,100.00,1
918349,1,1803,0,45373,49885,45316.98,49329.95,56.02,555.05,0.368533,100.00,1
918389,1,1843,0,45382,49926,45317.11,49331.15,64.89,594.85,0.368491,100.00,1
918429,1,1883,0,45396,49957,45317.27,49332.40,78.73,624.60,0.368433,100.00,1
918469,1,1923,0,45388,49905,45317.42,49333.55,70.58,571.45,0.368361,100.00,1
918509,1,1963,0,45360,49889,45317.50,49334.66,42.50,554.34,0.368276,100.00,1
918549,1,2003,0,45349,49907,45317.57,49335.80,31.43,571.20,0.368177,100.00,1
918589,1,2043,0,45363,49937,45317.66,49337.01,45.34,599.99,0.368063,100.00,1
918629,1,2083,0,45377,49965,45317.78,49338.27,59.22,626.73,0.367934,100.00,1
918669,1,2123,0,45383,49988,45317.91,49339.57,65.09,648.43,0.367791,100.00,1
918709,1,2163,0,45391,50015,45318.06,49340.92,72.94,674.08,0.367633,100.00,1
918749,1,2203,0,45390,50030,45318.21,49342.30,71.79,687.70,0.367460,100.00,1
918789,1,2243,0,45390,50046,45318.35,49343.71,71.65,702.29,0.367272,100.00,1
918829,1,2283,0,45395,50062,45318.51,49345.14,76.49,716.86,0.367070,100.00,1
918869,1,2323,0,45399,50085,45318.67,49346.62,80.33,738.37,0.366853,100.00,1
918909,1,2363,0,45409,50111,45318.86,49348.16,90.14,762.84,0.366622,100.00,1
918950,1,2404,0,45412,50132,45319.04,49349.73,92.96,782.27,0.366378,100.00,1
918990,1,2444,0,45417,50148,45319.24,49351.32,97.76,796.68,0.366120,100.00,1
919030,1,2484,0,45415,50172,45319.43,49352.97,95.57,819.03,0.365849,100.00,1
919070,1,2524,0,45420,50194,45319.63,49354.65,100.37,839.35,0.365565,100.00,1
919110,1,2564,0,45420,50154,45319.84,49356.25,100.16,797.75,0.365270,100.00,1
919150,1,2604,0,45387,50124,45319.97,49357.79,67.03,766.21,0.364964,100.00,1
919190,1,2644,0,45380,50140,45320.09,49359.36,59.91,780.64,0.364647,100.00,1
919230,1,2684,0,45388,50163,45320.23,49360.96,67.77,802.04,0.364318,100.00,1
919270,1,2724,0,45398,50176,45320.39,49362.60,77.61,813.40,0.363979,100.00,1
919310,1,2764,0,45401,50184,45320.55,49364.24,80.45,819.76,0.363631,100.00,1
919350,1,2804,0,45397,50195,45320.70,49365.91,76.30,829.09,0.363272,100.00,1
919390,1,2844,0,45402,50201,45320.87,49367.58,81.13,833.42,0.362904,100.00,1
919430,1,2884,0,45392,50199,45321.01,49369.24,70.99,829.76,0.362527,100.00,1
919470,1,2924,0,45391,50199,45321.15,49370.90,69.85,828.10,0.362141,100.00,1
919510,1,2964,0,45383,50210,45321.28,49372.58,61.72,837.42,0.361747,100.00,1
919550,1,3004,0,45386,50220,45321.41,49374.28,64.59,845.72,0.361343,100.00,1
919590,1,3044,0,45387,50232,45321.54,49375.99,65.46,856.01,0.360931,100.00,1
919631,1,3085,0,45389,50237,45321.68,49377.71,67.32,859.29,0.360512,100.00,1
919671,1,3125,0,45389,50255,45321.81,49379.47,67.19,875.53,0.360084,100.00,1
919711,1,3165,0,45387,50265,45321.95,49381.24,65.05,883.76,0.359648,100.00,1
919751,1,3205,0,45387,50270,45322.08,49383.02,64.92,886.98,0.359205,100.00,1
919791,1,3245,0,45385,50280,45322.21,49384.82,62.79,895.18,0.358754,100.00,1
919831,1,3285,0,45381,50244,45322.32,49386.54,58.68,857.46,0.358297,100.00,1
919871,1,3325,0,45345,50207,45322.37,49388.18,22.63,818.82,0.357834,100.00,1
919911,1,3365,0,45344,50216,45322.41,49389.83,21.59,826.17,0.357364,100.00,1
919951,1,3405,0,45357,50231,45322.48,49391.52,34.52,839.48,0.357364,100.00,0
919991,1,3445,0,45356,50238,45322.55,49393.21,33.45,844.79,0.357364,100.00,0
920031,1,3485,0,45351,50236,45322.61,49394.90,28.39,841.10,0.357364,100.00,0
920071,1,3525,0,45351,50239,45322.67,49396.59,28.33,842.41,0.357364,100.00,0
920111,1,3565,0,45344,50229,45322.71,49398.26,21.29,830.74,0.357364,100.00,0
920151,1,3605,0,45335,50221,45322.74,49399.91,12.26,821.09,0.357364,100.00,0
920191,1,3645,0,45325,50216,45322.74,49401.54,2.26,814.46,0.357364,100.00,0
920231,1,3685,0,45321,50221,45322.74,49403.18,-1.74,817.82,0.357364,100.00,0
920272,1,3726,0,45320,50228,45322.73,49404.83,-2.73,823.17,0.357364,100.00,0
920312,1,3766,0,45323,50235,45322.73,49406.49,0.27,828.51,0.357364,100.00,0
920352,1,3806,0,45318,50246,45322.73,49408.17,-4.73,837.83,0.357364,100.00,0
920392,1,3846,0,45315,50247,45322.71,49409.85,-7.71,837.15,0.357364,100.00,0
920432,1,3886,0,45312,50246,45322.69,49411.52,-10.69,834.48,0.357364,100.00,0
920472,1,3926,0,45310,50245,45322.67,49413.19,-12.67,831.81,0.357364,100.00,0
920512,1,3966,0,45298,50245,45322.62,49414.86,-24.62,830.14,0.357364,100.00,0
920552,1,4006,0,45300,50231,45322.58,49416.49,-22.58,814.51,0.357364,100.00,0
920592,1,4046,0,45279,50156,45322.49,49417.97,-43.49,738.03,0.357364,100.00,0
920632,1,4086,0,45242,50118,45322.33,49419.37,-80.33,698.63,0.357364,100.00,0
920672,1,4126,0,45240,50120,45322.17,49420.77,-82.17,699.23,0.357364,100.00,0
920712,1,4166,0,45238,50119,45322.00,49422.17,-84.00,696.83,0.357364,100.00,0
920752,1,4206,0,45232,50112,45321.82,49423.55,-89.82,688.45,0.357364,100.00,0
920792,1,4246,0,45221,50108,45321.62,49424.93,-100.62,683.07,0.357364,100.00,0
920832,1,4286,0,45213,50092,45321.41,49426.26,-108.41,665.74,0.357364,100.00,0
920872,1,4326,0,45207,50072,45321.18,49427.55,-114.18,644.45,0.357364,100.00,0
920913,1,4367,0,45188,50057,45320.91,49428.82,-132.91,628.18,0.357364,100.00,0
920953,1,4407,0,45176,50053,45320.62,49430.07,-144.62,622.93,0.357364,100.00,0
920993,1,4447,0,45171,50058,45320.33,49431.32,-149.33,626.68,0.357364,100.00,0
921033,1,4487,0,45172,50063,45320.03,49432.59,-148.03,630.41,0.357364,100.00,0
921073,1,4527,0,45168,50064,45319.73,49433.86,-151.73,630.14,0.357364,100.00,0
921113,1,4567,0,45167,50065,45319.42,49435.12,-152.42,629.88,0.357364,100.00,0
921153,1,4607,0,45160,50062,45319.11,49436.37,-159.11,625.63,0.357364,100.00,0
921193,1,4647,0,45158,50063,45318.79,49437.62,-160.79,625.37,0.357364,100.00,0
921233,1,4687,0,45160,50061,45318.47,49438.87,-158.47,622.13,0.357364,100.00,0
921273,1,4727,0,45156,50055,45318.14,49440.11,-162.14,614.89,0.357364,100.00,0
921313,1,4767,0,45136,49992,45317.78,49441.21,-181.78,550.79,0.357364,100.00,0
921353,1,4807,0,45107,49965,45317.36,49442.26,-210.36,522.74,0.357364,100.00,0
921393,1,4847,0,45104,49965,45316.93,49443.31,-212.93,521.69,0.357364,100.00,0
921433,1,4887,0,45102,49974,45316.50,49444.37,-214.50,529.63,0.357364,100.00,0
921473,1,4927,0,45099,49975,45316.07,49445.43,-217.07,529.57,0.357364,100.00,0
921513,1,4967,0,45090,49969,45315.62,49446.48,-225.62,522.52,0.357364,100.00,0
921554,1,5008,0,45084,49954,45315.16,49447.50,-231.16,506.50,0.356900,100.00,1
921594,1,5048,0,45074,49931,45314.68,49448.46,-240.68,482.54,0.356451,100.00,1
921634,1,5088,0,45053,49918,45314.16,49449.41,-261.16,468.59,0.356018,100.00,1
921674,1,5128,0,45046,49912,45313.62,49450.33,-267.62,461.67,0.355602,100.00,1
921714,1,5168,0,45043,49909,45313.08,49451.25,-270.08,457.75,0.355203,100.00,1
921754,1,5208,0,45037,49912,45312.53,49452.17,-275.53,459.83,0.354822,100.00,1
921794,1,5248,0,45034,49913,45311.98,49453.09,-277.98,459.91,0.354457,100.00,1
921834,1,5288,0,45034,49912,45311.42,49454.01,-277.42,457.99,0.354109,100.00,1
921874,1,5328,0,45029,49904,45310.86,49454.91,-281.86,449.09,0.353777,100.00,1
921914,1,5368,0,45024,49899,45310.29,49455.80,-286.29,443.20,0.353462,100.00,1
921954,1,5408,0,45015,49892,45309.70,49456.68,-294.70,435.32,0.353165,100.00,1
921994,1,5448,0,44991,49818,45309.06,49457.40,-318.06,360.60,0.352889,100.00,1
922034,1,5488,0,44967,49792,45308.37,49458.07,-341.37,333.93,0.352637,100.00,1
922074,1,5528,0,44962,49791,45307.68,49458.74,-345.68,332.26,0.352409,100.00,1
922114,1,5568,0,44956,49789,45306.98,49459.40,-350.98,329.60,0.352204,100.00,1
922154,1,5608,0,44948,49784,45306.27,49460.05,-358.27,323.95,0.352024,100.00,1
922195,1,5649,0,44943,49782,45305.54,49460.70,-362.54,321.30,0.351868,100.00,1
922235,1,5689,0,44935,49781,45304.80,49461.34,-369.80,319.66,0.351737,100.00,1
922275,1,5729,0,44924,49777,45304.04,49461.97,-380.04,315.03,0.351631,100.00,1
922315,1,5769,0,44918,49770,45303.27,49462.59,-385.27,307.41,0.351551,100.00,1
922355,1,5809,0,44913,49780,45302.49,49463.23,-389.49,316.77,0.351497,100.00,1
922395,1,5849,0,44916,49795,45301.71,49463.89,-385.71,331.11,0.351466,100.00,1
922435,1,5889,0,44915,49806,45300.94,49464.57,-385.94,341.43,0.351460,100.00,1
922475,1,5929,0,44923,49813,45300.19,49465.27,-377.19,347.73,0.351475,100.00,1
922515,1,5969,0,44926,49819,45299.44,49465.98,-373.44,353.02,0.351512,100.00,1
922555,1,6009,0,44923,49837,45298.69,49466.72,-375.69,370.28,0.351569,100.00,1
922595,1,6049,0,44927,49843,45297.95,49467.48,-370.95,375.52,0.351645,100.00,1
922635,1,6089,0,44909,49797,45297.17,49468.14,-388.17,328.86,0.351743,100.00,1
922675,1,6129,0,44895,49794,45296.37,49468.79,-401.37,325.21,0.351864,100.00,1
922715,1,6169,0,44896,49807,45295.57,49469.46,-399.57,337.54,0.352008,100.00,1
922755,1,6209,0,44900,49818,45294.78,49470.16,-394.78,347.84,0.352172,100.00,1
922796,1,6250,0,44898,49819,45293.98,49470.86,-395.98,348.14,0.352358,100.00,1
922836,1,6290,0,44899,49827,45293.20,49471.58,-394.20,355.42,0.352563,100.00,1
922876,1,6330,0,44891,49837,45292.39,49472.31,-401.39,364.69,0.352789,100.00,1
922916,1,6370,0,44884,49842,45291.57,49473.05,-407.57,368.95,0.353035,100.00,1
922956,1,6410,0,44885,49841,45290.76,49473.79,-405.76,367.21,0.353302,100.00,1
922996,1,6450,0,44883,49849,45289.95,49474.54,-406.95,374.46,0.353588,100.00,1
923036,1,6490,0,44880,49872,45289.13,49475.34,-409.13,396.66,0.353894,100.00,1
923076,1,6530,0,44891,49886,45288.33,49476.16,-397.33,409.84,0.354217,100.00,1
923116,1,6570,0,44895,49910,45287.55,49477.03,-392.55,432.97,0.354555,100.00,1
923156,1,6610,0,44905,49921,45286.78,49477.92,-381.78,443.08,0.354908,100.00,1
923196,1,6650,0,44908,49938,45286.02,49478.84,-378.02,459.16,0.355275,100.00,1
923236,1,6690,0,44905,49929,45285.26,49479.74,-380.26,449.26,0.355654,100.00,1
923276,1,6730,0,44881,49877,45284.45,49480.54,-403.45,396.46,0.356050,100.00,1
923316,1,6770,0,44871,49871,45283.63,49481.32,-412.63,389.68,0.356464,100.00,1
923356,1,6810,0,44866,49877,45282.79,49482.11,-416.79,394.89,0.356896,100.00,1
923396,1,6850,0,44870,49881,45281.97,49482.91,-411.97,398.09,0.357345,100.00,1
923437,1,6891,0,44866,49880,45281.14,49483.71,-415.14,396.29,0.357810,100.00,1
923477,1,6931,0,44859,49880,45280.29,49484.50,-421.29,395.50,0.358292,100.00,1
923517,1,6971,0,44859,49888,45279.45,49485.31,-420.45,402.69,0.358792,100.00,1
923557,1,7011,0,44845,49888,45278.59,49486.12,-433.59,401.88,0.359309,100.00,1
923597,1,7051,0,44843,49888,45277.71,49486.93,-434.71,401.07,0.359843,100.00,1
923637,1,7091,0,44844,49900,45276.85,49487.75,-432.85,412.25,0.360395,100.00,1
923677,1,7131,0,44842,49913,45275.98,49488.61,-433.98,424.39,0.360963,100.00,1
923717,1,7171,0,44850,49929,45275.13,49489.49,-425.13,439.51,0.361546,100.00,1
923757,1,7211,0,44861,49933,45274.30,49490.37,-413.30,442.62,0.362141,100.00,1
923797,1,7251,0,44858,49937,45273.47,49491.27,-415.47,445.73,0.362750,100.00,1
923837,1,7291,0,44860,49953,45272.64,49492.20,-412.64,460.80,0.363371,100.00,1
923877,1,7331,0,44861,49960,45271.82,49493.13,-410.82,466.87,0.364003,100.00,1
923917,1,7371,0,44850,49915,45270.98,49493.98,-420.98,421.02,0.364649,100.00,1
923957,1,7411,0,44824,49868,45270.09,49494.73,-446.09,373.27,0.365312,100.00,1
923997,1,7451,0,44819,49859,45269.18,49495.46,-450.18,363.54,0.365993,100.00,1
924037,1,7491,0,44810,49855,45268.27,49496.18,-458.27,358.82,0.366692,100.00,1
924077,1,7531,0,44808,49853,45267.35,49496.89,-459.35,356.11,0.367409,100.00,1
924118,1,7572,0,44800,49845,45266.41,49497.59,-466.41,347.41,0.368146,100.00,1
924158,1,7612,0,44793,49848,45265.47,49498.29,-472.47,349.71,0.368901,100.00,1
924198,1,7652,0,44793,49851,45264.52,49499.00,-471.52,352.00,0.369675,100.00,1
924238,1,7692,0,44788,49845,45263.57,49499.69,-475.57,345.31,0.370469,100.00,1
924278,1,7732,0,44785,49843,45262.61,49500.38,-477.61,342.62,0.371282,100.00,1
924318,1,7772,0,44782,49852,45261.65,49501.08,-479.65,350.92,0.372113,100.00,1
924358,1,7812,0,44785,49869,45260.70,49501.82,-475.70,367.18,0.372962,100.00,1
924398,1,7852,0,44795,49882,45259.77,49502.58,-464.77,379.42,0.373827,100.00,1
924438,1,7892,0,44800,49891,45258.85,49503.36,-458.85,387.64,0.374707,100.00,1
924478,1,7932,0,44807,49897,45257.95,49504.15,-450.95,392.85,0.375601,100.00,1
924518,1,7972,0,44807,49907,45257.05,49504.96,-450.05,402.04,0.376507,100.00,1
924558,1,8012,0,44803,49915,45256.14,49505.78,-453.14,409.22,0.377426,100.00,1
924598,1,8052,0,44808,49917,45255.25,49506.60,-447.25,410.40,0.378358,100.00,1
924638,1,8092,0,44808,49920,45254.35,49507.43,-446.35,412.57,0.379301,100.00,1
924678,1,8132,0,44788,49855,45253.42,49508.12,-465.42,346.87,0.380259,100.00,1
924718,1,8172,0,44760,49808,45252.44,49508.73,-492.44,299.27,0.381237,100.00,1
924759,1,8213,0,44752,49784,45251.44,49509.28,-499.44,274.72,0.382235,100.00,1
924799,1,8253,0,44747,49786,45250.43,49509.83,-503.43,276.17,0.383254,100.00,1
924839,1,8293,0,44737,49777,45249.40,49510.37,-512.40,266.63,0.384295,100.00,1
924879,1,8333,0,44739,49773,45248.38,49510.89,-509.38,262.11,0.385358,100.00,1
924919,1,8373,0,44734,49771,45247.36,49511.42,-513.36,259.58,0.386442,100.00,1
924959,1,8413,0,44724,49755,45246.31,49511.91,-522.31,243.09,0.387548,100.00,1
924999,1,8453,0,44718,49747,45245.25,49512.38,-527.25,234.62,0.388678,100.00,1
925039,1,8493,0,44714,49743,45244.19,49512.84,-530.19,230.16,0.389831,100.00,1
925079,1,8533,0,44723,49744,45243.15,49513.30,-520.15,230.70,0.391006,100.00,1
925119,1,8573,0,44725,49750,45242.11,49513.78,-517.11,236.22,0.392203,100.00,1
925159,1,8613,0,44721,49751,45241.07,49514.26,-520.07,236.74,0.393421,100.00,1
925199,1,8653,0,44721,49750,45240.03,49514.73,-519.03,235.27,0.394660,100.00,1
925239,1,8693,0,44719,49750,45238.99,49515.20,-519.99,234.80,0.395921,100.00,1
925279,1,8733,0,44715,49742,45237.95,49515.66,-522.95,226.34,0.397203,100.00,1
925319,1,8773,0,44712,49742,45236.89,49516.11,-524.89,225.89,0.398506,100.00,1
925359,1,8813,0,44705,49741,45235.83,49516.56,-530.83,224.44,0.399832,100.00,1
925400,1,8854,0,44705,49738,45234.77,49517.00,-529.77,221.00,0.401179,100.00,1
925440,1,8894,0,44702,49742,45233.71,49517.46,-531.71,224.54,0.402549,100.00,1
925480,1,8934,0,44704,49749,45232.65,49517.92,-528.65,231.08,0.403939,99.99,1
925520,1,8974,0,44692,49707,45231.57,49518.30,-539.57,188.70,0.405352,99.99,1
925560,1,9014,0,44663,49633,45230.43,49518.53,-567.43,114.47,0.406793,99.99,1
925600,1,9054,0,44642,49599,45229.26,49518.70,-587.26,80.30,0.408264,99.98,1
925640,1,9094,0,44634,49592,45228.07,49518.84,-594.07,73.16,0.409766,99.97,1
925680,1,9134,0,44641,49598,45226.90,49519.00,-585.90,79.00,0.411297,99.97,1
925720,1,9174,0,44638,49597,45225.72,49519.16,-587.72,77.84,0.412858,99.96,1
925760,1,9214,0,44643,49600,45224.56,49519.32,-581.56,80.68,0.414448,99.95,1
925800,1,9254,0,44644,49587,45223.40,49519.46,-579.40,67.54,0.416066,99.94,1
925840,1,9294,0,44631,49575,45222.21,49519.57,-591.21,55.43,0.417714,99.93,1
925880,1,9334,0,44628,49568,45221.03,49519.67,-593.03,48.33,0.419392,99.91,1
925920,1,9374,0,44634,49573,45219.86,49519.78,-585.86,53.22,0.421099,99.90,1
925960,1,9414,0,44639,49576,45218.70,49519.89,-579.70,56.11,0.422834,99.89,1
926000,1,9454,0,44636,49578,45217.53,49520.01,-581.53,57.99,0.424596,99.87,1
926040,1,9494,0,44637,49582,45216.37,49520.14,-579.37,61.86,0.426387,99.85,1
926081,1,9535,0,44641,49583,45215.22,49520.27,-574.22,62.73,0.428204,99.84,1
926121,1,9575,0,44640,49590,45214.07,49520.41,-574.07,69.59,0.430048,99.82,1
926161,1,9615,0,44638,49599,45212.92,49520.57,-574.92,78.43,0.431918,99.80,1
926201,1,9655,0,44640,49599,45211.78,49520.72,-571.78,78.28,0.433815,99.78,1
926241,1,9695,0,44645,49600,45210.64,49520.88,-565.64,79.12,0.435737,99.76,1
926281,1,9735,0,44641,49570,45209.51,49520.98,-568.51,49.02,0.437685,99.74,1
926321,1,9775,0,44611,49503,45208.31,49520.95,-597.31,-17.95,0.439662,99.72,1
926361,1,9815,0,44599,49470,45207.09,49520.84,-608.09,-50.84,0.441669,99.70,1
926401,1,9855,0,44600,49463,45205.88,49520.73,-605.88,-57.73,0.443707,99.67,1
926441,1,9895,0,44603,49462,45204.68,49520.61,-601.68,-58.61,0.445773,99.65,1
926481,1,9935,0,44605,49464,45203.48,49520.50,-598.48,-56.50,0.447869,99.62,1
926521,1,9975,0,44603,49466,45202.28,49520.39,-599.28,-54.39,0.449993,99.60,1
926561,1,10015,0,44612,49464,45201.10,49520.28,-589.10,-56.28,0.452144,99.57,1
926601,1,10055,0,44605,49457,45199.91,49520.15,-594.91,-63.15,0.454324,99.54,1
926641,1,10095,0,44598,49449,45198.70,49520.01,-600.70,-71.01,0.456531,99.51,1
926681,1,10135,0,44603,49454,45197.51,49519.88,-594.51,-65.88,0.458767,99.48,1
926722,1,10176,0,44606,49466,45196.33,49519.78,-590.33,-53.78,0.461030,99.45,1
926762,1,10216,0,44615,49482,45195.17,49519.70,-580.17,-37.70,0.463319,99.42,1
926802,1,10256,0,44622,49503,45194.02,49519.67,-572.02,-16.67,0.465633,99.39,1
926842,1,10296,0,44628,49513,45192.89,49519.66,-564.89,-6.66,0.467972,99.36,1
926882,1,10336,0,44638,49542,45191.78,49519.71,-553.78,22.29,0.470335,99.32,1
926922,1,10376,0,44654,49568,45190.71,49519.80,-536.71,48.20,0.472718,99.29,1
926962,1,10416,0,44662,49569,45189.65,49519.91,-527.65,49.09,0.475122,99.25,1
927002,1,10456,0,44645,49502,45188.56,49519.87,-543.56,-17.87,0.477548,99.22,1
927042,1,10496,0,44629,49448,45187.45,49519.73,-558.45,-71.73,0.479997,99.18,1
927082,1,10536,0,44623,49436,45186.32,49519.56,-563.32,-83.56,0.482470,99.15,1
927122,1,10576,0,44634,49445,45185.21,49519.41,-551.21,-74.41,0.484965,99.11,1
927162,1,10616,0,44636,49454,45184.12,49519.29,-548.12,-65.29,0.487482,99.07,1
927202,1,10656,0,44643,49457,45183.04,49519.16,-540.04,-62.16,0.490020,99.03,1
927242,1,10696,0,44651,49470,45181.97,49519.06,-530.97,-49.06,0.492579,98.99,1
927282,1,10736,0,44658,49472,45180.93,49518.97,-522.93,-46.97,0.495158,98.95,1
927322,1,10776,0,44657,49474,45179.88,49518.88,-522.88,-44.88,0.497756,98.91,1
927362,1,10816,0,44662,49485,45178.84,49518.81,-516.84,-33.81,0.500374,98.86,1
927403,1,10857,0,44669,49501,45177.82,49518.78,-508.82,-17.78,0.503011,98.82,1
927443,1,10897,0,44685,49526,45176.84,49518.79,-491.84,7.21,0.505664,98.78,1
927483,1,10937,0,44692,49549,45175.87,49518.86,-483.87,30.14,0.508333,98.73,1
927523,1,10977,0,44702,49567,45174.93,49518.95,-472.93,48.05,0.511018,98.69,1
927563,1,11017,0,44718,49594,45174.01,49519.11,-456.01,74.89,0.513715,98.64,1
927603,1,11057,0,44727,49618,45173.12,49519.30,-446.12,98.70,0.516423,98.59,1
927643,1,11097,0,44733,49610,45172.24,49519.49,-439.24,90.51,0.519142,98.55,1
927683,1,11137,0,44711,49529,45171.32,49519.51,-460.32,9.49,0.521875,98.50,1
927723,1,11177,0,44687,49466,45170.35,49519.40,-483.35,-53.40,0.524624,98.45,1
927763,1,11217,0,44684,49450,45169.37,49519.27,-485.37,-69.27,0.527389,98.40,1
927803,1,11257,0,44691,49463,45168.42,49519.16,-477.42,-56.16,0.530170,98.35,1
927843,1,11297,0,44699,49471,45167.48,49519.06,-468.48,-48.06,0.532965,98.30,1
927883,1,11337,0,44706,49486,45166.56,49519.00,-460.56,-33.00,0.535775,98.25,1
927923,1,11377,0,44716,49501,45165.66,49518.96,-449.66,-17.96,0.538599,98.20,1
927963,1,11417,0,44728,49512,45164.79,49518.95,-436.79,-6.95,0.541435,98.15,1
928003,1,11457,0,44730,49511,45163.92,49518.93,-433.92,-7.93,0.544282,98.09,1
928044,1,11498,0,44737,49523,45163.07,49518.94,-426.07,4.06,0.547142,98.04,1
928084,1,11538,0,44750,49543,45162.24,49518.99,-412.24,24.01,0.550012,97.99,1
928124,1,11578,0,44760,49576,45161.44,49519.11,-401.44,56.89,0.552890,97.93,1
928164,1,11618,0,44772,49610,45160.66,49519.29,-388.66,90.71,0.555775,97.88,1
928204,1,11658,0,44785,49625,45159.91,49519.50,-374.91,105.50,0.558665,97.82,1
928244,1,11698,0,44798,49648,45159.19,49519.76,-361.19,128.24,0.561558,97.77,1
928284,1,11738,0,44808,49673,45158.48,49520.07,-350.48,152.93,0.564451,97.71,1
928324,1,11778,0,44818,49688,45157.80,49520.41,-339.80,167.59,0.567342,97.65,1
928364,1,11818,0,44822,49640,45157.13,49520.65,-335.13,119.35,0.570234,97.60,1
928404,1,11858,0,44787,49535,45156.39,49520.68,-369.39,14.32,0.573134,97.54,1
928444,1,11898,0,44756,49472,45155.59,49520.58,-399.59,-48.58,0.576043,97.48,1
928484,1,11938,0,44749,49468,45154.78,49520.48,-405.78,-52.48,0.578963,97.42,1
928524,1,11978,0,44756,49471,45153.98,49520.38,-397.98,-49.38,0.581891,97.36,1
928564,1,12018,0,44765,49476,45153.21,49520.29,-388.21,-44.29,0.584829,97.30,1
928604,1,12058,0,44767,49487,45152.44,49520.23,-385.44,-33.23,0.587775,97.24,1
928644,1,12098,0,44777,49499,45151.69,49520.18,-374.69,-21.18,0.590729,97.18,1
928685,1,12139,0,44780,49498,45150.95,49520.14,-370.95,-22.14,0.593691,97.12,1
928725,1,12179,0,44779,49502,45150.20,49520.11,-371.20,-18.11,0.596662,97.06,1
928765,1,12219,0,44786,49515,45149.48,49520.10,-363.48,-5.10,0.599639,97.00,1
928805,1,12259,0,44797,49536,45148.77,49520.13,-351.77,15.87,0.602623,96.94,1
928845,1,12299,0,44810,49560,45148.10,49520.21,-338.10,39.79,0.605612,96.88,1
928885,1,12339,0,44826,49581,45147.45,49520.33,-321.45,60.67,0.608603,96.81,1
928925,1,12379,0,44833,49599,45146.82,49520.49,-313.82,78.51,0.611597,96.75,1
928965,1,12419,0,44842,49618,45146.21,49520.69,-304.21,97.31,0.614591,96.69,1
929005,1,12459,0,44857,49628,45145.64,49520.90,-288.64,107.10,0.617584,96.62,1
929045,1,12499,0,44864,49650,45145.07,49521.16,-281.07,128.84,0.620573,96.56,1
929085,1,12539,0,44872,49656,45144.53,49521.43,-272.53,134.57,0.623558,96.49,1
929125,1,12579,0,44863,49591,45143.96,49521.57,-280.96,69.43,0.626543,96.43,1
929165,1,12619,0,44823,49476,45143.32,49521.48,-320.32,-45.48,0.629532,96.36,1
929205,1,12659,0,44788,49424,45142.61,49521.29,-354.61,-97.29,0.632526,96.30,1
929245,1,12699,0,44781,49421,45141.89,49521.09,-360.89,-100.09,0.635526,96.23,1
929285,1,12739,0,44789,49431,45141.19,49520.91,-352.19,-89.91,0.638531,96.17,1
929326,1,12780,0,44797,49433,45140.50,49520.73,-343.50,-87.73,0.641541,96.10,1
929366,1,12820,0,44803,49445,45139.82,49520.58,-336.82,-75.58,0.644555,96.03,1
929406,1,12860,0,44800,49446,45139.14,49520.43,-339.14,-74.43,0.647575,95.97,1
929446,1,12900,0,44806,49440,45138.48,49520.27,-332.48,-80.27,0.650598,95.90,1
929486,1,12940,0,44810,49432,45137.82,49520.10,-327.82,-88.10,0.653625,95.83,1
929526,1,12980,0,44812,49445,45137.17,49519.95,-325.17,-74.95,0.656657,95.77,1
929566,1,13020,0,44824,49465,45136.55,49519.84,-312.55,-54.84,0.659691,95.70,1
929606,1,13060,0,44840,49482,45135.95,49519.77,-295.95,-37.77,0.662729,95.63,1
929646,1,13100,0,44845,49495,45135.37,49519.72,-290.37,-24.72,0.665770,95.56,1
929686,1,13140,0,44855,49507,45134.81,49519.70,-279.81,-12.70,0.668812,95.49,1
929726,1,13180,0,44858,49516,45134.26,49519.69,-276.26,-3.69,0.671857,95.43,1
929766,1,13220,0,44860,49517,45133.71,49519.68,-273.71,-2.68,0.674904,95.36,1
929806,1,13260,0,44863,49521,45133.18,49519.69,-270.18,1.31,0.677952,95.29,1
929846,1,13300,0,44861,49530,45132.63,49519.71,-271.63,10.29,0.681002,95.22,1
929886,1,13340,0,44866,49532,45132.10,49519.74,-266.10,12.26,0.684054,95.15,1
929927,1,13381,0,44852,49450,45131.54,49519.60,-279.54,-69.60,0.687106,95.08,1
929967,1,13421,0,44808,49344,45130.90,49519.25,-322.90,-175.25,0.690154,95.01,1
930007,1,13461,0,44776,49304,45130.19,49518.82,-354.19,-214.82,0.693195,94.94,1
930047,1,13501,0,44774,49309,45129.48,49518.40,-355.48,-209.40,0.696230,94.87,1
930087,1,13541,0,44791,49334,45128.80,49518.04,-337.80,-184.04,0.699261,94.80,1
930127,1,13581,0,44799,49358,45128.14,49517.71,-329.14,-159.71,0.702290,94.73,1
930167,1,13621,0,44813,49369,45127.52,49517.42,-314.52,-148.42,0.705318,94.66,1
930207,1,13661,0,44823,49369,45126.91,49517.12,-303.91,-148.12,0.708342,94.59,1
930247,1,13701,0,44822,49357,45126.30,49516.80,-304.30,-159.80,0.711361,94.51,1
930287,1,13741,0,44820,49355,45125.68,49516.48,-305.68,-161.48,0.714377,94.44,1
930327,1,13781,0,44822,49360,45125.08,49516.16,-303.08,-156.16,0.717389,94.37,1
930367,1,13821,0,44834,49374,45124.50,49515.88,-290.50,-141.88,0.720397,94.30,1
930407,1,13861,0,44840,49387,45123.93,49515.62,-283.93,-128.62,0.723402,94.23,1
930447,1,13901,0,44841,49403,45123.36,49515.40,-282.36,-112.40,0.726407,94.16,1
930487,1,13941,0,44849,49417,45122.82,49515.21,-273.82,-98.21,0.729410,94.09,1
930528,1,13982,0,44855,49423,45122.28,49515.02,-267.28,-92.02,0.732413,94.01,1
930568,1,14022,0,44860,49439,45121.76,49514.87,-261.76,-75.87,0.735416,93.94,1
930608,1,14062,0,44864,49452,45121.24,49514.75,-257.24,-62.75,0.738420,93.87,1
930648,1,14102,0,44866,49456,45120.73,49514.63,-254.73,-58.63,0.741423,93.80,1
930688,1,14142,0,44854,49377,45120.20,49514.36,-266.20,-137.36,0.744422,93.72,1
930728,1,14182,0,44818,49288,45119.60,49513.90,-301.60,-225.90,0.747406,93.65,1
930768,1,14222,0,44800,49266,45118.96,49513.41,-318.96,-247.41,0.750371,93.58,1
930808,1,14262,0,44809,49288,45118.35,49512.96,-309.35,-224.96,0.753323,93.51,1
930848,1,14302,0,44828,49316,45117.77,49512.56,-289.77,-196.56,0.756264,93.44,1
930888,1,14342,0,44842,49336,45117.22,49512.21,-275.22,-176.21,0.759195,93.36,1
930928,1,14382,0,44856,49364,45116.70,49511.91,-260.70,-147.91,0.762121,93.29,1
930968,1,14422,0,44866,49378,45116.20,49511.65,-250.20,-133.65,0.765040,93.22,1
931008,1,14462,0,44878,49382,45115.72,49511.39,-237.72,-129.39,0.767953,93.15,1
931048,1,14502,0,44882,49394,45115.26,49511.16,-233.26,-117.16,0.770862,93.07,1
931088,1,14542,0,44888,49420,45114.80,49510.98,-226.80,-90.98,0.773767,93.00,1
931128,1,14582,0,44900,49452,45114.37,49510.86,-214.37,-58.86,0.776669,92.93,1
931169,1,14623,0,44922,49480,45113.99,49510.80,-191.99,-30.80,0.779570,92.86,1
931209,1,14663,0,44933,49503,45113.63,49510.79,-180.63,-7.79,0.782467,92.78,1
931249,1,14703,0,44941,49530,45113.29,49510.82,-172.29,19.18,0.785362,92.71,1
931289,1,14743,0,44950,49550,45112.96,49510.90,-162.96,39.10,0.788251,92.64,1
931329,1,14783,0,44959,49569,45112.66,49511.02,-153.66,57.98,0.791135,92.57,1
931369,1,14823,0,44971,49572,45112.37,49511.14,-141.37,60.86,0.794013,92.49,1
931409,1,14863,0,44950,49484,45112.05,49511.09,-162.05,-27.09,0.796886,92.42,1
931449,1,14903,0,44911,49386,45111.65,49510.84,-200.65,-124.84,0.799751,92.35,1
931489,1,14943,0,44894,49365,45111.21,49510.55,-217.21,-145.55,0.802606,92.28,1
931529,1,14983,0,44906,49384,45110.80,49510.30,-204.80,-126.30,0.805453,92.20,1
931569,1,15023,0,44924,49410,45110.43,49510.10,-186.43,-100.10,0.808293,92.13,1
931609,1,15063,0,44934,49434,45110.08,49509.95,-176.08,-75.95,0.811128,92.06,1
931649,1,15103,0,44951,49452,45109.77,49509.84,-158.77,-57.84,0.813957,91.99,1
931689,1,15143,0,44962,49466,45109.47,49509.75,-147.47,-43.75,0.816782,91.91,1
931729,1,15183,0,44963,49460,45109.18,49509.65,-146.18,-49.65,0.819601,91.84,1
931769,1,15223,0,44967,49464,45108.90,49509.56,-141.90,-45.56,0.822414,91.77,1
931809,1,15263,0,44970,49477,45108.62,49509.50,-138.62,-32.50,0.825223,91.70,1
931850,1,15304,0,44980,49496,45108.36,49509.47,-128.36,-13.47,0.828026,91.63,1
931890,1,15344,0,44993,49527,45108.13,49509.51,-115.13,17.49,0.830824,91.55,1
931930,1,15384,0,45006,49551,45107.93,49509.59,-101.93,41.41,0.833615,91.48,1
931970,1,15424,0,45013,49571,45107.74,49509.72,-94.74,61.28,0.836397,91.41,1
932010,1,15464,0,45023,49596,45107.57,49509.89,-84.57,86.11,0.839169,91.34,1
932050,1,15504,0,45030,49615,45107.42,49510.11,-77.42,104.89,0.841927,91.27,1
932090,1,15544,0,45044,49640,45107.30,49510.37,-63.30,129.63,0.844668,91.20,1
932130,1,15584,0,45047,49581,45107.18,49510.51,-60.18,70.49,0.847399,91.12,1
932170,1,15624,0,45004,49445,45106.97,49510.38,-102.97,-65.38,0.850122,91.05,1
932210,1,15664,0,44962,49380,45106.68,49510.12,-144.68,-130.12,0.852832,90.98,1
932250,1,15704,0,44959,49388,45106.39,49509.88,-147.39,-121.88,0.855530,90.91,1
932290,1,15744,0,44979,49414,45106.13,49509.69,-127.13,-95.69,0.858218,90.84,1
932330,1,15784,0,44990,49431,45105.90,49509.53,-115.90,-78.53,0.860898,90.77,1
932370,1,15824,0,44997,49457,45105.69,49509.43,-108.69,-52.43,0.863571,90.70,1
932410,1,15864,0,45007,49475,45105.49,49509.36,-98.49,-34.36,0.866237,90.63,1
932450,1,15904,0,45014,49472,45105.31,49509.29,-91.31,-37.29,0.868897,90.56,1
932491,1,15945,0,45012,49467,45105.12,49509.20,-93.12,-42.20,0.871549,90.49,1
932531,1,15985,0,45016,49479,45104.95,49509.14,-88.95,-30.14,0.874195,90.42,1
932571,1,16025,0,45023,49509,45104.79,49509.14,-81.79,-0.14,0.876835,90.35,1
932611,1,16065,0,45036,49536,45104.65,49509.20,-68.65,26.80,0.879467,90.28,1
932651,1,16105,0,45057,49559,45104.55,49509.30,-47.55,49.70,0.882091,90.21,1
932691,1,16145,0,45066,49588,45104.48,49509.46,-38.48,78.54,0.884703,90.14,1
932731,1,16185,0,45077,49614,45104.43,49509.67,-27.43,104.33,0.887300,90.07,1
932771,1,16225,0,45089,49639,45104.39,49509.93,-15.39,129.07,0.889879,90.00,1
932811,1,16265,0,45101,49648,45104.39,49510.21,-3.39,137.79,0.892438,89.93,1
932851,1,16305,0,45106,49661,45104.39,49510.52,1.61,150.48,0.894975,89.86,1
932891,1,16345,0,45117,49677,45104.42,49510.85,12.58,166.15,0.897486,89.79,1
932931,1,16385,0,45117,49637,45104.45,49511.11,12.55,125.89,0.899979,89.72,1
932971,1,16425,0,45073,49504,45104.39,49511.09,-31.39,-7.09,0.902464,89.65,1
933011,1,16465,0,45020,49403,45104.22,49510.88,-84.22,-107.88,0.904937,89.59,1
933051,1,16505,0,45004,49392,45104.02,49510.64,-100.02,-118.64,0.907395,89.52,1
933091,1,16545,0,45015,49418,45103.84,49510.46,-88.84,-92.46,0.909843,89.45,1
933132,1,16586,0,45027,49433,45103.69,49510.30,-76.69,-77.30,0.912280,89.38,1
933172,1,16626,0,45036,49463,45103.56,49510.21,-67.56,-47.21,0.914711,89.31,1
933212,1,16666,0,45045,49474,45103.44,49510.14,-58.44,-36.14,0.917133,89.25,1
933252,1,16706,0,45046,49470,45103.33,49510.06,-57.33,-40.06,0.919549,89.18,1
933292,1,16746,0,45046,49461,45103.21,49509.96,-57.21,-48.96,0.921956,89.11,1
933332,1,16786,0,45047,49461,45103.11,49509.87,-56.11,-48.87,0.924356,89.05,1
933372,1,16826,0,45053,49476,45103.01,49509.80,-50.01,-33.80,0.926748,88.98,1
933412,1,16866,0,45061,49496,45102.93,49509.77,-41.93,-13.77,0.929133,88.91,1
933452,1,16906,0,45076,49508,45102.87,49509.77,-26.87,-1.77,0.931511,88.85,1
933492,1,16946,0,45084,49525,45102.84,49509.80,-18.84,15.20,0.933883,88.78,1
933532,1,16986,0,45089,49541,45102.81,49509.86,-13.81,31.14,0.936246,88.72,1
933572,1,17026,0,45096,49555,45102.80,49509.95,-6.80,45.05,0.938601,88.65,1
933612,1,17066,0,45105,49564,45102.80,49510.06,2.20,53.94,0.940946,88.59,1
933652,1,17106,0,45105,49565,45102.81,49510.17,2.19,54.83,0.943283,88.52,1
933692,1,17146,0,45099,49574,45102.80,49510.30,-3.80,63.70,0.945609,88.46,1
933732,1,17186,0,45108,49586,45102.81,49510.45,5.19,75.55,0.947924,88.39,1
933773,1,17227,0,45109,49567,45102.82,49510.57,6.18,56.43,0.950229,88.33,1
933813,1,17267,0,45078,49450,45102.78,49510.45,-24.78,-60.45,0.952524,88.26,1
933853,1,17307,0,45017,49333,45102.61,49510.09,-85.61,-177.09,0.954791,88.20,1
933893,1,17347,0,44994,49308,45102.39,49509.69,-108.39,-201.69,0.957022,88.13,1
933933,1,17387,0,45010,49343,45102.21,49509.36,-92.21,-166.36,0.959228,88.07,1
933973,1,17427,0,45027,49377,45102.06,49509.09,-75.06,-132.09,0.961415,88.01,1
934013,1,17467,0,45038,49404,45101.93,49508.89,-63.93,-104.89,0.963588,87.95,1
934053,1,17507,0,45055,49423,45101.84,49508.71,-46.84,-85.71,0.965750,87.88,1
934093,1,17547,0,45060,49423,45101.76,49508.54,-41.76,-85.54,0.967900,87.82,1
934133,1,17587,0,45059,49405,45101.67,49508.34,-42.67,-103.34,0.970035,87.76,1
934173,1,17627,0,45055,49404,45101.58,49508.13,-46.58,-104.13,0.972156,87.70,1
934213,1,17667,0,45062,49410,45101.50,49507.93,-39.50,-97.93,0.974264,87.63,1
934253,1,17707,0,45071,49425,45101.44,49507.77,-30.44,-82.77,0.976360,87.57,1
934293,1,17747,0,45077,49439,45101.39,49507.63,-24.39,-68.63,0.978446,87.51,1
934333,1,17787,0,45077,49455,45101.35,49507.53,-24.35,-52.53,0.980523,87.45,1
934373,1,17827,0,45084,49473,45101.31,49507.46,-17.31,-34.46,0.982594,87.39,1
934414,1,17868,0,45089,49472,45101.29,49507.39,-12.29,-35.39,0.984657,87.33,1
934454,1,17908,0,45096,49489,45101.28,49507.36,-5.28,-18.36,0.986714,87.27,1
934494,1,17948,0,45093,49500,45101.27,49507.34,-8.27,-7.34,0.988764,87.21,1
934534,1,17988,0,45097,49498,45101.26,49507.33,-4.26,-9.33,0.990809,87.15,1
934574,1,18028,0,45079,49385,45101.21,49507.09,-22.21,-122.09,0.992834,87.09,1
934614,1,18068,0,45019,49261,45101.05,49506.59,-82.05,-245.59,0.994804,87.03,1
934654,1,18108,0,44991,49217,45100.83,49506.02,-109.83,-289.02,0.996701,86.97,1
934694,1,18148,0,44997,49248,45100.62,49505.50,-103.62,-257.50,0.998543,86.92,1
934734,1,18188,0,45021,49285,45100.47,49505.06,-79.47,-220.06,1.000342,86.86,1
934774,1,18228,0,45033,49312,45100.34,49504.67,-67.34,-192.67,1.002108,86.80,1
934814,1,18268,0,45053,49350,45100.24,49504.36,-47.24,-154.36,1.003851,86.74,1
934854,1,18308,0,45060,49369,45100.16,49504.09,-40.16,-135.09,1.005574,86.69,1
934894,1,18348,0,45068,49366,45100.10,49503.82,-32.10,-137.82,1.007278,86.63,1
934934,1,18388,0,45066,49370,45100.04,49503.55,-34.04,-133.55,1.008963,86.58,1
934974,1,18428,0,45070,49393,45099.98,49503.34,-29.98,-110.34,1.010633,86.52,1
935014,1,18468,0,45082,49419,45099.94,49503.17,-17.94,-84.17,1.012293,86.47,1
935055,1,18509,0,45093,49453,45099.93,49503.07,-6.93,-50.07,1.013946,86.41,1
935095,1,18549,0,45107,49482,45099.95,49503.03,7.05,-21.03,1.015594,86.36,1
935135,1,18589,0,45119,49511,45099.98,49503.05,19.02,7.95,1.017236,86.30,1
935175,1,18629,0,45127,49538,45100.04,49503.12,26.96,34.88,1.018873,86.25,1
935215,1,18669,0,45136,49563,45100.11,49503.24,35.89,59.76,1.020503,86.20,1
935255,1,18709,0,45152,49566,45100.22,49503.36,51.78,62.64,1.022126,86.15,1
935295,1,18749,0,45123,49440,45100.27,49503.24,22.73,-63.24,1.023740,86.09,1
935335,1,18789,0,45067,49307,45100.20,49502.85,-33.20,-195.85,1.025318,86.04,1
935375,1,18829,0,45039,49271,45100.08,49502.39,-61.08,-231.39,1.026847,85.99,1
935415,1,18869,0,45050,49300,45099.98,49501.98,-49.98,-201.98,1.028340,85.94,1
935455,1,18909,0,45074,49340,45099.93,49501.66,-25.93,-161.66,1.029806,85.89,1
935495,1,18949,0,45087,49376,45099.91,49501.41,-12.91,-125.41,1.031256,85.84,1
935535,1,18989,0,45100,49406,45099.91,49501.22,0.09,-95.22,1.032693,85.79,1
935575,1,19029,0,45112,49415,45099.93,49501.05,12.07,-86.05,1.034120,85.74,1
935615,1,19069,0,45112,49405,45099.95,49500.86,12.05,-95.86,1.035536,85.69,1
935655,1,19109,0,45106,49401,45099.96,49500.66,6.04,-99.66,1.036939,85.64,1
935695,1,19149,0,45112,49416,45099.99,49500.49,12.01,-84.49,1.038331,85.59,1
935736,1,19190,0,45125,49440,45100.04,49500.37,24.96,-60.37,1.039717,85.55,1
935776,1,19230,0,45137,49471,45100.11,49500.31,36.89,-29.31,1.041098,85.50,1
935816,1,19270,0,45146,49503,45100.21,49500.32,45.79,2.68,1.042477,85.45,1
935856,1,19310,0,45159,49526,45100.32,49500.37,58.68,25.63,1.043852,85.41,1
935896,1,19350,0,45167,49544,45100.46,49500.46,66.54,43.54,1.045223,85.36,1
935936,1,19390,0,45177,49568,45100.61,49500.59,76.39,67.41,1.046589,85.31,1
935976,1,19430,0,45187,49589,45100.79,49500.77,86.21,88.23,1.047948,85.27,1
936016,1,19470,0,45176,49466,45100.94,49500.71,75.06,-34.71,1.049304,85.22,1
936056,1,19510,0,45112,49295,45100.96,49500.30,11.04,-205.30,1.050618,85.18,1
936096,1,19550,0,45068,49234,45100.89,49499.77,-32.89,-265.77,1.051867,85.13,1
936136,1,19590,0,45071,49255,45100.84,49499.28,-29.84,-244.28,1.053062,85.09,1
936176,1,19630,0,45089,49293,45100.81,49498.87,-11.81,-205.87,1.054217,85.05,1
936216,1,19670,0,45107,49325,45100.82,49498.52,6.18,-173.52,1.055345,85.00,1
936256,1,19710,0,45121,49357,45100.87,49498.24,20.13,-141.24,1.056453,84.96,1
936296,1,19750,0,45131,49373,45100.93,49497.99,30.07,-124.99,1.057545,84.92,1
936336,1,19790,0,45137,49367,45101.00,49497.73,36.00,-130.73,1.058621,84.88,1
936377,1,19831,0,45132,49359,45101.07,49497.45,30.93,-138.45,1.059677,84.84,1
936417,1,19871,0,45132,49371,45101.13,49497.20,30.87,-126.20,1.060719,84.80,1
936457,1,19911,0,45139,49397,45101.21,49497.00,37.79,-100.00,1.061749,84.76,1
936497,1,19951,0,45154,49430,45101.31,49496.87,52.69,-66.87,1.062774,84.72,1
936537,1,19991,0,45170,49453,45101.45,49496.78,68.55,-43.78,1.063797,84.68,1
936577,1,20031,0,45180,49477,45101.61,49496.74,78.39,-19.74,1.064819,84.64,1
936617,1,20071,0,45192,49505,45101.79,49496.76,90.21,8.24,1.065843,84.60,1
936657,1,20111,0,45201,49523,45101.99,49496.82,99.01,26.18,1.066868,84.56,1
936697,1,20151,0,45213,49538,45102.21,49496.90,110.79,41.10,1.067895,84.52,1
936737,1,20191,0,45223,49551,45102.46,49497.01,120.54,53.99,1.068924,84.49,1
936777,1,20231,0,45230,49562,45102.71,49497.14,127.29,64.86,1.069955,84.45,1
936817,1,20271,0,45240,49576,45102.99,49497.30,137.01,78.70,1.070987,84.41,1
936857,1,20311,0,45241,49585,45103.27,49497.48,137.73,87.52,1.072020,84.38,1
936897,1,20351,0,45247,49554,45103.56,49497.59,143.44,56.41,1.073058,84.34,1
936937,1,20391,0,45202,49363,45103.76,49497.32,98.24,-134.32,1.074081,84.30,1
936977,1,20431,0,45125,49209,45103.80,49496.75,21.20,-287.75,1.075028,84.27,1
937017,1,20471,0,45094,49168,45103.78,49496.09,-9.78,-328.09,1.075879,84.23,1
937058,1,20512,0,45101,49201,45103.78,49495.50,-2.78,-294.50,1.076657,84.20,1
937098,1,20552,0,45115,49230,45103.80,49494.97,11.20,-264.97,1.077378,84.17,1
937138,1,20592,0,45130,49258,45103.86,49494.50,26.14,-236.50,1.078054,84.13,1
937178,1,20632,0,45143,49283,45103.93,49494.07,39.07,-211.07,1.078696,84.10,1
937218,1,20672,0,45152,49276,45104.03,49493.64,47.97,-217.64,1.079302,84.07,1
937258,1,20712,0,45148,49260,45104.12,49493.18,43.88,-233.18,1.079868,84.03,1
937298,1,20752,0,45142,49262,45104.20,49492.71,37.80,-230.71,1.080395,84.00,1
937338,1,20792,0,45150,49288,45104.29,49492.31,45.71,-204.31,1.080893,83.97,1
937378,1,20832,0,45170,49307,45104.43,49491.94,65.57,-184.94,1.081367,83.94,1
937418,1,20872,0,45184,49330,45104.59,49491.61,79.41,-161.61,1.081826,83.91,1
937458,1,20912,0,45192,49351,45104.76,49491.33,87.24,-140.33,1.082274,83.88,1
937498,1,20952,0,45195,49362,45104.95,49491.07,90.05,-129.07,1.082714,83.86,1
937538,1,20992,0,45205,49371,45105.15,49490.84,99.85,-119.84,1.083148,83.83,1
937578,1,21032,0,45208,49374,45105.36,49490.61,102.64,-116.61,1.083577,83.80,1
937618,1,21072,0,45204,49375,45105.55,49490.37,98.45,-115.37,1.084000,83.77,1
937658,1,21112,0,45210,49387,45105.77,49490.17,104.23,-103.17,1.084422,83.75,1
937699,1,21153,0,45213,49388,45105.98,49489.96,107.02,-101.96,1.084841,83.72,1
937739,1,21193,0,45199,49277,45106.17,49489.54,92.83,-212.54,1.085232,83.69,1
937779,1,21233,0,45131,49110,45106.22,49488.78,24.78,-378.78,1.085526,83.67,1
937819,1,21273,0,45084,49040,45106.18,49487.89,-22.18,-447.89,1.085696,83.65,1
937859,1,21313,0,45089,49065,45106.14,49487.04,-17.14,-422.04,1.085766,83.62,1
937899,1,21353,0,45108,49115,45106.15,49486.30,1.85,-371.30,1.085762,83.60,1
937939,1,21393,0,45134,49159,45106.21,49485.65,27.79,-326.65,1.085706,83.58,1
937979,1,21433,0,45150,49194,45106.30,49485.07,43.70,-291.07,1.085609,83.56,1
938019,1,21473,0,45171,49197,45106.43,49484.49,64.57,-287.49,1.085476,83.53,1
938059,1,21513,0,45165,49174,45106.54,49483.87,58.46,-309.87,1.085300,83.51,1
938099,1,21553,0,45160,49173,45106.65,49483.25,53.35,-310.25,1.085084,83.50,1
938139,1,21593,0,45165,49192,45106.77,49482.67,58.23,-290.67,1.084834,83.48,1
938179,1,21633,0,45179,49220,45106.91,49482.14,72.09,-262.14,1.084558,83.46,1
938219,1,21673,0,45191,49248,45107.08,49481.68,83.92,-233.68,1.084264,83.44,1
938259,1,21713,0,45200,49276,45107.27,49481.27,92.73,-205.27,1.083958,83.43,1
938299,1,21753,0,45216,49306,45107.49,49480.92,108.51,-174.92,1.083646,83.41,1
938339,1,21793,0,45223,49321,45107.72,49480.60,115.28,-159.60,1.083331,83.40,1
938380,1,21834,0,45230,49335,45107.96,49480.31,122.04,-145.31,1.083017,83.38,1
938420,1,21874,0,45231,49356,45108.21,49480.06,122.79,-124.06,1.082704,83.37,1
938460,1,21914,0,45240,49385,45108.48,49479.87,131.52,-94.87,1.082398,83.35,1
938500,1,21954,0,45254,49353,45108.77,49479.62,145.23,-126.62,1.082097,83.34,1
938540,1,21994,0,45208,49183,45108.97,49479.03,99.03,-296.03,1.081766,83.33,1
938580,1,22034,0,45145,49065,45109.04,49478.20,35.96,-413.20,1.081368,83.32,1
938620,1,22074,0,45132,49068,45109.09,49477.38,22.91,-409.38,1.080908,83.31,1
938660,1,22114,0,45158,49116,45109.19,49476.66,48.81,-360.66,1.080404,83.30,1
938700,1,22154,0,45184,49167,45109.34,49476.04,74.66,-309.04,1.079872,83.29,1
938740,1,22194,0,45200,49208,45109.52,49475.50,90.48,-267.50,1.079320,83.28,1
938780,1,22234,0,45221,49246,45109.75,49475.05,111.25,-229.05,1.078759,83.28,1
938820,1,22274,0,45230,49250,45109.99,49474.60,120.01,-224.60,1.078190,83.27,1
938860,1,22314,0,45232,49239,45110.23,49474.13,121.77,-235.13,1.077612,83.26,1
938900,1,22354,0,45231,49249,45110.48,49473.68,120.52,-224.68,1.077026,83.26,1
938940,1,22394,0,45241,49277,45110.74,49473.29,130.26,-196.29,1.076438,83.25,1
938980,1,22434,0,45253,49311,45111.02,49472.96,141.98,-161.96,1.075853,83.25,1
939021,1,22475,0,45269,49347,45111.34,49472.71,157.66,-125.71,1.075278,83.24,1
939061,1,22515,0,45281,49379,45111.68,49472.53,169.32,-93.53,1.074716,83.24,1
939101,1,22555,0,45295,49410,45112.05,49472.40,182.95,-62.40,1.074171,83.24,1
939141,1,22595,0,45304,49431,45112.43,49472.32,191.57,-41.32,1.073647,83.23,1
939181,1,22635,0,45313,49446,45112.84,49472.27,200.16,-26.27,1.073144,83.23,1
939221,1,22675,0,45322,49467,45113.25,49472.26,208.75,-5.26,1.072666,83.23,1
939261,1,22715,0,45326,49495,45113.68,49472.31,212.32,22.69,1.072212,83.23,1
939301,1,22755,0,45339,49470,45114.13,49472.30,224.87,-2.30,1.071785,83.23,1
939341,1,22795,0,45301,49288,45114.51,49471.94,186.49,-183.94,1.071366,83.23,1
939381,1,22835,0,45226,49128,45114.73,49471.25,111.27,-343.25,1.070910,83.23,1
939421,1,22875,0,45194,49102,45114.89,49470.51,79.11,-368.51,1.070411,83.23,1
939461,1,22915,0,45201,49138,45115.06,49469.85,85.94,-331.85,1.069879,83.23,1
939501,1,22955,0,45227,49181,45115.29,49469.27,111.71,-288.27,1.069328,83.23,1
939541,1,22995,0,45238,49211,45115.54,49468.75,122.46,-257.75,1.068764,83.23,1
939581,1,23035,0,45257,49242,45115.82,49468.30,141.18,-226.30,1.068195,83.23,1
939621,1,23075,0,45267,49254,45116.12,49467.87,150.87,-213.87,1.067624,83.24,1
939662,1,23116,0,45266,49242,45116.43,49467.43,149.57,-225.43,1.067050,83.24,1
939702,1,23156,0,45266,49239,45116.73,49466.97,149.27,-227.97,1.066472,83.24,1
939742,1,23196,0,45263,49265,45117.02,49466.57,145.98,-201.57,1.065894,83.25,1
939782,1,23236,0,45279,49295,45117.34,49466.22,161.66,-171.22,1.065321,83.25,1
939822,1,23276,0,45298,49329,45117.71,49465.95,180.29,-136.95,1.064760,83.25,1
939862,1,23316,0,45311,49373,45118.09,49465.77,192.91,-92.77,1.064216,83.26,1
939902,1,23356,0,45320,49396,45118.50,49465.63,201.50,-69.63,1.063694,83.26,1
939942,1,23396,0,45336,49418,45118.94,49465.54,217.06,-47.54,1.063196,83.27,1
939982,1,23436,0,45349,49436,45119.40,49465.48,229.60,-29.48,1.062726,83.27,1
940022,1,23476,0,45356,49450,45119.87,49465.45,236.13,-15.45,1.062286,83.28,1
940062,1,23516,0,45361,49466,45120.36,49465.45,240.64,0.55,1.061877,83.28,1
940102,1,23556,0,45369,49463,45120.86,49465.45,248.14,-2.45,1.061500,83.29,1
940142,1,23596,0,45344,49300,45121.30,49465.12,222.70,-165.12,1.061139,83.29,1
940182,1,23636,0,45257,49114,45121.58,49464.42,135.42,-350.42,1.060743,83.30,1
940222,1,23676,0,45210,49064,45121.76,49463.62,88.24,-399.62,1.060297,83.30,1
940262,1,23716,0,45215,49088,45121.95,49462.87,93.05,-374.87,1.059808,83.31,1
940303,1,23757,0,45234,49126,45122.17,49462.20,111.83,-336.20,1.059290,83.32,1
940343,1,23797,0,45245,49158,45122.42,49461.59,122.58,-303.59,1.058752,83.32,1
940383,1,23837,0,45259,49195,45122.69,49461.06,136.31,-266.06,1.058203,83.33,1
940423,1,23877,0,45271,49200,45122.99,49460.54,148.01,-260.54,1.057644,83.34,1
940463,1,23917,0,45270,49193,45123.29,49460.00,146.71,-267.00,1.057076,83.34,1
940503,1,23957,0,45269,49189,45123.58,49459.46,145.42,-270.46,1.056498,83.35,1
940543,1,23997,0,45272,49201,45123.87,49458.95,148.12,-257.95,1.055912,83.36,1
940583,1,24037,0,45284,49231,45124.20,49458.50,159.80,-227.50,1.055325,83.37,1
940623,1,24077,0,45296,49257,45124.54,49458.09,171.46,-201.09,1.054742,83.37,1
940663,1,24117,0,45312,49282,45124.91,49457.74,187.09,-175.74,1.054168,83.38,1
940703,1,24157,0,45322,49301,45125.31,49457.43,196.69,-156.43,1.053607,83.39,1
940743,1,24197,0,45325,49313,45125.71,49457.14,199.29,-144.14,1.053061,83.40,1
940783,1,24237,0,45328,49325,45126.12,49456.88,201.88,-131.88,1.052530,83.41,1
940823,1,24277,0,45334,49330,45126.54,49456.62,207.46,-126.62,1.052017,83.42,1
940863,1,24317,0,45334,49338,45126.95,49456.39,207.05,-118.39,1.051521,83.43,1
940903,1,24357,0,45328,49279,45127.36,49456.04,200.64,-177.04,1.051037,83.43,1
940944,1,24398,0,45272,49077,45127.64,49455.28,144.36,-378.28,1.050519,83.44,1
940984,1,24438,0,45200,48953,45127.79,49454.28,72.21,-501.28,1.049931,83.45,1
941024,1,24478,0,45179,48961,45127.89,49453.29,51.11,-492.29,1.049279,83.46,1
941064,1,24518,0,45202,49012,45128.04,49452.41,73.96,-440.41,1.048582,83.47,1
941104,1,24558,0,45222,49057,45128.23,49451.62,93.77,-394.62,1.047852,83.48,1
941144,1,24598,0,45237,49098,45128.45,49450.91,108.55,-352.91,1.047099,83.49,1
941184,1,24638,0,45250,49120,45128.70,49450.25,121.30,-330.25,1.046329,83.50,1
941224,1,24678,0,45257,49105,45128.95,49449.57,128.05,-344.57,1.045542,83.51,1
941264,1,24718,0,45249,49086,45129.20,49448.84,119.80,-362.84,1.044734,83.52,1
941304,1,24758,0,45243,49085,45129.43,49448.11,113.57,-363.11,1.043904,83.54,1
941344,1,24798,0,45250,49113,45129.67,49447.45,120.33,-334.45,1.043060,83.55,1
941384,1,24838,0,45264,49139,45129.94,49446.83,134.06,-307.83,1.042206,83.56,1
941424,1,24878,0,45278,49174,45130.23,49446.29,147.77,-272.29,1.041348,83.57,1
941464,1,24918,0,45287,49197,45130.55,49445.79,156.45,-248.79,1.040491,83.58,1
941504,1,24958,0,45284,49210,45130.86,49445.32,153.14,-235.32,1.039635,83.60,1
941545,1,24999,0,45293,49221,45131.18,49444.87,161.82,-223.87,1.038783,83.61,1
941585,1,25039,0,45298,49227,45131.52,49444.44,166.48,-217.44,1.037935,83.62,1
941625,1,25079,0,45297,49236,45131.85,49444.02,165.15,-208.02,1.037093,83.64,1
941665,1,25119,0,45283,49117,45132.16,49443.37,150.84,-326.37,1.036242,83.65,1
941705,1,25159,0,45212,48921,45132.32,49442.33,79.68,-521.33,1.035341,83.66,1
941745,1,25199,0,45155,48851,45132.36,49441.15,22.64,-590.15,1.034377,83.68,1
941785,1,25239,0,45156,48887,45132.41,49440.04,23.59,-553.04,1.033364,83.69,1
941825,1,25279,0,45178,48945,45132.50,49439.05,45.50,-494.05,1.032315,83.71,1
941865,1,25319,0,45206,48989,45132.65,49438.16,73.35,-449.16,1.031239,83.72,1
941905,1,25359,0,45223,49037,45132.84,49437.36,90.16,-400.36,1.030145,83.74,1
941945,1,25399,0,45237,49064,45133.05,49436.61,103.95,-372.61,1.029038,83.76,1
941985,1,25439,0,45242,49057,45133.27,49435.85,108.73,-378.85,1.027919,83.77,1
942025,1,25479,0,45236,49049,45133.47,49435.08,102.53,-386.08,1.026785,83.79,1
942065,1,25519,0,45245,49079,45133.70,49434.37,111.30,-355.37,1.025642,83.81,1
942105,1,25559,0,45254,49115,45133.94,49433.73,120.06,-318.73,1.024494,83.82,1
942145,1,25599,0,45264,49153,45134.20,49433.17,129.80,-280.17,1.023345,83.84,1
942186,1,25640,0,45285,49189,45134.50,49432.68,150.50,-243.68,1.022200,83.86,1
942226,1,25680,0,45293,49222,45134.82,49432.26,158.18,-210.26,1.021063,83.88,1
942266,1,25720,0,45301,49245,45135.15,49431.89,165.85,-186.89,1.019936,83.90,1
942306,1,25760,0,45311,49272,45135.50,49431.57,175.50,-159.57,1.018820,83.92,1
942346,1,25800,0,45324,49291,45135.88,49431.29,188.12,-140.29,1.017720,83.93,1
942386,1,25840,0,45320,49213,45136.25,49430.85,183.75,-217.85,1.016630,83.95,1
942426,1,25880,0,45250,49012,45136.48,49430.02,113.52,-418.02,1.015523,83.97,1
942466,1,25920,0,45191,48911,45136.59,49428.98,54.41,-517.98,1.014383,83.99,1
942506,1,25960,0,45184,48929,45136.69,49427.98,47.31,-498.98,1.013215,84.01,1
942546,1,26000,0,45207,48987,45136.83,49427.10,70.17,-440.10,1.012028,84.03,1
942586,1,26040,0,45225,49028,45137.01,49426.30,87.99,-398.30,1.010828,84.06,1
942626,1,26080,0,45238,49067,45137.21,49425.59,100.79,-358.59,1.009619,84.08,1
942666,1,26120,0,45260,49103,45137.46,49424.94,122.54,-321.94,1.008408,84.10,1
942706,1,26160,0,45266,49109,45137.71,49424.31,128.29,-315.31,1.007194,84.12,1
942746,1,26200,0,45258,49097,45137.96,49423.66,120.04,-326.66,1.005978,84.14,1
942786,1,26240,0,45258,49115,45138.20,49423.04,119.80,-308.04,1.004759,84.16,1
942827,1,26281,0,45266,49139,45138.46,49422.48,127.54,-283.48,1.003540,84.19,1
942867,1,26321,0,45277,49175,45138.73,49421.98,138.27,-246.98,1.002326,84.21,1
942907,1,26361,0,45292,49215,45139.04,49421.57,152.96,-206.57,1.001120,84.23,1
942947,1,26401,0,45305,49256,45139.37,49421.24,165.62,-165.24,0.999924,84.25,1
942987,1,26441,0,45320,49282,45139.74,49420.96,180.26,-138.96,0.998743,84.28,1
943027,1,26481,0,45331,49306,45140.12,49420.73,190.88,-114.73,0.997578,84.30,1
943067,1,26521,0,45337,49323,45140.52,49420.54,196.48,-97.54,0.996431,84.33,1
943107,1,26561,0,45346,49342,45140.93,49420.38,205.07,-78.38,0.995303,84.35,1
943147,1,26601,0,45337,49208,45141.32,49419.96,195.68,-211.96,0.994189,84.37,1
943187,1,26641,0,45254,48988,45141.55,49419.10,112.45,-431.10,0.993058,84.40,1
943227,1,26681,0,45201,48912,45141.67,49418.09,59.33,-506.09,0.991901,84.42,1
943267,1,26721,0,45195,48945,45141.78,49417.14,53.22,-472.14,0.990722,84.45,1
943307,1,26761,0,45212,48990,45141.92,49416.29,70.08,-426.29,0.989527,84.47,1
943347,1,26801,0,45229,49017,45142.10,49415.49,86.90,-398.49,0.988321,84.49,1
943387,1,26841,0,45240,49049,45142.29,49414.76,97.71,-365.76,0.987107,84.52,1
943427,1,26881,0,45253,49080,45142.52,49414.09,110.48,-334.09,0.985890,84.54,1
943467,1,26921,0,45260,49080,45142.75,49413.43,117.25,-333.43,0.984669,84.57,1
943508,1,26962,0,45252,49073,45142.97,49412.75,109.03,-339.75,0.983444,84.59,1
943548,1,27002,0,45252,49091,45143.19,49412.11,108.81,-321.11,0.982216,84.62,1
943588,1,27042,0,45260,49127,45143.42,49411.54,116.58,-284.54,0.980988,84.65,1
943628,1,27082,0,45277,49168,45143.69,49411.05,133.31,-243.05,0.979765,84.67,1
943668,1,27122,0,45297,49207,45144.00,49410.64,153.00,-203.64,0.978550,84.70,1
943708,1,27162,0,45309,49241,45144.33,49410.30,164.67,-169.30,0.977346,84.72,1
943748,1,27202,0,45326,49271,45144.70,49410.03,181.30,-139.03,0.976156,84.75,1
943788,1,27242,0,45337,49288,45145.08,49409.79,191.92,-121.79,0.974983,84.78,1
943828,1,27282,0,45344,49305,45145.48,49409.58,198.52,-104.58,0.973828,84.80,1
943868,1,27322,0,45349,49325,45145.89,49409.41,203.11,-84.41,0.972691,84.83,1
943908,1,27362,0,45341,49228,45146.28,49409.05,194.72,-181.05,0.971569,84.86,1
943948,1,27402,0,45272,49015,45146.54,49408.26,125.46,-393.26,0.970438,84.88,1
943988,1,27442,0,45207,48914,45146.66,49407.27,60.34,-493.27,0.969285,84.91,1
944028,1,27482,0,45197,48935,45146.76,49406.33,50.24,-471.33,0.968111,84.94,1
944068,1,27522,0,45211,48984,45146.89,49405.49,64.11,-421.49,0.966924,84.96,1
944108,1,27562,0,45228,49014,45147.05,49404.71,80.95,-390.71,0.965726,84.99,1
944149,1,27603,0,45240,49051,45147.24,49404.00,92.76,-353.00,0.964523,85.02,1
944189,1,27643,0,45257,49077,45147.46,49403.35,109.54,-326.35,0.963317,85.04,1
944229,1,27683,0,45257,49076,45147.68,49402.70,109.32,-326.70,0.962108,85.07,1
944269,1,27723,0,45252,49069,45147.89,49402.03,104.11,-333.03,0.960896,85.10,1
944309,1,27763,0,45256,49076,45148.11,49401.37,107.89,-325.37,0.959681,85.12,1
944349,1,27803,0,45261,49111,45148.33,49400.80,112.67,-289.80,0.958466,85.15,1
944389,1,27843,0,45274,49143,45148.59,49400.28,125.41,-257.28,0.957255,85.18,1
944429,1,27883,0,45293,49172,45148.87,49399.82,144.12,-227.82,0.956050,85.21,1
944469,1,27923,0,45305,49196,45149.19,49399.42,155.81,-203.42,0.954853,85.23,1
944509,1,27963,0,45310,49220,45149.51,49399.06,160.49,-179.06,0.953668,85.26,1
944549,1,28003,0,45316,49232,45149.85,49398.73,166.15,-166.73,0.952493,85.29,1
944589,1,28043,0,45320,49239,45150.19,49398.41,169.81,-159.41,0.951331,85.32,1
944629,1,28083,0,45326,49251,45150.54,49398.12,175.46,-147.12,0.950182,85.35,1
944669,1,28123,0,45316,49162,45150.87,49397.64,165.13,-235.64,0.949042,85.37,1
944709,1,28163,0,45245,48968,45151.06,49396.79,93.94,-428.79,0.947889,85.40,1
944749,1,28203,0,45178,48874,45151.11,49395.74,26.89,-521.74,0.946712,85.43,1
944790,1,28244,0,45169,48885,45151.15,49394.72,17.85,-509.72,0.945512,85.46,1
944830,1,28284,0,45182,48936,45151.21,49393.80,30.79,-457.80,0.944297,85.49,1
944870,1,28324,0,45195,48969,45151.30,49392.96,43.70,-423.96,0.943069,85.51,1
944910,1,28364,0,45203,49002,45151.41,49392.18,51.59,-390.18,0.941831,85.54,1
944950,1,28404,0,45222,49022,45151.55,49391.44,70.45,-369.44,0.940587,85.57,1
944990,1,28444,0,45218,49026,45151.68,49390.71,66.32,-364.71,0.939336,85.60,1
945030,1,28484,0,45216,49019,45151.81,49389.96,64.19,-370.96,0.938079,85.63,1
945070,1,28524,0,45220,49034,45151.95,49389.25,68.05,-355.25,0.936816,85.66,1
945110,1,28564,0,45235,49063,45152.11,49388.60,82.89,-325.60,0.935550,85.68,1
945150,1,28604,0,45242,49089,45152.29,49388.00,89.71,-299.00,0.934284,85.71,1
945190,1,28644,0,45251,49118,45152.49,49387.46,98.51,-269.46,0.933019,85.74,1
945230,1,28684,0,45259,49135,45152.71,49386.96,106.29,-251.96,0.931756,85.77,1
945270,1,28724,0,45262,49150,45152.93,49386.49,109.07,-236.49,0.930497,85.80,1
945310,1,28764,0,45269,49168,45153.16,49386.05,115.84,-218.05,0.929244,85.83,1
945350,1,28804,0,45268,49188,45153.39,49385.66,114.61,-197.66,0.927995,85.86,1
945390,1,28844,0,45268,49159,45153.62,49385.20,114.38,-226.20,0.926751,85.89,1
945431,1,28885,0,45227,48997,45153.77,49384.43,73.23,-387.43,0.925500,85.92,1
945471,1,28925,0,45160,48874,45153.78,49383.41,6.22,-509.41,0.924230,85.95,1
945511,1,28965,0,45130,48871,45153.73,49382.39,-23.73,-511.39,0.922943,85.98,1
945551,1,29005,0,45138,48912,45153.70,49381.45,-15.70,-469.45,0.921642,86.00,1
945591,1,29045,0,45161,48944,45153.72,49380.57,7.28,-436.57,0.920330,86.03,1
945631,1,29085,0,45170,48983,45153.75,49379.78,16.25,-396.78,0.919010,86.06,1
945671,1,29125,0,45179,49016,45153.80,49379.05,25.20,-363.05,0.917684,86.09,1
945711,1,29165,0,45189,49019,45153.87,49378.33,35.13,-359.33,0.916352,86.12,1
945751,1,29205,0,45191,49017,45153.95,49377.61,37.05,-360.61,0.915016,86.15,1
945791,1,29245,0,45184,49027,45154.01,49376.91,29.99,-349.91,0.913674,86.18,1
945831,1,29285,0,45191,49051,45154.09,49376.26,36.91,-325.26,0.912330,86.21,1
945871,1,29325,0,45200,49081,45154.18,49375.67,45.82,-294.67,0.910984,86.24,1
945911,1,29365,0,45209,49101,45154.29,49375.12,54.71,-274.12,0.909638,86.27,1
945951,1,29405,0,45218,49125,45154.42,49374.62,63.58,-249.62,0.908293,86.31,1
945991,1,29445,0,45222,49151,45154.55,49374.18,67.45,-223.18,0.906950,86.34,1
946031,1,29485,0,45223,49168,45154.69,49373.77,68.31,-205.77,0.905610,86.37,1
946072,1,29526,0,45227,49182,45154.84,49373.38,72.16,-191.38,0.904274,86.40,1
946112,1,29566,0,45229,49155,45154.98,49372.95,74.02,-217.95,0.902940,86.43,1
946152,1,29606,0,45178,49016,45155.03,49372.24,22.97,-356.24,0.901601,86.46,1
946192,1,29646,0,45125,48923,45154.97,49371.34,-29.97,-448.34,0.900252,86.49,1
946232,1,29686,0,45105,48918,45154.87,49370.43,-49.88,-452.43,0.898894,86.52,1
946272,1,29726,0,45114,48957,45154.79,49369.61,-40.79,-412.61,0.897528,86.55,1
946312,1,29766,0,45123,48984,45154.73,49368.84,-31.73,-384.84,0.896156,86.58,1
946352,1,29806,0,45136,49011,45154.70,49368.12,-18.70,-357.12,0.894781,86.62,1
946392,1,29846,0,45150,49036,45154.69,49367.46,-4.69,-331.46,0.893402,86.65,1
946432,1,29886,0,45156,49048,45154.69,49366.82,1.31,-318.82,0.892020,86.68,1
946472,1,29926,0,45150,49047,45154.68,49366.19,-4.68,-319.19,0.890635,86.71,1
946512,1,29966,0,45152,49058,45154.68,49365.57,-2.68,-307.57,0.889249,86.74,1
946552,1,30006,1,45157,49080,45154.68,49365.00,2.32,-285.00,0.887861,86.77,1
946592,1,30046,1,45163,49114,45154.70,49364.50,8.30,-250.50,0.886473,86.81,1
946632,1,30086,1,45171,49142,45154.74,49364.06,16.26,-222.06,0.885086,86.84,1
946672,1,30126,1,45175,49164,45154.78,49363.66,20.22,-199.66,0.883701,86.87,1
946713,1,30167,1,45185,49185,45154.84,49363.30,30.16,-178.30,0.882319,86.90,1
946753,1,30207,1,45189,49207,45154.91,49362.99,34.09,-155.99,0.880939,86.93,1
946793,1,30247,1,45191,49231,45154.99,49362.73,36.01,-131.73,0.879563,86.97,1
946833,1,30287,1,45180,49144,45155.04,49362.29,24.96,-218.29,0.878188,87.00,1
946873,1,30327,1,45129,49041,45154.99,49361.65,-25.99,-320.65,0.876811,87.03,1
946913,1,30367,1,45093,49015,45154.87,49360.96,-61.87,-345.96,0.875431,87.06,1
946953,1,30407,1,45100,49036,45154.76,49360.31,-54.76,-324.31,0.874050,87.10,1
946993,1,30447,1,45116,49058,45154.68,49359.71,-38.68,-301.71,0.872668,87.13,1
947033,1,30487,1,45124,49082,45154.62,49359.16,-30.62,-277.16,0.871285,87.16,1
947073,1,30527,1,45135,49121,45154.58,49358.68,-19.58,-237.68,0.869902,87.19,1
947113,1,30567,1,45144,49145,45154.56,49358.25,-10.56,-213.25,0.868521,87.23,1
947153,1,30607,1,45150,49157,45154.55,49357.85,-4.55,-200.85,0.867142,87.26,1
947193,1,30647,1,45148,49165,45154.54,49357.47,-6.54,-192.47,0.865764,87.29,1
947233,1,30687,1,45151,49190,45154.54,49357.14,-3.54,-167.14,0.864388,87.33,1
947273,1,30727,1,45157,49218,45154.54,49356.86,2.46,-138.86,0.863015,87.36,1
947314,1,30768,1,45169,49250,45154.57,49356.65,14.43,-106.65,0.861646,87.39,1
947354,1,30808,1,45185,49280,45154.64,49356.50,30.36,-76.50,0.860280,87.42,1
947394,1,30848,1,45182,49314,45154.69,49356.41,27.31,-42.41,0.858919,87.46,1
947434,1,30888,1,45197,49349,45154.78,49356.40,42.22,-7.40,0.857563,87.49,1
947474,1,30928,1,45206,49358,45154.88,49356.41,51.12,1.59,0.856213,87.52,1
947514,1,30968,1,45185,49273,45154.95,49356.24,30.05,-83.24,0.854866,87.56,1
947554,1,31008,1,45145,49187,45154.93,49355.91,-9.93,-168.91,0.853522,87.59,1
947594,1,31048,1,45125,49170,45154.87,49355.54,-29.87,-185.54,0.852179,87.62,1
947634,1,31088,1,45127,49186,45154.81,49355.20,-27.81,-169.20,0.850839,87.66,1
947674,1,31128,1,45138,49212,45154.78,49354.91,-16.78,-142.91,0.849501,87.69,1
947714,1,31168,1,45142,49230,45154.76,49354.66,-12.76,-124.66,0.848167,87.72,1
947754,1,31208,1,45152,49253,45154.75,49354.46,-2.75,-101.46,0.846835,87.76,1
947794,1,31248,1,45158,49259,45154.76,49354.27,3.24,-95.27,0.845507,87.79,1
947834,1,31288,1,45157,49263,45154.77,49354.09,2.23,-91.09,0.844183,87.82,1
947874,1,31328,1,45157,49266,45154.77,49353.91,2.23,-87.91,0.842861,87.86,1
947915,1,31369,1,45153,49265,45154.77,49353.74,-1.77,-88.74,0.841543,87.89,1
947955,1,31409,1,45154,49286,45154.77,49353.61,-0.77,-67.61,0.840229,87.92,1
947995,1,31449,1,45159,49319,45154.77,49353.54,4.23,-34.54,0.838919,87.96,1
948035,1,31489,1,45170,49350,45154.80,49353.54,15.20,-3.54,0.837612,87.99,1
948075,1,31529,1,45187,49388,45154.87,49353.61,32.13,34.39,0.836310,88.02,1
948115,1,31569,1,45198,49429,45154.96,49353.76,43.04,75.24,0.835013,88.05,1
948155,1,31609,1,45208,49443,45155.06,49353.94,52.94,89.06,0.833720,88.09,1
948195,1,31649,1,45200,49372,45155.15,49353.98,44.85,18.02,0.832433,88.12,1
948235,1,31689,1,45166,49286,45155.18,49353.84,10.82,-67.84,0.831149,88.15,1
948275,1,31729,1,45151,49283,45155.17,49353.70,-4.17,-70.70,0.829868,88.19,1
948315,1,31769,1,45153,49298,45155.16,49353.59,-2.16,-55.59,0.828591,88.22,1
948355,1,31809,1,45156,49298,45155.17,49353.48,0.83,-55.48,0.827318,88.25,1
948395,1,31849,1,45162,49310,45155.18,49353.40,6.82,-43.40,0.826048,88.29,1
948435,1,31889,1,45162,49323,45155.20,49353.34,6.80,-30.34,0.824783,88.32,1
948475,1,31929,1,45164,49320,45155.22,49353.27,8.78,-33.27,0.823520,88.35,1
948515,1,31969,1,45162,49318,45155.23,49353.20,6.77,-35.20,0.822262,88.38,1
948556,1,32010,1,45162,49322,45155.25,49353.14,6.75,-31.14,0.821007,88.42,1
948596,1,32050,1,45164,49349,45155.27,49353.13,8.73,-4.13,0.819756,88.45,1
948636,1,32090,1,45173,49381,45155.30,49353.19,17.70,27.81,0.818509,88.48,1
948676,1,32130,1,45191,49405,45155.38,49353.30,35.62,51.70,0.817267,88.51,1
948716,1,32170,1,45197,49424,45155.46,49353.44,41.54,70.56,0.816029,88.55,1
948756,1,32210,1,45205,49448,45155.57,49353.63,49.43,94.37,0.814795,88.58,1
948796,1,32250,1,45208,49468,45155.67,49353.86,52.33,114.14,0.813566,88.61,1
948836,1,32290,1,45223,49488,45155.81,49354.13,67.19,133.87,0.812341,88.64,1
948876,1,32330,1,45229,49456,45155.96,49354.34,73.04,101.66,0.811124,88.68,1
948916,1,32370,1,45190,49345,45156.03,49354.32,33.97,-9.32,0.809910,88.71,1
948956,1,32410,1,45148,49288,45156.01,49354.19,-8.01,-66.19,0.808700,88.74,1
948996,1,32450,1,45141,49294,45155.98,49354.07,-14.98,-60.07,0.807494,88.77,1
949036,1,32490,1,45154,49324,45155.98,49354.01,-1.98,-30.01,0.806291,88.81,1
949076,1,32530,1,45163,49350,45156.00,49354.00,7.00,-4.00,0.805091,88.84,1
949116,1,32570,1,45178,49370,45156.04,49354.04,21.96,15.96,0.803896,88.87,1
949157,1,32611,1,45180,49387,45156.09,49354.11,23.91,32.89,0.802704,88.90,1
949197,1,32651,1,45188,49392,45156.16,49354.18,31.84,37.82,0.801517,88.93,1
949237,1,32691,1,45187,49401,45156.22,49354.28,30.78,46.72,0.800333,88.96,1
949277,1,32731,1,45188,49420,45156.29,49354.41,31.71,65.59,0.799154,89.00,1
949317,1,32771,1,45197,49443,45156.37,49354.59,40.63,88.41,0.797978,89.03,1
949357,1,32811,1,45209,49472,45156.48,49354.82,52.52,117.18,0.796807,89.06,1
949397,1,32851,1,45224,49511,45156.61,49355.14,67.39,155.86,0.795640,89.09,1
949437,1,32891,1,45237,49532,45156.77,49355.49,80.23,176.51,0.794478,89.12,1
949477,1,32931,1,45251,49563,45156.96,49355.91,94.04,207.09,0.793322,89.15,1
949517,1,32971,1,45264,49591,45157.18,49356.38,106.82,234.62,0.792173,89.19,1
949557,1,33011,1,45272,49612,45157.41,49356.89,114.59,255.11,0.791030,89.22,1
949597,1,33051,1,45265,49557,45157.62,49357.30,107.37,199.70,0.789895,89.25,1
949637,1,33091,1,45230,49456,45157.77,49357.50,72.23,98.50,0.788766,89.28,1
949677,1,33131,1,45198,49413,45157.85,49357.61,40.15,55.39,0.787642,89.31,1
949717,1,33171,1,45192,49427,45157.92,49357.75,34.08,69.25,0.786521,89.34,1
949757,1,33211,1,45202,49442,45158.01,49357.92,43.99,84.08,0.785405,89.37,1
949798,1,33252,1,45207,49454,45158.11,49358.11,48.89,95.89,0.784293,89.40,1
949838,1,33292,1,45215,49472,45158.22,49358.34,56.78,113.66,0.783185,89.43,1
949878,1,33332,1,45219,49484,45158.34,49358.60,60.66,125.40,0.782082,89.46,1
949918,1,33372,1,45220,49487,45158.47,49358.86,61.53,128.14,0.780983,89.49,1
949958,1,33412,1,45219,49490,45158.59,49359.12,60.41,130.88,0.779889,89.52,1
949998,1,33452,1,45228,49516,45158.73,49359.43,69.27,156.57,0.778799,89.55,1
950038,1,33492,1,45235,49544,45158.88,49359.80,76.12,184.20,0.777713,89.58,1
950078,1,33532,1,45243,49569,45159.05,49360.22,83.95,208.78,0.776631,89.61,1
950118,1,33572,1,45257,49590,45159.25,49360.68,97.75,229.32,0.775553,89.64,1
950158,1,33612,1,45274,49607,45159.48,49361.18,114.52,245.82,0.774483,89.67,1
950198,1,33652,1,45273,49630,45159.70,49361.71,113.30,268.29,0.773418,89.70,1
950238,1,33692,1,45282,49645,45159.95,49362.28,122.05,282.72,0.772358,89.73,1
950278,1,33732,1,45280,49615,45160.19,49362.79,119.81,252.21,0.771306,89.76,1
950318,1,33772,1,45247,49512,45160.37,49363.09,86.63,148.91,0.770260,89.79,1
950358,1,33812,1,45205,49457,45160.46,49363.28,44.54,93.72,0.769218,89.82,1
950398,1,33852,1,45197,49462,45160.53,49363.48,36.47,98.52,0.768179,89.85,1
950439,1,33893,1,45208,49479,45160.63,49363.71,47.37,115.29,0.767143,89.88,1
950479,1,33933,1,45214,49502,45160.74,49363.98,53.26,138.02,0.766111,89.91,1
950519,1,33973,1,45219,49531,45160.86,49364.32,58.14,166.68,0.765081,89.94,1
950559,1,34013,1,45228,49544,45160.99,49364.68,67.01,179.32,0.764053,89.97,1
950599,1,34053,1,45232,49551,45161.14,49365.05,70.86,185.95,0.763029,90.00,1
950639,1,34093,1,45234,49564,45161.29,49365.45,72.71,198.55,0.762007,90.02,1
950679,1,34133,1,45240,49586,45161.45,49365.89,78.55,220.11,0.760988,90.05,1
950719,1,34173,1,45253,49606,45161.63,49366.37,91.37,239.62,0.759971,90.08,1
950759,1,34213,1,45266,49628,45161.84,49366.90,104.16,261.10,0.758958,90.11,1
950799,1,34253,1,45275,49656,45162.07,49367.48,112.93,288.52,0.757948,90.14,1
950839,1,34293,1,45279,49674,45162.30,49368.09,116.70,305.91,0.756941,90.17,1
950879,1,34333,1,45287,49691,45162.55,49368.74,124.45,322.26,0.755937,90.19,1
950919,1,34373,1,45291,49706,45162.81,49369.41,128.19,336.59,0.754936,90.22,1
950959,1,34413,1,45284,49648,45163.05,49369.97,120.95,278.03,0.753940,90.25,1
950999,1,34453,1,45243,49559,45163.21,49370.35,79.79,188.65,0.752948,90.28,1
951039,1,34493,1,45217,49526,45163.32,49370.66,53.68,155.34,0.751958,90.31,1
951080,1,34534,1,45208,49532,45163.41,49370.99,44.59,161.01,0.750970,90.33,1
951120,1,34574,1,45218,49554,45163.52,49371.36,54.48,182.64,0.749983,90.36,1
951160,1,34614,1,45220,49577,45163.63,49371.77,56.37,205.23,0.748997,90.39,1
951200,1,34654,1,45232,49596,45163.77,49372.22,68.23,223.78,0.748011,90.42,1
951240,1,34694,1,45238,49608,45163.92,49372.69,74.08,235.31,0.747025,90.44,1
951280,1,34734,1,45234,49609,45164.06,49373.16,69.94,235.84,0.746040,90.47,1
951320,1,34774,1,45237,49611,45164.21,49373.64,72.79,237.36,0.745056,90.50,1
951360,1,34814,1,45245,49624,45164.37,49374.14,80.63,249.86,0.744072,90.52,1
951400,1,34854,1,45254,49639,45164.55,49374.68,89.45,264.32,0.743089,90.55,1
951440,1,34894,1,45254,49658,45164.73,49375.24,89.27,282.76,0.742107,90.58,1
951480,1,34934,1,45261,49675,45164.93,49375.84,96.07,299.16,0.741124,90.60,1
951520,1,34974,1,45268,49690,45165.13,49376.47,102.87,313.53,0.740141,90.63,1
951560,1,35014,1,45269,49700,45165.34,49377.12,103.66,322.88,0.739158,90.66,1
951600,1,35054,1,45252,49632,45165.52,49377.63,86.48,254.37,0.738176,90.68,1
951640,1,35094,1,45213,49545,45165.61,49377.97,47.39,167.03,0.737196,90.71,1
951681,1,35135,1,45183,49520,45165.65,49378.25,17.35,141.75,0.736216,90.74,1
951721,1,35175,1,45186,49543,45165.69,49378.59,20.31,164.41,0.735237,90.76,1
951761,1,35215,1,45196,49561,45165.75,49378.95,30.25,182.05,0.734257,90.79,1
951801,1,35255,1,45200,49588,45165.82,49379.37,34.18,208.63,0.733277,90.82,1
951841,1,35295,1,45210,49605,45165.91,49379.82,44.09,225.18,0.732295,90.84,1
951881,1,35335,1,45212,49607,45166.01,49380.28,45.99,226.72,0.731311,90.87,1
951921,1,35375,1,45208,49609,45166.09,49380.74,41.91,228.26,0.730326,90.90,1
951961,1,35415,1,45212,49616,45166.19,49381.21,45.81,234.79,0.729339,90.92,1
952001,1,35455,1,45221,49624,45166.30,49381.70,54.70,242.30,0.728351,90.95,1
952041,1,35495,1,45228,49639,45166.42,49382.21,61.58,256.79,0.727362,90.97,1
952081,1,35535,1,45232,49658,45166.55,49382.77,65.45,275.23,0.726371,91.00,1
952121,1,35575,1,45231,49678,45166.68,49383.36,64.32,294.64,0.725376,91.03,1
952161,1,35615,1,45242,49688,45166.84,49383.97,75.16,304.03,0.724379,91.05,1
952201,1,35655,1,45240,49659,45166.98,49384.52,73.02,274.48,0.723381,91.08,1
952241,1,35695,1,45197,49563,45167.05,49384.88,29.95,178.12,0.722383,91.10,1
952281,1,35735,1,45168,49518,45167.05,49385.14,0.95,132.86,0.721387,91.13,1
952322,1,35776,1,45162,49517,45167.04,49385.41,-5.04,131.59,0.720391,91.16,1
952362,1,35816,1,45162,49532,45167.04,49385.70,-5.04,146.30,0.719396,91.18,1
952402,1,35856,1,45169,49560,45167.04,49386.05,1.96,173.95,0.718401,91.21,1
952442,1,35896,1,45177,49583,45167.06,49386.45,9.94,196.55,0.717404,91.23,1
952482,1,35936,1,45182,49581,45167.09,49386.84,14.91,194.16,0.716407,91.26,1
952522,1,35976,1,45181,49585,45167.12,49387.24,13.88,197.76,0.715408,91.28,1
952562,1,36016,1,45179,49592,45167.14,49387.65,11.86,204.35,0.714408,91.31,1
952602,1,36056,1,45185,49600,45167.18,49388.07,17.82,211.93,0.713405,91.34,1
952642,1,36096,1,45196,49617,45167.23,49388.54,28.77,228.46,0.712401,91.36,1
952682,1,36136,1,45203,49631,45167.31,49389.02,35.69,241.98,0.711395,91.39,1
952722,1,36176,1,45206,49648,45167.39,49389.54,38.61,258.46,0.710385,91.41,1
952762,1,36216,1,45211,49665,45167.48,49390.09,43.52,274.91,0.709373,91.44,1
952802,1,36256,1,45216,49659,45167.57,49390.63,48.43,268.37,0.708357,91.46,1
952842,1,36296,1,45190,49581,45167.62,49391.01,22.38,189.99,0.707341,91.49,1
952882,1,36336,1,45156,49504,45167.60,49391.24,-11.60,112.76,0.706327,91.51,1
952922,1,36376,1,45132,49490,45167.53,49391.44,-35.53,98.56,0.705317,91.54,1
952963,1,36417,1,45138,49501,45167.47,49391.66,-29.47,109.34,0.704308,91.57,1
953003,1,36457,1,45142,49523,45167.42,49391.92,-25.42,131.08,0.703302,91.59,1
953043,1,36497,1,45151,49550,45167.39,49392.24,-16.39,157.76,0.702296,91.62,1
953083,1,36537,1,45156,49557,45167.36,49392.57,-11.36,164.43,0.701290,91.64,1
953123,1,36577,1,45159,49553,45167.35,49392.89,-8.35,160.11,0.700285,91.67,1
953163,1,36617,1,45155,49553,45167.32,49393.21,-12.32,159.79,0.699280,91.69,1
953203,1,36657,1,45156,49566,45167.30,49393.56,-11.30,172.44,0.698274,91.72,1
953243,1,36697,1,45169,49580,45167.31,49393.93,1.69,186.07,0.697268,91.74,1
953283,1,36737,1,45174,49595,45167.32,49394.34,6.68,200.66,0.696260,91.77,1
953323,1,36777,1,45185,49609,45167.36,49394.77,17.64,214.23,0.695251,91.80,1
953363,1,36817,1,45186,49630,45167.40,49395.24,18.60,234.76,0.694239,91.82,1
953403,1,36857,1,45192,49645,45167.45,49395.74,24.55,249.26,0.693224,91.85,1
953443,1,36897,1,45192,49603,45167.50,49396.15,24.50,206.85,0.692208,91.87,1
953483,1,36937,1,45150,49508,45167.46,49396.38,-17.46,111.62,0.691193,91.90,1
953523,1,36977,1,45123,49451,45167.38,49396.49,-44.38,54.51,0.690184,91.92,1
953563,1,37017,1,45109,49451,45167.26,49396.60,-58.26,54.40,0.689181,91.95,1
953604,1,37058,1,45116,49466,45167.16,49396.74,-51.16,69.26,0.688183,91.97,1
953644,1,37098,1,45123,49486,45167.07,49396.92,-44.07,89.08,0.687189,92.00,1
953684,1,37138,1,45128,49504,45167.00,49397.13,-39.00,106.87,0.686199,92.02,1
953724,1,37178,1,45130,49507,45166.92,49397.36,-36.92,109.64,0.685212,92.05,1
953764,1,37218,1,45134,49499,45166.86,49397.56,-32.86,101.44,0.684227,92.07,1
953804,1,37258,1,45129,49507,45166.78,49397.78,-37.78,109.22,0.683246,92.10,1
953844,1,37298,1,45138,49526,45166.73,49398.04,-28.73,127.96,0.682267,92.13,1
953884,1,37338,1,45151,49545,45166.70,49398.33,-15.70,146.67,0.681288,92.15,1
953924,1,37378,1,45160,49558,45166.68,49398.65,-6.68,159.35,0.680309,92.18,1
953964,1,37418,1,45172,49573,45166.70,49399.00,5.30,174.00,0.679330,92.20,1
954004,1,37458,1,45170,49593,45166.70,49399.39,3.30,193.61,0.678349,92.23,1
954044,1,37498,1,45181,49603,45166.73,49399.80,14.27,203.20,0.677367,92.25,1
954084,1,37538,1,45176,49565,45166.75,49400.14,9.25,164.86,0.676384,92.28,1
954124,1,37578,1,45144,49461,45166.71,49400.26,-22.71,60.74,0.675404,92.30,1
954164,1,37618,1,45109,49408,45166.60,49400.27,-57.60,7.73,0.674431,92.33,1
954204,1,37658,1,45101,49413,45166.47,49400.30,-65.47,12.70,0.673467,92.35,1
954245,1,37699,1,45110,49426,45166.36,49400.35,-56.36,25.65,0.672508,92.38,1
954285,1,37739,1,45117,49446,45166.26,49400.45,-49.26,45.55,0.671556,92.40,1
954325,1,37779,1,45124,49469,45166.18,49400.58,-42.18,68.42,0.670607,92.43,1
954365,1,37819,1,45132,49472,45166.11,49400.73,-34.11,71.27,0.669663,92.45,1
954405,1,37859,1,45132,49456,45166.04,49400.84,-34.04,55.16,0.668722,92.48,1
954445,1,37899,1,45137,49458,45165.98,49400.96,-28.98,57.04,0.667785,92.50,1
954485,1,37939,1,45134,49477,45165.92,49401.11,-31.92,75.89,0.666851,92.53,1
954525,1,37979,1,45150,49499,45165.89,49401.30,-15.89,97.70,0.665918,92.55,1
954565,1,38019,1,45163,49516,45165.89,49401.54,-2.89,114.46,0.664987,92.58,1
954605,1,38059,1,45172,49532,45165.90,49401.80,6.10,130.20,0.664057,92.60,1
954645,1,38099,1,45180,49549,45165.93,49402.09,14.07,146.91,0.663126,92.63,1
954685,1,38139,1,45181,49566,45165.96,49402.42,15.04,163.58,0.662195,92.65,1
954725,1,38179,1,45186,49540,45166.00,49402.70,20.00,137.30,0.661265,92.67,1
954765,1,38219,1,45155,49431,45165.98,49402.76,-10.98,28.24,0.660338,92.70,1
954805,1,38259,1,45116,49355,45165.89,49402.66,-49.89,-47.66,0.659416,92.72,1
954845,1,38299,1,45102,49348,45165.76,49402.55,-63.76,-54.55,0.658502,92.75,1
954885,1,38339,1,45111,49371,45165.65,49402.49,-54.65,-31.49,0.657595,92.77,1
954926,1,38380,1,45121,49383,45165.56,49402.45,-44.56,-19.45,0.656693,92.80,1
954966,1,38420,1,45133,49407,45165.50,49402.46,-32.50,4.54,0.655795,92.82,1
955006,1,38460,1,45136,49413,45165.44,49402.49,-29.44,10.51,0.654902,92.85,1
955046,1,38500,1,45134,49403,45165.38,49402.49,-31.38,0.51,0.654012,92.87,1
955086,1,38540,1,45138,49400,45165.32,49402.49,-27.32,-2.49,0.653126,92.89,1
955126,1,38580,1,45143,49416,45165.28,49402.52,-22.28,13.48,0.652243,92.92,1
955166,1,38620,1,45155,49445,45165.26,49402.60,-10.26,42.40,0.651363,92.94,1
955206,1,38660,1,45167,49462,45165.27,49402.72,1.73,59.28,0.650485,92.97,1
955246,1,38700,1,45175,49476,45165.29,49402.87,9.71,73.13,0.649609,92.99,1
955286,1,38740,1,45185,49493,45165.32,49403.05,19.68,89.95,0.648734,93.01,1
955326,1,38780,1,45189,49517,45165.37,49403.28,23.63,113.72,0.647861,93.04,1
955366,1,38820,1,45199,49517,45165.44,49403.51,33.56,113.49,0.646991,93.06,1
955406,1,38860,1,45190,49451,45165.49,49403.61,24.51,47.39,0.646123,93.08,1
955446,1,38900,1,45143,49333,45165.45,49403.47,-22.45,-70.47,0.645259,93.11,1
955486,1,38940,1,45116,49293,45165.35,49403.25,-49.35,-110.25,0.644398,93.13,1
955526,1,38980,1,45116,49308,45165.25,49403.06,-49.25,-95.06,0.643542,93.15,1
955567,1,39021,1,45133,49334,45165.19,49402.93,-32.19,-68.93,0.642690,93.18,1
955607,1,39061,1,45140,49359,45165.14,49402.84,-25.14,-43.84,0.641841,93.20,1
955647,1,39101,1,45147,49380,45165.11,49402.80,-18.11,-22.80,0.640994,93.22,1
955687,1,39141,1,45154,49375,45165.09,49402.74,-11.09,-27.74,0.640151,93.25,1
955727,1,39181,1,45154,49370,45165.07,49402.68,-11.07,-32.68,0.639310,93.27,1
955767,1,39221,1,45155,49375,45165.05,49402.62,-10.05,-27.62,0.638471,93.29,1
955807,1,39261,1,45160,49399,45165.04,49402.62,-5.04,-3.62,0.637635,93.32,1
955847,1,39301,1,45178,49427,45165.07,49402.67,12.93,24.33,0.636802,93.34,1
955887,1,39341,1,45191,49442,45165.12,49402.75,25.88,39.25,0.635972,93.36,1
955927,1,39381,1,45198,49459,45165.19,49402.86,32.81,56.14,0.635146,93.38,1
955967,1,39421,1,45205,49476,45165.27,49403.01,39.73,72.99,0.634324,93.41,1
956007,1,39461,1,45213,49491,45165.37,49403.18,47.63,87.82,0.633507,93.43,1
956047,1,39501,1,45219,49504,45165.48,49403.39,53.52,100.61,0.632695,93.45,1
956087,1,39541,1,45216,49462,45165.58,49403.50,50.42,58.50,0.631889,93.48,1
956127,1,39581,1,45171,49338,45165.59,49403.37,5.41,-65.37,0.631086,93.50,1
956167,1,39621,1,45136,49277,45165.53,49403.12,-29.53,-126.12,0.630282,93.52,1
956208,1,39662,1,45131,49286,45165.46,49402.89,-34.46,-116.89,0.629481,93.54,1
956248,1,39702,1,45147,49317,45165.43,49402.72,-18.43,-85.72,0.628682,93.56,1
956288,1,39742,1,45154,49342,45165.41,49402.60,-11.41,-60.60,0.627884,93.59,1
956328,1,39782,1,45165,49368,45165.41,49402.53,-0.41,-34.53,0.627088,93.61,1
956368,1,39822,1,45177,49370,45165.43,49402.47,11.57,-32.47,0.626295,93.63,1
956408,1,39862,1,45177,49371,45165.45,49402.41,11.55,-31.41,0.625504,93.65,1
956448,1,39902,1,45180,49379,45165.48,49402.36,14.52,-23.36,0.624716,93.67,1
956488,1,39942,1,45189,49401,45165.53,49402.36,23.47,-1.36,0.623932,93.70,1
956528,1,39982,1,45206,49423,45165.61,49402.40,40.39,20.60,0.623152,93.72,1
956568,1,40022,1,45217,49447,45165.72,49402.49,51.28,44.51,0.622380,93.74,1
956608,1,40062,1,45229,49464,45165.85,49402.62,63.15,61.38,0.621616,93.76,1
956648,1,40102,1,45233,49485,45165.98,49402.79,67.02,82.21,0.620862,93.78,1
956688,1,40142,1,45241,49500,45166.14,49402.98,74.86,97.02,0.620119,93.80,1
956728,1,40182,1,45249,49513,45166.30,49403.20,82.70,109.80,0.619389,93.83,1
956768,1,40222,1,45250,49525,45166.47,49403.45,83.53,121.55,0.618670,93.85,1
956808,1,40262,1,45240,49454,45166.62,49403.55,73.38,50.45,0.617963,93.87,1
956848,1,40302,1,45196,49333,45166.68,49403.41,29.32,-70.41,0.617259,93.89,1
956889,1,40343,1,45163,49284,45166.67,49403.17,-3.67,-119.17,0.616553,93.91,1
956929,1,40383,1,45161,49304,45166.66,49402.98,-5.66,-98.98,0.615848,93.93,1
956969,1,40423,1,45175,49339,45166.68,49402.85,8.32,-63.85,0.615143,93.95,1
957009,1,40463,1,45186,49358,45166.72,49402.76,19.28,-44.76,0.614441,93.97,1
957049,1,40503,1,45202,49380,45166.79,49402.72,35.21,-22.72,0.613744,93.99,1
957089,1,40543,1,45208,49390,45166.87,49402.70,41.13,-12.70,0.613052,94.01,1
957129,1,40583,1,45209,49393,45166.96,49402.68,42.04,-9.68,0.612365,94.03,1
957169,1,40623,1,45215,49395,45167.05,49402.66,47.95,-7.66,0.611685,94.05,1
957209,1,40663,1,45227,49415,45167.18,49402.69,59.82,12.31,0.611015,94.07,1
957249,1,40703,1,45239,49441,45167.32,49402.77,71.68,38.23,0.610356,94.09,1
957289,1,40743,1,45246,49469,45167.48,49402.90,78.52,66.10,0.609711,94.11,1
957329,1,40783,1,45256,49488,45167.66,49403.07,88.34,84.93,0.609081,94.13,1
957369,1,40823,1,45263,49506,45167.85,49403.28,95.15,102.72,0.608469,94.15,1
957409,1,40863,1,45270,49515,45168.06,49403.50,101.94,111.50,0.607876,94.17,1
957449,1,40903,1,45274,49534,45168.27,49403.77,105.73,130.23,0.607302,94.19,1
957489,1,40943,1,45276,49548,45168.49,49404.05,107.51,143.95,0.606746,94.21,1
957530,1,40984,1,45280,49528,45168.71,49404.30,111.29,123.70,0.606211,94.23,1
957570,1,41024,1,45249,49415,45168.87,49404.33,80.13,10.67,0.605690,94.25,1
957610,1,41064,1,45203,49321,45168.94,49404.16,34.06,-83.16,0.605171,94.27,1
957650,1,41104,1,45189,49323,45168.98,49404.00,20.02,-81.00,0.604652,94.29,1
957690,1,41144,1,45205,49359,45169.06,49403.91,35.94,-44.91,0.604136,94.30,1
957730,1,41184,1,45219,49385,45169.16,49403.88,49.84,-18.88,0.603627,94.32,1
957770,1,41224,1,45232,49413,45169.29,49403.90,62.71,9.10,0.603127,94.34,1
957810,1,41264,1,45240,49424,45169.43,49403.94,70.57,20.06,0.602639,94.36,1
957850,1,41304,1,45252,49418,45169.60,49403.97,82.40,14.03,0.602165,94.38,1
957890,1,41344,1,45252,49415,45169.76,49404.00,82.24,11.00,0.601706,94.39,1
957930,1,41384,1,45251,49429,45169.93,49404.05,81.07,24.95,0.601261,94.41,1
957970,1,41424,1,45257,49454,45170.10,49404.15,86.90,49.85,0.600831,94.43,1
958010,1,41464,1,45267,49475,45170.30,49404.29,96.70,70.71,0.600420,94.44,1
958050,1,41504,1,45281,49495,45170.52,49404.48,110.48,90.52,0.600031,94.46,1
958090,1,41544,1,45287,49515,45170.75,49404.70,116.25,110.30,0.599664,94.48,1
958130,1,41584,1,45291,49538,45171.00,49404.97,120.00,133.03,0.599320,94.49,1
958171,1,41625,1,45302,49554,45171.26,49405.27,130.74,148.73,0.599001,94.51,1
958211,1,41665,1,45306,49568,45171.53,49405.60,134.47,162.40,0.598706,94.53,1
958251,1,41705,1,45309,49584,45171.80,49405.96,137.20,178.04,0.598434,94.54,1
958291,1,41745,1,45305,49531,45172.07,49406.21,132.93,124.79,0.598188,94.56,1
958331,1,41785,1,45264,49400,45172.25,49406.20,91.75,-6.20,0.597958,94.57,1
958371,1,41825,1,45227,49348,45172.36,49406.08,54.64,-58.08,0.597732,94.59,1
958411,1,41865,1,45222,49364,45172.46,49406.00,49.54,-42.00,0.597511,94.60,1
958451,1,41905,1,45243,49400,45172.61,49405.99,70.39,-5.99,0.597299,94.61,1
958491,1,41945,1,45260,49424,45172.78,49406.03,87.22,17.97,0.597101,94.63,1
958531,1,41985,1,45268,49444,45172.97,49406.11,95.03,37.89,0.596920,94.64,1
958571,1,42025,1,45276,49451,45173.18,49406.20,102.82,44.80,0.596758,94.65,1
958611,1,42065,1,45273,49442,45173.38,49406.27,99.62,35.73,0.596613,94.67,1
958651,1,42105,1,45275,49446,45173.58,49406.35,101.42,39.65,0.596486,94.68,1
958691,1,42145,1,45280,49462,45173.80,49406.46,106.20,55.54,0.596379,94.69,1
958731,1,42185,1,45290,49482,45174.03,49406.62,115.97,75.38,0.596293,94.70,1
958771,1,42225,1,45297,49507,45174.28,49406.82,122.72,100.18,0.596229,94.72,1
958811,1,42265,1,45304,49529,45174.54,49407.07,129.46,121.93,0.596188,94.73,1
958852,1,42306,1,45311,49547,45174.81,49407.35,136.19,139.65,0.596169,94.74,1
958892,1,42346,1,45319,49563,45175.10,49407.66,143.90,155.34,0.596173,94.75,1
958932,1,42386,1,45322,49590,45175.40,49408.03,146.60,181.97,0.596197,94.76,1
958972,1,42426,1,45330,49605,45175.71,49408.42,154.29,196.58,0.596240,94.77,1
959012,1,42466,1,45338,49617,45176.03,49408.84,161.97,208.16,0.596303,94.78,1
959052,1,42506,1,45334,49556,45176.35,49409.14,157.65,146.86,0.596394,94.79,1
959092,1,42546,1,45286,49425,45176.57,49409.17,109.43,15.83,0.596503,94.80,1
959132,1,42586,1,45249,49374,45176.71,49409.10,72.29,-35.10,0.596619,94.81,1
959172,1,42626,1,45254,49391,45176.87,49409.06,77.13,-18.06,0.596745,94.81,1
959212,1,42666,1,45271,49423,45177.05,49409.09,93.95,13.91,0.596883,94.82,1
959252,1,42706,1,45284,49444,45177.27,49409.16,106.73,34.84,0.597039,94.83,1
959292,1,42746,1,45293,49469,45177.50,49409.28,115.50,59.72,0.597213,94.84,1
959332,1,42786,1,45301,49464,45177.75,49409.39,123.25,54.61,0.597409,94.84,1
959372,1,42826,1,45289,49461,45177.98,49409.50,111.02,51.50,0.597622,94.85,1
959412,1,42866,1,45288,49456,45178.20,49409.59,109.80,46.41,0.597852,94.86,1
959452,1,42906,1,45291,49473,45178.43,49409.72,112.57,63.28,0.598099,94.86,1
959493,1,42947,1,45302,49492,45178.68,49409.88,123.32,82.12,0.598365,94.87,1
959533,1,42987,1,45308,49527,45178.94,49410.12,129.06,116.88,0.598647,94.87,1
959573,1,43027,1,45320,49555,45179.22,49410.41,140.78,144.59,0.598946,94.88,1
959613,1,43067,1,45324,49571,45179.51,49410.73,144.49,160.27,0.599261,94.88,1
959653,1,43107,1,45339,49591,45179.83,49411.10,159.17,179.90,0.599592,94.89,1
959693,1,43147,1,45342,49603,45180.16,49411.48,161.84,191.52,0.599937,94.89,1
959733,1,43187,1,45347,49621,45180.49,49411.91,166.51,209.09,0.600295,94.89,1
959773,1,43227,1,45356,49633,45180.84,49412.35,175.16,220.65,0.600665,94.89,1
959813,1,43267,1,45349,49566,45181.18,49412.66,167.82,153.34,0.601058,94.90,1
959853,1,43307,1,45306,49429,45181.43,49412.70,124.57,16.30,0.601472,94.90,1
959893,1,43347,1,45270,49382,45181.61,49412.64,88.39,-30.64,0.601894,94.90,1
959933,1,43387,1,45267,49396,45181.78,49412.61,85.22,-16.61,0.602326,94.90,1
959973,1,43427,1,45286,49433,45181.99,49412.65,104.01,20.35,0.602770,94.90,1
960013,1,43467,1,45302,49458,45182.23,49412.74,119.77,45.26,0.603232,94.90,1
960053,1,43507,1,45307,49478,45182.48,49412.87,124.52,65.12,0.603712,94.90,1
960093,1,43547,1,45313,49485,45182.75,49413.02,130.25,71.98,0.604210,94.90,1
960134,1,43588,1,45307,49465,45183.00,49413.12,124.00,51.88,0.604726,94.90,1
960174,1,43628,1,45303,49466,45183.24,49413.23,119.76,52.77,0.605259,94.90,1
960214,1,43668,1,45305,49482,45183.48,49413.37,121.52,68.63,0.605807,94.90,1
960254,1,43708,1,45310,49510,45183.74,49413.57,126.26,96.43,0.606370,94.90,1
960294,1,43748,1,45329,49539,45184.03,49413.82,144.97,125.18,0.606948,94.90,1
960334,1,43788,1,45337,49565,45184.34,49414.12,152.66,150.87,0.607539,94.89,1
960374,1,43828,1,45349,49592,45184.67,49414.48,164.33,177.52,0.608143,94.89,1
960414,1,43868,1,45358,49610,45185.02,49414.87,172.98,195.13,0.608756,94.89,1
960454,1,43908,1,45371,49624,45185.39,49415.29,185.61,208.71,0.609381,94.88,1
960494,1,43948,1,45378,49638,45185.78,49415.73,192.22,222.27,0.610016,94.88,1
960534,1,43988,1,45382,49652,45186.18,49416.21,195.82,235.79,0.610658,94.88,1
960574,1,44028,1,45384,49619,45186.57,49416.61,197.43,202.39,0.611317,94.87,1
960614,1,44068,1,45339,49473,45186.88,49416.73,152.12,56.27,0.612000,94.87,1
960654,1,44108,1,45290,49377,45187.09,49416.65,102.91,-39.65,0.612692,94.86,1
960694,1,44148,1,45275,49373,45187.26,49416.56,87.74,-43.56,0.613390,94.85,1
960734,1,44188,1,45289,49413,45187.46,49416.56,101.54,-3.56,0.614099,94.85,1
960775,1,44229,1,45302,49444,45187.70,49416.61,114.30,27.39,0.614821,94.84,1
960815,1,44269,1,45315,49467,45187.95,49416.71,127.05,50.29,0.615559,94.83,1
960855,1,44309,1,45325,49489,45188.22,49416.86,136.78,72.14,0.616313,94.83,1
960895,1,44349,1,45324,49477,45188.50,49416.98,135.50,60.02,0.617085,94.82,1
960935,1,44389,1,45319,49469,45188.76,49417.09,130.24,51.91,0.617874,94.81,1
960975,1,44429,1,45326,49482,45189.04,49417.22,136.96,64.78,0.618680,94.80,1
961015,1,44469,1,45331,49509,45189.32,49417.40,141.68,91.60,0.619501,94.79,1
961055,1,44509,1,45345,49540,45189.63,49417.65,155.37,122.35,0.620338,94.79,1
961095,1,44549,1,45361,49561,45189.98,49417.94,171.02,143.06,0.621190,94.78,1
961135,1,44589,1,45374,49581,45190.35,49418.27,183.65,162.73,0.622059,94.77,1
961175,1,44629,1,45382,49600,45190.73,49418.63,191.27,181.37,0.622941,94.76,1
961215,1,44669,1,45382,49614,45191.11,49419.02,190.89,194.98,0.623832,94.75,1
961255,1,44709,1,45389,49622,45191.51,49419.43,197.49,202.57,0.624731,94.73,1
961295,1,44749,1,45395,49640,45191.92,49419.87,203.08,220.13,0.625636,94.72,1
961335,1,44789,1,45399,49645,45192.33,49420.32,206.67,224.68,0.626544,94.71,1
961375,1,44829,1,45385,49542,45192.72,49420.57,192.28,121.43,0.627479,94.70,1
961416,1,44870,1,45324,49395,45192.98,49420.52,131.02,-25.52,0.628428,94.69,1
961456,1,44910,1,45284,49339,45193.17,49420.36,90.83,-81.36,0.629379,94.67,1
961496,1,44950,1,45281,49369,45193.34,49420.25,87.66,-51.25,0.630332,94.66,1
961536,1,44990,1,45299,49407,45193.55,49420.23,105.45,-13.23,0.631295,94.65,1
961576,1,45030,1,45318,49435,45193.80,49420.26,124.20,14.74,0.632272,94.63,1
961616,1,45070,1,45330,49467,45194.08,49420.36,135.92,46.64,0.633265,94.62,1
961656,1,45110,1,45337,49470,45194.36,49420.46,142.64,49.54,0.634275,94.61,1
961696,1,45150,1,45337,49461,45194.65,49420.54,142.35,40.46,0.635303,94.59,1
961736,1,45190,1,45339,49457,45194.94,49420.61,144.06,36.39,0.636350,94.58,1
961776,1,45230,1,45345,49479,45195.24,49420.73,149.76,58.27,0.637416,94.56,1
961816,1,45270,1,45359,49505,45195.57,49420.90,163.43,84.10,0.638502,94.55,1
961856,1,45310,1,45368,49533,45195.91,49421.12,172.09,111.87,0.639606,94.53,1
961896,1,45350,1,45379,49554,45196.28,49421.39,182.72,132.61,0.640727,94.51,1
961936,1,45390,1,45391,49568,45196.67,49421.68,194.33,146.32,0.641866,94.50,1
961976,1,45430,1,45393,49588,45197.07,49422.02,195.93,165.98,0.643017,94.48,1
962016,1,45470,1,45398,49596,45197.47,49422.36,200.53,173.64,0.644179,94.46,1
962056,1,45510,1,45398,49614,45197.87,49422.75,200.13,191.25,0.645345,94.44,1
962097,1,45551,1,45411,49618,45198.30,49423.14,212.70,194.86,0.646519,94.43,1
962137,1,45591,1,45393,49515,45198.69,49423.32,194.31,91.68,0.647721,94.41,1
962177,1,45631,1,45331,49365,45198.95,49423.20,132.05,-58.20,0.648934,94.39,1
962217,1,45671,1,45290,49307,45199.14,49422.97,90.86,-115.97,0.650139,94.37,1
962257,1,45711,1,45295,49341,45199.33,49422.81,95.67,-81.81,0.651343,94.35,1
962297,1,45751,1,45316,49387,45199.56,49422.74,116.44,-35.74,0.652557,94.33,1
962337,1,45791,1,45336,49424,45199.84,49422.74,136.16,1.26,0.653786,94.31,1
962377,1,45831,1,45356,49443,45200.15,49422.79,155.85,20.21,0.655037,94.29,1
962417,1,45871,1,45363,49444,45200.48,49422.83,162.52,21.17,0.656311,94.27,1
962457,1,45911,1,45361,49431,45200.80,49422.85,160.20,8.15,0.657608,94.25,1
962497,1,45951,1,45353,49427,45201.10,49422.86,151.90,4.14,0.658926,94.22,1
962537,1,45991,1,45357,49447,45201.41,49422.91,155.59,24.09,0.660265,94.20,1
962577,1,46031,1,45375,49469,45201.76,49423.00,173.24,46.00,0.661629,94.18,1
962617,1,46071,1,45390,49500,45202.14,49423.16,187.86,76.84,0.663019,94.16,1
962657,1,46111,1,45391,49523,45202.52,49423.36,188.48,99.64,0.664432,94.13,1
962697,1,46151,1,45397,49542,45202.91,49423.59,194.09,118.41,0.665864,94.11,1
962738,1,46192,1,45401,49549,45203.31,49423.85,197.69,125.15,0.667314,94.09,1
962778,1,46232,1,45406,49563,45203.71,49424.13,202.29,138.87,0.668780,94.06,1
962818,1,46272,1,45411,49586,45204.13,49424.45,206.87,161.55,0.670256,94.04,1
962858,1,46312,1,45415,49566,45204.55,49424.74,210.45,141.26,0.671749,94.01,1
962898,1,46352,1,45381,49402,45204.91,49424.70,176.09,-22.70,0.673268,93.99,1
962938,1,46392,1,45316,49281,45205.13,49424.41,110.87,-143.41,0.674771,93.96,1
962978,1,46432,1,45301,49272,45205.32,49424.11,95.68,-152.11,0.676252,93.94,1
963018,1,46472,1,45317,49314,45205.54,49423.89,111.46,-109.89,0.677727,93.91,1
963058,1,46512,1,45337,49347,45205.81,49423.73,131.19,-76.73,0.679208,93.88,1
963098,1,46552,1,45351,49381,45206.10,49423.65,144.90,-42.65,0.680703,93.86,1
963138,1,46592,1,45364,49399,45206.42,49423.60,157.58,-24.60,0.682219,93.83,1
963178,1,46632,1,45364,49382,45206.73,49423.52,157.27,-41.52,0.683754,93.80,1
963218,1,46672,1,45360,49364,45207.04,49423.40,152.96,-59.40,0.685303,93.77,1
963258,1,46712,1,45354,49368,45207.34,49423.29,146.66,-55.29,0.686866,93.75,1
963298,1,46752,1,45362,49394,45207.65,49423.23,154.35,-29.23,0.688448,93.72,1
963338,1,46792,1,45375,49418,45207.98,49423.23,167.02,-5.23,0.690053,93.69,1
963379,1,46833,1,45387,49445,45208.34,49423.27,178.66,21.73,0.691686,93.66,1
963419,1,46873,1,45388,49474,45208.70,49423.37,179.30,50.63,0.693344,93.63,1
963459,1,46913,1,45399,49491,45209.09,49423.51,189.91,67.49,0.695028,93.60,1
963499,1,46953,1,45409,49503,45209.49,49423.67,199.51,79.33,0.696739,93.57,1
963539,1,46993,1,45417,49521,45209.91,49423.86,207.09,97.14,0.698476,93.54,1
963579,1,47033,1,45423,49545,45210.33,49424.11,212.67,120.89,0.700234,93.51,1
963619,1,47073,1,45429,49491,45210.77,49424.24,218.23,66.76,0.702028,93.47,1
963659,1,47113,1,45381,49312,45211.11,49424.02,169.89,-112.02,0.703828,93.44,1
963699,1,47153,1,45322,49212,45211.33,49423.60,110.67,-211.60,0.705572,93.41,1
963739,1,47193,1,45309,49225,45211.53,49423.20,97.47,-198.20,0.707267,93.38,1
963779,1,47233,1,45329,49264,45211.76,49422.89,117.24,-158.89,0.708936,93.34,1
963819,1,47273,1,45348,49287,45212.04,49422.62,135.96,-135.62,0.710594,93.31,1
963859,1,47313,1,45353,49315,45212.32,49422.40,140.68,-107.40,0.712252,93.28,1
963899,1,47353,1,45360,49318,45212.61,49422.20,147.39,-104.20,0.713912,93.24,1
963939,1,47393,1,45362,49306,45212.91,49421.96,149.09,-115.96,0.715571,93.21,1
963980,1,47434,1,45354,49298,45213.20,49421.72,140.80,-123.72,0.717224,93.17,1
964020,1,47474,1,45362,49311,45213.50,49421.50,148.50,-110.50,0.718878,93.14,1
964060,1,47514,1,45367,49345,45213.80,49421.35,153.20,-76.35,0.720542,93.11,1
964100,1,47554,1,45378,49378,45214.13,49421.26,163.87,-43.26,0.722225,93.07,1
964140,1,47594,1,45395,49407,45214.50,49421.23,180.50,-14.23,0.723936,93.04,1
964180,1,47634,1,45409,49433,45214.89,49421.26,194.11,11.74,0.725678,93.00,1
964220,1,47674,1,45419,49454,45215.30,49421.32,203.70,32.68,0.727455,92.97,1
964260,1,47714,1,45427,49468,45215.72,49421.42,211.28,46.58,0.729268,92.93,1
964300,1,47754,1,45435,49479,45216.16,49421.54,218.84,57.46,0.731119,92.89,1
964340,1,47794,1,45444,49491,45216.62,49421.68,227.38,69.32,0.733007,92.86,1
964380,1,47834,1,45437,49406,45217.06,49421.64,219.94,-15.64,0.734937,92.82,1
964420,1,47874,1,45373,49214,45217.37,49421.23,155.62,-207.23,0.736819,92.78,1
964460,1,47914,1,45318,49139,45217.58,49420.67,100.42,-281.67,0.738589,92.74,1
964500,1,47954,1,45313,49166,45217.77,49420.16,95.23,-254.16,0.740274,92.71,1
964540,1,47994,1,45336,49222,45218.01,49419.77,117.99,-197.77,0.741916,92.67,1
964580,1,48034,1,45345,49235,45218.26,49419.40,126.74,-184.40,0.743524,92.63,1
964621,1,48075,1,45361,49261,45218.55,49419.08,142.45,-158.08,0.745115,92.59,1
964661,1,48115,1,45361,49267,45218.83,49418.78,142.17,-151.78,0.746691,92.56,1
964701,1,48155,1,45360,49259,45219.12,49418.46,140.88,-159.46,0.748248,92.52,1
964741,1,48195,1,45355,49267,45219.39,49418.16,135.61,-151.16,0.749790,92.48,1
964781,1,48235,1,45365,49282,45219.68,49417.89,145.32,-135.89,0.751323,92.44,1
964821,1,48275,1,45375,49323,45220.00,49417.70,155.00,-94.70,0.752864,92.40,1
964861,1,48315,1,45393,49358,45220.34,49417.59,172.66,-59.59,0.754422,92.37,1
964901,1,48355,1,45409,49388,45220.72,49417.53,188.28,-29.53,0.756007,92.33,1
964941,1,48395,1,45422,49406,45221.12,49417.50,200.87,-11.50,0.757625,92.29,1
964981,1,48435,1,45434,49425,45221.55,49417.52,212.45,7.48,0.759279,92.25,1
965021,1,48475,1,45437,49441,45221.98,49417.57,215.02,23.43,0.760970,92.21,1
965061,1,48515,1,45442,49455,45222.43,49417.64,219.57,37.36,0.762699,92.18,1
965101,1,48555,1,45452,49473,45222.89,49417.75,229.11,55.25,0.764466,92.14,1
965141,1,48595,1,45456,49445,45223.36,49417.81,232.64,27.19,0.766276,92.10,1
965181,1,48635,1,45414,49272,45223.74,49417.52,190.26,-145.52,0.768084,92.06,1
965221,1,48675,1,45338,49134,45223.97,49416.95,114.03,-282.95,0.769787,92.02,1
965262,1,48716,1,45319,49133,45224.16,49416.39,94.84,-283.39,0.771390,91.98,1
965302,1,48756,1,45332,49184,45224.38,49415.92,107.62,-231.92,0.772932,91.94,1
965342,1,48796,1,45345,49213,45224.62,49415.52,120.38,-202.52,0.774433,91.90,1
965382,1,48836,1,45353,49244,45224.88,49415.18,128.12,-171.18,0.775910,91.86,1
965422,1,48876,1,45366,49266,45225.16,49414.88,140.84,-148.88,0.777374,91.82,1
965462,1,48916,1,45374,49269,45225.46,49414.59,148.54,-145.59,0.778828,91.79,1
965502,1,48956,1,45370,49270,45225.75,49414.30,144.25,-144.30,0.780272,91.75,1
965542,1,48996,1,45377,49284,45226.06,49414.04,150.94,-130.04,0.781711,91.71,1
965582,1,49036,1,45388,49314,45226.38,49413.84,161.62,-99.84,0.783157,91.67,1
965622,1,49076,1,45408,49352,45226.75,49413.72,181.25,-61.72,0.784623,91.63,1
965662,1,49116,1,45419,49385,45227.13,49413.67,191.87,-28.67,0.786115,91.59,1
965702,1,49156,1,45433,49413,45227.55,49413.67,205.45,-0.67,0.787639,91.55,1
965742,1,49196,1,45440,49426,45227.97,49413.70,212.03,12.30,0.789196,91.52,1
965782,1,49236,1,45444,49443,45228.41,49413.75,215.59,29.25,0.790788,91.48,1
965822,1,49276,1,45447,49448,45228.84,49413.82,218.16,34.18,0.792414,91.44,1
965862,1,49316,1,45448,49460,45229.29,49413.92,218.71,46.08,0.794074,91.40,1
965903,1,49357,1,45449,49476,45229.73,49414.04,219.27,61.96,0.795765,91.36,1
965943,1,49397,1,45454,49488,45230.18,49414.19,223.82,73.81,0.797487,91.32,1
965983,1,49437,1,45444,49399,45230.61,49414.16,213.39,-15.16,0.799242,91.28,1
966023,1,49477,1,45374,49204,45230.89,49413.75,143.11,-209.75,0.800950,91.24,1
966063,1,49517,1,45320,49146,45231.07,49413.21,88.93,-267.21,0.802567,91.20,1
966103,1,49557,1,45319,49186,45231.25,49412.76,87.75,-226.76,0.804122,91.17,1
966143,1,49597,1,45339,49232,45231.46,49412.40,107.54,-180.40,0.805642,91.13,1
966183,1,49637,1,45357,49259,45231.72,49412.09,125.28,-153.09,0.807143,91.09,1
966223,1,49677,1,45368,49285,45231.99,49411.84,136.01,-126.84,0.808636,91.05,1
966263,1,49717,1,45375,49294,45232.28,49411.61,142.72,-117.61,0.810125,91.01,1
966303,1,49757,1,45374,49288,45232.57,49411.36,141.43,-123.36,0.811608,90.97,1
966343,1,49797,1,45369,49290,45232.84,49411.12,136.16,-121.12,0.813084,90.93,1
966383,1,49837,1,45379,49308,45233.13,49410.91,145.87,-102.91,0.814561,90.89,1
966423,1,49877,1,45390,49347,45233.45,49410.79,156.55,-63.79,0.816049,90.85,1
966463,1,49917,1,45397,49376,45233.78,49410.72,163.22,-34.72,0.817554,90.81,1
966504,1,49958,1,45413,49401,45234.14,49410.70,178.86,-9.70,0.819081,90.78,1
966544,1,49998,1,45420,49421,45234.51,49410.73,185.49,10.27,0.820632,90.74,1
966584,1,50038,1,45422,49439,45234.88,49410.79,187.12,28.21,0.822207,90.70,1
966624,1,50078,1,45426,49461,45235.27,49410.89,190.73,50.11,0.823805,90.66,1
966664,1,50118,1,45435,49472,45235.67,49411.01,199.33,60.99,0.825427,90.62,1
966704,1,50158,1,45438,49488,45236.07,49411.17,201.93,76.83,0.827072,90.58,1
966744,1,50198,1,45441,49515,45236.48,49411.37,204.52,103.62,0.828732,90.54,1
966784,1,50238,1,45458,49526,45236.93,49411.61,221.07,114.39,0.830410,90.50,1
966824,1,50278,1,45439,49397,45237.34,49411.58,201.66,-14.58,0.832118,90.46,1
966864,1,50318,1,45367,49219,45237.60,49411.20,129.40,-192.20,0.833784,90.43,1
966904,1,50358,1,45320,49182,45237.76,49410.74,82.24,-228.74,0.835381,90.39,1
966944,1,50398,1,45324,49221,45237.93,49410.36,86.07,-189.36,0.836933,90.35,1
966984,1,50438,1,45341,49256,45238.14,49410.05,102.86,-154.05,0.838459,90.31,1
967024,1,50478,1,45351,49275,45238.37,49409.78,112.63,-134.78,0.839968,90.27,1
967064,1,50518,1,45359,49305,45238.61,49409.57,120.39,-104.57,0.841470,90.23,1
967104,1,50558,1,45362,49306,45238.86,49409.37,123.14,-103.37,0.842968,90.19,1
967145,1,50599,1,45353,49298,45239.09,49409.14,113.91,-111.14,0.844456,90.15,1
967185,1,50639,1,45355,49301,45239.32,49408.93,115.68,-107.93,0.845936,90.11,1
967225,1,50679,1,45358,49328,45239.56,49408.77,118.44,-80.77,0.847415,90.07,1
967265,1,50719,1,45368,49365,45239.82,49408.68,128.18,-43.68,0.848902,90.03,1
967305,1,50759,1,45386,49402,45240.11,49408.67,145.89,-6.67,0.850402,90.00,1
967345,1,50799,1,45402,49429,45240.43,49408.71,161.57,20.29,0.851919,89.96,1
967385,1,50839,1,45406,49459,45240.77,49408.82,165.23,50.18,0.853452,89.92,1
967425,1,50879,1,45419,49470,45241.12,49408.94,177.87,61.06,0.855003,89.88,1
967465,1,50919,1,45425,49481,45241.49,49409.09,183.51,71.91,0.856572,89.84,1
967505,1,50959,1,45432,49494,45241.87,49409.26,190.12,84.74,0.858157,89.80,1
967545,1,50999,1,45436,49512,45242.27,49409.46,193.73,102.54,0.859755,89.76,1
967585,1,51039,1,45435,49448,45242.65,49409.54,192.35,38.46,0.861378,89.72,1
967625,1,51079,1,45374,49256,45242.92,49409.24,131.08,-153.24,0.862978,89.68,1
967665,1,51119,1,45303,49168,45243.04,49408.76,59.96,-240.76,0.864497,89.65,1
967705,1,51159,1,45295,49195,45243.14,49408.33,51.86,-213.33,0.865952,89.61,1
967745,1,51199,1,45308,49243,45243.28,49408.00,64.72,-165.00,0.867371,89.57,1
967786,1,51240,1,45323,49260,45243.44,49407.71,79.56,-147.71,0.868763,89.53,1
967826,1,51280,1,45326,49288,45243.61,49407.47,82.39,-119.47,0.870139,89.49,1
967866,1,51320,1,45334,49308,45243.79,49407.27,90.21,-99.27,0.871505,89.45,1
967906,1,51360,1,45333,49298,45243.97,49407.05,89.03,-109.05,0.872859,89.41,1
967946,1,51400,1,45331,49296,45244.14,49406.83,86.86,-110.83,0.874199,89.38,1
967986,1,51440,1,45334,49322,45244.32,49406.66,89.68,-84.66,0.875534,89.34,1
968026,1,51480,1,45347,49365,45244.53,49406.58,102.47,-41.58,0.876871,89.30,1
968066,1,51520,1,45365,49405,45244.77,49406.58,120.23,-1.58,0.878217,89.26,1
968106,1,51560,1,45382,49433,45245.05,49406.64,136.95,26.36,0.879575,89.23,1
968146,1,51600,1,45393,49450,45245.35,49406.73,147.65,43.27,0.880946,89.19,1
968186,1,51640,1,45400,49467,45245.66,49406.85,154.34,60.15,0.882329,89.15,1
968226,1,51680,1,45403,49489,45245.97,49407.01,157.03,81.99,0.883721,89.11,1
968266,1,51720,1,45406,49499,45246.29,49407.20,159.71,91.80,0.885121,89.08,1
968306,1,51760,1,45412,49478,45246.62,49407.34,165.37,70.66,0.886534,89.04,1
968346,1,51800,1,45366,49313,45246.86,49407.15,119.14,-94.15,0.887943,89.00,1
968386,1,51840,1,45286,49175,45246.94,49406.69,39.06,-231.69,0.889276,88.96,1
968427,1,51881,1,45261,49178,45246.97,49406.23,14.03,-228.23,0.890536,88.93,1
968467,1,51921,1,45272,49228,45247.02,49405.87,24.98,-177.87,0.891752,88.89,1
968507,1,51961,1,45289,49258,45247.11,49405.58,41.89,-147.58,0.892939,88.85,1
968547,1,52001,1,45293,49283,45247.20,49405.34,45.80,-122.34,0.894106,88.82,1
968587,1,52041,1,45302,49310,45247.31,49405.15,54.69,-95.15,0.895261,88.78,1
968627,1,52081,1,45312,49318,45247.44,49404.98,64.56,-86.98,0.896406,88.75,1
968667,1,52121,1,45306,49320,45247.55,49404.81,58.45,-84.81,0.897542,88.71,1
968707,1,52161,1,45312,49331,45247.68,49404.67,64.32,-73.67,0.898672,88.68,1
968747,1,52201,1,45325,49369,45247.84,49404.60,77.16,-35.60,0.899802,88.64,1
968787,1,52241,1,45340,49403,45248.02,49404.60,91.98,-1.60,0.900936,88.61,1
968827,1,52281,1,45356,49437,45248.24,49404.66,107.76,32.34,0.902077,88.57,1
968867,1,52321,1,45357,49466,45248.46,49404.79,108.54,61.21,0.903221,88.54,1
968907,1,52361,1,45370,49480,45248.71,49404.94,121.29,75.06,0.904368,88.50,1
968947,1,52401,1,45377,49500,45248.96,49405.13,128.04,94.87,0.905515,88.47,1
968987,1,52441,1,45378,49517,45249.22,49405.36,128.78,111.64,0.906658,88.43,1
969027,1,52481,1,45380,49521,45249.48,49405.59,130.52,115.41,0.907797,88.40,1
969068,1,52522,1,45358,49382,45249.70,49405.55,108.30,-23.55,0.908942,88.37,1
969108,1,52562,1,45280,49237,45249.77,49405.21,30.23,-168.21,0.910047,88.33,1
969148,1,52602,1,45241,49227,45249.75,49404.86,-8.75,-177.86,0.911107,88.30,1
969188,1,52642,1,45249,49271,45249.75,49404.59,-0.75,-133.59,0.912141,88.27,1
969228,1,52682,1,45269,49303,45249.79,49404.39,19.21,-101.39,0.913158,88.23,1
969268,1,52722,1,45273,49328,45249.84,49404.23,23.16,-76.23,0.914166,88.20,1
969308,1,52762,1,45281,49363,45249.90,49404.15,31.10,-41.15,0.915169,88.17,1
969348,1,52802,1,45291,49382,45249.98,49404.11,41.02,-22.11,0.916171,88.14,1
969388,1,52842,1,45295,49378,45250.07,49404.06,44.93,-26.06,0.917170,88.10,1
969428,1,52882,1,45292,49392,45250.16,49404.04,41.84,-12.04,0.918168,88.07,1
969468,1,52922,1,45301,49422,45250.26,49404.07,50.74,17.93,0.919166,88.04,1
969508,1,52962,1,45315,49459,45250.39,49404.18,64.61,54.82,0.920160,88.01,1
969548,1,53002,1,45330,49495,45250.55,49404.37,79.45,90.63,0.921147,87.98,1
969588,1,53042,1,45337,49523,45250.72,49404.61,86.28,118.39,0.922120,87.95,1
969628,1,53082,1,45345,49543,45250.91,49404.88,94.09,138.12,0.923073,87.92,1
969668,1,53122,1,45352,49567,45251.12,49405.21,100.88,161.79,0.923998,87.89,1
969709,1,53163,1,45356,49589,45251.33,49405.57,104.67,183.43,0.924888,87.86,1
969749,1,53203,1,45365,49614,45251.55,49405.99,113.45,208.01,0.925733,87.83,1
969789,1,53243,1,45360,49562,45251.77,49406.30,108.23,155.70,0.926557,87.80,1
969829,1,53283,1,45307,49424,45251.89,49406.34,55.11,17.66,0.927382,87.77,1
969869,1,53323,1,45253,49360,45251.89,49406.25,1.11,-46.25,0.928201,87.74,1
969909,1,53363,1,45247,49390,45251.88,49406.22,-4.88,-16.22,0.929017,87.71,1
969949,1,53403,1,45256,49427,45251.89,49406.26,4.11,20.74,0.929830,87.68,1
969989,1,53443,1,45267,49441,45251.92,49406.33,15.08,34.67,0.930640,87.65,1
970029,1,53483,1,45268,49469,45251.96,49406.46,16.04,62.54,0.931442,87.62,1
970069,1,53523,1,45283,49483,45252.02,49406.61,30.98,76.39,0.932236,87.60,1
970109,1,53563,1,45277,49489,45252.07,49406.78,24.93,82.22,0.933018,87.57,1
970149,1,53603,1,45279,49497,45252.12,49406.96,26.87,90.04,0.933789,87.54,1
970189,1,53643,1,45282,49517,45252.19,49407.19,29.81,109.81,0.934542,87.51,1
970229,1,53683,1,45291,49548,45252.27,49407.47,38.73,140.53,0.935268,87.49,1
970269,1,53723,1,45301,49583,45252.36,49407.82,48.64,175.18,0.935955,87.46,1
970309,1,53763,1,45309,49614,45252.48,49408.23,56.52,205.77,0.936591,87.43,1
970349,1,53803,1,45317,49636,45252.61,49408.69,64.39,227.31,0.937167,87.41,1
970390,1,53844,1,45322,49659,45252.75,49409.19,69.25,249.81,0.937675,87.38,1
970430,1,53884,1,45326,49678,45252.89,49409.73,73.11,268.27,0.938108,87.36,1
970470,1,53924,1,45330,49710,45253.05,49410.33,76.95,299.67,0.938456,87.33,1
970510,1,53964,1,45330,49707,45253.21,49410.93,76.79,296.07,0.938725,87.31,1
970550,1,54004,1,45314,49606,45253.33,49411.32,60.67,194.68,0.938963,87.29,1
970590,1,54044,1,45254,49508,45253.33,49411.51,0.67,96.49,0.939191,87.26,1
970630,1,54084,1,45225,49502,45253.28,49411.70,-28.28,90.30,0.939413,87.24,1
970670,1,54124,1,45236,49526,45253.24,49411.93,-17.24,114.07,0.939622,87.22,1
970710,1,54164,1,45242,49536,45253.22,49412.18,-11.22,123.82,0.939818,87.20,1
970750,1,54204,1,45243,49556,45253.20,49412.46,-10.20,143.54,0.939994,87.18,1
970790,1,54244,1,45248,49568,45253.20,49412.78,-5.20,155.22,0.940149,87.16,1
970830,1,54284,1,45245,49561,45253.18,49413.07,-8.18,147.93,0.940284,87.14,1
970870,1,54324,1,45241,49561,45253.16,49413.37,-12.16,147.63,0.940400,87.12,1
970910,1,54364,1,45239,49582,45253.13,49413.71,-14.13,168.29,0.940491,87.10,1
970950,1,54404,1,45247,49608,45253.12,49414.10,-6.12,193.90,0.940551,87.08,1
970990,1,54444,1,45259,49644,45253.13,49414.56,5.87,229.44,0.940568,87.06,1
971031,1,54485,1,45267,49671,45253.16,49415.08,13.84,255.92,0.940533,87.04,1
971071,1,54525,1,45271,49695,45253.19,49415.64,17.81,279.36,0.940440,87.03,1
971111,1,54565,1,45276,49723,45253.24,49416.26,22.76,306.74,0.940282,87.01,1
971151,1,54605,1,45281,49740,45253.30,49416.91,27.70,323.09,0.940057,87.00,1
971191,1,54645,1,45286,49763,45253.36,49417.60,32.64,345.40,0.939760,86.98,1
971231,1,54685,1,45296,49791,45253.45,49418.35,42.55,372.65,0.939386,86.97,1
971271,1,54725,1,45303,49777,45253.55,49419.07,49.45,357.93,0.938949,86.95,1
971311,1,54765,1,45268,49673,45253.58,49419.58,14.42,253.42,0.938482,86.94,1
971351,1,54805,1,45221,49592,45253.52,49419.93,-32.52,172.07,0.938003,86.93,1
971391,1,54845,1,45201,49590,45253.41,49420.27,-52.41,169.73,0.937513,86.92,1
971431,1,54885,1,45203,49610,45253.31,49420.64,-50.31,189.36,0.937011,86.91,1
971471,1,54925,1,45206,49614,45253.22,49421.03,-47.22,192.97,0.936494,86.90,1
971511,1,54965,1,45202,49627,45253.12,49421.45,-51.12,205.55,0.935962,86.89,1
971551,1,55005,1,45207,49642,45253.03,49421.89,-46.03,220.11,0.935411,86.88,1
971591,1,55045,1,45204,49645,45252.93,49422.34,-48.93,222.66,0.934841,86.87,1
971631,1,55085,1,45202,49646,45252.83,49422.79,-50.83,223.21,0.934254,86.87,1
971672,1,55126,1,45201,49659,45252.73,49423.26,-51.73,235.74,0.933647,86.86,1
971712,1,55166,1,45206,49680,45252.63,49423.77,-46.63,256.23,0.933015,86.86,1
971752,1,55206,1,45211,49714,45252.55,49424.36,-41.55,289.64,0.932353,86.85,1
971792,1,55246,1,45218,49736,45252.48,49424.98,-34.48,311.02,0.931656,86.85,1
971832,1,55286,1,45232,49767,45252.45,49425.66,-20.45,341.34,0.930918,86.84,1
971872,1,55326,1,45238,49786,45252.42,49426.39,-14.42,359.61,0.930135,86.84,1
971912,1,55366,1,45237,49809,45252.39,49427.15,-15.39,381.85,0.929307,86.84,1
971952,1,55406,1,45247,49830,45252.38,49427.96,-5.38,402.04,0.928431,86.84,1
971992,1,55446,1,45258,49845,45252.39,49428.80,5.61,416.20,0.927506,86.84,1
972032,1,55486,1,45263,49825,45252.41,49429.59,10.59,395.41,0.926542,86.84,1
972072,1,55526,1,45220,49724,45252.35,49430.18,-32.35,293.82,0.925558,86.84,1
972112,1,55566,1,45180,49663,45252.21,49430.65,-72.21,232.35,0.924568,86.84,1
972152,1,55606,1,45165,49660,45252.04,49431.11,-87.04,228.89,0.923575,86.84,1
972192,1,55646,1,45161,49670,45251.86,49431.59,-90.86,238.41,0.922577,86.84,1
972232,1,55686,1,45162,49673,45251.68,49432.07,-89.68,240.93,0.921574,86.85,1
972272,1,55726,1,45158,49686,45251.49,49432.58,-93.49,253.42,0.920567,86.85,1
972313,1,55767,1,45163,49689,45251.31,49433.10,-88.31,255.90,0.919552,86.86,1
972353,1,55807,1,45158,49692,45251.13,49433.62,-93.13,258.38,0.918533,86.86,1
972393,1,55847,1,45153,49705,45250.93,49434.16,-97.93,270.84,0.917507,86.87,1
972433,1,55887,1,45157,49723,45250.75,49434.74,-93.75,288.26,0.916472,86.87,1
972473,1,55927,1,45171,49746,45250.59,49435.36,-79.59,310.64,0.915424,86.88,1
972513,1,55967,1,45176,49780,45250.44,49436.05,-74.44,343.95,0.914357,86.89,1
972553,1,56007,1,45190,49800,45250.32,49436.79,-60.32,363.21,0.913268,86.90,1
972593,1,56047,1,45201,49816,45250.22,49437.54,-49.22,378.46,0.912156,86.91,1
972633,1,56087,1,45206,49834,45250.13,49438.34,-44.13,395.66,0.911017,86.92,1
972673,1,56127,1,45206,49849,45250.05,49439.16,-44.05,409.84,0.909852,86.93,1
972713,1,56167,1,45206,49865,45249.96,49440.01,-43.96,424.99,0.908660,86.94,1
972753,1,56207,1,45214,49878,45249.89,49440.89,-35.89,437.11,0.907440,86.95,1
972793,1,56247,1,45212,49842,45249.82,49441.70,-37.82,400.30,0.906200,86.96,1
972833,1,56287,1,45170,49741,45249.66,49442.30,-79.66,298.70,0.904954,86.97,1
972873,1,56327,1,45129,49686,45249.42,49442.79,-120.42,243.21,0.903713,86.99,1
972913,1,56367,1,45114,49687,45249.15,49443.27,-135.15,243.73,0.902481,87.00,1
972954,1,56408,1,45119,49699,45248.89,49443.79,-129.89,255.21,0.901256,87.01,1
972994,1,56448,1,45115,49700,45248.62,49444.30,-133.62,255.70,0.900038,87.03,1
973034,1,56488,1,45111,49713,45248.35,49444.84,-137.35,268.16,0.898826,87.04,1
973074,1,56528,1,45120,49721,45248.10,49445.39,-128.10,275.61,0.897619,87.06,1
973114,1,56568,1,45121,49721,45247.84,49445.95,-126.84,275.05,0.896415,87.07,1
973154,1,56608,1,45116,49728,45247.58,49446.51,-131.58,281.49,0.895216,87.09,1
973194,1,56648,1,45119,49748,45247.32,49447.12,-128.32,300.88,0.894019,87.11,1
973234,1,56688,1,45133,49766,45247.10,49447.76,-114.10,318.24,0.892820,87.12,1
973274,1,56728,1,45143,49785,45246.89,49448.43,-103.89,336.57,0.891616,87.14,1
973314,1,56768,1,45146,49804,45246.69,49449.14,-100.69,354.86,0.890404,87.16,1
973354,1,56808,1,45153,49820,45246.50,49449.89,-93.50,370.11,0.889183,87.18,1
973394,1,56848,1,45157,49836,45246.32,49450.66,-89.32,385.34,0.887951,87.20,1
973434,1,56888,1,45159,49844,45246.15,49451.45,-87.15,392.55,0.886708,87.22,1
973474,1,56928,1,45161,49862,45245.98,49452.27,-84.98,409.73,0.885452,87.24,1
973514,1,56968,1,45163,49871,45245.82,49453.11,-82.82,417.89,0.884182,87.26,1
973555,1,57009,1,45158,49808,45245.64,49453.82,-87.64,354.18,0.882906,87.28,1
973595,1,57049,1,45107,49715,45245.37,49454.35,-138.37,260.65,0.881639,87.30,1
973635,1,57089,1,45074,49682,45245.03,49454.80,-171.03,227.20,0.880389,87.32,1
973675,1,57129,1,45067,49691,45244.67,49455.28,-177.67,235.72,0.879158,87.34,1
973715,1,57169,1,45075,49699,45244.33,49455.77,-169.33,243.23,0.877942,87.36,1
973755,1,57209,1,45071,49706,45243.99,49456.27,-172.99,249.73,0.876741,87.38,1
973795,1,57249,1,45076,49725,45243.65,49456.80,-167.65,268.20,0.875553,87.40,1
973835,1,57289,1,45087,49725,45243.34,49457.34,-156.34,267.66,0.874376,87.42,1
973875,1,57329,1,45089,49721,45243.03,49457.87,-154.03,263.13,0.873209,87.45,1
973915,1,57369,1,45090,49731,45242.73,49458.42,-152.73,272.58,0.872051,87.47,1
973955,1,57409,1,45092,49746,45242.43,49459.00,-150.43,287.00,0.870900,87.49,1
973995,1,57449,1,45098,49761,45242.14,49459.60,-144.14,301.40,0.869755,87.52,1
974035,1,57489,1,45106,49777,45241.87,49460.24,-135.87,316.76,0.868612,87.54,1
974075,1,57529,1,45110,49794,45241.61,49460.91,-131.61,333.09,0.867469,87.56,1
974115,1,57569,1,45114,49805,45241.35,49461.60,-127.35,343.40,0.866326,87.59,1
974156,1,57610,1,45115,49819,45241.10,49462.31,-126.10,356.69,0.865180,87.61,1
974196,1,57650,1,45121,49833,45240.86,49463.05,-119.86,369.95,0.864030,87.63,1
974236,1,57690,1,45127,49848,45240.64,49463.82,-113.64,384.18,0.862875,87.66,1
974276,1,57730,1,45125,49867,45240.41,49464.63,-115.41,402.37,0.861712,87.68,1
974316,1,57770,1,45129,49819,45240.18,49465.34,-111.18,353.66,0.860546,87.70,1
974356,1,57810,1,45084,49725,45239.87,49465.86,-155.87,259.14,0.859390,87.73,1
974396,1,57850,1,45049,49684,45239.49,49466.30,-190.49,217.70,0.858255,87.75,1
974436,1,57890,1,45043,49689,45239.10,49466.75,-196.10,222.25,0.857139,87.78,1
974476,1,57930,1,45056,49699,45238.74,49467.21,-182.74,231.79,0.856040,87.80,1
974516,1,57970,1,45058,49695,45238.38,49467.67,-180.38,227.33,0.854957,87.83,1
974556,1,58010,1,45059,49709,45238.02,49468.15,-179.02,240.85,0.853888,87.85,1
974596,1,58050,1,45058,49714,45237.66,49468.64,-179.66,245.36,0.852834,87.88,1
974636,1,58090,1,45059,49711,45237.30,49469.13,-178.30,241.87,0.851794,87.90,1
974676,1,58130,1,45060,49710,45236.95,49469.61,-176.95,240.39,0.850768,87.93,1
974716,1,58170,1,45059,49727,45236.60,49470.13,-177.60,256.87,0.849754,87.95,1
974756,1,58210,1,45067,49745,45236.26,49470.68,-169.26,274.32,0.848750,87.98,1
974796,1,58250,1,45074,49767,45235.93,49471.27,-161.93,295.73,0.847753,88.00,1
974837,1,58291,1,45082,49783,45235.62,49471.90,-153.62,311.10,0.846760,88.03,1
974877,1,58331,1,45085,49803,45235.32,49472.56,-150.32,330.44,0.845769,88.05,1
974917,1,58371,1,45090,49819,45235.04,49473.26,-145.04,345.74,0.844778,88.08,1
974957,1,58411,1,45092,49837,45234.75,49473.99,-142.75,363.01,0.843786,88.10,1
974997,1,58451,1,45101,49855,45234.48,49474.75,-133.48,380.25,0.842789,88.13,1
975037,1,58491,1,45109,49865,45234.23,49475.53,-125.23,389.47,0.841786,88.15,1
975077,1,58531,1,45094,49802,45233.95,49476.18,-139.95,325.82,0.840784,88.18,1
975117,1,58571,1,45056,49725,45233.60,49476.68,-177.60,248.32,0.839794,88.20,1
975157,1,58611,1,45032,49706,45233.20,49477.14,-201.20,228.86,0.838823,88.23,1
975197,1,58651,1,45031,49710,45232.79,49477.61,-201.79,232.39,0.837869,88.25,1
975237,1,58691,1,45034,49713,45232.40,49478.09,-198.40,234.91,0.836932,88.27,1
975277,1,58731,1,45029,49717,45231.99,49478.57,-202.99,238.43,0.836012,88.30,1
975317,1,58771,1,45035,49724,45231.60,49479.06,-196.60,244.94,0.835107,88.32,1
975357,1,58811,1,45035,49727,45231.21,49479.55,-196.21,247.45,0.834217,88.35,1
975397,1,58851,1,45034,49726,45230.81,49480.05,-196.81,245.95,0.833341,88.37,1
975437,1,58891,1,45032,49733,45230.42,49480.56,-198.42,252.44,0.832480,88.40,1
975478,1,58932,1,45031,49749,45230.02,49481.10,-199.02,267.90,0.831632,88.42,1
975518,1,58972,1,45040,49774,45229.64,49481.68,-189.64,292.32,0.830794,88.45,1
975558,1,59012,1,45044,49792,45229.27,49482.30,-185.27,309.70,0.829963,88.47,1
975598,1,59052,1,45049,49810,45228.91,49482.96,-179.91,327.04,0.829136,88.49,1
975638,1,59092,1,45058,49826,45228.57,49483.65,-170.57,342.35,0.828312,88.52,1
975678,1,59132,1,45063,49848,45228.24,49484.38,-165.24,363.62,0.827487,88.54,1
975718,1,59172,1,45071,49869,45227.93,49485.15,-156.93,383.85,0.826659,88.57,1
975758,1,59212,1,45077,49875,45227.63,49485.93,-150.63,389.07,0.825826,88.59,1
975798,1,59252,1,45066,49815,45227.31,49486.59,-161.31,328.41,0.824995,88.61,1
975838,1,59292,1,45027,49744,45226.91,49487.11,-199.91,256.89,0.824177,88.64,1
975878,1,59332,1,45007,49741,45226.47,49487.61,-219.47,253.39,0.823376,88.66,1
975918,1,59372,1,45006,49738,45226.03,49488.12,-220.03,249.88,0.822592,88.68,1
975958,1,59412,1,45005,49737,45225.59,49488.62,-220.59,248.38,0.821825,88.71,1
975998,1,59452,1,44999,49738,45225.14,49489.12,-226.14,248.88,0.821076,88.73,1
976038,1,59492,1,44997,49747,45224.68,49489.63,-227.68,257.37,0.820344,88.75,1
976078,1,59532,1,44997,49750,45224.23,49490.16,-227.23,259.84,0.819629,88.78,1
976119,1,59573,1,44993,49747,45223.77,49490.67,-230.77,256.33,0.818931,88.80,1
976159,1,59613,1,44991,49755,45223.30,49491.20,-232.30,263.80,0.818250,88.82,1
976199,1,59653,1,44992,49774,45222.84,49491.77,-230.84,282.23,0.817584,88.84,1
976239,1,59693,1,45001,49794,45222.40,49492.37,-221.40,301.62,0.816929,88.86,1
976279,1,59733,1,45006,49811,45221.97,49493.01,-215.97,317.99,0.816283,88.89,1
976319,1,59773,1,45012,49830,45221.55,49493.69,-209.55,336.31,0.815643,88.91,1
976359,1,59813,1,45013,49851,45221.14,49494.40,-208.14,356.60,0.815008,88.93,1
976399,1,59853,1,45022,49863,45220.74,49495.14,-198.74,367.86,0.814373,88.95,1
976439,1,59893,1,45029,49880,45220.36,49495.91,-191.36,384.09,0.813737,88.97,1
976479,1,59933,1,45034,49889,45219.98,49496.70,-185.98,392.30,0.813098,88.99,1
976519,1,59973,1,45031,49856,45219.61,49497.42,-188.61,358.58,0.812460,89.01,1
976559,1,60013,1,44989,49783,45219.15,49497.99,-230.15,285.01,0.811835,89.03,1
976599,1,60053,1,44966,49761,45218.64,49498.52,-252.64,262.48,0.811229,89.06,1
976639,1,60093,1,44964,49759,45218.14,49499.04,-254.14,259.96,0.810642,89.08,1
976679,1,60133,1,44957,49757,45217.62,49499.56,-260.62,257.44,0.810075,89.10,1
976719,1,60173,1,44948,49752,45217.08,49500.07,-269.08,251.93,0.809530,89.12,1
976760,1,60214,1,44948,49759,45216.54,49500.59,-268.54,258.41,0.809005,89.14,1
976800,1,60254,1,44948,49764,45216.01,49501.11,-268.01,262.89,0.808501,89.15,1
976840,1,60294,1,44939,49769,45215.45,49501.65,-276.45,267.35,0.808018,89.17,1
976880,1,60334,1,44938,49771,45214.90,49502.19,-276.90,268.81,0.807555,89.19,1
976920,1,60374,1,44948,49789,45214.37,49502.76,-266.37,286.24,0.807109,89.21,1
976960,1,60414,1,44952,49811,45213.84,49503.38,-261.84,307.62,0.806677,89.23,1
977000,1,60454,1,44957,49831,45213.33,49504.04,-256.33,326.96,0.806256,89.25,1
977040,1,60494,1,44964,49847,45212.84,49504.72,-248.84,342.28,0.805843,89.27,1
977080,1,60534,1,44973,49856,45212.36,49505.43,-239.36,350.57,0.805436,89.29,1
977120,1,60574,1,44969,49863,45211.87,49506.14,-242.87,356.86,0.805033,89.30,1
977160,1,60614,1,44976,49885,45211.41,49506.90,-235.41,378.10,0.804632,89.32,1
977200,1,60654,1,44977,49895,45210.94,49507.68,-233.94,387.32,0.804232,89.34,1
977240,1,60694,1,44981,49897,45210.48,49508.46,-229.48,388.54,0.803832,89.35,1
977280,1,60734,1,44974,49864,45210.01,49509.17,-236.01,354.83,0.803436,89.37,1
977320,1,60774,1,44935,49813,45209.46,49509.78,-274.46,303.22,0.803055,89.39,1
977360,1,60814,1,44918,49790,45208.87,49510.34,-290.87,279.66,0.802694,89.40,1
977401,1,60855,1,44915,49790,45208.29,49510.90,-293.29,279.10,0.802352,89.42,1
977441,1,60895,1,44910,49786,45207.70,49511.45,-297.70,274.55,0.802031,89.44,1
977481,1,60935,1,44900,49787,45207.08,49512.00,-307.08,275.00,0.801731,89.45,1
977521,1,60975,1,44900,49795,45206.47,49512.57,-306.47,282.43,0.801452,89.47,1
977561,1,61015,1,44902,49804,45205.86,49513.16,-303.86,290.84,0.801192,89.48,1
977601,1,61055,1,44899,49811,45205.25,49513.75,-306.25,297.25,0.800951,89.50,1
977641,1,61095,1,44904,49823,45204.64,49514.37,-300.64,308.62,0.800726,89.51,1
977681,1,61135,1,44909,49834,45204.05,49515.02,-295.05,318.98,0.800515,89.53,1
977721,1,61175,1,44919,49851,45203.48,49515.69,-284.48,335.31,0.800314,89.54,1
977761,1,61215,1,44922,49867,45202.92,49516.39,-280.92,350.61,0.800121,89.55,1
977801,1,61255,1,44921,49876,45202.36,49517.11,-281.36,358.89,0.799935,89.57,1
977841,1,61295,1,44925,49881,45201.80,49517.84,-276.80,363.16,0.799755,89.58,1
977881,1,61335,1,44924,49892,45201.25,49518.59,-277.25,373.41,0.799579,89.59,1
977921,1,61375,1,44924,49905,45200.70,49519.36,-276.70,385.64,0.799407,89.61,1
977961,1,61415,1,44931,49913,45200.16,49520.15,-269.16,392.85,0.799235,89.62,1
978002,1,61456,1,44929,49925,45199.61,49520.96,-270.61,404.04,0.799063,89.63,1
978042,1,61496,1,44924,49899,45199.06,49521.72,-275.06,377.28,0.798895,89.64,1
978082,1,61536,1,44890,49847,45198.45,49522.37,-308.45,324.62,0.798741,89.65,1
978122,1,61576,1,44875,49833,45197.80,49523.00,-322.80,310.00,0.798604,89.67,1
