t_ms,trial_id,t_trial_ms,phase,red_raw,ir_raw,red_dc,ir_dc,red_ac,ir_ac,R,spo2,spo2_valid
2306402,2,0,0,48364,53166,47647.39,51031.37,716.61,2134.63,0.464115,98.2,1
2306442,2,40,0,48362,53152,47648.82,51035.61,713.18,2116.39,0.463865,98.2,1
2306482,2,80,0,48362,53156,47650.25,51039.85,711.75,2116.15,0.463616,98.21,1
2306522,2,120,0,48359,53164,47651.67,51044.1,707.33,2119.9,0.463366,98.21,1
2306562,2,160,0,48357,53174,47653.08,51048.36,703.92,2125.64,0.463116,98.22,1
2306602,2,200,0,48364,53192,47654.5,51052.65,709.5,2139.35,0.462866,98.23,1
2306643,2,241,0,48373,53216,47655.94,51056.98,717.06,2159.02,0.462616,98.23,1
2306683,2,281,0,48380,53231,47657.39,51061.33,722.61,2169.67,0.462366,98.24,1
2306723,2,321,0,48385,53248,47658.84,51065.7,726.16,2182.3,0.462115,98.25,1
2306763,2,361,0,48388,53272,47660.3,51070.12,727.7,2201.88,0.461865,98.25,1
2306803,2,401,0,48393,53289,47661.77,51074.55,731.23,2214.45,0.461614,98.26,1
2306843,2,441,0,48404,53294,47663.25,51079,740.75,2215,0.461363,98.26,1
2306883,2,481,0,48388,53200,47664.7,51083.24,723.3,2116.76,0.461112,98.27,1
2306923,2,521,0,48330,53089,47666.04,51087.25,663.96,2001.75,0.460862,98.28,1
2306963,2,561,0,48290,53036,47667.29,51091.15,622.71,1944.85,0.460611,98.28,1
2307003,2,601,0,48280,53026,47668.51,51095.02,611.49,1930.98,0.46036,98.29,1
2307043,2,641,0,48281,53029,47669.74,51098.89,611.26,1930.11,0.460108,98.3,1
2307083,2,681,0,48287,53044,47670.97,51102.78,616.03,1941.22,0.459856,98.3,1
2307123,2,721,0,48292,53064,47672.21,51106.7,619.79,1957.3,0.459604,98.31,1
2307163,2,761,0,48292,53063,47673.46,51110.62,618.54,1952.38,0.459352,98.31,1
2307203,2,801,0,48285,53050,47674.68,51114.5,610.32,1935.5,0.459099,98.32,1
2307243,2,841,0,48282,53041,47675.89,51118.35,606.11,1922.65,0.458845,98.33,1
2307283,2,881,0,48278,53045,47677.1,51122.21,600.9,1922.79,0.458592,98.33,1
2307323,2,921,0,48281,53060,47678.31,51126.08,602.69,1933.92,0.458338,98.34,1
2307363,2,961,0,48286,53076,47679.53,51129.98,606.47,1946.02,0.458083,98.35,1
2307404,2,1002,0,48290,53091,47680.75,51133.91,609.25,1957.09,0.457828,98.35,1
2307444,2,1042,0,48296,53105,47681.98,51137.85,614.02,1967.15,0.457573,98.36,1
2307484,2,1082,0,48300,53124,47683.22,51141.82,616.78,1982.18,0.457317,98.36,1
2307524,2,1122,0,48307,53148,47684.47,51145.84,622.53,2002.16,0.457061,98.37,1
2307564,2,1162,0,48314,53170,47685.73,51149.89,628.27,2020.11,0.456804,98.38,1
2307604,2,1202,0,48312,53120,47686.98,51153.83,625.02,1966.17,0.456547,98.38,1
2307644,2,1242,0,48271,52983,47688.15,51157.49,582.85,1825.51,0.45629,98.39,1
2307684,2,1282,0,48209,52878,47689.2,51160.93,519.8,1717.07,0.456033,98.4,1
2307724,2,1322,0,48175,52828,47690.17,51164.27,484.83,1663.73,0.455776,98.4,1
2307764,2,1362,0,48163,52807,47691.11,51167.55,471.89,1639.45,0.455518,98.41,1
2307804,2,1402,0,48161,52791,47692.05,51170.8,468.95,1620.2,0.455259,98.41,1
2307844,2,1442,0,48153,52791,47692.98,51174.05,460.02,1616.95,0.455,98.42,1
2307884,2,1482,0,48157,52801,47693.91,51177.3,463.09,1623.7,0.454741,98.43,1
2307924,2,1522,0,48158,52804,47694.84,51180.55,463.16,1623.45,0.454481,98.43,1
2307964,2,1562,0,48158,52789,47695.76,51183.77,462.24,1605.23,0.45422,98.44,1
2308004,2,1602,0,48151,52781,47696.67,51186.97,454.33,1594.03,0.453959,98.45,1
2308044,2,1642,0,48147,52784,47697.57,51190.16,449.43,1593.84,0.453698,98.45,1
2308084,2,1682,0,48147,52798,47698.47,51193.38,448.53,1604.62,0.453436,98.46,1
2308124,2,1722,0,48153,52818,47699.38,51196.63,453.62,1621.37,0.453173,98.47,1
2308165,2,1763,0,48163,52837,47700.31,51199.91,462.69,1637.09,0.45291,98.47,1
2308205,2,1803,0,48167,52857,47701.25,51203.23,465.75,1653.77,0.452647,98.48,1
2308245,2,1843,0,48175,52878,47702.2,51206.58,472.8,1671.42,0.452382,98.48,1
2308285,2,1883,0,48185,52903,47703.16,51209.98,481.84,1693.02,0.452118,98.49,1
2308325,2,1923,0,48192,52924,47704.14,51213.41,487.86,1710.59,0.451852,98.5,1
2308365,2,1963,0,48199,52925,47705.14,51216.83,493.86,1708.17,0.451587,98.5,1
2308405,2,2003,0,48179,52820,47706.09,51220.04,472.91,1599.96,0.451321,98.51,1
2308445,2,2043,0,48122,52688,47706.92,51222.98,415.08,1465.02,0.451055,98.52,1
2308485,2,2083,0,48069,52603,47707.64,51225.74,361.36,1377.26,0.450788,98.52,1
2308525,2,2123,0,48046,52569,47708.32,51228.43,337.68,1340.57,0.450521,98.53,1
2308565,2,2163,0,48044,52704,47709,51231.38,335,1472.62,0.450253,98.54,1
2308605,2,2203,0,48041,52806,47709.66,51234.53,331.34,1571.47,0.449983,98.54,1
2308645,2,2243,0,48046,52581,47710.34,51237.23,335.66,1343.77,0.449713,98.55,1
2308685,2,2283,0,48054,52584,47711.02,51239.92,342.98,1344.08,0.449442,98.56,1
2308725,2,2323,0,48053,52583,47711.71,51242.61,341.29,1340.39,0.449171,98.56,1
2308765,2,2363,0,48053,52572,47712.39,51245.27,340.61,1326.73,0.4489,98.57,1
2308805,2,2403,0,48048,52480,47713.06,51247.74,334.94,1232.26,0.448629,98.57,1
2308845,2,2443,0,48052,52593,47713.74,51250.43,338.26,1342.57,0.448357,98.58,1
2308885,2,2483,0,48059,52616,47714.43,51253.17,344.57,1362.83,0.448084,98.59,1
2308926,2,2524,0,48067,52639,47715.14,51255.94,351.86,1383.06,0.447812,98.59,1
2308966,2,2564,0,48078,52134,47715.87,51257.7,362.13,876.3,0.44754,98.6,1
2309006,2,2604,0,48086,52021,47716.61,51259.23,369.39,761.77,0.447271,98.61,1
2309046,2,2644,0,48097,52716,47717.37,51262.14,379.63,1453.86,0.447001,98.61,1
2309086,2,2684,0,48108,52738,47718.15,51265.09,389.85,1472.91,0.446731,98.62,1
2309126,2,2724,0,48119,52767,47718.96,51268.1,400.04,1498.9,0.44646,98.63,1
2309166,2,2764,0,48134,52796,47719.79,51271.16,414.21,1524.84,0.446188,98.63,1
2309206,2,2804,0,48135,52757,47720.62,51274.13,414.38,1482.87,0.445917,98.64,1
2309246,2,2844,0,48093,52627,47721.37,51276.84,371.63,1350.16,0.445645,98.65,1
2309286,2,2884,0,48043,52517,47722.01,51279.32,320.99,1237.68,0.445373,98.65,1
2309326,2,2924,0,48103,52465,47722.77,51281.69,380.23,1183.31,0.445101,98.66,1
2309366,2,2964,0,47998,52459,47723.32,51284.04,274.68,1174.96,0.44483,98.67,1
2309406,2,3004,0,47994,52462,47723.87,51286.4,270.13,1175.6,0.444558,98.67,1
2309446,2,3044,0,48003,52479,47724.43,51288.79,278.57,1190.21,0.444285,98.68,1
2309486,2,3084,0,48407,52493,47725.79,51291.2,681.21,1201.8,0.444019,98.69,1
2309526,2,3124,0,48484,52483,47727.31,51293.58,756.69,1189.42,0.44376,98.69,1
2309566,2,3164,0,48005,52473,47727.87,51295.94,277.13,1177.06,0.443501,98.7,1
2309606,2,3204,0,47997,52474,47728.41,51298.3,268.59,1175.7,0.443241,98.71,1
2309646,2,3244,0,47999,52487,47728.95,51300.68,270.05,1186.32,0.44298,98.71,1
2309687,2,3285,0,47744,52503,47728.98,51303.09,15.02,1199.91,0.442718,98.72,1
2309727,2,3325,0,47649,52526,47728.82,51305.53,-79.82,1220.47,0.442454,98.73,1
2309767,2,3365,0,48026,52554,47729.41,51308.03,296.59,1245.97,0.442189,98.73,1
2309807,2,3405,0,48036,52582,47730.03,51310.58,305.97,1271.42,0.441924,98.74,1
2309847,2,3445,0,48047,52605,47730.66,51313.17,316.34,1291.83,0.441658,98.75,1
2309887,2,3485,0,48057,52619,47731.32,51315.79,325.68,1303.21,0.441392,98.75,1
2309927,2,3525,0,48068,52653,47731.99,51318.46,336.01,1334.54,0.441125,98.76,1
2309967,2,3565,0,48079,52672,47732.69,51321.17,346.31,1350.83,0.440858,98.77,1
2310007,2,3605,0,48073,52609,47733.37,51323.75,339.63,1285.25,0.44059,98.77,1
2310047,2,3645,0,48026,52471,47733.96,51326.04,292.04,1144.96,0.440323,98.78,1
2310087,2,3685,0,47973,52355,47734.44,51328.1,238.56,1026.9,0.440055,98.79,1
2310127,2,3725,0,47937,52301,47734.84,51330.05,202.16,970.95,0.439787,98.79,1
2310167,2,3765,0,47920,52280,47735.21,51331.95,184.79,948.05,0.439518,98.8,1
2310207,2,3805,0,47913,52274,47735.57,51333.84,177.43,940.16,0.43925,98.8,1
2310247,2,3845,0,47917,52290,47735.93,51335.75,181.07,954.25,0.438981,98.81,1
2310287,2,3885,0,47925,52297,47736.31,51337.67,188.69,959.33,0.438711,98.82,1
2310327,2,3925,0,47927,52293,47736.7,51339.58,190.3,953.42,0.438441,98.82,1
2310367,2,3965,0,47918,52286,47737.06,51341.48,180.94,944.52,0.438172,98.83,1
2310407,2,4005,0,47916,52290,47737.42,51343.37,178.58,946.62,0.437901,98.84,1
2310447,2,4045,0,47922,52299,47737.79,51345.29,184.21,953.71,0.437631,98.84,1
2310488,2,4086,0,47927,52319,47738.17,51347.24,188.83,971.76,0.437359,98.85,1
2310528,2,4126,0,47933,52344,47738.56,51349.23,194.44,994.77,0.437088,98.86,1
2310568,2,4166,0,47945,52376,47738.97,51351.29,206.03,1024.71,0.436816,98.86,1
2310608,2,4206,0,47958,52407,47739.41,51353.4,218.59,1053.6,0.436544,98.87,1
2310648,2,4246,0,47971,52433,47739.87,51355.56,231.12,1077.44,0.436271,98.88,1
2310688,2,4286,0,47985,52456,47740.37,51357.77,244.63,1098.23,0.435997,98.88,1
2310728,2,4326,0,47996,52485,47740.88,51360.02,255.12,1124.98,0.435724,98.89,1
2310768,2,4366,0,48001,52523,47741.4,51362.35,259.6,1160.65,0.435449,98.9,1
2310808,2,4406,0,48022,52548,47741.96,51364.72,280.04,1183.28,0.435174,98.9,1
2310848,2,4446,0,48030,52506,47742.54,51367,287.46,1139,0.434899,98.91,1
2310888,2,4486,0,47988,52360,47743.03,51368.99,244.97,991.01,0.434624,98.92,1
2310928,2,4526,0,47922,52221,47743.39,51370.7,178.61,850.3,0.434349,98.92,1
2310968,2,4566,0,47874,52149,47743.65,51372.26,130.35,776.74,0.434074,98.93,1
2311008,2,4606,0,47850,52116,47743.87,51373.75,106.13,742.25,0.433799,98.94,1
2311048,2,4646,0,47838,52089,47744.06,51375.18,93.94,713.82,0.433524,98.94,1
2311088,2,4686,0,47834,52089,47744.24,51376.61,89.76,712.39,0.433248,98.95,1
2311128,2,4726,0,47834,52099,47744.42,51378.05,89.58,720.95,0.432973,98.96,1
2311168,2,4766,0,47837,52106,47744.61,51379.51,92.39,726.49,0.432697,98.97,1
2311208,2,4806,0,47841,52102,47744.8,51380.96,96.2,721.04,0.432422,98.97,1
2311248,2,4846,0,47836,52098,47744.98,51382.39,91.02,715.61,0.432146,98.98,1
2311289,2,4887,0,47839,52103,47745.17,51383.83,93.83,719.17,0.43187,98.99,1
2311329,2,4927,0,47843,52125,47745.37,51385.32,97.63,739.68,0.431594,98.99,1
2311369,2,4967,0,47852,52159,47745.58,51386.86,106.42,772.14,0.431317,99,1
2311409,2,5007,0,47862,52192,47745.82,51388.48,116.18,803.52,0.431041,99.01,1
2311449,2,5047,0,47881,52217,47746.09,51390.14,134.91,826.86,0.430764,99.01,1
2311489,2,5087,0,47896,52259,47746.39,51391.87,149.61,867.12,0.430486,99.02,1
2311529,2,5127,0,47908,52287,47746.71,51393.67,161.29,893.33,0.430209,99.03,1
2311569,2,5167,0,47922,52316,47747.07,51395.52,174.93,920.48,0.42993,99.03,1
2311609,2,5207,0,47935,52345,47747.45,51397.41,187.55,947.59,0.429652,99.04,1
2311649,2,5247,0,47956,52374,47747.86,51399.37,208.14,974.63,0.429373,99.05,1
2311689,2,5287,0,47969,52404,47748.31,51401.38,220.69,1002.62,0.429094,99.05,1
2311729,2,5327,0,47974,52361,47748.76,51403.3,225.24,957.7,0.428814,99.06,1
2311769,2,5367,0,47929,52222,47749.12,51404.94,179.87,817.06,0.428535,99.07,1
2311809,2,5407,0,47864,52092,47749.36,51406.32,114.64,685.68,0.428256,99.07,1
2311849,2,5447,0,47822,52018,47749.5,51407.54,72.5,610.46,0.427977,99.08,1
2311889,2,5487,0,47801,51997,47749.61,51408.72,51.39,588.28,0.427698,99.09,1
2311929,2,5527,0,47795,51984,47749.7,51409.87,45.3,574.12,0.427419,99.09,1
2311969,2,5567,0,47784,51986,47749.77,51411.03,34.23,574.97,0.42714,99.1,1
2312009,2,5607,0,47791,52002,47749.86,51412.21,41.14,589.79,0.426861,99.11,1
2312050,2,5648,0,47797,52004,47749.95,51413.39,47.05,590.61,0.426582,99.11,1
2312090,2,5688,0,47801,52004,47750.05,51414.58,50.95,589.42,0.426303,99.12,1
2312130,2,5728,0,47798,52007,47750.15,51415.77,47.85,591.23,0.426024,99.13,1
2312170,2,5768,0,47800,52024,47750.25,51416.98,49.75,607.02,0.425746,99.13,1
2312210,2,5808,0,47807,52284,47750.36,51418.72,56.64,865.28,0.425466,99.14,1
2312250,2,5848,0,47824,52401,47750.51,51420.68,73.49,980.32,0.425184,99.15,1
2312290,2,5888,0,47841,52119,47750.7,51422.08,90.3,696.92,0.424903,99.16,1
2312330,2,5928,0,47858,52159,47750.91,51423.56,107.09,735.44,0.424621,99.16,1
2312370,2,5968,0,47878,52190,47751.16,51425.09,126.84,764.91,0.424339,99.17,1
2312410,2,6008,0,47894,52151,47751.45,51426.55,142.55,724.45,0.424057,99.18,1
2312450,2,6048,0,47905,52056,47751.76,51427.81,153.24,628.19,0.423776,99.18,1
2312490,2,6088,0,47915,52270,47752.09,51429.5,162.91,840.5,0.423494,99.19,1
2312530,2,6128,0,47925,52306,47752.43,51431.25,172.57,874.75,0.423212,99.2,1
2312570,2,6168,0,47942,52332,47752.81,51433.05,189.19,898.95,0.42293,99.2,1
2312610,2,6208,0,47950,51684,47753.21,51433.56,196.79,250.44,0.422649,99.21,1
2312650,2,6248,0,47910,51478,47753.52,51433.65,156.48,44.35,0.42237,99.22,1
2312690,2,6288,0,47846,52039,47753.71,51434.86,92.29,604.14,0.422091,99.22,1
2312730,2,6328,0,47797,51965,47753.8,51435.92,43.2,529.08,0.421812,99.23,1
2312770,2,6368,0,47776,51948,47753.84,51436.95,22.16,511.05,0.421533,99.24,1
2312811,2,6409,0,47774,51937,47753.89,51437.95,20.11,499.05,0.421255,99.25,1
2312851,2,6449,0,47777,51951,47753.93,51438.98,23.07,512.02,0.420977,99.25,1
2312891,2,6489,0,47781,51967,47753.99,51440.04,27.01,526.96,0.420698,99.26,1
2312931,2,6529,0,47834,51966,47754.15,51441.09,79.85,524.91,0.42042,99.27,1
2312971,2,6569,0,47935,51957,47754.51,51442.12,180.49,514.88,0.420143,99.27,1
2313011,2,6609,0,47777,51947,47754.56,51443.13,22.44,503.87,0.419866,99.28,1
2313051,2,6649,0,47782,51968,47754.61,51444.18,27.39,523.82,0.419589,99.29,1
2313091,2,6689,0,47785,51995,47754.68,51445.29,30.32,549.71,0.419312,99.29,1
2313131,2,6729,0,48241,52030,47755.65,51446.46,485.35,583.54,0.419043,99.3,1
2313171,2,6769,0,47838,52064,47755.81,51447.7,82.19,616.3,0.418774,99.31,1
2313211,2,6809,0,47840,52090,47755.98,51448.98,84.02,641.02,0.418504,99.31,1
2313251,2,6849,0,47852,52118,47756.17,51450.32,95.83,667.68,0.418234,99.32,1
2313291,2,6889,0,47863,52142,47756.39,51451.7,106.61,690.3,0.417964,99.33,1
2313331,2,6929,0,47548,52167,47755.97,51453.14,-207.97,713.86,0.417694,99.34,1
2313371,2,6969,0,47377,52190,47755.21,51454.61,-378.21,735.39,0.417429,99.34,1
2313411,2,7009,0,47896,52215,47755.5,51456.14,140.5,758.86,0.417163,99.35,1
2313451,2,7049,0,47904,52234,47755.79,51457.7,148.21,776.3,0.416897,99.36,1
2313491,2,7089,0,47894,52151,47756.07,51459.08,137.93,691.92,0.41663,99.36,1
2313531,2,7129,0,47833,51990,47756.23,51460.14,76.77,529.86,0.416364,99.37,1
2313572,2,7170,0,47761,51854,47756.24,51460.93,4.76,393.07,0.416098,99.38,1
2313612,2,7210,0,47718,51784,47756.16,51461.58,-38.16,322.42,0.415833,99.38,1
2313652,2,7250,0,47699,51761,47756.05,51462.18,-57.05,298.82,0.415568,99.39,1
2313692,2,7290,0,47691,51746,47755.92,51462.75,-64.92,283.25,0.415304,99.4,1
2313732,2,7330,0,47691,51760,47755.79,51463.35,-64.79,296.65,0.415041,99.4,1
2313772,2,7370,0,47702,51778,47755.69,51463.98,-53.69,314.02,0.414778,99.41,1
2313812,2,7410,0,47706,51779,47755.59,51464.61,-49.59,314.39,0.414516,99.42,1
2313852,2,7450,0,47703,51782,47755.48,51465.25,-52.48,316.75,0.414254,99.42,1
2313892,2,7490,0,47705,51787,47755.38,51465.89,-50.38,321.11,0.413993,99.43,1
2313932,2,7530,0,47718,51803,47755.31,51466.57,-37.31,336.43,0.413732,99.44,1
2313972,2,7570,0,47728,51829,47755.25,51467.3,-27.25,361.7,0.413472,99.44,1
2314012,2,7610,0,47746,51864,47755.24,51468.09,-9.24,395.91,0.413212,99.45,1
2314052,2,7650,0,47757,51897,47755.24,51468.95,1.76,428.05,0.412951,99.46,1
2314092,2,7690,0,47768,51924,47755.27,51469.86,12.73,454.14,0.412691,99.46,1
2314132,2,7730,0,47784,51951,47755.33,51470.82,28.67,480.18,0.412431,99.47,1
2314172,2,7770,0,47797,51984,47755.41,51471.85,41.59,512.15,0.412171,99.48,1
2314212,2,7810,0,47809,52014,47755.52,51472.94,53.48,541.06,0.411911,99.48,1
2314252,2,7850,0,47825,52042,47755.66,51474.08,69.34,567.92,0.41165,99.49,1
2314292,2,7890,0,47833,52067,47755.82,51475.27,77.18,591.73,0.411389,99.5,1
2314333,2,7931,0,47843,52097,47756,51476.51,87,620.49,0.411128,99.5,1
2314373,2,7971,0,47857,52134,47756.2,51477.83,100.8,656.17,0.410866,99.51,1
2314413,2,8011,0,47866,52140,47756.42,51479.15,109.58,660.85,0.410604,99.52,1
2314453,2,8051,0,47844,52016,47756.6,51480.23,87.4,535.77,0.410342,99.53,1
2314493,2,8091,0,47770,51844,47756.62,51480.96,13.38,363.04,0.41008,99.53,1
2314533,2,8131,0,47711,51737,47756.54,51481.47,-45.54,255.53,0.409819,99.54,1
2314573,2,8171,0,47680,51695,47756.38,51481.9,-76.38,213.1,0.409559,99.55,1
2314613,2,8211,0,47664,51675,47756.2,51482.29,-92.2,192.71,0.409299,99.55,1
2314653,2,8251,0,47660,51669,47756.01,51482.66,-96.01,186.34,0.409041,99.56,1
2314693,2,8291,0,47671,51690,47755.84,51483.07,-84.84,206.93,0.408784,99.57,1
2314733,2,8331,0,47683,51702,47755.7,51483.51,-72.7,218.49,0.408528,99.57,1
2314773,2,8371,0,47681,51705,47755.55,51483.96,-74.55,221.04,0.408272,99.58,1
2314813,2,8411,0,47684,51705,47755.41,51484.4,-71.41,220.6,0.408017,99.59,1
2314853,2,8451,0,47682,51710,47755.26,51484.86,-73.26,225.14,0.407763,99.59,1
2314893,2,8491,0,47695,51734,47755.14,51485.36,-60.14,248.64,0.40751,99.6,1
2314933,2,8531,0,47702,51763,47755.04,51485.91,-53.04,277.09,0.407257,99.6,1
2314973,2,8571,0,47717,51803,47754.96,51486.55,-37.96,316.45,0.407005,99.61,1
2315013,2,8611,0,47734,51841,47754.92,51487.26,-20.92,353.74,0.406753,99.62,1
2315053,2,8651,0,47745,51871,47754.9,51488.03,-9.9,382.97,0.406501,99.62,1
2315094,2,8692,0,47764,51904,47754.92,51488.86,9.08,415.14,0.406249,99.63,1
2315134,2,8732,0,47774,51934,47754.96,51489.75,19.04,444.25,0.405997,99.64,1
2315174,2,8772,0,47787,51966,47755.03,51490.7,31.97,475.3,0.405744,99.64,1
2315214,2,8812,0,47797,51998,47755.11,51491.72,41.89,506.28,0.405491,99.65,1
2315254,2,8852,0,47811,52029,47755.23,51492.79,55.77,536.21,0.405238,99.66,1
2315294,2,8892,0,47831,52061,47755.38,51493.93,75.62,567.07,0.404985,99.66,1
2315334,2,8932,0,47843,52108,47755.55,51495.16,87.45,612.84,0.404731,99.67,1
2315374,2,8972,0,47861,52140,47755.77,51496.45,105.23,643.55,0.404476,99.68,1
2315414,2,9012,0,47859,52079,47755.97,51497.62,103.03,581.38,0.404221,99.68,1
2315454,2,9052,0,47811,51915,47756.08,51498.45,54.92,416.55,0.403966,99.69,1
2315494,2,9092,0,47743,51781,47756.06,51499.02,-13.06,281.98,0.403712,99.7,1
2315534,2,9132,0,47701,51724,47755.95,51499.47,-54.95,224.53,0.403458,99.7,1
2315574,2,9172,0,47682,51706,47755.8,51499.89,-73.8,206.11,0.403205,99.71,1
2315614,2,9212,0,47682,51702,47755.66,51500.29,-73.66,201.71,0.402953,99.72,1
2315654,2,9252,0,47683,51730,47755.51,51500.75,-72.51,229.25,0.402702,99.72,1
2315694,2,9292,0,47694,51741,47755.39,51501.23,-61.39,239.77,0.402451,99.73,1
2315734,2,9332,0,47697,51740,47755.27,51501.71,-58.27,238.29,0.402201,99.74,1
2315774,2,9372,0,47694,51729,47755.15,51502.17,-61.15,226.83,0.401952,99.74,1
2315814,2,9412,0,47686,52030,47755.02,51503.23,-69.02,526.77,0.401702,99.75,1
2315855,2,9453,0,47691,52125,47754.89,51504.48,-63.89,620.52,0.401452,99.75,1
2315895,2,9493,0,47701,51776,47754.79,51505.02,-53.79,270.98,0.401202,99.76,1
2315935,2,9533,0,47714,51814,47754.7,51505.64,-40.7,308.36,0.400952,99.77,1
2315975,2,9573,0,47728,51853,47754.65,51506.34,-26.65,346.66,0.400703,99.77,1
2316015,2,9613,0,47744,51740,47754.63,51506.8,-10.63,233.2,0.400454,99.78,1
2316055,2,9653,0,47760,51659,47754.64,51507.11,5.36,151.89,0.400205,99.79,1
2316095,2,9693,0,47775,51948,47754.69,51507.99,20.31,440.01,0.399956,99.79,1
2316135,2,9733,0,47787,51980,47754.75,51508.94,32.25,471.06,0.399707,99.8,1
2316175,2,9773,0,47802,52008,47754.85,51509.94,47.15,498.06,0.399458,99.81,1
2316215,2,9813,0,47814,51363,47754.97,51509.64,59.03,-146.64,0.399209,99.81,1
2316255,2,9853,0,47835,52077,47755.13,51510.78,79.87,566.22,0.39896,99.82,1
2316295,2,9893,0,47853,52103,47755.33,51511.97,97.67,591.03,0.39871,99.82,1
2316335,2,9933,0,47851,52035,47755.52,51513.02,95.48,521.98,0.398459,99.83,1
2316375,2,9973,0,47785,51860,47755.58,51513.71,29.42,346.29,0.398209,99.83,1
2316415,2,10013,0,47705,51702,47755.48,51514.09,-50.48,187.91,0.39796,99.84,1
2316455,2,10053,0,47655,51616,47755.28,51514.3,-100.28,101.7,0.397712,99.84,1
2316495,2,10093,0,47631,51585,47755.03,51514.44,-124.03,70.56,0.397466,99.85,1
2316535,2,10133,0,47788,51562,47755.1,51514.54,32.9,47.46,0.397221,99.85,1
2316575,2,10173,0,47900,51570,47755.39,51514.65,144.61,55.35,0.396978,99.86,1
2316616,2,10214,0,47618,51585,47755.12,51514.79,-137.12,70.21,0.396736,99.86,1
2316656,2,10254,0,47626,51594,47754.86,51514.95,-128.86,79.05,0.396497,99.87,1
2316696,2,10294,0,47625,51593,47754.6,51515.11,-129.6,77.89,0.39626,99.87,1
2316736,2,10334,0,47622,51592,47754.34,51515.27,-132.34,76.73,0.396025,99.87,1
2316776,2,10374,0,47507,51609,47753.84,51515.45,-246.84,93.55,0.395795,99.88,1
2316816,2,10414,0,47637,51637,47753.61,51515.7,-116.61,121.3,0.395566,99.88,1
2316856,2,10454,0,47657,51675,47753.42,51516.02,-96.42,158.98,0.395339,99.88,1
2316896,2,10494,0,47671,51720,47753.25,51516.43,-82.25,203.57,0.395112,99.89,1
2316936,2,10534,0,47245,51760,47752.24,51516.92,-507.24,243.08,0.394906,99.89,1
2316976,2,10574,0,47072,51796,47750.88,51517.48,-678.88,278.52,0.394734,99.89,1
2317016,2,10614,0,47731,51827,47750.84,51518.1,-19.84,308.9,0.394562,99.9,1
2317056,2,10654,0,47746,51860,47750.83,51518.78,-4.83,341.22,0.394389,99.9,1
2317096,2,10694,0,47758,51894,47750.85,51519.53,7.15,374.47,0.394217,99.9,1
2317136,2,10734,0,47773,51926,47750.89,51520.34,22.11,405.66,0.394043,99.91,1
2317176,2,10774,0,47790,51959,47750.97,51521.22,39.03,437.78,0.393869,99.91,1
2317216,2,10814,0,47808,51996,47751.09,51522.17,56.91,473.83,0.393693,99.91,1
2317256,2,10854,0,47819,52036,47751.23,51523.2,67.77,512.8,0.393517,99.91,1
2317296,2,10894,0,47832,52013,47751.39,51524.18,80.61,488.82,0.39334,99.92,1
2317336,2,10934,0,47787,51844,47751.46,51524.82,35.54,319.18,0.393163,99.92,1
2317376,2,10974,0,47700,51659,47751.36,51525.09,-51.36,133.91,0.392986,99.92,1
2317417,2,11015,0,47639,51552,47751.14,51525.14,-112.14,26.86,0.392811,99.92,1
2317457,2,11055,0,47611,51515,47750.86,51525.12,-139.86,-10.13,0.392638,99.93,1
2317497,2,11095,0,47599,51498,47750.56,51525.07,-151.56,-27.07,0.392468,99.93,1
2317537,2,11135,0,47593,51503,47750.25,51525.03,-157.25,-22.03,0.3923,99.93,1
2317577,2,11175,0,47606,51520,47749.96,51525.02,-143.96,-5.02,0.392134,99.93,1
2317617,2,11215,0,47619,51535,47749.7,51525.04,-130.7,9.96,0.39197,99.94,1
2317657,2,11255,0,47622,51534,47749.45,51525.06,-127.45,8.94,0.391809,99.94,1
2317697,2,11295,0,47621,51532,47749.19,51525.07,-128.19,6.93,0.391649,99.94,1
2317737,2,11335,0,47625,51542,47748.95,51525.11,-123.95,16.89,0.39149,99.94,1
2317777,2,11375,0,47641,51571,47748.73,51525.2,-107.73,45.8,0.391334,99.94,1
2317817,2,11415,0,47658,51601,47748.55,51525.36,-90.55,75.64,0.391178,99.94,1
2317857,2,11455,0,47673,51638,47748.4,51525.58,-75.4,112.42,0.391023,99.95,1
2317897,2,11495,0,47694,51677,47748.29,51525.89,-54.29,151.11,0.390869,99.95,1
2317937,2,11535,0,47708,51710,47748.21,51526.26,-40.21,183.74,0.390716,99.95,1
2317977,2,11575,0,47723,51739,47748.16,51526.68,-25.16,212.32,0.390562,99.95,1
2318017,2,11615,0,47737,51768,47748.14,51527.17,-11.14,240.83,0.390408,99.95,1
2318057,2,11655,0,47746,51798,47748.14,51527.71,-2.14,270.29,0.390254,99.95,1
2318097,2,11695,0,47763,51820,47748.17,51528.3,14.83,291.7,0.3901,99.96,1
2318137,2,11735,0,47774,51852,47748.23,51528.95,25.77,323.05,0.389945,99.96,1
2318178,2,11776,0,47794,51880,47748.32,51529.65,45.68,350.35,0.38979,99.96,1
2318218,2,11816,0,47805,51893,47748.43,51530.37,56.57,362.62,0.389634,99.96,1
2318258,2,11856,0,47786,51791,47748.51,51530.9,37.49,260.1,0.389479,99.96,1
2318298,2,11896,0,47721,51599,47748.46,51531.04,-27.46,67.96,0.389324,99.96,1
2318338,2,11936,0,47649,51460,47748.26,51530.89,-99.26,-70.89,0.38917,99.96,1
2318378,2,11976,0,47620,51414,47748,51530.66,-128,-116.66,0.389018,99.96,1
2318418,2,12016,0,47609,51407,47747.73,51530.41,-138.73,-123.41,0.388869,99.96,1
2318458,2,12056,0,47615,51419,47747.46,51530.19,-132.46,-111.19,0.388721,99.97,1
2318498,2,12096,0,47627,51452,47747.22,51530.04,-120.22,-78.04,0.388576,99.97,1
2318538,2,12136,0,47650,51467,47747.03,51529.91,-97.03,-62.91,0.388431,99.97,1
2318578,2,12176,0,47654,51463,47746.85,51529.78,-92.85,-66.78,0.388288,99.97,1
2318618,2,12216,0,47650,51457,47746.66,51529.63,-96.66,-72.63,0.388147,99.97,1
2318658,2,12256,0,47655,51463,47746.47,51529.5,-91.47,-66.5,0.388007,99.97,1
2318698,2,12296,0,47660,51487,47746.3,51529.42,-86.3,-42.42,0.387868,99.97,1
2318738,2,12336,0,47677,51517,47746.16,51529.39,-69.16,-12.39,0.387729,99.97,1
2318778,2,12376,0,47699,51552,47746.07,51529.44,-47.07,22.56,0.387592,99.97,1
2318818,2,12416,0,47711,51589,47746,51529.56,-35,59.44,0.387455,99.97,1
2318858,2,12456,0,47727,51626,47745.96,51529.76,-18.96,96.24,0.387318,99.97,1
2318898,2,12496,0,47744,51658,47745.96,51530.02,-1.96,127.98,0.387182,99.98,1
2318939,2,12537,0,47755,51684,47745.98,51530.32,9.02,153.68,0.387046,99.98,1
2318979,2,12577,0,47771,51713,47746.03,51530.69,24.97,182.31,0.38691,99.98,1
2319019,2,12617,0,47782,51742,47746.11,51531.12,35.89,210.88,0.386774,99.98,1
2319059,2,12657,0,47796,51779,47746.21,51531.61,49.79,247.39,0.386638,99.98,1
2319099,2,12697,0,47816,51815,47746.35,51532.18,69.65,282.82,0.386502,99.98,1
2319139,2,12737,0,47834,51847,47746.52,51532.81,87.48,314.19,0.386366,99.98,1
2319179,2,12777,0,47831,51756,47746.7,51533.26,84.3,222.74,0.38623,99.98,1
2319219,2,12817,0,47769,51554,47746.74,51533.3,22.26,20.7,0.386096,99.98,1
2319259,2,12857,0,47690,51382,47746.63,51533,-56.63,-151,0.385961,99.98,1
2319299,2,12897,0,47638,51381,47746.41,51532.7,-108.41,-151.7,0.385829,99.98,1
2319339,2,12937,0,47622,51250,47746.17,51532.14,-124.17,-282.14,0.385697,99.98,1
2319379,2,12977,0,47616,51227,47745.91,51531.53,-129.91,-304.53,0.385567,99.98,1
2319419,2,13017,0,47616,51238,47745.65,51530.95,-129.65,-292.95,0.385439,99.98,1
2319459,2,13057,0,47626,51637,47745.41,51531.16,-119.41,105.84,0.385312,99.98,1
2319499,2,13097,0,47634,51725,47745.19,51531.55,-111.19,193.45,0.385187,99.98,1
2319539,2,13137,0,47639,51256,47744.98,51531,-105.98,-275,0.385063,99.99,1
2319579,2,13177,0,47638,51257,47744.77,51530.45,-106.77,-273.45,0.38494,99.99,1
2319619,2,13217,0,47641,51268,47744.56,51529.93,-103.56,-261.93,0.384817,99.99,1
2319659,2,13257,0,47653,51038,47744.38,51528.95,-91.38,-490.95,0.384693,99.99,1
2319699,2,13297,0,47672,50969,47744.23,51527.83,-72.23,-558.83,0.384566,99.99,1
2319740,2,13338,0,47688,51372,47744.12,51527.52,-56.13,-155.52,0.384439,99.99,1
2319780,2,13378,0,47706,51404,47744.05,51527.27,-38.05,-123.27,0.384312,99.99,1
2319820,2,13418,0,47718,51446,47744,51527.11,-26,-81.11,0.384186,99.99,1
2319860,2,13458,0,47734,51484,47743.98,51527.03,-9.98,-43.03,0.38406,99.99,1
2319900,2,13498,0,47753,51515,47744,51527,9,-12,0.383935,99.99,1
2319940,2,13538,0,47770,51543,47744.05,51527.04,25.95,15.96,0.38381,99.99,1
2319980,2,13578,0,47788,51586,47744.14,51527.16,43.86,58.84,0.383685,99.99,1
2320020,2,13618,0,47802,51624,47744.26,51527.36,57.74,96.64,0.383562,99.99,1
2320060,2,13658,0,47820,51668,47744.41,51527.64,75.59,140.36,0.383439,99.99,1
2320100,2,13698,0,47844,51689,47744.61,51527.96,99.39,161.04,0.383318,99.99,1
2320140,2,13738,0,47832,51562,47744.79,51528.03,87.21,33.97,0.383198,99.99,1
2320180,2,13778,0,47974,51344,47745.25,51527.66,228.75,-183.66,0.383085,99.99,1
2320220,2,13818,0,48002,51183,47745.77,51526.98,256.23,-343.98,0.382981,99.99,1
2320260,2,13858,0,47639,51120,47745.55,51526.16,-106.55,-406.16,0.382877,99.99,1
2320300,2,13898,0,47627,51100,47745.32,51525.31,-118.32,-425.31,0.382772,99.99,1
2320340,2,13938,0,47622,51092,47745.07,51524.45,-123.07,-432.45,0.382667,99.99,1
2320380,2,13978,0,47606,51117,47744.8,51523.63,-138.8,-406.63,0.382562,99.99,1
2320420,2,14018,0,47488,51135,47744.29,51522.86,-256.29,-387.86,0.382465,99.99,1
2320460,2,14058,0,47647,51131,47744.09,51522.07,-97.09,-391.07,0.382367,99.99,1
2320500,2,14098,0,47643,51116,47743.89,51521.26,-100.89,-405.26,0.382269,99.99,1
2320541,2,14139,0,47638,51119,47743.68,51520.46,-105.68,-401.46,0.38217,99.99,1
2320581,2,14179,0,47109,51138,47742.41,51519.7,-633.41,-381.7,0.382129,99.99,1
2320621,2,14219,0,46980,51178,47740.89,51519.01,-760.89,-341.01,0.382169,99.99,1
2320661,2,14259,0,47678,51221,47740.77,51518.42,-62.77,-297.42,0.382207,99.99,1
2320701,2,14299,0,47700,51259,47740.68,51517.9,-40.68,-258.9,0.382244,99.99,1
2320741,2,14339,0,47722,51294,47740.65,51517.46,-18.65,-223.46,0.38228,99.99,1
2320781,2,14379,0,47740,51332,47740.65,51517.09,-0.65,-185.09,0.382316,99.99,1
2320821,2,14419,0,47751,51368,47740.67,51516.79,10.33,-148.79,0.382351,99.99,1
2320861,2,14459,0,47769,51398,47740.73,51516.55,28.27,-118.55,0.382385,99.99,1
2320901,2,14499,0,47786,51430,47740.82,51516.38,45.18,-86.38,0.38242,99.99,1
2320941,2,14539,0,47806,51463,47740.95,51516.28,65.05,-53.28,0.382455,99.99,1
2320981,2,14579,0,47821,51502,47741.11,51516.25,79.89,-14.25,0.382491,100,1
2321021,2,14619,0,47833,51475,47741.3,51516.17,91.7,-41.17,0.382528,100,1
2321061,2,14659,0,47792,51302,47741.4,51515.74,50.6,-213.74,0.382564,100,1
2321101,2,14699,0,47709,51080,47741.34,51514.87,-32.34,-434.87,0.382597,100,1
2321141,2,14739,0,47635,50948,47741.12,51513.74,-106.12,-565.74,0.382625,100,1
2321181,2,14779,0,47605,50899,47740.86,51512.51,-135.86,-613.51,0.382647,100,1
2321221,2,14819,0,47595,50880,47740.57,51511.25,-145.57,-631.25,0.382665,100,1
2321261,2,14859,0,47589,50890,47740.27,51510,-151.27,-620,0.382679,100,1
2321301,2,14899,0,47598,50915,47739.98,51508.82,-141.98,-593.82,0.382689,100,1
2321342,2,14940,0,47615,50934,47739.73,51507.67,-124.73,-573.67,0.382695,100,1
2321382,2,14980,0,47613,50931,47739.48,51506.52,-126.48,-575.52,0.382696,100,1
2321422,2,15020,0,47611,50931,47739.22,51505.37,-128.22,-574.37,0.382694,100,1
2321462,2,15060,0,47614,50949,47738.97,51504.25,-124.97,-555.25,0.382688,100,1
2321502,2,15100,0,47632,50981,47738.76,51503.21,-106.76,-522.21,0.382679,100,1
2321542,2,15140,0,47647,51022,47738.58,51502.25,-91.58,-480.25,0.382666,100,1
2321582,2,15180,0,47668,51073,47738.44,51501.39,-70.44,-428.39,0.382651,100,1
2321622,2,15220,0,47689,51121,47738.34,51500.63,-49.34,-379.63,0.382634,100,1
2321662,2,15260,0,47711,51162,47738.29,51499.96,-27.29,-337.96,0.382614,100,1
2321702,2,15300,0,47732,51200,47738.27,51499.36,-6.27,-299.36,0.382592,100,1
2321742,2,15340,0,47750,51230,47738.3,51498.82,11.7,-268.82,0.38257,100,1
2321782,2,15380,0,47765,51261,47738.35,51498.35,26.65,-237.35,0.382546,100,1
2321822,2,15420,0,47779,51291,47738.43,51497.93,40.57,-206.93,0.382522,100,1
2321862,2,15460,0,47790,51328,47738.54,51497.59,51.46,-169.59,0.382498,100,1
2321902,2,15500,0,47809,51364,47738.68,51497.33,70.32,-133.33,0.382474,100,1
2321942,2,15540,0,47826,51405,47738.86,51497.14,87.14,-92.14,0.382451,100,1
2321982,2,15580,0,47838,51366,47739.05,51496.88,98.95,-130.88,0.38243,100,1
2322022,2,15620,0,47788,51171,47739.15,51496.23,48.85,-325.23,0.382407,100,1
2322062,2,15660,0,47694,50938,47739.06,51495.12,-45.06,-557.12,0.382378,100,1
2322102,2,15700,0,47617,50796,47738.82,51493.72,-121.82,-697.72,0.382342,100,1
2322143,2,15741,0,47589,50741,47738.52,51492.21,-149.52,-751.21,0.382298,100,1
2322183,2,15781,0,47572,50721,47738.19,51490.67,-166.19,-769.67,0.382247,100,1
2322223,2,15821,0,47564,50724,47737.84,51489.14,-173.84,-765.14,0.38219,100,1
2322263,2,15861,0,47576,50757,47737.52,51487.68,-161.52,-730.68,0.382127,100,1
2322303,2,15901,0,47588,50780,47737.22,51486.26,-149.22,-706.26,0.382059,100,1
2322343,2,15941,0,47593,50778,47736.93,51484.85,-143.93,-706.85,0.381985,100,1
2322383,2,15981,0,47595,50778,47736.65,51483.43,-141.65,-705.43,0.381905,100,1
2322423,2,16021,0,47598,50795,47736.37,51482.06,-138.37,-687.06,0.38182,100,1
2322463,2,16061,0,47607,50828,47736.12,51480.75,-129.12,-652.75,0.381731,100,1
2322503,2,16101,0,47633,50866,47735.91,51479.52,-102.91,-613.52,0.381637,100,1
2322543,2,16141,0,47653,50915,47735.75,51478.39,-82.75,-563.39,0.381538,100,1
2322583,2,16181,0,47677,50955,47735.63,51477.35,-58.63,-522.35,0.381436,100,1
2322623,2,16221,0,47693,50996,47735.55,51476.39,-42.55,-480.39,0.38133,100,1
2322663,2,16261,0,47705,51034,47735.49,51475.5,-30.49,-441.5,0.381221,100,1
2322703,2,16301,0,47726,51065,47735.47,51474.68,-9.47,-409.68,0.381109,100,1
2322743,2,16341,0,47739,51094,47735.48,51473.92,3.52,-379.92,0.380995,100,1
2322783,2,16381,0,47751,51122,47735.51,51473.22,15.49,-351.22,0.380879,100,1
2322823,2,16421,0,47760,51157,47735.56,51472.59,24.44,-315.59,0.380762,100,1
2322863,2,16461,0,47774,51197,47735.64,51472.04,38.36,-275.04,0.380644,100,1
2322903,2,16501,0,47794,51238,47735.75,51471.57,58.25,-233.57,0.380527,100,1
2322944,2,16542,0,47810,51241,47735.9,51471.11,74.1,-230.11,0.380409,100,1
2322984,2,16582,0,47785,51088,47736,51470.34,49,-382.34,0.38029,100,1
2323024,2,16622,0,47700,50855,47735.93,51469.11,-35.93,-614.11,0.380164,100,1
2323064,2,16662,0,47615,50902,47735.69,51467.98,-120.69,-565.98,0.380035,100,1
2323104,2,16702,0,47579,50930,47735.37,51466.91,-156.37,-536.91,0.379906,100,1
2323144,2,16742,0,47572,50637,47735.05,51465.25,-163.05,-828.25,0.379771,100,1
2323184,2,16782,0,47575,50657,47734.73,51463.63,-159.73,-806.63,0.379628,100,1
2323224,2,16822,0,47587,50700,47734.44,51462.11,-147.44,-762.11,0.37948,100,1
2323264,2,16862,0,47608,50725,47734.19,51460.63,-126.19,-735.63,0.379326,100,1
2323304,2,16902,0,47618,50620,47733.96,51458.95,-115.96,-838.95,0.379164,100,1
2323344,2,16942,0,47621,50731,47733.73,51457.5,-112.73,-726.5,0.378995,100,1
2323384,2,16982,0,47624,50743,47733.51,51456.07,-109.51,-713.07,0.378821,100,1
2323424,2,17022,0,47638,50776,47733.32,51454.71,-95.32,-678.71,0.378642,100,1
2323464,2,17062,0,47651,50336,47733.16,51452.48,-82.16,-1116.48,0.378445,100,1
2323504,2,17102,0,47674,50297,47733.04,51450.17,-59.04,-1153.17,0.378229,100,1
2323544,2,17142,0,47696,50914,47732.96,51449.1,-36.96,-535.1,0.378011,100,1
2323584,2,17182,0,47712,50963,47732.93,51448.13,-20.93,-485.13,0.37779,100,1
2323624,2,17222,0,47728,51001,47732.92,51447.23,-4.92,-446.23,0.377566,100,1
2323664,2,17262,0,47746,51035,47732.95,51446.41,13.05,-411.41,0.377341,100,1
2323704,2,17302,0,47758,51068,47733,51445.66,25,-377.66,0.377115,100,1
2323745,2,17343,0,47767,51096,47733.07,51444.96,33.93,-348.96,0.376888,100,1
2323785,2,17383,0,47783,51129,47733.17,51444.33,49.83,-315.33,0.37666,100,1
2323825,2,17423,0,47882,51177,47733.47,51443.79,148.53,-266.79,0.376436,100,1
2323865,2,17463,0,47815,51216,47733.63,51443.34,81.37,-227.34,0.376214,100,1
2323905,2,17503,0,47819,51146,47733.8,51442.75,85.2,-296.75,0.375992,100,1
2323945,2,17543,0,47758,50913,47733.86,51441.69,24.14,-528.69,0.375766,100,1
2323985,2,17583,0,48054,50683,47734.5,51440.17,319.5,-757.17,0.375552,100,1
2324025,2,17623,0,48083,50568,47735.2,51438.43,347.8,-870.43,0.37535,100,1
2324065,2,17663,0,47567,50531,47734.86,51436.62,-167.86,-905.62,0.375141,100,1
2324105,2,17703,0,47556,50517,47734.5,51434.78,-178.5,-917.78,0.374927,100,1
2324145,2,17743,0,47556,50531,47734.15,51432.97,-178.15,-901.97,0.374707,100,1
2324185,2,17783,0,47322,50566,47733.32,51431.24,-411.32,-865.24,0.374507,100,1
2324225,2,17823,0,47205,50594,47732.27,51429.57,-527.27,-835.57,0.374344,100,1
2324265,2,17863,0,47591,50595,47731.99,51427.9,-140.99,-832.9,0.374175,100,1
2324305,2,17903,0,47593,50592,47731.71,51426.23,-138.71,-834.23,0.374,100,1
2324345,2,17943,0,47602,50612,47731.45,51424.6,-129.45,-812.6,0.373818,100,1
2324385,2,17983,0,47609,50649,47731.21,51423.05,-122.21,-774.05,0.373632,100,1
2324425,2,18023,0,47630,50696,47731.01,51421.59,-101.01,-725.59,0.373441,100,1
2324465,2,18063,0,47645,50745,47730.84,51420.24,-85.84,-675.24,0.373245,100,1
2324505,2,18103,0,47671,50789,47730.72,51418.98,-59.72,-629.98,0.373045,100,1
2324546,2,18144,0,47682,50830,47730.62,51417.8,-48.62,-587.8,0.372842,100,1
2324586,2,18184,0,47699,50871,47730.56,51416.71,-31.56,-545.71,0.372636,100,1
2324626,2,18224,0,47712,50913,47730.52,51415.7,-18.52,-502.7,0.372427,100,1
2324666,2,18264,0,47732,50951,47730.53,51414.77,1.47,-463.77,0.372216,100,1
2324706,2,18304,0,47748,50985,47730.56,51413.91,17.44,-428.91,0.372003,100,1
2324746,2,18344,0,47767,51026,47730.64,51413.14,36.36,-387.14,0.371789,100,1
2324786,2,18384,0,47783,51071,47730.74,51412.46,52.26,-341.46,0.371574,100,1
2324826,2,18424,0,47799,51058,47730.88,51411.75,68.12,-353.75,0.371359,100,1
2324866,2,18464,0,47761,50863,47730.94,51410.65,30.06,-547.65,0.371141,100,1
2324906,2,18504,0,47670,50614,47730.82,51409.06,-60.82,-795.06,0.370917,100,1
2324946,2,18544,0,47592,50461,47730.54,51407.16,-138.54,-946.16,0.370684,100,1
2324986,2,18584,0,47555,50416,47730.19,51405.18,-175.19,-989.18,0.370445,100,1
2325026,2,18624,0,47544,50405,47729.82,51403.18,-185.82,-998.18,0.370201,100,1
2325066,2,18664,0,47535,50414,47729.43,51401.21,-194.43,-987.21,0.369951,100,1
2325106,2,18704,0,47551,50452,47729.08,51399.31,-178.08,-947.31,0.369698,100,1
2325146,2,18744,0,47569,50476,47728.76,51397.46,-159.76,-921.46,0.369439,100,1
2325186,2,18784,0,47573,50475,47728.45,51395.62,-155.45,-920.62,0.369176,100,1
2325226,2,18824,0,47569,50468,47728.13,51393.77,-159.13,-925.77,0.368908,100,1
2325266,2,18864,0,47568,50484,47727.81,51391.95,-159.81,-907.95,0.368636,100,1
2325307,2,18905,0,47582,50518,47727.52,51390.2,-145.52,-872.2,0.368361,100,1
2325347,2,18945,0,47597,50563,47727.26,51388.55,-130.26,-825.55,0.368081,100,1
2325387,2,18985,0,47613,50610,47727.04,51387,-114.04,-777,0.367799,100,1
2325427,2,19025,0,47632,50660,47726.85,51385.54,-94.85,-725.54,0.367513,100,1
2325467,2,19065,0,47653,50700,47726.7,51384.17,-73.7,-684.17,0.367224,100,1
2325507,2,19105,0,47671,50736,47726.59,51382.87,-55.59,-646.87,0.366932,100,1
2325547,2,19145,0,47684,50764,47726.51,51381.64,-42.51,-617.64,0.366637,100,1
2325587,2,19185,0,47699,50797,47726.46,51380.47,-27.46,-583.47,0.36634,100,1
2325627,2,19225,0,47711,50835,47726.43,51379.38,-15.43,-544.38,0.366041,100,1
2325667,2,19265,0,47733,50876,47726.44,51378.37,6.56,-502.37,0.36574,100,1
2325707,2,19305,0,47752,50903,47726.49,51377.43,25.51,-474.43,0.365438,100,1
2325747,2,19345,0,47750,50804,47726.54,51376.28,23.46,-572.28,0.365134,100,1
2325787,2,19385,0,47677,50570,47726.44,51374.67,-49.44,-804.67,0.364825,100,1
2325827,2,19425,0,47582,50374,47726.15,51372.67,-144.15,-998.67,0.36451,100,1
2325867,2,19465,0,47531,50291,47725.76,51370.51,-194.76,-1079.51,0.364191,100,1
2325907,2,19505,0,47513,50272,47725.34,51368.32,-212.34,-1096.32,0.363869,100,1
2325947,2,19545,0,47509,50279,47724.91,51366.14,-215.91,-1087.14,0.363545,100,1
2325987,2,19585,0,47521,50323,47724.5,51364.05,-203.5,-1041.05,0.363219,100,1
2326027,2,19625,0,47537,50356,47724.12,51362.04,-187.12,-1006.04,0.36289,100,1
2326067,2,19665,0,47543,50354,47723.77,51360.02,-180.77,-1006.02,0.362559,100,1
2326108,2,19706,0,47541,50345,47723.4,51358,-182.4,-1013,0.362225,100,1
2326148,2,19746,0,47537,50353,47723.03,51355.99,-186.03,-1002.99,0.361889,100,1
2326188,2,19786,0,47543,50390,47722.67,51354.06,-179.67,-964.06,0.361551,100,1
2326228,2,19826,0,47563,50440,47722.36,51352.23,-159.36,-912.23,0.361212,100,1
2326268,2,19866,0,47581,50492,47722.07,51350.51,-141.07,-858.51,0.36087,100,1
2326308,2,19906,0,47604,50534,47721.84,51348.88,-117.84,-814.88,0.360526,100,1
2326348,2,19946,0,47622,50578,47721.64,51347.34,-99.64,-769.34,0.360181,100,1
2326388,2,19986,0,47645,50623,47721.49,51345.89,-76.49,-722.89,0.359833,100,1
2326428,2,20026,0,47663,50664,47721.37,51344.53,-58.37,-680.53,0.359483,100,1
2326468,2,20066,0,47680,50693,47721.29,51343.23,-41.29,-650.23,0.359131,100,1
2326508,2,20106,0,47694,50719,47721.23,51341.98,-27.23,-622.98,0.358777,100,1
2326548,2,20146,0,47708,50759,47721.21,51340.82,-13.21,-581.82,0.358421,100,1
2326588,2,20186,0,47728,50806,47721.23,51339.75,6.77,-533.75,0.358065,100,1
2326628,2,20226,0,47740,50793,47721.27,51338.66,18.73,-545.66,0.357707,100,1
2326668,2,20266,0,47703,50596,47721.23,51337.17,-18.23,-741.17,0.357346,100,1
2326708,2,20306,0,47604,50496,47721,51335.49,-117,-839.49,0.356983,100,1
2326748,2,20346,0,47507,50437,47720.57,51333.7,-213.57,-896.7,0.356622,100,1
2326788,2,20386,0,47459,50095,47720.05,51331.22,-261.05,-1236.22,0.356261,100,1
2326828,2,20426,0,47444,50062,47719.5,51328.68,-275.5,-1266.68,0.355901,100,1
2326869,2,20467,0,47435,50057,47718.93,51326.14,-283.93,-1269.14,0.355543,100,1
2326909,2,20507,0,47440,50100,47718.37,51323.69,-278.37,-1223.69,0.355186,100,1
2326949,2,20547,0,47463,50021,47717.87,51321.09,-254.87,-1300.09,0.354828,100,1
2326989,2,20587,0,47467,50153,47717.37,51318.75,-250.37,-1165.75,0.354471,100,1
2327029,2,20627,0,47468,50156,47716.87,51316.43,-248.87,-1160.43,0.354114,100,1
2327069,2,20667,0,47474,50172,47716.39,51314.14,-242.39,-1142.14,0.353758,100,1
2327109,2,20707,0,47489,49749,47715.93,51311.01,-226.93,-1562.01,0.353395,100,1
2327149,2,20747,0,47510,49609,47715.52,51307.61,-205.52,-1698.61,0.35302,100,1
2327189,2,20787,0,47532,50334,47715.16,51305.66,-183.16,-971.66,0.352646,100,1
2327229,2,20827,0,47563,50382,47714.85,51303.81,-151.85,-921.81,0.352271,100,1
2327269,2,20867,0,47584,50432,47714.59,51302.07,-130.59,-870.07,0.351895,100,1
2327309,2,20907,0,47606,50474,47714.37,51300.41,-108.37,-826.41,0.351517,100,1
2327349,2,20947,0,47623,50513,47714.2,51298.84,-91.2,-785.84,0.351138,100,1
2327389,2,20987,0,47632,50550,47714.03,51297.34,-82.03,-747.34,0.350758,100,1
2327429,2,21027,0,47671,50588,47713.95,51295.93,-42.95,-707.93,0.350377,100,1
2327469,2,21067,0,47788,50627,47714.09,51294.59,73.91,-667.59,0.349995,100,1
2327509,2,21107,0,47683,50678,47714.03,51293.36,-31.03,-615.36,0.349612,100,1
2327549,2,21147,0,47702,50724,47714.01,51292.22,-12.01,-568.22,0.349228,100,1
2327589,2,21187,0,47713,50682,47714.01,51291,-1.01,-609,0.348844,100,1
2327630,2,21228,0,48094,50463,47714.77,51289.35,379.23,-826.35,0.348475,100,1
2327670,2,21268,0,48059,50226,47715.46,51287.22,343.54,-1061.22,0.348117,100,1
2327710,2,21308,0,47484,50107,47715,51284.86,-231,-1177.86,0.347758,100,1
2327750,2,21348,0,47449,50072,47714.47,51282.44,-265.47,-1210.44,0.347401,100,1
2327790,2,21388,0,47438,50053,47713.92,51279.98,-275.92,-1226.98,0.347046,100,1
2327830,2,21428,0,47126,50071,47712.74,51277.56,-586.74,-1206.56,0.346724,100,1
2327870,2,21468,0,47042,50128,47711.4,51275.27,-669.4,-1147.27,0.346445,100,1
2327910,2,21508,0,47473,50169,47710.93,51273.05,-237.93,-1104.05,0.346166,100,1
2327950,2,21548,0,47481,50178,47710.47,51270.87,-229.47,-1092.87,0.345887,100,1
2327990,2,21588,0,47489,50193,47710.03,51268.71,-221.03,-1075.71,0.345606,100,1
2328030,2,21628,0,47505,50225,47709.62,51266.62,-204.62,-1041.63,0.345325,100,1
2328070,2,21668,0,47526,50277,47709.25,51264.65,-183.25,-987.65,0.345042,100,1
2328110,2,21708,0,47549,50332,47708.93,51262.79,-159.93,-930.79,0.344758,100,1
2328150,2,21748,0,47569,50392,47708.65,51261.04,-139.65,-869.04,0.344473,100,1
2328190,2,21788,0,47593,50443,47708.42,51259.41,-115.42,-816.41,0.344185,100,1
2328230,2,21828,0,47618,50492,47708.24,51257.87,-90.24,-765.87,0.343897,100,1
2328270,2,21868,0,47635,50535,47708.1,51256.43,-73.1,-721.43,0.343607,100,1
2328310,2,21908,0,47647,50575,47707.98,51255.07,-60.98,-680.07,0.343315,100,1
2328350,2,21948,0,47666,50617,47707.89,51253.79,-41.89,-636.79,0.343022,100,1
2328390,2,21988,0,47685,50666,47707.85,51252.62,-22.85,-586.62,0.342728,100,1
2328431,2,22029,0,47701,50696,47707.84,51251.5,-6.84,-555.5,0.342434,100,1
2328471,2,22069,0,47716,50752,47707.86,51250.51,8.14,-498.51,0.342138,100,1
2328511,2,22109,0,47736,50808,47707.91,51249.62,28.09,-441.62,0.341843,100,1
2328551,2,22149,0,47760,50859,47708.02,51248.84,51.98,-389.84,0.341548,100,1
2328591,2,22189,0,47765,50809,47708.13,51247.96,56.87,-438.96,0.341253,100,1
2328631,2,22229,0,47713,50602,47708.14,51246.68,4.86,-644.68,0.340957,100,1
2328671,2,22269,0,47623,50404,47707.98,51244.99,-84.98,-840.99,0.340658,100,1
2328711,2,22309,0,47566,50327,47707.7,51243.16,-141.7,-916.16,0.340357,100,1
2328751,2,22349,0,47550,50311,47707.38,51241.29,-157.38,-930.29,0.340055,100,1
2328791,2,22389,0,47550,50318,47707.07,51239.45,-157.07,-921.45,0.339753,100,1
2328831,2,22429,0,47559,50356,47706.78,51237.68,-147.78,-881.68,0.339449,100,1
2328871,2,22469,0,47581,50411,47706.53,51236.03,-125.53,-825.03,0.339144,100,1
2328911,2,22509,0,47595,50426,47706.3,51234.41,-111.3,-808.41,0.338837,100,1
2328951,2,22549,0,47596,50425,47706.09,51232.8,-110.09,-807.8,0.33853,100,1
2328991,2,22589,0,47598,50436,47705.87,51231.2,-107.87,-795.2,0.338221,100,1
2329031,2,22629,0,47607,50465,47705.68,51229.67,-98.68,-764.67,0.337911,100,1
2329071,2,22669,0,47622,50518,47705.51,51228.25,-83.51,-710.25,0.3376,100,1
2329111,2,22709,0,47646,50574,47705.39,51226.94,-59.39,-652.94,0.337287,100,1
2329151,2,22749,0,47662,50630,47705.3,51225.75,-43.3,-595.75,0.336974,100,1
2329191,2,22789,0,47685,50681,47705.27,51224.66,-20.27,-543.66,0.336661,100,1
2329232,2,22830,0,47708,50725,47705.27,51223.66,2.73,-498.66,0.336346,100,1
2329272,2,22870,0,47723,50768,47705.31,51222.75,17.69,-454.75,0.336032,100,1
2329312,2,22910,0,47740,50814,47705.38,51221.94,34.62,-407.94,0.335718,100,1
2329352,2,22950,0,47754,50860,47705.48,51221.21,48.52,-361.21,0.335404,100,1
2329392,2,22990,0,47775,50905,47705.62,51220.58,69.38,-315.58,0.335091,100,1
2329432,2,23030,0,47798,50956,47705.8,51220.05,92.2,-264.05,0.33478,100,1
2329472,2,23070,0,47821,51021,47706.04,51219.66,114.96,-198.66,0.334471,100,1
2329512,2,23110,0,47841,51047,47706.3,51219.31,134.7,-172.31,0.334165,100,1
2329552,2,23150,0,47828,50902,47706.55,51218.68,121.45,-316.68,0.333862,100,1
2329592,2,23190,0,47746,50676,47706.63,51217.59,39.37,-541.59,0.333557,100,1
2329632,2,23230,0,47669,50519,47706.56,51216.2,-37.56,-697.2,0.333251,100,1
2329672,2,23270,0,47622,50456,47706.39,51214.68,-84.39,-758.68,0.332944,100,1
2329712,2,23310,0,47611,50432,47706.2,51213.12,-95.2,-781.12,0.332634,100,1
2329752,2,23350,0,47595,50423,47705.98,51211.54,-110.98,-788.54,0.332324,100,1
2329792,2,23390,0,47603,50461,47705.77,51210.04,-102.77,-749.04,0.332012,100,1
2329832,2,23430,0,47626,50513,47705.61,51208.64,-79.61,-695.64,0.3317,100,1
2329872,2,23470,0,47641,50537,47705.48,51207.3,-64.48,-670.3,0.331386,100,1
2329912,2,23510,0,47644,50551,47705.36,51205.99,-61.36,-654.99,0.331071,100,1
2329952,2,23550,0,47652,50575,47705.26,51204.73,-53.26,-629.73,0.330755,100,1
2329993,2,23591,0,47664,50617,47705.18,51203.55,-41.18,-586.55,0.330438,100,1
2330033,2,23631,0,47686,50674,47705.14,51202.49,-19.14,-528.49,0.33012,100,1
2330073,2,23671,0,47710,50733,47705.15,51201.55,4.85,-468.55,0.329803,100,1
2330113,2,23711,0,47728,50790,47705.2,51200.73,22.8,-410.73,0.329485,100,1
2330153,2,23751,0,47754,50846,47705.29,51200.03,48.71,-354.03,0.329167,100,1
2330193,2,23791,0,47778,50897,47705.44,51199.42,72.56,-302.42,0.328851,100,1
2330233,2,23831,0,47801,50949,47705.63,51198.92,95.37,-249.92,0.328537,100,1
2330273,2,23871,0,47818,51006,47705.86,51198.54,112.14,-192.54,0.328225,100,1
2330313,2,23911,0,47847,51173,47706.14,51198.49,140.86,-25.49,0.327917,100,1
2330353,2,23951,0,47865,51329,47706.46,51198.75,158.54,130.25,0.327613,100,1
2330393,2,23991,0,47891,51155,47706.84,51198.66,184.16,-43.66,0.327315,100,1
2330433,2,24031,0,47910,51213,47707.24,51198.7,202.76,14.3,0.327024,100,1
2330473,2,24071,0,47931,51263,47707.69,51198.82,223.31,64.18,0.326741,100,1
2330513,2,24111,0,47956,51779,47708.19,51199.98,247.81,579.02,0.326465,100,1
2330553,2,24151,0,47945,51141,47708.66,51199.87,236.34,-58.87,0.326198,100,1
2330593,2,24191,0,47874,50967,47709,51199.4,165,-232.4,0.325935,100,1
2330633,2,24231,0,47789,50807,47709.16,51198.62,79.84,-391.62,0.325673,100,1
2330673,2,24271,0,47744,50746,47709.23,51197.71,34.77,-451.71,0.32541,100,1
2330713,2,24311,0,47732,50330,47709.27,51195.98,22.73,-865.98,0.325143,100,1
2330753,2,24351,0,47722,50129,47709.3,51193.85,12.7,-1064.85,0.324869,100,1
2330794,2,24392,0,47721,50739,47709.32,51192.94,11.68,-453.94,0.324594,100,1
2330834,2,24432,0,47735,50785,47709.37,51192.12,25.62,-407.12,0.324319,100,1
2330874,2,24472,0,47750,50809,47709.46,51191.36,40.54,-382.36,0.324044,100,1
2330914,2,24512,0,47756,50809,47709.55,51190.59,46.45,-381.59,0.323769,100,1
2330954,2,24552,0,47760,50828,47709.65,51189.87,50.35,-361.87,0.323494,100,1
2330994,2,24592,0,47772,50875,47709.78,51189.24,62.22,-314.24,0.32322,100,1
2331034,2,24632,0,47792,50929,47709.94,51188.72,82.06,-259.72,0.322948,100,1
2331074,2,24672,0,47867,50986,47710.26,51188.32,156.74,-202.32,0.322679,100,1
2331114,2,24712,0,47844,51040,47710.53,51188.02,133.47,-148.02,0.322414,100,1
2331154,2,24752,0,47870,51090,47710.85,51187.83,159.15,-97.83,0.322154,100,1
2331194,2,24792,0,47890,51133,47711.21,51187.72,178.79,-54.72,0.3219,100,1
2331234,2,24832,0,48260,51182,47712.3,51187.71,547.7,-5.71,0.321692,100,1
2331274,2,24872,0,48361,51221,47713.6,51187.77,647.4,33.23,0.321545,100,1
2331314,2,24912,0,47942,51258,47714.06,51187.91,227.94,70.09,0.321406,100,1
2331354,2,24952,0,47959,51298,47714.55,51188.14,244.45,109.86,0.321275,100,1
2331394,2,24992,0,47975,51339,47715.07,51188.44,259.93,150.56,0.321154,100,1
2331434,2,25032,0,47782,51390,47715.21,51188.85,66.79,201.15,0.321033,100,1
2331474,2,25072,0,47692,51436,47715.16,51189.34,-23.16,246.66,0.320913,100,1
2331514,2,25112,0,48025,51407,47715.79,51189.78,309.21,217.22,0.320805,100,1
2331555,2,25153,0,47979,51236,47716.31,51189.87,262.69,46.13,0.320708,100,1
2331595,2,25193,0,47899,51049,47716.68,51189.59,182.32,-140.59,0.320616,100,1
2331635,2,25233,0,47101,50958,47715.45,51189.13,-614.45,-231.13,0.320575,100,1
2331675,2,25273,0,47818,50943,47715.66,51188.64,102.34,-245.64,0.320535,100,1
2331715,2,25313,0,47820,50944,47715.87,51188.15,104.13,-244.15,0.320496,100,1
2331755,2,25353,0,47821,50962,47716.08,51187.7,104.92,-225.7,0.320459,100,1
2331795,2,25393,0,47836,51006,47716.32,51187.34,119.68,-181.34,0.320422,100,1
2331835,2,25433,0,47848,51035,47716.59,51187.04,131.41,-152.04,0.320388,100,1
2331875,2,25473,0,47860,51049,47716.87,51186.76,143.12,-137.76,0.320357,100,1
2331915,2,25513,0,47864,51060,47717.17,51186.51,146.83,-126.51,0.320329,100,1
2331955,2,25553,0,47878,51086,47717.5,51186.31,160.5,-100.31,0.320304,100,1
2331995,2,25593,0,47894,51127,47717.85,51186.19,176.15,-59.19,0.320284,100,1
2332035,2,25633,0,47916,51183,47718.25,51186.19,197.75,-3.19,0.32027,100,1
2332075,2,25673,0,47935,51233,47718.68,51186.28,216.32,46.72,0.320262,100,1
2332115,2,25713,0,47954,51284,47719.16,51186.48,234.84,97.52,0.320262,100,1
2332155,2,25753,0,47976,51329,47719.67,51186.76,256.33,142.24,0.320272,100,1
2332195,2,25793,0,47994,51367,47720.22,51187.12,273.78,179.87,0.320291,100,1
2332235,2,25833,0,48009,51410,47720.8,51187.57,288.2,222.43,0.320322,100,1
2332275,2,25873,0,48023,51447,47721.41,51188.09,301.59,258.91,0.320365,100,1
2332315,2,25913,0,48040,51484,47722.04,51188.68,317.96,295.32,0.320421,100,1
2332355,2,25953,0,48052,51529,47722.7,51189.37,329.3,339.63,0.320491,100,1
2332396,2,25994,0,48068,51571,47723.39,51190.13,344.61,380.87,0.320575,100,1
2332436,2,26034,0,48086,51609,47724.12,51190.97,361.88,418.03,0.320675,100,1
2332476,2,26074,0,48105,51660,47724.88,51191.91,380.12,468.09,0.32079,100,1
2332516,2,26114,0,48115,51629,47725.66,51192.79,389.34,436.21,0.320924,100,1
2332556,2,26154,0,48066,51440,47726.35,51193.28,339.65,246.72,0.321071,100,1
2332596,2,26194,0,47985,51228,47726.87,51193.35,258.13,34.65,0.321227,100,1
2332636,2,26234,0,47916,51114,47727.25,51193.2,188.75,-79.2,0.321388,100,1
2332676,2,26274,0,47887,51082,47727.57,51192.97,159.43,-110.97,0.321551,100,1
2332716,2,26314,0,47872,51057,47727.86,51192.7,144.14,-135.7,0.321716,100,1
2332756,2,26354,0,47867,51042,47728.14,51192.4,138.86,-150.4,0.321883,100,1
2332796,2,26394,0,47874,51072,47728.43,51192.16,145.57,-120.16,0.322052,100,1
2332836,2,26434,0,47888,51088,47728.75,51191.96,159.25,-103.96,0.322224,100,1
2332876,2,26474,0,47893,51095,47729.08,51191.77,163.92,-96.77,0.322399,100,1
2332916,2,26514,0,47896,51101,47729.41,51191.59,166.59,-90.59,0.322577,100,1
2332956,2,26554,0,47897,51113,47729.75,51191.43,167.25,-78.43,0.322759,100,1
2332996,2,26594,0,47911,51148,47730.11,51191.34,180.89,-43.34,0.322945,100,1
2333036,2,26634,0,47926,51191,47730.51,51191.34,195.49,-0.34,0.323136,100,1
2333076,2,26674,0,47946,51238,47730.94,51191.44,215.06,46.56,0.323333,100,1
2333116,2,26714,0,47958,51283,47731.4,51191.62,226.6,91.38,0.323536,100,1
2333156,2,26754,0,47976,51327,47731.89,51191.89,244.11,135.11,0.323748,100,1
2333197,2,26795,0,47992,51363,47732.41,51192.24,259.59,170.76,0.323968,100,1
2333237,2,26835,0,48003,51397,47732.95,51192.65,270.05,204.35,0.324198,100,1
2333277,2,26875,0,48022,51437,47733.53,51193.14,288.47,243.86,0.324437,100,1
2333317,2,26915,0,48034,51484,47734.13,51193.72,299.87,290.28,0.324688,100,1
2333357,2,26955,0,48054,51524,47734.77,51194.38,319.23,329.62,0.32495,100,1
2333397,2,26995,0,48067,51559,47735.44,51195.11,331.56,363.89,0.325225,100,1
2333437,2,27035,0,48090,51604,47736.15,51195.93,353.85,408.07,0.325513,100,1
2333477,2,27075,0,48105,51650,47736.89,51196.84,368.11,453.16,0.325815,100,1
2333517,2,27115,0,48121,51657,47737.66,51197.76,383.34,459.24,0.326133,100,1
2333557,2,27155,0,48091,51490,47738.36,51198.35,352.64,291.65,0.326465,100,1
2333597,2,27195,0,48009,51269,47738.91,51198.49,270.09,70.51,0.326806,100,1
2333637,2,27235,0,47937,51117,47739.3,51198.33,197.7,-81.33,0.327151,100,1
2333677,2,27275,0,47893,51062,47739.61,51198.06,153.39,-136.06,0.327499,100,1
2333717,2,27315,0,47879,51037,47739.89,51197.74,139.11,-160.74,0.327847,100,1
2333757,2,27355,0,47866,51022,47740.15,51197.39,125.85,-175.39,0.328196,100,1
2333797,2,27395,0,47870,51037,47740.41,51197.07,129.59,-160.07,0.328546,100,1
2333837,2,27435,0,47879,51061,47740.69,51196.8,138.31,-135.8,0.328897,100,1
2333877,2,27475,0,47884,51066,47740.98,51196.54,143.02,-130.54,0.32925,100,1
2333917,2,27515,0,47880,51062,47741.25,51196.27,138.75,-134.27,0.329604,100,1
2333957,2,27555,0,47878,51068,47741.53,51196.02,136.47,-128.02,0.329959,100,1
2333998,2,27596,0,47879,51189,47741.8,51196,137.2,-7,0.330316,100,1
2334038,2,27636,0,47897,51130,47742.12,51195.87,154.88,-65.87,0.330675,100,1
2334078,2,27676,0,47914,51181,47742.46,51195.85,171.54,-14.85,0.331038,100,1
2334118,2,27716,0,47932,51230,47742.84,51195.92,189.16,34.08,0.331405,100,1
2334158,2,27756,0,47953,51666,47743.26,51196.86,209.74,469.14,0.331772,100,1
2334198,2,27796,0,47973,51804,47743.72,51198.07,229.28,605.93,0.332136,100,1
2334238,2,27836,0,47989,51351,47744.21,51198.38,244.79,152.62,0.332507,100,1
2334278,2,27876,0,48006,51392,47744.74,51198.77,261.26,193.23,0.332887,100,1
2334318,2,27916,0,48024,51429,47745.3,51199.23,278.7,229.77,0.333276,100,1
2334358,2,27956,0,48039,51187,47745.89,51199.21,293.11,-12.21,0.333678,100,1
2334398,2,27996,0,48054,51091,47746.5,51198.99,307.5,-107.99,0.334092,100,1
2334438,2,28036,0,48080,51550,47747.17,51199.7,332.83,350.3,0.334519,100,1
2334478,2,28076,0,48097,51584,47747.87,51200.46,349.13,383.54,0.334958,100,1
2334518,2,28116,0,48090,51488,47748.55,51201.04,341.45,286.96,0.335412,100,1
2334558,2,28156,0,48021,51261,47749.1,51201.16,271.9,59.84,0.335875,100,1
2334598,2,28196,0,47933,51067,47749.47,51200.9,183.53,-133.9,0.336342,100,1
2334638,2,28236,0,47870,50974,47749.71,51200.45,120.29,-226.45,0.336808,100,1
2334678,2,28276,0,47845,50944,47749.9,51199.93,95.1,-255.93,0.337272,100,1
2334718,2,28316,0,47836,50923,47750.07,51199.38,85.93,-276.38,0.337732,100,1
2334759,2,28357,0,47833,50934,47750.24,51198.85,82.76,-264.85,0.338191,100,1
2334799,2,28397,0,47840,50963,47750.42,51198.38,89.58,-235.38,0.338647,100,1
2334839,2,28437,0,47847,50976,47750.62,51197.94,96.38,-221.94,0.339102,100,1
2334879,2,28477,0,48054,50973,47751.23,51197.49,302.77,-224.49,0.339568,100,1
2334919,2,28517,0,48134,50967,47751.99,51197.03,382.01,-230.03,0.340055,100,1
2334959,2,28557,0,47849,50985,47752.19,51196.61,96.81,-211.61,0.34054,100,1
2334999,2,28597,0,47864,51023,47752.41,51196.26,111.59,-173.26,0.341024,100,1
2335039,2,28637,0,47881,51076,47752.67,51196.02,128.33,-120.02,0.34151,100,1
2335079,2,28677,0,47872,51118,47752.91,51195.86,119.09,-77.86,0.341995,100,1
2335119,2,28717,0,47773,51163,47752.95,51195.8,20.05,-32.8,0.34248,100,1
2335159,2,28757,0,47941,51192,47753.33,51195.79,187.67,-3.79,0.342969,100,1
2335199,2,28797,0,47955,51222,47753.74,51195.85,201.26,26.15,0.343463,100,1
2335239,2,28837,0,47968,51255,47754.17,51195.97,213.83,59.03,0.343963,100,1
2335279,2,28877,0,47452,51279,47753.57,51196.14,-301.57,82.86,0.344478,100,1
2335319,2,28917,0,47373,51306,47752.8,51196.36,-379.8,109.64,0.345014,100,1
2335359,2,28957,0,47999,51339,47753.3,51196.64,245.7,142.36,0.345558,100,1
2335399,2,28997,0,48020,51384,47753.83,51197.02,266.17,186.98,0.346112,100,1
2335439,2,29037,0,48028,51354,47754.38,51197.34,273.62,156.66,0.346675,100,1
2335479,2,29077,0,47979,51156,47754.83,51197.25,224.17,-41.25,0.347245,100,1
2335519,2,29117,0,47889,50934,47755.1,51196.73,133.9,-262.73,0.347814,100,1
2335560,2,29158,0,47819,50808,47755.23,51195.95,63.77,-387.95,0.348375,100,1
2335600,2,29198,0,47786,50768,47755.29,51195.1,30.71,-427.1,0.348926,100,1
2335640,2,29238,0,47771,50756,47755.32,51194.22,15.68,-438.22,0.349468,100,1
2335680,2,29278,0,47769,50773,47755.35,51193.38,13.65,-420.38,0.35,100,1
2335720,2,29318,0,47779,50805,47755.4,51192.61,23.6,-387.61,0.350525,100,1
2335760,2,29358,0,47794,50815,47755.48,51191.85,38.52,-376.85,0.351042,100,1
2335800,2,29398,0,47797,50801,47755.56,51191.07,41.44,-390.07,0.351552,100,1
2335840,2,29438,0,47787,50800,47755.62,51190.29,31.37,-390.29,0.352054,100,1
2335880,2,29478,0,47789,50812,47755.69,51189.54,33.31,-377.54,0.352549,100,1
2335920,2,29518,0,47804,50849,47755.79,51188.86,48.21,-339.86,0.353037,100,1
2335960,2,29558,0,47825,50897,47755.93,51188.27,69.07,-291.27,0.353522,100,1
2336000,2,29598,0,47845,50939,47756.11,51187.78,88.89,-248.78,0.354003,100,1
2336040,2,29638,0,47861,50978,47756.32,51187.36,104.68,-209.36,0.354484,100,1
2336080,2,29678,0,47875,51016,47756.56,51187.02,118.44,-171.02,0.354964,100,1
2336120,2,29718,0,47892,51044,47756.83,51186.73,135.17,-142.73,0.355446,100,1
2336160,2,29758,0,47902,51065,47757.12,51186.49,144.87,-121.49,0.355929,100,1
2336200,2,29798,0,47914,51093,47757.44,51186.3,156.56,-93.3,0.356415,100,1
2336240,2,29838,0,47922,51126,47757.77,51186.18,164.23,-60.18,0.356905,100,1
2336280,2,29878,0,47937,51162,47758.13,51186.14,178.87,-24.14,0.357399,100,1
2336320,2,29918,0,47945,51142,47758.51,51186.05,186.49,-44.05,0.357899,100,1
2336361,2,29959,0,47905,50948,47758.8,51185.57,146.2,-237.57,0.358398,100,1
2336401,2,29999,0,47808,50700,47758.9,51184.61,49.1,-484.61,0.358886,100,1
2336441,2,30039,1,47719,50537,47758.82,51183.31,-39.82,-646.31,0.359353,100,1
2336481,2,30079,1,47674,50479,47758.66,51181.91,-84.66,-702.91,0.359798,100,1
2336521,2,30119,1,47658,50442,47758.46,51180.43,-100.46,-738.43,0.36022,100,1
2336561,2,30159,1,47650,50431,47758.24,51178.93,-108.24,-747.93,0.36062,100,1
2336601,2,30199,1,47654,50467,47758.04,51177.51,-104.04,-710.51,0.361001,100,1
2336641,2,30239,1,47669,50506,47757.86,51176.17,-88.86,-670.17,0.361364,100,1
2336681,2,30279,1,47683,50513,47757.71,51174.85,-74.71,-661.85,0.361711,100,1
2336721,2,30319,1,47683,50508,47757.56,51173.52,-74.56,-665.52,0.362041,100,1
2336761,2,30359,1,47688,50523,47757.43,51172.21,-69.43,-649.21,0.362355,100,1
2336801,2,30399,1,47703,50553,47757.32,51170.98,-54.32,-617.98,0.362656,100,1
2336841,2,30439,1,47714,50605,47757.23,51169.85,-43.23,-564.85,0.362945,100,1
2336881,2,30479,1,47731,50651,47757.18,51168.81,-26.18,-517.81,0.363224,100,1
2336921,2,30519,1,47757,50698,47757.18,51167.87,-0.18,-469.87,0.363494,100,1
2336961,2,30559,1,47774,50734,47757.21,51167,16.79,-433,0.363757,100,1
2337001,2,30599,1,47793,50778,47757.29,51166.23,35.71,-388.23,0.364014,100,1
2337041,2,30639,1,47808,50817,47757.39,51165.53,50.61,-348.53,0.364267,100,1
2337081,2,30679,1,47814,50843,47757.5,51164.89,56.5,-321.89,0.364516,100,1
2337122,2,30720,1,47830,50881,47757.65,51164.32,72.35,-283.32,0.364763,100,1
2337162,2,30760,1,47843,50920,47757.82,51163.83,85.18,-243.83,0.365009,100,1
2337202,2,30800,1,47869,50972,47758.04,51163.45,110.96,-191.45,0.365254,100,1
2337242,2,30840,1,47872,50943,47758.27,51163.01,113.73,-220.01,0.3655,100,1
2337282,2,30880,1,47823,50731,47758.4,51162.14,64.6,-431.14,0.36574,100,1
2337322,2,30920,1,47733,50489,47758.35,51160.8,-25.35,-671.8,0.365963,100,1
2337362,2,30960,1,47651,50357,47758.14,51159.2,-107.14,-802.2,0.366166,100,1
2337402,2,31000,1,47614,50307,47757.85,51157.49,-143.85,-850.49,0.36635,100,1
2337442,2,31040,1,47597,50275,47757.53,51155.73,-160.53,-880.73,0.366514,100,1
2337482,2,31080,1,47596,50270,47757.21,51153.96,-161.21,-883.96,0.366659,100,1
2337522,2,31120,1,47603,50309,47756.9,51152.27,-153.9,-843.27,0.366788,100,1
2337562,2,31160,1,47625,50346,47756.64,51150.66,-131.64,-804.66,0.366902,100,1
2337602,2,31200,1,47629,50389,47756.39,51149.14,-127.39,-760.14,0.367004,100,1
2337642,2,31240,1,47624,50350,47756.12,51147.54,-132.12,-797.54,0.367091,100,1
2337682,2,31280,1,47627,50364,47755.87,51145.98,-128.87,-781.98,0.367166,100,1
2337722,2,31320,1,47641,50406,47755.64,51144.5,-114.64,-738.5,0.36723,100,1
2337762,2,31360,1,47662,50787,47755.45,51143.78,-93.45,-356.78,0.367292,100,1
2337802,2,31400,1,47675,50932,47755.29,51143.36,-80.29,-211.36,0.367354,100,1
2337842,2,31440,1,47692,50535,47755.17,51142.14,-63.17,-607.14,0.367407,100,1
2337883,2,31481,1,47713,50574,47755.09,51141.01,-42.09,-567.01,0.367453,100,1
2337923,2,31521,1,47724,50608,47755.02,51139.94,-31.02,-531.94,0.367492,100,1
2337963,2,31561,1,47737,50435,47754.99,51138.53,-17.99,-703.53,0.367519,100,1
2338003,2,31601,1,47751,50334,47754.98,51136.92,-3.98,-802.92,0.367531,100,1
2338043,2,31641,1,47760,50716,47754.99,51136.08,5.01,-420.08,0.367539,100,1
2338083,2,31681,1,47782,50764,47755.05,51135.34,26.95,-371.34,0.367543,100,1
2338123,2,31721,1,47805,50806,47755.15,51134.68,49.85,-328.68,0.367546,100,1
2338163,2,31761,1,47810,50657,47755.26,51133.73,54.74,-476.73,0.367544,100,1
2338203,2,31801,1,47746,50525,47755.24,51132.52,-9.24,-607.52,0.367534,100,1
2338243,2,31841,1,47652,50327,47755.04,51130.91,-103.04,-803.91,0.367512,100,1
2338283,2,31881,1,47601,50238,47754.73,51129.12,-153.73,-891.12,0.367476,100,1
2338323,2,31921,1,47580,50209,47754.38,51127.28,-174.38,-918.28,0.36743,100,1
2338363,2,31961,1,47568,50197,47754.01,51125.42,-186.01,-928.42,0.367372,100,1
2338403,2,32001,1,47568,50226,47753.64,51123.62,-185.64,-897.62,0.367305,100,1
2338443,2,32041,1,47587,50271,47753.3,51121.92,-166.3,-850.92,0.36723,100,1
2338483,2,32081,1,47776,50290,47753.35,51120.26,22.65,-830.26,0.367142,100,1
2338523,2,32121,1,47864,50293,47753.57,51118.61,110.43,-825.61,0.367045,100,1
2338563,2,32161,1,47602,50305,47753.27,51116.98,-151.27,-811.98,0.36694,100,1
2338603,2,32201,1,47612,50336,47752.99,51115.42,-140.99,-779.42,0.366829,100,1
2338644,2,32242,1,47627,50386,47752.74,51113.96,-125.74,-727.96,0.366711,100,1
2338684,2,32282,1,47652,50437,47752.54,51112.61,-100.54,-675.61,0.366589,100,1
2338724,2,32322,1,47566,50494,47752.17,51111.37,-186.17,-617.37,0.366466,100,1
2338764,2,32362,1,47687,50555,47752.04,51110.26,-65.04,-555.26,0.366339,100,1
2338804,2,32402,1,47714,50600,47751.97,51109.24,-37.97,-509.24,0.366209,100,1
2338844,2,32442,1,47735,50643,47751.94,51108.31,-16.94,-465.31,0.366076,100,1
2338884,2,32482,1,47260,50688,47750.95,51107.47,-490.95,-419.47,0.365983,100,1
2338924,2,32522,1,47176,50737,47749.8,51106.73,-573.8,-369.73,0.365945,100,1
2338964,2,32562,1,47790,50793,47749.89,51106.11,40.11,-313.11,0.365905,100,1
2339004,2,32602,1,47813,50846,47750.02,51105.59,62.98,-259.59,0.365865,100,1
2339044,2,32642,1,47843,50892,47750.2,51105.16,92.8,-213.16,0.365826,100,1
2339084,2,32682,1,47851,50835,47750.41,51104.62,100.59,-269.62,0.365787,100,1
2339124,2,32722,1,47791,50631,47750.49,51103.68,40.51,-472.68,0.365744,100,1
2339164,2,32762,1,47701,50444,47750.39,51102.36,-49.39,-658.36,0.365694,100,1
2339204,2,32802,1,47649,50367,47750.19,51100.89,-101.19,-733.89,0.365635,100,1
2339244,2,32842,1,47635,50339,47749.96,51099.37,-114.96,-760.37,0.365569,100,1
2339284,2,32882,1,47623,50336,47749.7,51097.84,-126.7,-761.84,0.365495,100,1
2339324,2,32922,1,47624,50368,47749.45,51096.39,-125.45,-728.39,0.365415,100,1
2339364,2,32962,1,47640,50413,47749.23,51095.02,-109.23,-682.02,0.365329,100,1
2339405,2,33003,1,47651,50426,47749.04,51093.68,-98.04,-667.68,0.365238,100,1
2339445,2,33043,1,47652,50427,47748.85,51092.35,-96.85,-665.35,0.365141,100,1
2339485,2,33083,1,47653,50444,47748.66,51091.05,-95.66,-647.05,0.365039,100,1
2339525,2,33123,1,47660,50482,47748.48,51089.84,-88.48,-607.84,0.364932,100,1
2339565,2,33163,1,47681,50536,47748.35,51088.73,-67.35,-552.73,0.364821,100,1
2339605,2,33203,1,47707,50583,47748.27,51087.72,-41.27,-504.72,0.364707,100,1
2339645,2,33243,1,47728,50640,47748.23,51086.83,-20.23,-446.83,0.36459,100,1
2339685,2,33283,1,47748,50696,47748.23,51086.05,-0.23,-390.05,0.36447,100,1
2339725,2,33323,1,47773,50746,47748.28,51085.37,24.72,-339.37,0.36435,100,1
2339765,2,33363,1,47793,50786,47748.37,51084.77,44.63,-298.77,0.364228,100,1
2339805,2,33403,1,47815,50827,47748.5,51084.25,66.5,-257.25,0.364107,100,1
2339845,2,33443,1,47833,50866,47748.67,51083.82,84.33,-217.82,0.363986,100,1
2339885,2,33483,1,47847,50913,47748.87,51083.48,98.13,-170.48,0.363867,100,1
2339925,2,33523,1,47867,50964,47749.11,51083.24,117.89,-119.24,0.363751,100,1
2339965,2,33563,1,47888,51013,47749.39,51083.1,138.61,-70.1,0.363639,100,1
2340005,2,33603,1,47904,51018,47749.7,51082.97,154.3,-64.97,0.363531,100,1
2340045,2,33643,1,47875,50868,47749.95,51082.54,125.05,-214.54,0.363426,100,1
2340085,2,33683,1,47795,50665,47750.04,51081.71,44.96,-416.71,0.363318,100,1
2340125,2,33723,1,47728,50547,47749.99,51080.64,-21.99,-533.64,0.363206,100,1
2340165,2,33763,1,47695,50516,47749.88,51079.52,-54.88,-563.52,0.363089,100,1
2340206,2,33804,1,47688,50502,47749.76,51078.36,-61.76,-576.36,0.362967,100,1
2340246,2,33844,1,47684,50519,47749.63,51077.25,-65.63,-558.25,0.362841,100,1
2340286,2,33884,1,47695,50573,47749.52,51076.24,-54.52,-503.24,0.362711,100,1
2340326,2,33924,1,47713,50618,47749.45,51075.32,-36.45,-457.32,0.362578,100,1
2340366,2,33964,1,47726,50630,47749.41,51074.43,-23.41,-444.43,0.362443,100,1
2340406,2,34004,1,47733,50652,47749.37,51073.59,-16.37,-421.59,0.362304,100,1
2340446,2,34044,1,47743,50698,47749.36,51072.84,-6.36,-374.84,0.362164,100,1
2340486,2,34084,1,47765,50754,47749.39,51072.2,15.61,-318.2,0.362022,100,1
2340526,2,34124,1,47795,50825,47749.49,51071.71,45.51,-246.71,0.361881,100,1
2340566,2,34164,1,47825,50887,47749.64,51071.34,75.36,-184.34,0.36174,100,1
2340606,2,34204,1,47855,50949,47749.85,51071.1,105.15,-122.1,0.361601,100,1
2340646,2,34244,1,47874,51006,47750.1,51070.97,123.9,-64.97,0.361466,100,1
2340686,2,34284,1,47894,51064,47750.39,51070.96,143.61,-6.96,0.361336,100,1
2340726,2,34324,1,47920,51113,47750.73,51071.05,169.27,41.95,0.361212,100,1
2340766,2,34364,1,47943,51171,47751.12,51071.25,191.88,99.75,0.361096,100,1
2340806,2,34404,1,47961,51226,47751.54,51071.56,209.46,154.44,0.360989,100,1
2340846,2,34444,1,47982,51286,47752,51071.99,230,214.01,0.360893,100,1
2340886,2,34484,1,48005,51352,47752.51,51072.55,252.49,279.45,0.360809,100,1
2340927,2,34525,1,48033,51412,47753.07,51073.23,279.93,338.77,0.360739,100,1
2340967,2,34565,1,48043,51378,47753.65,51073.84,289.35,304.16,0.360685,100,1
2341007,2,34605,1,48001,51236,47754.15,51074.17,246.85,161.83,0.360643,100,1
2341047,2,34645,1,47934,51123,47754.51,51074.27,179.49,48.73,0.360607,100,1
2341087,2,34685,1,47899,51072,47754.8,51074.26,144.2,-2.26,0.360576,100,1
2341127,2,34725,1,47890,51071,47755.07,51074.26,134.93,-3.26,0.360549,100,1
2341167,2,34765,1,47891,51075,47755.34,51074.26,135.66,0.74,0.360526,100,1
2341207,2,34805,1,47894,51232,47755.62,51074.58,138.38,157.42,0.360506,100,1
2341247,2,34845,1,47916,51373,47755.94,51075.18,160.06,297.82,0.36049,100,1
2341287,2,34885,1,47935,51202,47756.3,51075.43,178.7,126.57,0.36048,100,1
2341327,2,34925,1,47947,51222,47756.68,51075.72,190.32,146.28,0.360477,100,1
2341367,2,34965,1,47957,51253,47757.09,51076.08,199.91,176.92,0.360482,100,1
2341407,2,35005,1,47971,51819,47757.52,51077.57,213.48,741.43,0.360484,100,1
2341447,2,35045,1,47994,51324,47757.99,51078.06,236.01,245.94,0.360495,100,1
2341487,2,35085,1,48018,51431,47758.51,51078.77,259.49,352.23,0.360518,100,1
2341527,2,35125,1,48046,51488,47759.09,51079.59,286.91,408.41,0.360554,100,1
2341567,2,35165,1,48069,51541,47759.71,51080.52,309.29,460.48,0.360604,100,1
2341607,2,35205,1,48088,51166,47760.36,51080.69,327.64,85.31,0.360675,100,1
2341647,2,35245,1,48113,51124,47761.07,51080.78,351.93,43.22,0.360772,100,1
2341687,2,35285,1,48136,51718,47761.82,51082.05,374.18,635.95,0.360884,100,1
2341728,2,35326,1,48151,51768,47762.6,51083.43,388.4,684.57,0.361013,100,1
2341768,2,35366,1,48173,51823,47763.42,51084.91,409.58,738.09,0.361159,100,1
2341808,2,35406,1,48193,51885,47764.28,51086.51,428.72,798.49,0.36132,100,1
2341848,2,35446,1,48213,51950,47765.18,51088.24,447.82,861.76,0.361496,100,1
2341888,2,35486,1,48240,51996,47766.13,51090.05,473.87,905.95,0.361688,100,1
2341928,2,35526,1,48246,51960,47767.09,51091.8,478.91,868.2,0.361898,100,1
2341968,2,35566,1,48236,51842,47768.03,51093.3,467.97,748.7,0.362127,100,1
2342008,2,35606,1,48155,51772,47768.8,51094.66,386.2,677.34,0.362367,100,1
2342048,2,35646,1,48134,51753,47769.53,51095.97,364.47,657.03,0.362615,100,1
2342088,2,35686,1,48140,51759,47770.27,51097.3,369.73,661.7,0.362871,100,1
2342128,2,35726,1,48465,51772,47771.66,51098.65,693.34,673.35,0.363185,100,1
2342168,2,35766,1,48600,51803,47773.32,51100.06,826.68,702.94,0.363579,100,1
2342208,2,35806,1,48166,51841,47774.11,51101.55,391.89,739.45,0.363977,100,1
2342248,2,35846,1,48178,51864,47774.91,51103.07,403.09,760.93,0.364378,100,1
2342288,2,35886,1,48179,51876,47775.72,51104.62,403.28,771.38,0.364783,100,1
2342328,2,35926,1,48007,51897,47776.19,51106.21,230.81,790.79,0.365176,100,1
2342368,2,35966,1,47858,51936,47776.35,51107.87,81.65,828.13,0.36555,100,1
2342408,2,36006,1,48209,51980,47777.22,51109.61,431.78,870.39,0.365926,100,1
2342448,2,36046,1,48229,52030,47778.12,51111.46,450.87,918.54,0.366304,100,1
2342489,2,36087,1,48245,52076,47779.06,51113.39,465.94,962.61,0.366684,100,1
2342529,2,36127,1,47603,52122,47778.71,51115.41,-175.71,1006.59,0.367041,100,1
2342569,2,36167,1,48278,52166,47779.71,51117.51,498.29,1048.49,0.3674,100,1
2342609,2,36207,1,48292,52213,47780.73,51119.7,511.27,1093.3,0.367759,100,1
2342649,2,36247,1,48311,52256,47781.8,51121.97,529.2,1134.03,0.368119,100,1
2342689,2,36287,1,48330,52296,47782.89,51124.32,547.11,1171.68,0.368479,100,1
2342729,2,36327,1,48344,52340,47784.02,51126.75,559.98,1213.25,0.368838,100,1
2342769,2,36367,1,48365,52398,47785.18,51129.3,579.82,1268.7,0.369197,100,1
2342809,2,36407,1,48387,52446,47786.39,51131.93,600.61,1314.07,0.369555,100,1
2342849,2,36447,1,48410,52489,47787.64,51134.64,622.36,1354.36,0.369912,100,1
2342889,2,36487,1,48412,52452,47788.89,51137.28,623.11,1314.72,0.370271,100,1
2342929,2,36527,1,48379,52347,47790.07,51139.7,588.93,1207.3,0.370632,100,1
2342969,2,36567,1,48333,52278,47791.15,51141.98,541.85,1136.02,0.370994,100,1
2343009,2,36607,1,48315,52261,47792.2,51144.22,522.8,1116.78,0.371355,100,1
2343049,2,36647,1,48313,52268,47793.25,51146.47,519.75,1121.53,0.371716,100,1
2343089,2,36687,1,48315,52267,47794.29,51148.71,520.71,1118.29,0.372077,100,1
2343129,2,36727,1,48310,52285,47795.32,51150.98,514.68,1134.02,0.372436,100,1
2343169,2,36767,1,48321,52310,47796.37,51153.3,524.63,1156.7,0.372793,100,1
2343209,2,36807,1,48329,52323,47797.44,51155.64,531.56,1167.36,0.373149,100,1
2343250,2,36848,1,48325,52326,47798.49,51157.99,526.51,1168.01,0.373503,100,1
2343290,2,36888,1,48325,52339,47799.55,51160.35,525.45,1178.65,0.373855,100,1
2343330,2,36928,1,48333,52364,47800.61,51162.76,532.39,1201.24,0.374205,100,1
2343370,2,36968,1,48342,52406,47801.7,51165.25,540.3,1240.75,0.374551,100,1
2343410,2,37008,1,48352,52441,47802.8,51167.8,549.2,1273.2,0.374894,100,1
2343450,2,37048,1,48372,52474,47803.94,51170.42,568.06,1303.58,0.375234,100,1
2343490,2,37088,1,48386,52515,47805.11,51173.11,580.89,1341.89,0.37557,100,1
2343530,2,37128,1,48396,52553,47806.29,51175.87,589.71,1377.13,0.375903,100,1
2343570,2,37168,1,48412,52586,47807.5,51178.69,604.5,1407.31,0.376232,100,1
2343610,2,37208,1,48434,52625,47808.75,51181.59,625.25,1443.41,0.376558,100,1
2343650,2,37248,1,48448,52652,47810.04,51184.53,637.96,1467.47,0.37688,100,1
2343690,2,37288,1,48460,52685,47811.34,51187.53,648.66,1497.47,0.3772,100,1
2343730,2,37328,1,48472,52726,47812.66,51190.61,659.34,1535.39,0.377516,100,1
2343770,2,37368,1,48485,52763,47814.01,51193.75,670.99,1569.25,0.377829,100,1
2343810,2,37408,1,48500,52796,47815.38,51196.96,684.62,1599.04,0.378138,100,1
2343850,2,37448,1,48515,52816,47816.79,51200.2,698.21,1615.8,0.378444,100,1
2343890,2,37488,1,48501,52742,47818.16,51203.29,682.84,1538.71,0.378749,100,1
2343930,2,37528,1,48453,52634,47819.43,51206.15,633.57,1427.85,0.379053,100,1
2343970,2,37568,1,48413,52582,47820.61,51208.9,592.39,1373.1,0.379354,100,1
2344010,2,37608,1,48405,52572,47821.79,51211.63,583.21,1360.37,0.379653,100,1
2344051,2,37649,1,48401,52576,47822.95,51214.36,578.05,1361.64,0.37995,100,1
2344091,2,37689,1,48399,52575,47824.1,51217.08,574.9,1357.92,0.380244,100,1
2344131,2,37729,1,48396,52595,47825.24,51219.84,570.76,1375.16,0.380534,100,1
2344171,2,37769,1,48403,52608,47826.4,51222.62,576.6,1385.38,0.380822,100,1
2344211,2,37809,1,48405,52610,47827.56,51225.39,577.44,1384.61,0.381106,100,1
2344251,2,37849,1,48406,52612,47828.71,51228.17,577.29,1383.83,0.381388,100,1
2344291,2,37889,1,48405,52622,47829.87,51230.96,575.13,1391.04,0.381667,100,1
2344331,2,37929,1,48415,52645,47831.04,51233.79,583.96,1411.21,0.381943,100,1
2344371,2,37969,1,48429,52677,47832.23,51236.67,596.77,1440.33,0.382216,100,1
2344411,2,38009,1,48442,52708,47833.46,51239.62,608.54,1468.38,0.382487,100,1
2344451,2,38049,1,48458,52733,47834.71,51242.61,623.29,1490.39,0.382754,100,1
2344491,2,38089,1,48466,52763,47835.97,51245.65,630.03,1517.35,0.383019,100,1
2344531,2,38129,1,48473,52792,47837.25,51248.74,635.75,1543.26,0.383281,100,1
2344571,2,38169,1,48487,52818,47838.55,51251.88,648.45,1566.12,0.38354,100,1
2344611,2,38209,1,48497,52832,47839.86,51255.04,657.14,1576.96,0.383797,100,1
2344651,2,38249,1,48504,52859,47841.19,51258.25,662.81,1600.75,0.38405,100,1
2344691,2,38289,1,48506,52886,47842.52,51261.51,663.48,1624.49,0.384301,100,1
2344731,2,38329,1,48517,52913,47843.87,51264.82,673.12,1648.18,0.384549,100,1
2344771,2,38369,1,48530,52942,47845.25,51268.17,684.75,1673.83,0.384793,100,1
2344812,2,38410,1,48539,53114,47846.64,51271.86,692.36,1842.14,0.385031,100,1
2344852,2,38450,1,48545,53189,47848.04,51275.7,696.96,1913.3,0.385261,100,1
2344892,2,38490,1,48514,52855,47849.37,51278.86,664.63,1576.14,0.38549,100,1
2344932,2,38530,1,48463,52753,47850.6,51281.81,612.4,1471.19,0.385718,100,1
2344972,2,38570,1,48435,52714,47851.77,51284.68,583.23,1429.32,0.385943,100,1
2345012,2,38610,1,48426,52714,47852.92,51287.54,573.08,1426.46,0.386166,100,1
2345052,2,38650,1,48424,52625,47854.06,51290.21,569.94,1334.79,0.386389,100,1
2345092,2,38690,1,48418,52705,47855.19,51293.04,562.81,1411.96,0.386609,100,1
2345132,2,38730,1,48428,52719,47856.34,51295.89,571.66,1423.11,0.386827,100,1
2345172,2,38770,1,48430,52716,47857.49,51298.73,572.51,1417.27,0.387043,100,1
2345212,2,38810,1,48430,52196,47858.63,51300.53,571.37,895.47,0.387264,100,1
2345252,2,38850,1,48425,52098,47859.77,51302.13,565.23,795.87,0.387492,100,1
2345292,2,38890,1,48423,52706,47860.89,51304.94,562.11,1401.06,0.387717,100,1
2345332,2,38930,1,48428,52720,47862.03,51307.77,565.97,1412.23,0.387939,100,1
2345372,2,38970,1,48435,52740,47863.18,51310.64,571.82,1429.36,0.38816,100,1
2345412,2,39010,1,48444,52761,47864.34,51313.54,579.66,1447.46,0.388378,100,1
2345452,2,39050,1,48450,52782,47865.52,51316.48,584.48,1465.52,0.388594,100,1
2345492,2,39090,1,48455,52809,47866.7,51319.46,588.3,1489.54,0.388807,100,1
2345532,2,39130,1,48463,52824,47867.89,51322.48,595.11,1501.52,0.389018,100,1
2345573,2,39171,1,48569,52840,47869.29,51325.51,699.71,1514.49,0.38923,100,1
2345613,2,39211,1,48479,52864,47870.51,51328.59,608.49,1535.41,0.38944,100,1
2345653,2,39251,1,48485,52891,47871.74,51331.71,613.26,1559.29,0.389647,100,1
2345693,2,39291,1,48494,52914,47872.99,51334.88,621.01,1579.12,0.389851,100,1
2345733,2,39331,1,48886,52937,47875.02,51338.09,1010.98,1598.91,0.390071,100,1
2345773,2,39371,1,49029,52969,47877.32,51341.35,1151.68,1627.65,0.390315,100,1
2345813,2,39411,1,48527,52993,47878.62,51344.65,648.37,1648.35,0.390555,100,1
2345853,2,39451,1,48515,52908,47879.9,51347.78,635.1,1560.22,0.390793,100,1
2345893,2,39491,1,48467,52779,47881.07,51350.64,585.93,1428.36,0.391029,100,1
2345933,2,39531,1,48167,52688,47881.65,51353.32,285.35,1334.68,0.391257,100,1
2345973,2,39571,1,47982,52646,47881.85,51355.91,100.15,1290.09,0.391475,100,1
2346013,2,39611,1,48392,52634,47882.87,51358.46,509.12,1275.54,0.391692,100,1
2346053,2,39651,1,48381,52616,47883.87,51360.98,497.13,1255.02,0.391906,100,1
2346093,2,39691,1,48376,52612,47884.86,51363.48,491.14,1248.52,0.392119,100,1
2346133,2,39731,1,48379,52614,47885.84,51365.99,493.16,1248.01,0.392329,100,1
2346173,2,39771,1,48373,52595,47886.82,51368.45,486.18,1226.55,0.392538,100,1
2346213,2,39811,1,48367,52577,47887.78,51370.87,479.22,1206.13,0.392745,100,1
2346253,2,39851,1,48359,52564,47888.73,51373.25,470.27,1190.75,0.392951,100,1
2346293,2,39891,1,48351,52571,47889.65,51375.65,461.35,1195.35,0.393154,100,1
2346334,2,39932,1,48362,52585,47890.6,51378.07,471.4,1206.93,0.393356,100,1
2346374,2,39972,1,48366,52605,47891.55,51380.53,474.45,1224.47,0.393555,100,1
2346414,2,40012,1,48376,52627,47892.52,51383.03,483.48,1243.97,0.393753,100,1
2346454,2,40052,1,48382,52650,47893.5,51385.56,488.5,1264.44,0.393948,100,1
2346494,2,40092,1,48390,52667,47894.5,51388.12,495.5,1278.88,0.394141,100,1
2346534,2,40132,1,48396,52683,47895.5,51390.71,500.5,1292.29,0.394333,100,1
2346574,2,40172,1,48404,52707,47896.52,51393.35,507.48,1313.65,0.394522,100,1
2346614,2,40212,1,48409,52725,47897.55,51396.01,511.45,1328.99,0.394709,100,1
2346654,2,40252,1,48418,52748,47898.59,51398.72,519.41,1349.28,0.394893,100,1
2346694,2,40292,1,48432,52769,47899.66,51401.46,532.34,1367.54,0.395076,100,1
2346734,2,40332,1,48447,52788,47900.75,51404.23,546.25,1383.77,0.395257,100,1
2346774,2,40372,1,48453,52813,47901.86,51407.05,551.14,1405.95,0.395436,100,1
2346814,2,40412,1,48451,52766,47902.96,51409.77,548.04,1356.23,0.395614,100,1
2346854,2,40452,1,48408,52615,47903.97,51412.18,504.03,1202.82,0.395791,100,1
2346894,2,40492,1,48344,52472,47904.85,51414.3,439.15,1057.7,0.395967,100,1
2346934,2,40532,1,48303,52400,47905.65,51416.28,397.35,983.72,0.396142,100,1
2346974,2,40572,1,48281,52360,47906.4,51418.17,374.6,941.83,0.396316,100,1
2347014,2,40612,1,48268,52338,47907.12,51420.01,360.88,917.99,0.39649,100,1
2347054,2,40652,1,48256,52323,47907.82,51421.82,348.18,901.18,0.396662,100,1
2347095,2,40693,1,48254,52323,47908.52,51423.62,345.48,899.38,0.396833,100,1
2347135,2,40733,1,48250,52306,47909.2,51425.39,340.8,880.61,0.397002,100,1
2347175,2,40773,1,48240,52279,47909.86,51427.09,330.14,851.91,0.397171,100,1
2347215,2,40813,1,48231,52267,47910.51,51428.77,320.49,838.23,0.397338,100,1
2347255,2,40853,1,48231,52268,47911.15,51430.45,319.85,837.55,0.397505,100,1
2347295,2,40893,1,48239,52281,47911.8,51432.16,327.2,848.84,0.39767,100,1
2347335,2,40933,1,48242,52307,47912.46,51433.91,329.54,873.09,0.397834,100,1
2347375,2,40973,1,48256,52330,47913.15,51435.7,342.85,894.3,0.397997,100,1
2347415,2,41013,1,48268,52357,47913.86,51437.54,354.14,919.46,0.398159,100,1
2347455,2,41053,1,48280,52372,47914.6,51439.41,365.4,932.59,0.398319,100,1
2347495,2,41093,1,48296,52389,47915.36,51441.32,380.64,947.68,0.398479,100,1
2347535,2,41133,1,48295,52413,47916.12,51443.26,378.87,969.74,0.398638,100,1
2347575,2,41173,1,48305,52429,47916.9,51445.23,388.1,983.77,0.398795,100,1
2347615,2,41213,1,48315,52449,47917.7,51447.24,397.3,1001.76,0.398952,100,1
2347655,2,41253,1,48327,52478,47918.52,51449.3,408.48,1028.7,0.399107,100,1
2347695,2,41293,1,48335,52500,47919.36,51451.41,415.64,1048.59,0.399262,100,1
2347735,2,41333,1,48347,52524,47920.21,51453.55,426.79,1070.45,0.399415,100,1
2347775,2,41373,1,48352,52490,47921.07,51455.63,430.93,1034.37,0.399568,100,1
2347816,2,41414,1,48309,52332,47921.85,51457.38,387.15,874.62,0.399721,100,1
2347856,2,41454,1,48236,52169,47922.48,51458.81,313.52,710.19,0.399874,100,1
2347896,2,41494,1,48188,52079,47923.01,51460.05,264.99,618.95,0.400026,100,1
2347936,2,41534,1,48164,52047,47923.5,51461.23,240.5,585.77,0.400178,100,1
2347976,2,41574,1,48152,52020,47923.95,51462.34,228.05,557.66,0.40033,100,1
2348016,2,41614,1,48147,52008,47924.4,51463.44,222.6,544.56,0.400481,100,1
2348056,2,41654,1,48150,52020,47924.86,51464.55,225.14,555.45,0.400631,100,1
2348096,2,41694,1,48150,52020,47925.31,51465.66,224.69,554.34,0.400781,100,1
2348136,2,41734,1,48147,52004,47925.75,51466.74,221.25,537.26,0.40093,100,1
2348176,2,41774,1,48149,51989,47926.2,51467.79,222.8,521.21,0.401079,100,1
2348216,2,41814,1,48153,51991,47926.66,51468.84,226.34,522.16,0.401228,100,1
2348256,2,41854,1,48160,52011,47927.12,51469.92,232.87,541.08,0.401376,100,1
2348296,2,41894,1,48167,52104,47927.61,51471.19,239.39,632.81,0.401523,99.99,1
2348336,2,41934,1,48175,52064,47928.1,51472.38,246.9,591.62,0.40167,99.99,1
2348376,2,41974,1,48189,52093,47928.62,51473.62,260.37,619.38,0.401817,99.99,1
2348416,2,42014,1,48201,52112,47929.17,51474.9,271.83,637.1,0.401963,99.99,1
2348456,2,42054,1,48206,52485,47929.73,51476.92,276.27,1008.08,0.402105,99.99,1
2348496,2,42094,1,48216,52593,47930.3,51479.16,285.7,1113.84,0.402242,99.99,1
2348536,2,42134,1,48225,52179,47930.89,51480.56,294.11,698.44,0.402379,99.99,1
2348576,2,42174,1,48235,52202,47931.5,51482,303.5,720,0.402516,99.99,1
2348617,2,42215,1,48242,52228,47932.12,51483.5,309.88,744.5,0.402652,99.98,1
2348657,2,42255,1,48254,52017,47932.77,51484.56,321.23,532.44,0.40279,99.98,1
2348697,2,42295,1,48269,51944,47933.44,51485.48,335.56,458.52,0.40293,99.98,1
2348737,2,42335,1,48273,52260,47934.12,51487.04,338.88,772.96,0.40307,99.98,1
2348777,2,42375,1,48230,52097,47934.71,51488.26,295.29,608.74,0.40321,99.98,1
2348817,2,42415,1,48165,51930,47935.17,51489.14,229.83,440.86,0.403351,99.98,1
2348857,2,42455,1,48114,51843,47935.53,51489.86,178.47,353.14,0.403492,99.97,1
2348897,2,42495,1,48093,51820,47935.85,51490.52,157.15,329.48,0.403632,99.97,1
2348937,2,42535,1,48087,51794,47936.15,51491.12,150.85,302.87,0.403772,99.97,1
2348977,2,42575,1,48084,51787,47936.45,51491.72,147.55,295.28,0.403912,99.97,1
2349017,2,42615,1,48088,51795,47936.75,51492.33,151.25,302.67,0.404052,99.97,1
2349057,2,42655,1,48094,51797,47937.07,51492.94,156.93,304.06,0.404192,99.96,1
2349097,2,42695,1,48089,51789,47937.37,51493.53,151.62,295.47,0.404331,99.96,1
2349137,2,42735,1,48082,51770,47937.66,51494.09,144.34,275.91,0.404471,99.96,1
2349177,2,42775,1,48304,51776,47938.4,51494.65,365.6,281.35,0.404614,99.96,1
2349217,2,42815,1,48423,51806,47939.37,51495.28,483.63,310.72,0.404766,99.95,1
2349257,2,42855,1,48104,51837,47939.7,51495.96,164.3,341.04,0.404917,99.95,1
2349297,2,42895,1,48112,51869,47940.05,51496.71,171.95,372.29,0.405068,99.95,1
2349337,2,42935,1,48126,51901,47940.42,51497.52,185.58,403.48,0.405219,99.95,1
2349378,2,42976,1,48097,51925,47940.73,51498.37,156.27,426.63,0.405369,99.94,1
2349418,2,43016,1,47966,51958,47940.79,51499.29,25.21,458.71,0.405517,99.94,1
2349458,2,43056,1,48156,51984,47941.22,51500.27,214.78,483.73,0.405665,99.94,1
2349498,2,43096,1,48166,52017,47941.67,51501.3,224.33,515.7,0.405813,99.94,1
2349538,2,43136,1,48182,52041,47942.15,51502.38,239.85,538.62,0.40596,99.93,1
2349578,2,43176,1,47610,52070,47941.48,51503.52,-331.48,566.48,0.40611,99.93,1
2349618,2,43216,1,47475,52110,47940.55,51504.73,-465.55,605.27,0.406265,99.93,1
2349658,2,43256,1,48222,52152,47941.11,51506.03,280.89,645.97,0.406419,99.93,1
2349698,2,43296,1,48241,52184,47941.71,51507.39,299.29,676.61,0.406574,99.92,1
2349738,2,43336,1,48250,52127,47942.33,51508.63,307.67,618.37,0.406729,99.92,1
2349778,2,43376,1,48203,51947,47942.86,51509.51,260.14,437.49,0.406885,99.92,1
2349818,2,43416,1,48130,51779,47943.23,51510.05,186.77,268.95,0.407041,99.92,1
2349858,2,43456,1,48076,51696,47943.5,51510.42,132.5,185.58,0.407198,99.91,1
2349898,2,43496,1,48056,51661,47943.72,51510.72,112.28,150.28,0.407354,99.91,1
2349938,2,43536,1,48048,51639,47943.93,51510.98,104.07,128.02,0.407511,99.91,1
2349978,2,43576,1,48037,51634,47944.12,51511.23,92.88,122.77,0.407667,99.9,1
2350018,2,43616,1,48038,51649,47944.31,51511.5,93.69,137.5,0.407823,99.9,1
2350058,2,43656,1,48045,51653,47944.51,51511.79,100.49,141.21,0.407978,99.9,1
2350098,2,43696,1,48039,51635,47944.7,51512.04,94.3,122.96,0.408134,99.89,1
2350139,2,43737,1,48032,51623,47944.88,51512.26,87.12,110.74,0.408289,99.89,1
2350179,2,43777,1,48031,51641,47945.05,51512.52,85.95,128.48,0.408444,99.89,1
2350219,2,43817,1,48037,51666,47945.23,51512.82,91.77,153.18,0.408599,99.89,1
2350259,2,43857,1,48052,51706,47945.45,51513.21,106.55,192.79,0.408754,99.88,1
2350299,2,43897,1,48066,51738,47945.69,51513.66,120.31,224.34,0.408908,99.88,1
2350339,2,43937,1,48084,51769,47945.97,51514.17,138.03,254.83,0.409062,99.88,1
2350379,2,43977,1,48092,51805,47946.26,51514.75,145.74,290.25,0.409216,99.87,1
2350419,2,44017,1,48110,51836,47946.59,51515.4,163.41,320.6,0.40937,99.87,1
2350459,2,44057,1,48121,51866,47946.94,51516.1,174.06,349.9,0.409524,99.87,1
2350499,2,44097,1,48139,51891,47947.33,51516.85,191.67,374.15,0.409678,99.86,1
2350539,2,44137,1,48150,51920,47947.73,51517.66,202.27,402.34,0.409832,99.86,1
2350579,2,44177,1,48162,51950,47948.16,51518.53,213.84,431.47,0.409986,99.86,1
2350619,2,44217,1,48172,51988,47948.61,51519.47,223.39,468.53,0.41014,99.85,1
2350659,2,44257,1,48186,52015,47949.09,51520.46,236.91,494.54,0.410295,99.85,1
2350699,2,44297,1,48201,52049,47949.59,51521.52,251.41,527.48,0.410449,99.85,1
2350739,2,44337,1,48214,52026,47950.12,51522.53,263.87,503.47,0.410604,99.84,1
2350779,2,44377,1,48172,51863,47950.57,51523.21,221.43,339.79,0.410761,99.84,1
2350819,2,44417,1,48094,51671,47950.86,51523.51,143.14,147.49,0.410917,99.84,1
2350859,2,44457,1,48032,51563,47951.02,51523.59,80.98,39.41,0.411074,99.83,1
2350900,2,44498,1,48004,51522,47951.13,51523.59,52.87,-1.59,0.41123,99.83,1
2350940,2,44538,1,47992,51498,47951.21,51523.54,40.79,-25.54,0.411386,99.83,1
2350980,2,44578,1,47980,51493,47951.27,51523.48,28.73,-30.48,0.411541,99.82,1
2351020,2,44618,1,47979,51512,47951.33,51523.46,27.67,-11.46,0.411696,99.82,1
2351060,2,44658,1,47986,51519,47951.4,51523.45,34.6,-4.45,0.411851,99.82,1
2351100,2,44698,1,47992,51512,47951.48,51523.43,40.52,-11.43,0.412005,99.81,1
2351140,2,44738,1,47990,51506,47951.56,51523.39,38.44,-17.39,0.412158,99.81,1
2351180,2,44778,1,47987,51524,47951.63,51523.4,35.37,0.6,0.412312,99.81,1
2351220,2,44818,1,47997,51550,47951.72,51523.45,45.28,26.55,0.412465,99.8,1
2351260,2,44858,1,48017,51585,47951.86,51523.58,65.14,61.42,0.412618,99.8,1
2351300,2,44898,1,48032,51624,47952.02,51523.78,79.98,100.22,0.41277,99.8,1
2351340,2,44938,1,48045,51657,47952.2,51524.05,92.8,132.95,0.412923,99.79,1
2351380,2,44978,1,48059,51689,47952.42,51524.38,106.58,164.62,0.413075,99.79,1
2351420,2,45018,1,48069,51725,47952.65,51524.79,116.35,200.21,0.413227,99.78,1
2351460,2,45058,1,48085,51746,47952.92,51525.23,132.08,220.77,0.41338,99.78,1
2351500,2,45098,1,48093,51773,47953.2,51525.73,139.8,247.27,0.413532,99.78,1
2351540,2,45138,1,48100,51804,47953.49,51526.29,146.51,277.71,0.413684,99.77,1
2351580,2,45178,1,48112,51836,47953.81,51526.91,158.19,309.09,0.413837,99.77,1
2351620,2,45218,1,48126,51868,47954.15,51527.59,171.85,340.41,0.413989,99.77,1
2351661,2,45259,1,48138,51907,47954.52,51528.35,183.48,378.65,0.414142,99.76,1
2351701,2,45299,1,48155,51946,47954.92,51529.19,200.08,416.81,0.414294,99.76,1
2351741,2,45339,1,48163,51926,47955.34,51529.98,207.66,396.02,0.414447,99.76,1
2351781,2,45379,1,48128,51777,47955.69,51530.48,172.31,246.52,0.414601,99.75,1
2351821,2,45419,1,48052,51579,47955.88,51530.58,96.12,48.42,0.414754,99.75,1
2351861,2,45459,1,47990,51504,47955.95,51530.53,34.05,-26.53,0.414908,99.74,1
2351901,2,45499,1,47963,51556,47955.97,51530.58,7.03,25.42,0.415061,99.74,1
2351941,2,45539,1,47949,51411,47955.96,51530.34,-6.96,-119.34,0.415213,99.74,1
2351981,2,45579,1,47944,51407,47955.93,51530.09,-11.93,-123.09,0.415365,99.73,1
2352021,2,45619,1,47950,51417,47955.92,51529.87,-5.92,-112.87,0.415516,99.73,1
2352061,2,45659,1,47959,51852,47955.93,51530.51,3.07,321.49,0.415665,99.73,1
2352101,2,45699,1,47960,51929,47955.94,51531.31,4.06,397.69,0.415812,99.72,1
2352141,2,45739,1,47958,51417,47955.94,51531.08,2.06,-114.08,0.415958,99.72,1
2352181,2,45779,1,47956,51428,47955.94,51530.88,0.06,-102.88,0.416103,99.72,1
2352221,2,45819,1,47965,51453,47955.96,51530.72,9.04,-77.72,0.416248,99.71,1
2352261,2,45859,1,47973,51140,47956,51529.94,17,-389.94,0.416391,99.71,1
2352301,2,45899,1,47986,51063,47956.06,51529.01,29.94,-466.01,0.41653,99.7,1
2352341,2,45939,1,47996,51556,47956.14,51529.06,39.86,26.94,0.416668,99.7,1
2352381,2,45979,1,48010,51589,47956.25,51529.18,53.75,59.82,0.416807,99.7,1
2352422,2,46020,1,48023,51615,47956.38,51529.36,66.62,85.64,0.416945,99.69,1
2352462,2,46060,1,48033,51641,47956.54,51529.58,76.46,111.42,0.417083,99.69,1
2352502,2,46100,1,48044,51675,47956.71,51529.87,87.29,145.12,0.417221,99.69,1
2352542,2,46140,1,48055,51709,47956.91,51530.23,98.09,178.77,0.417359,99.68,1
2352582,2,46180,1,48070,51737,47957.14,51530.65,112.86,206.35,0.417497,99.68,1
2352622,2,46220,1,48092,51775,47957.41,51531.14,134.59,243.86,0.417635,99.68,1
2352662,2,46260,1,48096,51818,47957.69,51531.71,138.31,286.29,0.417773,99.67,1
2352702,2,46300,1,48112,51858,47958,51532.36,154,325.64,0.417911,99.67,1
2352742,2,46340,1,48131,51855,47958.34,51533.01,172.66,321.99,0.41805,99.66,1
2352782,2,46380,1,48435,51697,47959.3,51533.34,475.7,163.66,0.418206,99.66,1
2352822,2,46420,1,48464,51494,47960.31,51533.26,503.69,-39.26,0.418382,99.66,1
2352862,2,46460,1,47960,51369,47960.31,51532.93,-0.31,-163.93,0.418557,99.65,1
2352902,2,46500,1,47924,51321,47960.24,51532.51,-36.24,-211.51,0.418731,99.65,1
2352942,2,46540,1,47912,51305,47960.14,51532.06,-48.14,-227.06,0.418904,99.65,1
2352982,2,46580,1,47727,51290,47959.68,51531.57,-232.68,-241.57,0.41908,99.64,1
2353022,2,46620,1,47587,51306,47958.94,51531.12,-371.94,-225.12,0.419266,99.64,1
2353062,2,46660,1,47910,51316,47958.84,51530.7,-48.84,-214.7,0.419452,99.64,1
2353102,2,46700,1,47906,51310,47958.73,51530.25,-52.73,-220.25,0.419635,99.63,1
2353142,2,46740,1,47904,51301,47958.62,51529.8,-54.63,-228.8,0.419818,99.63,1
2353183,2,46781,1,47171,51307,47957.05,51529.35,-786.05,-222.35,0.420052,99.62,1
2353223,2,46821,1,47909,51336,47956.96,51528.96,-47.96,-192.96,0.420286,99.62,1
2353263,2,46861,1,47924,51382,47956.89,51528.67,-32.89,-146.67,0.420518,99.62,1
2353303,2,46901,1,47938,51422,47956.86,51528.46,-18.86,-106.46,0.420749,99.61,1
2353343,2,46941,1,47954,51454,47956.85,51528.31,-2.85,-74.31,0.420979,99.61,1
2353383,2,46981,1,47973,51496,47956.89,51528.25,16.11,-32.25,0.421209,99.6,1
2353423,2,47021,1,47986,51533,47956.95,51528.26,29.05,4.74,0.421438,99.6,1
2353463,2,47061,1,48003,51565,47957.04,51528.34,45.96,36.66,0.421667,99.6,1
2353503,2,47101,1,48015,51596,47957.16,51528.47,57.84,67.53,0.421895,99.59,1
2353543,2,47141,1,48031,51629,47957.3,51528.68,73.7,100.32,0.422122,99.59,1
2353583,2,47181,1,48047,51659,47957.48,51528.94,89.52,130.06,0.42235,99.58,1
2353623,2,47221,1,48061,51694,47957.69,51529.27,103.31,164.73,0.422577,99.58,1
2353663,2,47261,1,48072,51730,47957.92,51529.67,114.08,200.33,0.422804,99.57,1
2353703,2,47301,1,48091,51765,47958.19,51530.14,132.81,234.86,0.423031,99.57,1
2353743,2,47341,1,48104,51754,47958.48,51530.59,145.52,223.41,0.423258,99.56,1
2353783,2,47381,1,48071,51592,47958.71,51530.72,112.29,61.28,0.423486,99.56,1
2353823,2,47421,1,47984,51377,47958.76,51530.41,25.24,-153.41,0.423712,99.56,1
2353863,2,47461,1,47912,51247,47958.66,51529.85,-46.66,-282.85,0.423936,99.55,1
2353903,2,47501,1,47877,51194,47958.5,51529.18,-81.5,-335.18,0.424158,99.55,1
2353944,2,47542,1,47863,51163,47958.31,51528.45,-95.31,-365.45,0.424377,99.54,1
2353984,2,47582,1,47849,51151,47958.09,51527.69,-109.09,-376.69,0.424594,99.54,1
2354024,2,47622,1,47848,51173,47957.87,51526.98,-109.87,-353.98,0.424809,99.53,1
2354064,2,47662,1,47854,51189,47957.67,51526.31,-103.67,-337.31,0.425021,99.53,1
2354104,2,47702,1,47854,51183,47957.46,51525.62,-103.46,-342.62,0.425232,99.52,1
2354144,2,47742,1,47856,51174,47957.26,51524.92,-101.26,-350.92,0.42544,99.52,1
2354184,2,47782,1,47856,51188,47957.05,51524.25,-101.05,-336.25,0.425646,99.51,1
2354224,2,47822,1,47861,51224,47956.86,51523.65,-95.86,-299.65,0.42585,99.51,1
2354264,2,47862,1,47879,51262,47956.71,51523.13,-77.71,-261.13,0.426053,99.5,1
2354304,2,47902,1,47899,51298,47956.59,51522.68,-57.59,-224.68,0.426254,99.5,1
2354344,2,47942,1,47918,51333,47956.52,51522.3,-38.52,-189.3,0.426454,99.49,1
2354384,2,47982,1,47932,51366,47956.47,51521.99,-24.47,-155.99,0.426653,99.49,1
2354424,2,48022,1,47944,51397,47956.45,51521.74,-12.45,-124.74,0.426851,99.48,1
2354464,2,48062,1,47956,51427,47956.45,51521.55,-0.45,-94.55,0.427049,99.48,1
2354504,2,48102,1,47967,51451,47956.47,51521.41,10.53,-70.41,0.427245,99.47,1
2354544,2,48142,1,47979,51476,47956.52,51521.32,22.48,-45.32,0.427441,99.47,1
2354584,2,48182,1,47990,51508,47956.59,51521.3,33.41,-13.3,0.427637,99.47,1
2354624,2,48222,1,48002,51543,47956.68,51521.34,45.32,21.66,0.427832,99.46,1
2354664,2,48262,1,48017,51577,47956.8,51521.45,60.2,55.55,0.428027,99.46,1
2354705,2,48303,1,48027,51605,47956.94,51521.62,70.06,83.38,0.428222,99.45,1
2354745,2,48343,1,48036,51603,47957.1,51521.79,78.9,81.21,0.428416,99.45,1
2354785,2,48383,1,48006,51452,47957.2,51521.65,48.8,-69.65,0.428611,99.44,1
2354825,2,48423,1,47921,51230,47957.13,51521.07,-36.13,-291.07,0.428802,99.44,1
2354865,2,48463,1,47845,51087,47956.91,51520.2,-111.91,-433.2,0.42899,99.43,1
2354905,2,48503,1,47809,51025,47956.61,51519.21,-147.61,-494.21,0.429174,99.43,1
2354945,2,48543,1,47790,50998,47956.28,51518.17,-166.28,-520.17,0.429353,99.42,1
2354985,2,48583,1,47781,50991,47955.93,51517.11,-174.93,-526.11,0.429529,99.42,1
2355025,2,48623,1,47787,51013,47955.6,51516.11,-168.6,-503.11,0.429701,99.41,1
2355065,2,48663,1,47798,51024,47955.29,51515.12,-157.29,-491.12,0.42987,99.41,1
2355105,2,48703,1,47800,51017,47954.98,51514.12,-154.98,-497.12,0.430035,99.4,1
2355145,2,48743,1,47798,51005,47954.66,51513.11,-156.66,-508.11,0.430195,99.4,1
2355185,2,48783,1,47793,51015,47954.34,51512.11,-161.34,-497.11,0.430352,99.39,1
2355225,2,48823,1,47799,51040,47954.04,51511.17,-155.04,-471.17,0.430506,99.39,1
2355265,2,48863,1,47813,51073,47953.75,51510.3,-140.75,-437.3,0.430658,99.38,1
2355305,2,48903,1,47828,51113,47953.5,51509.5,-125.5,-396.5,0.430806,99.38,1
2355345,2,48943,1,47843,51147,47953.29,51508.78,-110.29,-361.78,0.430953,99.37,1
2355385,2,48983,1,47853,51176,47953.09,51508.12,-100.09,-332.12,0.431097,99.37,1
2355425,2,49023,1,47867,51205,47952.91,51507.51,-85.91,-302.51,0.43124,99.37,1
2355466,2,49064,1,47875,51238,47952.76,51506.97,-77.76,-268.97,0.431381,99.36,1
2355506,2,49104,1,47889,51500,47952.63,51506.96,-63.63,-6.96,0.431522,99.36,1
2355546,2,49144,1,47897,51648,47952.52,51507.25,-55.52,140.75,0.431663,99.35,1
2355586,2,49184,1,47909,51332,47952.44,51506.9,-43.44,-174.9,0.431803,99.35,1
2355626,2,49224,1,47921,51370,47952.37,51506.62,-31.37,-136.62,0.431942,99.34,1
2355666,2,49264,1,47942,51406,47952.36,51506.43,-10.36,-100.43,0.43208,99.34,1
2355706,2,49304,1,47957,51361,47952.37,51506.14,4.63,-145.14,0.432217,99.33,1
2355746,2,49344,1,47960,51170,47952.38,51505.46,7.62,-335.46,0.432351,99.33,1
2355786,2,49384,1,47911,51193,47952.3,51504.84,-41.3,-311.84,0.432481,99.33,1
2355826,2,49424,1,47827,50995,47952.05,51503.82,-125.05,-508.82,0.432607,99.32,1
2355866,2,49464,1,47766,50882,47951.68,51502.58,-185.68,-620.58,0.432726,99.32,1
2355906,2,49504,1,47739,50276,47951.25,51500.12,-212.25,-1224.13,0.432811,99.31,1
2355946,2,49544,1,47722,50814,47950.8,51498.75,-228.8,-684.75,0.432891,99.31,1
2355986,2,49584,1,47715,50818,47950.33,51497.39,-235.33,-679.39,0.432967,99.31,1
2356026,2,49624,1,47720,50841,47949.87,51496.08,-229.87,-655.08,0.43304,99.3,1
2356066,2,49664,1,47731,50853,47949.43,51494.8,-218.43,-641.8,0.433108,99.3,1
2356106,2,49704,1,47730,50840,47948.99,51493.49,-218.99,-653.49,0.433172,99.29,1
2356146,2,49744,1,47720,50843,47948.54,51492.19,-228.54,-649.19,0.433233,99.29,1
2356186,2,49784,1,47724,50862,47948.09,51490.93,-224.09,-628.93,0.433291,99.29,1
2356227,2,49825,1,47841,50897,47947.87,51489.74,-106.87,-592.74,0.433342,99.28,1
2356267,2,49865,1,47943,50935,47947.86,51488.63,-4.86,-553.63,0.433385,99.28,1
2356307,2,49905,1,47764,50979,47947.5,51487.61,-183.5,-508.61,0.433427,99.28,1
2356347,2,49945,1,47775,51019,47947.15,51486.68,-172.15,-467.68,0.433467,99.27,1
2356387,2,49985,1,47795,51056,47946.85,51485.82,-151.85,-429.82,0.433506,99.27,1
2356427,2,50025,1,48347,51087,47947.65,51485.02,399.35,-398.02,0.433563,99.27,1
2356467,2,50065,1,47795,51126,47947.34,51484.3,-152.34,-358.3,0.433619,99.26,1
2356507,2,50105,1,47836,51159,47947.12,51483.66,-111.12,-324.66,0.433675,99.26,1
2356547,2,50145,1,47852,51197,47946.93,51483.09,-94.93,-286.09,0.43373,99.26,1
2356587,2,50185,1,47874,51229,47946.79,51482.58,-72.79,-253.58,0.433784,99.25,1
2356627,2,50225,1,47459,51271,47945.82,51482.16,-486.82,-211.16,0.433869,99.25,1
2356667,2,50265,1,47385,51308,47944.7,51481.81,-559.7,-173.81,0.433997,99.25,1
2356707,2,50305,1,47915,51270,47944.64,51481.39,-29.64,-211.39,0.434124,99.24,1
2356747,2,50345,1,47864,51075,47944.48,51480.57,-80.48,-405.57,0.434246,99.24,1
2356787,2,50385,1,47775,50865,47944.14,51479.34,-169.14,-614.34,0.434362,99.24,1
2356827,2,50425,1,47701,50749,47943.66,51477.88,-242.66,-728.88,0.434472,99.24,1
2356867,2,50465,1,47670,50702,47943.11,51476.33,-273.11,-774.33,0.434575,99.23,1
2356907,2,50505,1,47649,50667,47942.52,51474.71,-293.52,-807.71,0.434673,99.23,1
2356947,2,50545,1,47638,50668,47941.91,51473.1,-303.91,-805.1,0.434767,99.23,1
2356988,2,50586,1,47644,50701,47941.32,51471.56,-297.32,-770.56,0.434857,99.22,1
2357028,2,50626,1,47652,50716,47940.74,51470.05,-288.74,-754.05,0.434944,99.22,1
2357068,2,50666,1,47651,50710,47940.16,51468.53,-289.16,-758.53,0.435028,99.22,1
2357108,2,50706,1,47645,50719,47939.57,51467.03,-294.57,-748.03,0.435109,99.21,1
2357148,2,50746,1,47649,50745,47939,51465.59,-290,-720.59,0.435188,99.21,1
2357188,2,50786,1,47667,50787,47938.45,51464.23,-271.45,-677.23,0.435266,99.21,1
2357228,2,50826,1,47684,50834,47937.95,51462.98,-253.95,-628.98,0.435342,99.21,1
2357268,2,50866,1,47702,50883,47937.48,51461.82,-235.48,-578.82,0.435418,99.2,1
2357308,2,50906,1,47724,50933,47937.05,51460.76,-213.05,-527.76,0.435492,99.2,1
2357348,2,50946,1,47744,50971,47936.66,51459.79,-192.66,-488.79,0.435565,99.2,1
2357388,2,50986,1,47765,51007,47936.32,51458.88,-171.32,-451.88,0.435637,99.2,1
2357428,2,51026,1,47783,51044,47936.02,51458.05,-153.02,-414.05,0.435708,99.19,1
2357468,2,51066,1,47798,51085,47935.74,51457.31,-137.74,-372.31,0.435777,99.19,1
2357508,2,51106,1,47805,51125,47935.48,51456.64,-130.48,-331.64,0.435846,99.19,1
2357548,2,51146,1,47825,51162,47935.26,51456.05,-110.26,-294.05,0.435915,99.19,1
2357588,2,51186,1,47842,51206,47935.08,51455.55,-93.08,-249.55,0.435982,99.18,1
2357628,2,51226,1,47857,51252,47934.92,51455.15,-77.92,-203.15,0.43605,99.18,1
2357668,2,51266,1,47875,51280,47934.8,51454.8,-59.8,-174.8,0.436116,99.18,1
2357708,2,51306,1,47864,51180,47934.66,51454.25,-70.66,-274.25,0.436182,99.18,1
2357749,2,51347,1,47795,50974,47934.39,51453.29,-139.39,-479.29,0.436244,99.17,1
2357789,2,51387,1,47713,50837,47933.95,51452.06,-220.95,-615.06,0.436303,99.17,1
2357829,2,51427,1,47673,50782,47933.43,51450.72,-260.43,-668.72,0.436361,99.17,1
2357869,2,51467,1,47656,50765,47932.87,51449.35,-276.87,-684.35,0.436417,99.17,1
2357909,2,51507,1,47645,50754,47932.3,51447.96,-287.3,-693.96,0.436472,99.16,1
2357949,2,51547,1,47649,50792,47931.73,51446.65,-282.73,-654.65,0.436528,99.16,1
2357989,2,51587,1,47668,50834,47931.2,51445.43,-263.2,-611.43,0.436584,99.16,1
2358029,2,51627,1,47683,50861,47930.71,51444.26,-247.71,-583.26,0.436639,99.16,1
2358069,2,51667,1,47687,50874,47930.22,51443.12,-243.22,-569.12,0.436695,99.15,1
2358109,2,51707,1,47694,50903,47929.75,51442.04,-235.75,-539.04,0.436751,99.15,1
2358149,2,51747,1,47711,50950,47929.31,51441.05,-218.31,-491.05,0.436807,99.15,1
2358189,2,51787,1,47736,51002,47928.93,51440.18,-192.93,-438.18,0.436863,99.15,1
2358229,2,51827,1,47752,51056,47928.57,51439.41,-176.57,-383.41,0.43692,99.15,1
2358269,2,51867,1,47774,51109,47928.27,51438.75,-154.27,-329.75,0.436977,99.14,1
2358309,2,51907,1,47793,51160,47928,51438.2,-135,-278.2,0.437034,99.14,1
2358349,2,51947,1,47815,51209,47927.77,51437.74,-112.77,-228.74,0.437092,99.14,1
2358389,2,51987,1,47833,51258,47927.58,51437.38,-94.58,-179.38,0.43715,99.14,1
2358429,2,52027,1,47852,51307,47927.43,51437.12,-75.43,-130.12,0.437209,99.14,1
2358469,2,52067,1,47872,51355,47927.32,51436.96,-55.32,-81.96,0.437267,99.13,1
2358509,2,52107,1,47889,51408,47927.25,51436.91,-38.25,-28.91,0.437325,99.13,1
2358550,2,52148,1,47912,51457,47927.22,51436.95,-15.22,20.05,0.437383,99.13,1
2358590,2,52188,1,47932,51516,47927.23,51437.11,4.77,78.89,0.437441,99.13,1
2358630,2,52228,1,47955,51581,47927.29,51437.4,27.71,143.6,0.437498,99.13,1
2358670,2,52268,1,47975,51583,47927.39,51437.69,47.61,145.31,0.437555,99.12,1
2358710,2,52308,1,47943,51457,47927.42,51437.73,15.58,19.27,0.437612,99.12,1
2358750,2,52348,1,47881,51316,47927.33,51437.49,-46.33,-121.49,0.437669,99.12,1
2358790,2,52388,1,47835,51264,47927.15,51437.14,-92.15,-173.14,0.437725,99.12,1
2358830,2,52428,1,47819,51246,47926.93,51436.76,-107.93,-190.76,0.437783,99.12,1
2358870,2,52468,1,47814,51238,47926.71,51436.37,-112.71,-198.37,0.437841,99.11,1
2358910,2,52508,1,47811,51244,47926.48,51435.98,-115.48,-191.98,0.4379,99.11,1
2358950,2,52548,1,47826,51318,47926.28,51435.75,-100.28,-117.75,0.437959,99.11,1
2358990,2,52588,1,47838,51320,47926.1,51435.52,-88.1,-115.52,0.43802,99.11,1
2359030,2,52628,1,47851,51340,47925.95,51435.33,-74.95,-95.33,0.438081,99.11,1
2359070,2,52668,1,47851,51360,47925.8,51435.18,-74.8,-75.18,0.438142,99.11,1
2359110,2,52708,1,47866,51705,47925.69,51435.72,-59.69,269.28,0.438202,99.1,1
2359150,2,52748,1,47882,51883,47925.6,51436.61,-43.6,446.39,0.438256,99.1,1
2359190,2,52788,1,47902,51501,47925.55,51436.74,-23.55,64.26,0.43831,99.1,1
2359230,2,52828,1,47923,51551,47925.55,51436.97,-2.55,114.03,0.438363,99.1,1
2359271,2,52869,1,47939,51605,47925.58,51437.31,13.42,167.69,0.438416,99.1,1
2359311,2,52909,1,47960,51446,47925.65,51437.33,34.35,8.67,0.438468,99.09,1
2359351,2,52949,1,47980,51327,47925.76,51437.11,54.24,-110.11,0.438521,99.09,1
2359391,2,52989,1,47996,51764,47925.9,51437.77,70.1,326.23,0.43857,99.09,1
2359431,2,53029,1,48015,51817,47926.08,51438.53,88.92,378.47,0.438617,99.09,1
2359471,2,53069,1,48036,51866,47926.3,51439.38,109.7,426.62,0.43866,99.09,1
2359511,2,53109,1,48062,51926,47926.57,51440.36,135.43,485.64,0.438699,99.09,1
2359551,2,53149,1,48083,51983,47926.89,51441.44,156.11,541.56,0.438732,99.08,1
2359591,2,53189,1,48107,52041,47927.25,51442.64,179.75,598.36,0.438761,99.08,1
2359631,2,53229,1,48134,52094,47927.66,51443.95,206.34,650.05,0.438784,99.08,1
2359671,2,53269,1,48148,52089,47928.11,51445.24,219.89,643.76,0.438803,99.08,1
2359711,2,53309,1,48116,51983,47928.48,51446.32,187.52,536.68,0.438819,99.08,1
2359751,2,53349,1,48062,51884,47928.75,51447.19,133.25,436.81,0.438833,99.08,1
2359791,2,53389,1,48029,51845,47928.96,51447.99,100.04,397.01,0.438844,99.08,1
2359831,2,53429,1,48273,51838,47929.64,51448.77,343.36,389.23,0.438871,99.07,1
2359871,2,53469,1,48359,51831,47930.5,51449.54,428.5,381.46,0.438924,99.07,1
2359911,2,53509,1,48008,51848,47930.66,51450.33,77.34,397.67,0.438974,99.07,1
2359951,2,53549,1,48021,51883,47930.84,51451.2,90.16,431.8,0.439019,99.07,1
2359991,2,53589,1,48033,51908,47931.05,51452.11,101.95,455.89,0.43906,99.07,1
2360032,2,53630,1,47924,51913,47931.04,51453.04,-7.04,459.96,0.439094,99.07,1
2360072,2,53670,1,47803,51935,47930.79,51454,-127.79,481,0.439124,99.07,1
2360112,2,53710,1,48047,51976,47931.02,51455.05,115.98,520.95,0.439147,99.06,1
2360152,2,53750,1,48065,52013,47931.29,51456.16,133.71,556.84,0.439165,99.06,1
2360192,2,53790,1,48083,52060,47931.59,51457.37,151.41,602.62,0.439176,99.06,1
2360232,2,53830,1,47403,52106,47930.54,51458.67,-527.54,647.33,0.439221,99.06,1
2360272,2,53870,1,48115,52154,47930.91,51460.06,184.09,693.94,0.439258,99.06,1
2360312,2,53910,1,48134,52202,47931.32,51461.55,202.68,740.45,0.439286,99.06,1
2360352,2,53950,1,48152,52241,47931.76,51463.11,220.24,777.89,0.439304,99.06,1
2360392,2,53990,1,48175,52282,47932.25,51464.75,242.75,817.25,0.439313,99.06,1
2360432,2,54030,1,48190,52326,47932.76,51466.47,257.24,859.53,0.439313,99.05,1
2360472,2,54070,1,48204,52371,47933.3,51468.28,270.7,902.72,0.439303,99.05,1
2360512,2,54110,1,48224,52411,47933.89,51470.16,290.11,940.84,0.439284,99.05,1
2360552,2,54150,1,48241,52452,47934.5,51472.13,306.5,979.87,0.439255,99.05,1
2360592,2,54190,1,48253,52492,47935.14,51474.17,317.86,1017.83,0.439217,99.05,1
2360632,2,54230,1,48271,52540,47935.81,51476.3,335.19,1063.7,0.439169,99.05,1
2360672,2,54270,1,48283,52548,47936.51,51478.45,346.49,1069.55,0.439113,99.05,1
2360712,2,54310,1,48263,52463,47937.16,51480.42,325.84,982.58,0.439052,99.05,1
2360753,2,54351,1,48214,52369,47937.71,51482.2,276.29,886.8,0.438985,99.05,1
2360793,2,54391,1,48182,52330,47938.2,51483.89,243.8,846.11,0.438912,99.05,1
2360833,2,54431,1,48169,52326,47938.66,51485.58,230.34,840.42,0.438832,99.05,1
2360873,2,54471,1,48166,52321,47939.12,51487.25,226.88,833.75,0.438745,99.05,1
2360913,2,54511,1,48165,52322,47939.57,51488.92,225.43,833.08,0.438652,99.05,1
2360953,2,54551,1,48174,52352,47940.04,51490.65,233.96,861.35,0.438553,99.04,1
2360993,2,54591,1,48180,52380,47940.52,51492.43,239.48,887.57,0.438446,99.04,1
2361033,2,54631,1,48186,52385,47941.02,51494.21,244.98,890.79,0.438333,99.04,1
2361073,2,54671,1,48189,52392,47941.51,51496.01,247.49,895.99,0.438214,99.04,1
2361113,2,54711,1,48197,52414,47942.02,51497.85,254.98,916.15,0.438089,99.04,1
2361153,2,54751,1,48207,52441,47942.55,51499.73,264.45,941.27,0.437958,99.04,1
2361193,2,54791,1,48218,52473,47943.11,51501.68,274.89,971.32,0.437821,99.05,1
2361233,2,54831,1,48228,52507,47943.68,51503.7,284.32,1003.3,0.437678,99.05,1
2361273,2,54871,1,48247,52533,47944.29,51505.75,302.71,1027.25,0.437529,99.05,1
2361313,2,54911,1,48253,52565,47944.9,51507.87,308.1,1057.13,0.437375,99.05,1
2361353,2,54951,1,48263,52598,47945.54,51510.05,317.46,1087.95,0.437215,99.05,1
2361393,2,54991,1,48275,52627,47946.2,51512.29,328.8,1114.71,0.43705,99.05,1
2361433,2,55031,1,48288,52654,47946.88,51514.57,341.12,1139.43,0.43688,99.05,1
2361474,2,55072,1,48298,52683,47947.59,51516.91,350.41,1166.09,0.436705,99.05,1
2361514,2,55112,1,48306,52720,47948.3,51519.32,357.7,1200.68,0.436525,99.05,1
2361554,2,55152,1,48321,52755,47949.05,51521.79,371.95,1233.21,0.436341,99.05,1
2361594,2,55192,1,48333,52790,47949.82,51524.33,383.18,1265.67,0.436152,99.05,1
2361634,2,55232,1,48352,52828,47950.62,51526.94,401.37,1301.06,0.435959,99.06,1
2361674,2,55272,1,48364,52851,47951.45,51529.59,412.55,1321.41,0.435763,99.06,1
2361714,2,55312,1,48353,52782,47952.26,51532.1,400.74,1249.9,0.435565,99.06,1
2361754,2,55352,1,48305,52684,47952.96,51534.4,352.04,1149.6,0.435365,99.06,1
2361794,2,55392,1,48277,52630,47953.61,51536.59,323.39,1093.41,0.435161,99.06,1
2361834,2,55432,1,48265,52615,47954.24,51538.75,310.76,1076.25,0.434955,99.06,1
2361874,2,55472,1,48259,52610,47954.85,51540.89,304.15,1069.11,0.434746,99.07,1
2361914,2,55512,1,48256,52604,47955.45,51543.02,300.55,1060.98,0.434533,99.07,1
2361954,2,55552,1,48253,52611,47956.05,51545.16,296.95,1065.84,0.434318,99.07,1
2361994,2,55592,1,48261,52626,47956.66,51547.32,304.34,1078.68,0.434099,99.07,1
2362034,2,55632,1,48258,52619,47957.27,51549.47,300.73,1069.53,0.433878,99.07,1
2362074,2,55672,1,48255,52620,47957.86,51551.61,297.14,1068.39,0.433654,99.08,1
2362114,2,55712,1,48252,52624,47958.45,51553.75,293.55,1070.25,0.433427,99.08,1
2362154,2,55752,1,48255,52639,47959.05,51555.93,295.95,1083.07,0.433196,99.08,1
2362195,2,55793,1,48259,52666,47959.65,51558.15,299.35,1107.85,0.432963,99.09,1
2362235,2,55833,1,48273,52689,47960.28,51560.41,312.72,1128.59,0.432726,99.09,1
2362275,2,55873,1,48276,52721,47960.91,51562.73,315.09,1158.27,0.432487,99.09,1
2362315,2,55913,1,48286,52749,47961.56,51565.11,324.44,1183.89,0.432244,99.09,1
2362355,2,55953,1,48301,52816,47962.24,51567.61,338.76,1248.39,0.431998,99.1,1
2362395,2,55993,1,48311,52949,47962.94,51570.38,348.06,1378.62,0.431746,99.1,1
2362435,2,56033,1,48318,52829,47963.65,51572.9,354.35,1256.1,0.431491,99.1,1
2362475,2,56073,1,48331,52855,47964.39,51575.46,366.61,1279.54,0.431234,99.11,1
2362515,2,56113,1,48347,52881,47965.15,51578.08,381.85,1302.92,0.430976,99.11,1
2362555,2,56153,1,48359,53379,47965.94,51581.68,393.06,1797.32,0.430705,99.11,1
2362595,2,56193,1,48375,52933,47966.76,51584.38,408.24,1348.62,0.430434,99.12,1
2362635,2,56233,1,48384,52974,47967.6,51587.16,416.4,1386.84,0.430162,99.12,1
2362675,2,56273,1,48391,52967,47968.45,51589.93,422.55,1377.07,0.42989,99.13,1
2362715,2,56313,1,48368,52864,47969.25,51592.48,398.75,1271.52,0.429619,99.13,1
2362755,2,56353,1,48315,52323,47969.94,51593.94,345.06,729.06,0.429353,99.13,1
2362795,2,56393,1,48281,52124,47970.56,51595,310.44,529,0.429093,99.14,1
2362835,2,56433,1,48267,52700,47971.16,51597.21,295.84,1102.79,0.428832,99.14,1
2362875,2,56473,1,48257,52685,47971.73,51599.39,285.27,1085.61,0.428568,99.15,1
2362916,2,56514,1,48250,52671,47972.29,51601.53,277.71,1069.47,0.428303,99.15,1
2362956,2,56554,1,48247,52674,47972.84,51603.68,274.16,1070.32,0.428035,99.16,1
2362996,2,56594,1,48251,52695,47973.4,51605.86,277.6,1089.14,0.427766,99.16,1
2363036,2,56634,1,48250,52684,47973.95,51608.02,276.05,1075.98,0.427494,99.16,1
2363076,2,56674,1,48247,52679,47974.5,51610.16,272.5,1068.84,0.427221,99.17,1
2363116,2,56714,1,48307,52687,47975.17,51612.32,331.83,1074.68,0.426949,99.17,1
2363156,2,56754,1,48254,52712,47975.73,51614.52,278.27,1097.48,0.426674,99.18,1
2363196,2,56794,1,48264,52737,47976.3,51616.76,287.7,1120.24,0.426398,99.18,1
2363236,2,56834,1,48277,52766,47976.91,51619.06,300.09,1146.94,0.42612,99.19,1
2363276,2,56874,1,48659,52783,47978.27,51621.39,680.73,1161.61,0.425866,99.19,1
2363316,2,56914,1,48759,52811,47979.84,51623.77,779.16,1187.23,0.425642,99.2,1
2363356,2,56954,1,48308,52832,47980.49,51626.19,327.51,1205.81,0.425417,99.2,1
2363396,2,56994,1,48315,52858,47981.16,51628.65,333.84,1229.35,0.425189,99.21,1
2363436,2,57034,1,48324,52878,47981.85,51631.15,342.15,1246.85,0.424959,99.21,1
2363476,2,57074,1,48069,52892,47982.03,51633.68,86.97,1258.32,0.424719,99.22,1
2363516,2,57114,1,47969,52915,47982,51636.24,-13,1278.76,0.42447,99.22,1
2363556,2,57154,1,48346,52947,47982.73,51638.86,363.27,1308.14,0.424219,99.23,1
2363596,2,57194,1,48359,52970,47983.49,51641.52,375.51,1328.48,0.423966,99.23,1
2363637,2,57235,1,48367,52992,47984.26,51644.23,382.74,1347.77,0.423712,99.24,1
2363677,2,57275,1,48363,52947,47985.02,51646.83,377.98,1300.17,0.423458,99.24,1
2363717,2,57315,1,48322,52821,47985.69,51649.18,336.31,1171.82,0.423202,99.25,1
2363757,2,57355,1,48264,52727,47986.25,51651.34,277.75,1075.66,0.422946,99.26,1
2363797,2,57395,1,48238,52686,47986.75,51653.41,251.25,1032.59,0.422687,99.26,1
2363837,2,57435,1,48230,52666,47987.24,51655.44,242.76,1010.56,0.422427,99.27,1
2363877,2,57475,1,48221,52647,47987.71,51657.42,233.29,989.58,0.422165,99.27,1
2363917,2,57515,1,48212,52645,47988.16,51659.4,223.84,985.6,0.421902,99.28,1
2363957,2,57555,1,48217,52653,47988.62,51661.39,228.38,991.61,0.421636,99.28,1
2363997,2,57595,1,48221,52654,47989.08,51663.37,231.92,990.62,0.421369,99.29,1
2364037,2,57635,1,48214,52632,47989.53,51665.31,224.47,966.69,0.421101,99.29,1
2364077,2,57675,1,48210,52629,47989.97,51667.24,220.03,961.76,0.420831,99.3,1
2364117,2,57715,1,48211,52637,47990.41,51669.18,220.59,967.82,0.420559,99.3,1
2364157,2,57755,1,48215,52654,47990.86,51671.16,224.14,982.84,0.420285,99.31,1
2364197,2,57795,1,48222,52675,47991.33,51673.16,230.67,1001.84,0.42001,99.32,1
2364237,2,57835,1,48231,52685,47991.81,51675.19,239.19,1009.81,0.419734,99.32,1
2364277,2,57875,1,48236,52710,47992.3,51677.26,243.7,1032.74,0.419456,99.33,1
2364317,2,57915,1,48245,52726,47992.8,51679.36,252.2,1046.64,0.419176,99.33,1
2364357,2,57955,1,48246,52743,47993.31,51681.48,252.69,1061.52,0.418895,99.34,1
2364398,2,57996,1,48259,52758,47993.84,51683.64,265.16,1074.36,0.418613,99.34,1
2364438,2,58036,1,48263,52778,47994.38,51685.83,268.62,1092.17,0.418329,99.35,1
2364478,2,58076,1,48269,52797,47994.93,51688.05,274.07,1108.95,0.418044,99.36,1
2364518,2,58116,1,48277,52825,47995.5,51690.33,281.5,1134.67,0.417757,99.36,1
2364558,2,58156,1,48289,52851,47996.09,51692.65,292.91,1158.35,0.41747,99.37,1
2364598,2,58196,1,48302,52872,47996.7,51695.01,305.3,1176.99,0.417181,99.37,1
2364638,2,58236,1,48295,52818,47997.3,51697.26,297.7,1120.74,0.416892,99.38,1
2364678,2,58276,1,48250,52682,47997.81,51699.23,252.19,982.77,0.416603,99.39,1
2364718,2,58316,1,48195,52579,47998.2,51700.99,196.8,878.01,0.416312,99.39,1
2364758,2,58356,1,48173,52528,47998.55,51702.65,174.45,825.35,0.416021,99.4,1
2364798,2,58396,1,48160,52503,47998.88,51704.25,161.12,798.75,0.415729,99.41,1
2364838,2,58436,1,48145,52480,47999.17,51705.8,145.83,774.2,0.415435,99.41,1
2364878,2,58476,1,48137,52474,47999.45,51707.34,137.55,766.66,0.415141,99.42,1
2364918,2,58516,1,48142,52478,47999.73,51708.89,142.27,769.11,0.414845,99.42,1
2364958,2,58556,1,48140,52465,48000.02,51710.4,139.98,754.6,0.414549,99.43,1
2364998,2,58596,1,48127,52445,48000.27,51711.87,126.73,733.13,0.414252,99.44,1
2365038,2,58636,1,48124,52438,48000.52,51713.32,123.48,724.68,0.413953,99.44,1
2365079,2,58677,1,48126,52450,48000.77,51714.8,125.23,735.2,0.413654,99.45,1
2365119,2,58717,1,48135,52469,48001.04,51716.3,133.96,752.7,0.413354,99.46,1
2365159,2,58757,1,48136,52497,48001.31,51717.87,134.69,779.13,0.413052,99.46,1
2365199,2,58797,1,48151,52516,48001.61,51719.46,149.39,796.54,0.412749,99.47,1
2365239,2,58837,1,48162,52541,48001.93,51721.11,160.07,819.89,0.412446,99.48,1
2365279,2,58877,1,48169,52567,48002.27,51722.8,166.73,844.2,0.412141,99.48,1
2365319,2,58917,1,48177,52588,48002.62,51724.53,174.38,863.47,0.411835,99.49,1
2365359,2,58957,1,48193,52611,48003,51726.3,190,884.7,0.411528,99.5,1
2365399,2,58997,1,48206,52624,48003.41,51728.1,202.59,895.9,0.41122,99.5,1
2365439,2,59037,1,48214,52655,48003.83,51729.96,210.17,925.04,0.410912,99.51,1
2365479,2,59077,1,48225,52683,48004.28,51731.86,220.72,951.14,0.410603,99.52,1
2365519,2,59117,1,48237,52709,48004.74,51733.82,232.26,975.18,0.410293,99.52,1
2365559,2,59157,1,48244,52696,48005.22,51735.75,238.78,960.25,0.409983,99.53,1
2365599,2,59197,1,48216,52577,48005.64,51737.43,210.36,839.57,0.409673,99.54,1
2365639,2,59237,1,48153,52447,48005.94,51738.85,147.06,708.15,0.409363,99.54,1
2365679,2,59277,1,48106,52366,48006.14,51740.11,99.86,625.89,0.409052,99.55,1
2365720,2,59318,1,48085,52334,48006.3,51741.29,78.7,592.71,0.408741,99.56,1
2365760,2,59358,1,48071,52504,48006.43,51742.82,64.57,761.18,0.408427,99.56,1
2365800,2,59398,1,48062,52592,48006.55,51744.52,55.45,847.48,0.408111,99.57,1
2365840,2,59438,1,48057,52294,48006.65,51745.62,50.35,548.38,0.407795,99.58,1
2365880,2,59478,1,48055,52293,48006.75,51746.72,48.25,546.28,0.407478,99.59,1
2365920,2,59518,1,48058,52280,48006.85,51747.79,51.15,532.21,0.407161,99.59,1
2365960,2,59558,1,48053,52201,48006.95,51748.69,46.05,452.31,0.406843,99.6,1
2366000,2,59598,1,48051,52069,48007.04,51749.33,43.96,319.67,0.406526,99.61,1
2366040,2,59638,1,48062,52303,48007.14,51750.44,54.86,552.56,0.406209,99.61,1
2366080,2,59678,1,48076,52329,48007.29,51751.6,68.71,577.4,0.405891,99.62,1
2366120,2,59718,1,48090,52349,48007.45,51752.8,82.55,596.2,0.405573,99.63,1
2366160,2,59758,1,48099,51735,48007.64,51752.76,91.36,-17.76,0.405256,99.64,1
2366200,2,59798,1,48106,52391,48007.84,51754.04,98.16,636.96,0.404938,99.64,1
2366240,2,59838,1,48117,52414,48008.05,51755.36,108.95,658.64,0.40462,99.65,1
2366280,2,59878,1,48123,52429,48008.29,51756.71,114.71,672.29,0.404301,99.66,1
2366320,2,59918,1,48129,52451,48008.53,51758.1,120.47,692.9,0.403981,99.66,1
2366360,2,59958,1,48141,52475,48008.79,51759.53,132.21,715.47,0.403661,99.67,1
2366400,2,59998,2,48151,52505,48009.08,51761.02,141.92,743.98,0.40334,99.68,1
2366441,2,60039,2,48162,52520,48009.39,51762.54,152.61,757.46,0.403019,99.69,1
2366481,2,60079,2,48314,52449,48010,51763.92,304,685.08,0.402703,99.69,1
2366521,2,60119,2,48359,52311,48010.7,51765.01,348.3,545.99,0.402395,99.7,1
2366561,2,60159,2,48044,52209,48010.76,51765.9,33.24,443.1,0.402087,99.71,1
2366601,2,60199,2,48013,52153,48010.77,51766.68,2.23,386.32,0.40178,99.72,1
2366641,2,60239,2,47996,52119,48010.74,51767.39,-14.74,351.61,0.401472,99.72,1
2366681,2,60279,2,47923,52094,48010.56,51768.04,-87.56,325.96,0.401165,99.73,1
2366721,2,60319,2,47787,52093,48010.12,51768.7,-223.12,324.3,0.400863,99.74,1
2366761,2,60359,2,47987,52106,48010.07,51769.37,-23.07,336.63,0.400561,99.75,1
2366801,2,60399,2,47988,52092,48010.03,51770.02,-22.03,321.98,0.400259,99.75,1
2366841,2,60439,2,47978,52083,48009.96,51770.65,-31.96,312.35,0.399958,99.76,1
2366881,2,60479,2,47329,52087,48008.61,51771.28,-679.61,315.72,0.399694,99.77,1
2366921,2,60519,2,47982,52096,48008.55,51771.93,-26.55,324.07,0.39943,99.77,1
2366961,2,60559,2,47990,52118,48008.52,51772.63,-18.52,345.37,0.399167,99.78,1
2367001,2,60599,2,47997,52145,48008.5,51773.37,-11.5,371.62,0.398903,99.79,1
2367041,2,60639,2,48004,52167,48008.49,51774.16,-4.49,392.84,0.398639,99.79,1
2367082,2,60680,2,48013,52192,48008.5,51775,4.5,417,0.398375,99.8,1
2367122,2,60720,2,48025,52209,48008.54,51775.87,16.46,433.13,0.39811,99.81,1
2367162,2,60760,2,48033,52235,48008.59,51776.79,24.41,458.21,0.397845,99.81,1
2367202,2,60800,2,48039,52259,48008.65,51777.75,30.35,481.25,0.397579,99.82,1
2367242,2,60840,2,48056,52287,48008.75,51778.77,47.25,508.23,0.397312,99.82,1
2367282,2,60880,2,48071,52317,48008.87,51779.85,62.13,537.15,0.397044,99.83,1
2367322,2,60920,2,48080,52339,48009.02,51780.97,70.98,558.03,0.396775,99.83,1
2367362,2,60960,2,48067,52253,48009.13,51781.92,57.87,471.08,0.396506,99.84,1
2367402,2,61000,2,48018,52106,48009.15,51782.57,8.85,323.43,0.396237,99.84,1
2367442,2,61040,2,47963,52008,48009.06,51783.02,-46.06,224.98,0.395969,99.85,1
2367482,2,61080,2,47940,51952,48008.93,51783.36,-68.93,168.64,0.395701,99.85,1
2367522,2,61120,2,47917,51912,48008.74,51783.62,-91.74,128.38,0.395435,99.86,1
2367562,2,61160,2,47898,51882,48008.52,51783.82,-110.52,98.18,0.395171,99.86,1
2367602,2,61200,2,47897,51893,48008.3,51784.04,-111.3,108.96,0.394909,99.87,1
2367642,2,61240,2,47902,51903,48008.09,51784.27,-106.09,118.73,0.394648,99.87,1
2367682,2,61280,2,47898,51895,48007.87,51784.5,-109.87,110.5,0.394389,99.87,1
2367722,2,61320,2,47890,51888,48007.64,51784.7,-117.64,103.3,0.394133,99.88,1
2367762,2,61360,2,47894,51902,48007.41,51784.94,-113.41,117.06,0.393878,99.88,1
2367803,2,61401,2,47904,51924,48007.2,51785.22,-103.2,138.78,0.393625,99.88,1
2367843,2,61441,2,47916,51954,48007.02,51785.56,-91.02,168.44,0.393373,99.89,1
2367883,2,61481,2,47926,51995,48006.86,51785.98,-80.86,209.02,0.393122,99.89,1
2367923,2,61521,2,47941,52032,48006.73,51786.47,-65.73,245.53,0.392872,99.89,1
2367963,2,61561,2,47960,52063,48006.64,51787.03,-46.64,275.97,0.392622,99.9,1
2368003,2,61601,2,47977,52104,48006.58,51787.66,-29.58,316.34,0.392373,99.9,1
2368043,2,61641,2,47990,52141,48006.55,51788.37,-16.55,352.63,0.392123,99.9,1
2368083,2,61681,2,48007,52179,48006.55,51789.15,0.45,389.85,0.391872,99.91,1
2368123,2,61721,2,48029,52218,48006.6,51790.01,22.4,427.99,0.391621,99.91,1
