t_ms,trial_id,t_trial_ms,phase,red_raw,ir_raw,red_dc,ir_dc,red_ac,ir_ac,R,spo2,spo2_valid
1204424,1,0,0,50807,52197,51410.71,53462.82,-603.71,-1265.82,0.376078,100.00,1
1204464,1,40,0,50846,52279,51409.58,53460.45,-563.58,-1181.45,0.376351,100.00,1
1204504,1,80,0,50883,52357,51408.53,53458.25,-525.53,-1101.25,0.376624,100.00,1
1204544,1,120,0,50924,52431,51407.56,53456.19,-483.56,-1025.19,0.376897,100.00,1
1204584,1,160,0,50954,52511,51406.66,53454.30,-452.66,-943.30,0.377171,100.00,1
1204624,1,200,0,50985,52584,51405.81,53452.56,-420.81,-868.56,0.377445,100.00,1
1204664,1,240,0,51012,52630,51405.03,53450.92,-393.03,-820.92,0.377718,100.00,1
1204704,1,280,0,51034,52672,51404.29,53449.36,-370.29,-777.36,0.377992,100.00,1
1204744,1,320,0,51049,52714,51403.57,53447.89,-354.57,-733.89,0.378265,100.00,1
1204784,1,360,0,51049,52609,51402.87,53446.22,-353.87,-837.22,0.378537,100.00,1
1204824,1,400,0,50944,52283,51401.95,53443.89,-457.95,-1160.89,0.378805,100.00,1
1204865,1,441,0,50788,52003,51400.72,53441.02,-612.72,-1438.02,0.379070,100.00,1
1204905,1,481,0,50709,51927,51399.34,53437.99,-690.34,-1510.99,0.379335,100.00,1
1204945,1,521,0,50698,51963,51397.94,53435.04,-699.94,-1472.04,0.379602,100.00,1
1204985,1,561,0,50729,52025,51396.60,53432.22,-667.60,-1407.22,0.379869,100.00,1
1205025,1,601,0,50764,52109,51395.34,53429.57,-631.34,-1320.57,0.380138,100.00,1
1205065,1,641,0,50804,52193,51394.16,53427.10,-590.16,-1234.10,0.380406,100.00,1
1205105,1,681,0,50827,52225,51393.02,53424.70,-566.02,-1199.70,0.380676,100.00,1
1205145,1,721,0,50836,52233,51391.91,53422.32,-555.91,-1189.32,0.380945,100.00,1
1205185,1,761,0,50844,52245,51390.82,53419.96,-546.82,-1174.96,0.381214,100.00,1
1205225,1,801,0,50858,52283,51389.75,53417.69,-531.75,-1134.69,0.381482,100.00,1
1205265,1,841,0,50880,52344,51388.73,53415.55,-508.73,-1071.55,0.381751,100.00,1
1205305,1,881,0,50911,52414,51387.78,53413.55,-476.78,-999.55,0.382020,100.00,1
1205345,1,921,0,50938,52482,51386.88,53411.68,-448.88,-929.68,0.382289,100.00,1
1205385,1,961,0,50968,52539,51386.05,53409.94,-418.05,-870.94,0.382558,100.00,1
1205425,1,1001,0,50990,52589,51385.26,53408.30,-395.26,-819.30,0.382827,100.00,1
1205465,1,1041,0,51006,52614,51384.50,53406.71,-378.50,-792.71,0.383095,100.00,1
1205505,1,1081,0,51015,52627,51383.76,53405.16,-368.76,-778.16,0.383363,100.00,1
1205546,1,1122,0,51022,52632,51383.04,53403.61,-361.04,-771.61,0.383630,100.00,1
1205586,1,1162,0,50986,52430,51382.25,53401.66,-396.25,-971.66,0.383895,100.00,1
1205626,1,1202,0,50843,52071,51381.17,53399.00,-538.17,-1328.00,0.384157,100.00,1
1205666,1,1242,0,50693,51824,51379.79,53395.86,-686.79,-1571.86,0.384416,100.00,1
1205706,1,1282,0,50639,51784,51378.31,53392.63,-739.31,-1608.63,0.384675,100.00,1
1205746,1,1322,0,50649,51839,51376.86,53389.53,-727.86,-1550.53,0.384935,100.00,1
1205786,1,1362,0,50680,51923,51375.46,53386.59,-695.46,-1463.59,0.385195,100.00,1
1205826,1,1402,0,50723,52018,51374.16,53383.86,-651.16,-1365.86,0.385456,100.00,1
1205866,1,1442,0,50763,52065,51372.94,53381.22,-609.94,-1316.22,0.385716,100.00,1
1205906,1,1482,0,50780,52069,51371.75,53378.60,-591.75,-1309.60,0.385976,100.00,1
1205946,1,1522,0,50775,52075,51370.56,53375.99,-595.56,-1300.99,0.386235,100.00,1
1205986,1,1562,0,50778,52099,51369.38,53373.44,-591.38,-1274.44,0.386494,100.00,1
1206026,1,1602,0,50797,52156,51368.23,53371.01,-571.23,-1215.01,0.386752,100.00,1
1206066,1,1642,0,50831,52236,51367.16,53368.74,-536.16,-1132.74,0.387011,100.00,1
1206106,1,1682,0,50866,52318,51366.16,53366.64,-500.16,-1048.64,0.387269,100.00,1
1206146,1,1722,0,50902,52394,51365.23,53364.69,-463.23,-970.69,0.387527,100.00,1
1206187,1,1763,0,50931,52461,51364.37,53362.89,-433.37,-901.89,0.387785,100.00,1
1206227,1,1803,0,50952,52526,51363.54,53361.21,-411.54,-835.21,0.388044,100.00,1
1206267,1,1843,0,50979,52586,51362.77,53359.66,-383.77,-773.66,0.388302,100.00,1
1206307,1,1883,0,51008,52622,51362.07,53358.19,-354.07,-736.19,0.388560,100.00,1
1206347,1,1923,0,50985,52446,51361.31,53356.37,-376.31,-910.37,0.388816,100.00,1
1206387,1,1963,0,50852,52117,51360.30,53353.89,-508.30,-1236.89,0.389069,100.00,1
1206427,1,2003,0,50726,51917,51359.03,53351.02,-633.03,-1434.02,0.389320,100.00,1
1206467,1,2043,0,50687,51888,51357.69,53348.09,-670.69,-1460.09,0.389571,100.00,1
1206507,1,2083,0,50698,51940,51356.37,53345.28,-658.37,-1405.28,0.389822,100.00,1
1206547,1,2123,0,50729,52004,51355.12,53342.60,-626.12,-1338.60,0.390073,100.00,1
1206587,1,2163,0,50762,52089,51353.93,53340.09,-591.93,-1251.09,0.390323,100.00,1
1206627,1,2203,0,50798,52151,51352.82,53337.72,-554.82,-1186.72,0.390574,100.00,1
1206667,1,2243,0,50813,52161,51351.75,53335.37,-538.75,-1174.37,0.390824,100.00,1
1206707,1,2283,0,50813,52169,51350.67,53333.04,-537.67,-1164.04,0.391073,100.00,1
1206747,1,2323,0,50814,52199,51349.60,53330.77,-535.60,-1131.77,0.391322,100.00,1
1206787,1,2363,0,50837,52258,51348.58,53328.62,-511.58,-1070.63,0.391571,100.00,1
1206828,1,2404,0,50868,52342,51347.62,53326.65,-479.62,-984.65,0.391821,100.00,1
1206868,1,2444,0,50906,52432,51346.73,53324.86,-440.73,-892.86,0.392070,100.00,1
1206908,1,2484,0,50939,52518,51345.92,53323.25,-406.92,-805.25,0.392320,100.00,1
1206948,1,2524,0,50976,52583,51345.18,53321.77,-369.18,-738.77,0.392569,100.00,1
1206988,1,2564,0,51007,52641,51344.51,53320.41,-337.51,-679.41,0.392818,100.00,1
1207028,1,2604,0,51026,52689,51343.87,53319.15,-317.87,-630.15,0.393068,100.00,1
1207068,1,2644,0,51019,52559,51343.22,53317.63,-324.22,-758.63,0.393315,100.00,1
1207108,1,2684,0,50910,52254,51342.36,53315.50,-432.36,-1061.50,0.393561,100.00,1
1207148,1,2724,0,50791,52051,51341.26,53312.98,-550.26,-1261.98,0.393805,100.00,1
1207188,1,2764,0,50741,52020,51340.06,53310.39,-599.06,-1290.39,0.394048,100.00,1
1207228,1,2804,0,50746,52062,51338.87,53307.89,-592.87,-1245.89,0.394291,100.00,1
1207268,1,2844,0,50775,52128,51337.75,53305.54,-562.75,-1177.54,0.394535,100.00,1
1207308,1,2884,0,50810,52214,51336.69,53303.35,-526.69,-1089.35,0.394778,100.00,1
1207348,1,2924,0,50845,52285,51335.71,53301.32,-490.71,-1016.32,0.395022,100.00,1
1207388,1,2964,0,50869,52318,51334.78,53299.35,-465.78,-981.35,0.395265,100.00,1
1207428,1,3004,0,50876,52330,51333.86,53297.41,-457.86,-967.41,0.395508,100.00,1
1207469,1,3045,0,50882,52363,51332.96,53295.55,-450.96,-932.55,0.395751,100.00,1
1207509,1,3085,0,50901,52425,51332.09,53293.81,-431.09,-868.81,0.395994,100.00,1
1207549,1,3125,0,50931,52505,51331.29,53292.23,-400.29,-787.23,0.396238,100.00,1
1207589,1,3165,0,50965,52585,51330.56,53290.82,-365.56,-705.82,0.396481,100.00,1
1207629,1,3205,0,51001,52663,51329.91,53289.56,-328.91,-626.56,0.396725,100.00,1
1207669,1,3245,0,51038,52742,51329.32,53288.47,-291.32,-546.47,0.396968,100.00,1
1207709,1,3285,0,51071,52818,51328.81,53287.53,-257.81,-469.53,0.397212,100.00,1
1207749,1,3325,0,51098,52836,51328.35,53286.62,-230.35,-450.62,0.397455,100.00,1
1207789,1,3365,0,51066,52645,51327.82,53285.34,-261.82,-640.34,0.397697,100.00,1
1207829,1,3405,0,50950,52380,51327.07,53283.54,-377.07,-903.54,0.397936,100.00,1
1207869,1,3445,0,50856,52253,51326.13,53281.48,-470.13,-1028.48,0.398175,100.00,1
1207909,1,3485,0,50830,52262,51325.14,53279.44,-495.14,-1017.44,0.398415,100.00,1
1207949,1,3525,0,50849,52314,51324.19,53277.51,-475.19,-963.51,0.398654,100.00,1
1207989,1,3565,0,50883,52398,51323.30,53275.75,-440.30,-877.75,0.398894,100.00,1
1208029,1,3605,0,50918,52478,51322.50,53274.16,-404.50,-796.16,0.399134,100.00,1
1208069,1,3645,0,50946,52529,51321.75,53272.67,-375.75,-743.67,0.399374,100.00,1
1208109,1,3685,0,50960,52553,51321.02,53271.23,-361.02,-718.23,0.399614,100.00,1
1208150,1,3726,0,50964,52581,51320.31,53269.85,-356.31,-688.85,0.399854,100.00,1
1208190,1,3766,0,50982,52632,51319.64,53268.58,-337.64,-636.58,0.400094,100.00,1
1208230,1,3806,0,51003,52707,51319.00,53267.46,-316.00,-560.46,0.400335,100.00,1
1208270,1,3846,0,51043,52788,51318.45,53266.50,-275.45,-478.50,0.400576,100.00,1
1208310,1,3886,0,51081,52879,51317.98,53265.73,-236.98,-386.73,0.400817,100.00,1
1208350,1,3926,0,51117,52970,51317.58,53265.14,-200.58,-295.14,0.401059,100.00,1
1208390,1,3966,0,51157,53056,51317.26,53264.72,-160.26,-208.72,0.401300,100.00,1
1208430,1,4006,0,51186,53070,51317.00,53264.33,-131.00,-194.33,0.401540,100.00,1
1208470,1,4046,0,51156,52889,51316.68,53263.58,-160.68,-374.58,0.401780,99.99,1
1208510,1,4086,0,51049,52664,51316.14,53262.38,-267.14,-598.38,0.402019,99.99,1
1208550,1,4126,0,50971,52574,51315.45,53261.01,-344.45,-687.01,0.402258,99.99,1
1208590,1,4166,0,50963,52590,51314.75,53259.67,-351.75,-669.67,0.402497,99.99,1
1208630,1,4206,0,50980,52642,51314.08,53258.43,-334.08,-616.43,0.402736,99.99,1
1208670,1,4246,0,51008,52713,51313.47,53257.34,-305.47,-544.34,0.402976,99.99,1
1208710,1,4286,0,51038,52785,51312.92,53256.40,-274.92,-471.40,0.403216,99.98,1
1208750,1,4326,0,51061,52820,51312.42,53255.53,-251.42,-435.53,0.403456,99.98,1
1208791,1,4367,0,51071,52833,51311.94,53254.69,-240.94,-421.69,0.403696,99.98,1
1208831,1,4407,0,51073,52853,51311.46,53253.89,-238.46,-400.89,0.403937,99.98,1
1208871,1,4447,0,51085,52908,51311.01,53253.20,-226.01,-345.20,0.404177,99.98,1
1208911,1,4487,0,51115,52979,51310.62,53252.65,-195.62,-273.65,0.404418,99.97,1
1208951,1,4527,0,51151,53072,51310.30,53252.29,-159.30,-180.29,0.404659,99.97,1
1208991,1,4567,0,51185,53156,51310.05,53252.10,-125.05,-96.10,0.404900,99.97,1
1209031,1,4607,0,51226,53245,51309.88,53252.09,-83.88,-7.09,0.405140,99.96,1
1209071,1,4647,0,51268,53309,51309.80,53252.20,-41.80,56.80,0.405379,99.96,1
1209111,1,4687,0,51283,53258,51309.75,53252.21,-26.75,5.79,0.405618,99.96,1
1209151,1,4727,0,51212,53040,51309.55,53251.79,-97.55,-211.79,0.405856,99.96,1
1209191,1,4767,0,51110,52852,51309.16,53250.99,-199.16,-398.99,0.406094,99.95,1
1209231,1,4807,0,51053,52801,51308.64,53250.09,-255.64,-449.09,0.406332,99.95,1
1209271,1,4847,0,51055,52834,51308.14,53249.26,-253.14,-415.26,0.406570,99.95,1
1209311,1,4887,0,51073,52895,51307.67,53248.55,-234.67,-353.55,0.406808,99.94,1
1209351,1,4927,0,51106,52973,51307.27,53248.00,-201.27,-275.00,0.407047,99.94,1
1209392,1,4968,0,51137,53030,51306.93,53247.57,-169.93,-217.57,0.407286,99.93,1
1209432,1,5008,0,51154,53056,51306.62,53247.19,-152.62,-191.19,0.407525,99.93,1
1209472,1,5048,0,51155,53069,51306.32,53246.83,-151.32,-177.83,0.407764,99.93,1
1209512,1,5088,0,51164,53092,51306.04,53246.52,-142.04,-154.52,0.408003,99.92,1
1209552,1,5128,0,51181,53142,51305.79,53246.32,-124.79,-104.32,0.408242,99.92,1
1209592,1,5168,0,51203,53196,51305.58,53246.22,-102.58,-50.22,0.408481,99.92,1
1209632,1,5208,0,51234,53262,51305.44,53246.25,-71.44,15.75,0.408719,99.91,1
1209672,1,5248,0,51267,53343,51305.37,53246.45,-38.37,96.55,0.408957,99.91,1
1209712,1,5288,0,51305,53434,51305.37,53246.82,-0.37,187.18,0.409193,99.90,1
1209752,1,5328,0,51341,53501,51305.44,53247.33,35.56,253.67,0.409428,99.90,1
1209792,1,5368,0,51340,53412,51305.51,53247.66,34.49,164.34,0.409662,99.90,1
1209832,1,5408,0,51259,53188,51305.42,53247.54,-46.42,-59.54,0.409895,99.89,1
1209872,1,5448,0,51171,53043,51305.16,53247.14,-134.16,-204.14,0.410129,99.89,1
1209912,1,5488,0,51129,53018,51304.80,53246.68,-175.80,-228.68,0.410362,99.88,1
1209952,1,5528,0,51138,53054,51304.47,53246.30,-166.47,-192.30,0.410596,99.88,1
1209993,1,5569,0,51160,53106,51304.18,53246.02,-144.18,-140.02,0.410830,99.87,1
1210033,1,5609,0,51189,53174,51303.95,53245.87,-114.95,-71.87,0.411063,99.87,1
1210073,1,5649,0,51212,53214,51303.77,53245.81,-91.77,-31.81,0.411297,99.86,1
1210113,1,5689,0,51216,53221,51303.59,53245.77,-87.59,-24.77,0.411530,99.86,1
1210153,1,5729,0,51221,53225,51303.43,53245.73,-82.43,-20.73,0.411763,99.86,1
1210193,1,5769,0,51227,53262,51303.28,53245.76,-76.28,16.24,0.411995,99.85,1
1210233,1,5809,0,51242,53318,51303.16,53245.91,-61.16,72.09,0.412227,99.85,1
1210273,1,5849,0,51272,53387,51303.09,53246.19,-31.09,140.81,0.412458,99.84,1
1210313,1,5889,0,51308,53462,51303.11,53246.62,4.89,215.37,0.412688,99.84,1
1210353,1,5929,0,51340,53523,51303.18,53247.18,36.82,275.82,0.412917,99.83,1
1210393,1,5969,0,51373,53583,51303.32,53247.85,69.68,335.15,0.413143,99.83,1
1210433,1,6009,0,51388,53564,51303.49,53248.48,84.51,315.52,0.413368,99.82,1
1210473,1,6049,0,51331,53365,51303.55,53248.72,27.45,116.28,0.413592,99.82,1
1210513,1,6089,0,51230,53164,51303.40,53248.55,-73.40,-84.55,0.413816,99.81,1
1210553,1,6129,0,51164,53080,51303.12,53248.21,-139.12,-168.21,0.414040,99.81,1
1210593,1,6169,0,51150,53087,51302.82,53247.89,-152.82,-160.89,0.414264,99.80,1
1210633,1,6209,0,51162,53114,51302.54,53247.63,-140.54,-133.63,0.414488,99.80,1
1210674,1,6250,0,51185,53180,51302.30,53247.50,-117.30,-67.50,0.414713,99.79,1
1210714,1,6290,0,51212,53232,51302.12,53247.46,-90.12,-15.46,0.414937,99.79,1
1210754,1,6330,0,51227,53262,51301.98,53247.50,-74.98,14.50,0.415161,99.78,1
1210794,1,6370,0,51235,53268,51301.84,53247.54,-66.84,20.46,0.415385,99.78,1
1210834,1,6410,0,51238,53293,51301.72,53247.63,-63.72,45.37,0.415608,99.77,1
1210874,1,6450,0,51251,53339,51301.62,53247.82,-50.62,91.18,0.415830,99.77,1
1210914,1,6490,0,51280,53398,51301.57,53248.12,-21.57,149.88,0.416052,99.76,1
1210954,1,6530,0,51312,53458,51301.60,53248.54,10.40,209.46,0.416272,99.76,1
1210994,1,6570,0,51341,53524,51301.68,53249.09,39.32,274.91,0.416491,99.75,1
1211034,1,6610,0,51367,53585,51301.81,53249.76,65.19,335.24,0.416708,99.75,1
1211074,1,6650,0,51380,53588,51301.97,53250.44,78.03,337.56,0.416923,99.74,1
1211114,1,6690,0,51347,53413,51302.06,53250.77,44.94,162.23,0.417137,99.74,1
1211154,1,6730,0,51248,53200,51301.95,53250.67,-53.95,-50.67,0.417350,99.73,1
1211194,1,6770,0,51171,53094,51301.69,53250.36,-130.69,-156.36,0.417564,99.73,1
1211234,1,6810,0,51152,53082,51301.39,53250.02,-149.39,-168.02,0.417778,99.72,1
1211275,1,6851,0,51157,53108,51301.11,53249.74,-144.11,-141.74,0.417992,99.72,1
1211315,1,6891,0,51176,53168,51300.86,53249.58,-124.86,-81.58,0.418207,99.71,1
1211355,1,6931,0,51200,53231,51300.66,53249.54,-100.66,-18.54,0.418422,99.71,1
1211395,1,6971,0,51228,53270,51300.51,53249.59,-72.51,20.41,0.418637,99.70,1
1211435,1,7011,0,51240,53284,51300.39,53249.66,-60.39,34.34,0.418851,99.70,1
1211475,1,7051,0,51247,53312,51300.29,53249.78,-53.29,62.22,0.419065,99.69,1
1211515,1,7091,0,51262,53360,51300.21,53250.00,-38.21,110.00,0.419278,99.69,1
1211555,1,7131,0,51289,53414,51300.19,53250.33,-11.19,163.67,0.419490,99.68,1
1211595,1,7171,0,51319,53472,51300.23,53250.78,18.77,221.22,0.419700,99.68,1
1211635,1,7211,0,51341,53538,51300.31,53251.35,40.69,286.65,0.419909,99.67,1
1211675,1,7251,0,51367,53598,51300.45,53252.05,66.55,345.95,0.420115,99.66,1
1211715,1,7291,0,51392,53654,51300.63,53252.85,91.37,401.15,0.420319,99.66,1
1211755,1,7331,0,51408,53610,51300.84,53253.57,107.16,356.43,0.420521,99.65,1
1211795,1,7371,0,51341,53421,51300.93,53253.90,40.07,167.10,0.420722,99.65,1
1211835,1,7411,0,51247,53239,51300.82,53253.87,-53.82,-14.88,0.420922,99.64,1
1211876,1,7452,0,51195,53171,51300.61,53253.71,-105.61,-82.71,0.421123,99.64,1
1211916,1,7492,0,51183,53178,51300.37,53253.56,-117.37,-75.56,0.421324,99.63,1
1211956,1,7532,0,51196,53220,51300.17,53253.50,-104.17,-33.50,0.421526,99.63,1
1211996,1,7572,0,51219,53279,51300.01,53253.55,-81.01,25.45,0.421727,99.62,1
1212036,1,7612,0,51249,53323,51299.91,53253.69,-50.91,69.31,0.421928,99.62,1
1212076,1,7652,0,51263,53346,51299.83,53253.87,-36.83,92.12,0.422128,99.61,1
1212116,1,7692,0,51265,53362,51299.77,53254.09,-34.77,107.91,0.422327,99.61,1
1212156,1,7732,0,51272,53387,51299.71,53254.36,-27.71,132.64,0.422526,99.60,1
1212196,1,7772,0,51298,53435,51299.71,53254.72,-1.71,180.28,0.422723,99.60,1
1212236,1,7812,0,51322,53498,51299.75,53255.21,22.25,242.79,0.422919,99.59,1
1212276,1,7852,0,51346,53553,51299.85,53255.81,46.15,297.19,0.423113,99.59,1
1212316,1,7892,0,51374,53614,51300.00,53256.53,74.00,357.47,0.423304,99.58,1
1212356,1,7932,0,51401,53670,51300.20,53257.36,100.80,412.64,0.423492,99.58,1
1212396,1,7972,0,51423,53718,51300.45,53258.28,122.55,459.72,0.423677,99.57,1
1212436,1,8012,0,51442,53746,51300.73,53259.25,141.27,486.75,0.423858,99.57,1
1212476,1,8052,0,51419,53618,51300.97,53259.97,118.03,358.03,0.424038,99.56,1
1212516,1,8092,0,51328,53394,51301.02,53260.24,26.98,133.76,0.424217,99.56,1
1212557,1,8133,0,51240,53253,51300.90,53260.23,-60.90,-7.23,0.424396,99.55,1
1212597,1,8173,0,51209,53229,51300.72,53260.17,-91.72,-31.17,0.424575,99.55,1
1212637,1,8213,0,51214,53261,51300.55,53260.17,-86.55,0.83,0.424754,99.54,1
1212677,1,8253,0,51230,53315,51300.41,53260.28,-70.41,54.72,0.424933,99.54,1
1212717,1,8293,0,51264,53370,51300.34,53260.50,-36.34,109.50,0.425111,99.53,1
1212757,1,8333,0,51282,53398,51300.30,53260.78,-18.30,137.22,0.425288,99.53,1
1212797,1,8373,0,51283,53398,51300.27,53261.06,-17.27,136.94,0.425465,99.52,1
1212837,1,8413,0,51286,53402,51300.24,53261.34,-14.24,140.66,0.425640,99.52,1
1212877,1,8453,0,51295,53424,51300.23,53261.67,-5.23,162.33,0.425815,99.51,1
1212917,1,8493,0,51312,53465,51300.25,53262.08,11.75,202.92,0.425988,99.51,1
1212957,1,8533,0,51335,53524,51300.32,53262.60,34.68,261.40,0.426159,99.50,1
1212997,1,8573,0,51363,53578,51300.45,53263.23,62.55,314.77,0.426328,99.50,1
1213037,1,8613,0,51380,53629,51300.61,53263.97,79.39,365.03,0.426494,99.49,1
1213077,1,8653,0,51407,53672,51300.82,53264.79,106.18,407.21,0.426657,99.49,1
1213117,1,8693,0,51422,53716,51301.07,53265.69,120.93,450.31,0.426817,99.48,1
1213157,1,8733,0,51437,53729,51301.34,53266.62,135.66,462.38,0.426974,99.48,1
1213197,1,8773,0,51403,53574,51301.54,53267.23,101.46,306.77,0.427128,99.47,1
1213238,1,8814,0,51304,53334,51301.55,53267.37,2.45,66.63,0.427283,99.47,1
1213278,1,8854,0,51213,53178,51301.37,53267.20,-88.37,-89.20,0.427437,99.46,1
1213318,1,8894,0,51175,53141,51301.12,53266.95,-126.12,-125.95,0.427593,99.46,1
1213358,1,8934,0,51175,53159,51300.87,53266.73,-125.87,-107.73,0.427749,99.46,1
1213398,1,8974,0,51197,53210,51300.67,53266.62,-103.67,-56.62,0.427906,99.45,1
1213438,1,9014,0,51218,53261,51300.50,53266.61,-82.50,-5.61,0.428064,99.45,1
1213478,1,9054,0,51236,53288,51300.37,53266.65,-64.37,21.35,0.428221,99.44,1
1213518,1,9094,0,51243,53281,51300.26,53266.68,-57.26,14.32,0.428378,99.44,1
1213558,1,9134,0,51247,53275,51300.16,53266.70,-53.16,8.30,0.428535,99.43,1
1213598,1,9174,0,51250,53300,51300.06,53266.77,-50.06,33.23,0.428692,99.43,1
1213638,1,9214,0,51265,53348,51299.99,53266.93,-34.99,81.07,0.428849,99.42,1
1213678,1,9254,0,51284,53399,51299.96,53267.20,-15.96,131.80,0.429004,99.42,1
1213718,1,9294,0,51312,53450,51299.98,53267.56,12.02,182.44,0.429158,99.41,1
1213758,1,9334,0,51330,53501,51300.05,53268.03,29.95,232.97,0.429311,99.41,1
1213798,1,9374,0,51351,53545,51300.15,53268.59,50.85,276.41,0.429461,99.41,1
1213838,1,9414,0,51365,53592,51300.28,53269.23,64.72,322.77,0.429609,99.40,1
1213879,1,9455,0,51384,53596,51300.45,53269.89,83.55,326.11,0.429754,99.40,1
1213919,1,9495,0,51341,53429,51300.53,53270.21,40.47,158.79,0.429899,99.39,1
1213959,1,9535,0,51240,53192,51300.41,53270.05,-60.41,-78.05,0.430043,99.39,1
1213999,1,9575,0,51157,53043,51300.12,53269.60,-143.12,-226.60,0.430189,99.38,1
1214039,1,9615,0,51125,53019,51299.78,53269.10,-174.78,-250.10,0.430335,99.38,1
1214079,1,9655,0,51130,53044,51299.44,53268.65,-169.44,-224.65,0.430484,99.38,1
1214119,1,9695,0,51155,53103,51299.15,53268.32,-144.15,-165.32,0.430634,99.37,1
1214159,1,9735,0,51185,53156,51298.92,53268.10,-113.92,-112.10,0.430786,99.37,1
1214199,1,9775,0,51206,53175,51298.74,53267.92,-92.74,-92.92,0.430937,99.36,1
1214239,1,9815,0,51205,53176,51298.55,53267.73,-93.55,-91.73,0.431089,99.36,1
1214279,1,9855,0,51203,53181,51298.36,53267.56,-95.36,-86.56,0.431242,99.35,1
1214319,1,9895,0,51213,53208,51298.19,53267.45,-85.19,-59.45,0.431395,99.35,1
1214359,1,9935,0,51229,53254,51298.05,53267.42,-69.05,-13.42,0.431548,99.35,1
1214399,1,9975,0,51251,53312,51297.96,53267.51,-46.96,44.49,0.431701,99.34,1
1214439,1,10015,0,51276,53376,51297.92,53267.73,-21.92,108.27,0.431853,99.34,1
1214479,1,10055,0,51305,53428,51297.93,53268.05,7.07,159.95,0.432004,99.33,1
1214520,1,10096,0,51326,53477,51297.99,53268.46,28.01,208.54,0.432154,99.33,1
1214560,1,10136,0,51342,53527,51298.08,53268.98,43.92,258.02,0.432301,99.33,1
1214600,1,10176,0,51362,53575,51298.21,53269.60,63.79,305.40,0.432445,99.32,1
1214640,1,10216,0,51376,53558,51298.37,53270.18,77.63,287.82,0.432588,99.32,1
1214680,1,10256,0,51322,53346,51298.41,53270.33,23.59,75.67,0.432729,99.31,1
1214720,1,10296,0,51215,53108,51298.25,53270.00,-83.25,-162.00,0.432871,99.31,1
1214760,1,10336,0,51129,52988,51297.91,53269.44,-168.91,-281.44,0.433014,99.31,1
1214800,1,10376,0,51109,52978,51297.54,53268.86,-188.54,-290.86,0.433159,99.30,1
1214840,1,10416,0,51125,53016,51297.20,53268.36,-172.20,-252.36,0.433306,99.30,1
1214880,1,10456,0,51157,53083,51296.92,53267.98,-139.92,-184.98,0.433454,99.29,1
1214920,1,10496,0,51184,53126,51296.70,53267.70,-112.70,-141.70,0.433603,99.29,1
1214960,1,10536,0,51199,53146,51296.50,53267.46,-97.50,-121.46,0.433753,99.29,1
1215000,1,10576,0,51196,53133,51296.30,53267.20,-100.30,-134.20,0.433903,99.28,1
1215040,1,10616,0,51193,53134,51296.09,53266.93,-103.09,-132.93,0.434054,99.28,1
1215080,1,10656,0,51198,53166,51295.90,53266.73,-97.90,-100.73,0.434206,99.27,1
1215120,1,10696,0,51215,53217,51295.74,53266.63,-80.74,-49.63,0.434358,99.27,1
1215160,1,10736,0,51236,53269,51295.62,53266.64,-59.62,2.36,0.434510,99.27,1
1215200,1,10776,0,51260,53320,51295.55,53266.75,-35.55,53.25,0.434662,99.26,1
1215241,1,10817,0,51283,53375,51295.53,53266.97,-12.53,108.03,0.434813,99.26,1
1215281,1,10857,0,51304,53420,51295.55,53267.28,8.45,152.72,0.434962,99.25,1
1215321,1,10897,0,51317,53466,51295.59,53267.68,21.41,198.32,0.435110,99.25,1
1215361,1,10937,0,51337,53514,51295.68,53268.17,41.32,245.83,0.435256,99.25,1
1215401,1,10977,0,51356,53545,51295.80,53268.72,60.20,276.28,0.435399,99.24,1
1215441,1,11017,0,51351,53442,51295.91,53269.07,55.09,172.93,0.435541,99.24,1
1215481,1,11057,0,51257,53184,51295.83,53268.90,-38.83,-84.90,0.435682,99.23,1
1215521,1,11097,0,51145,52981,51295.53,53268.33,-150.53,-287.33,0.435824,99.23,1
1215561,1,11137,0,51097,52912,51295.14,53267.62,-198.14,-355.62,0.435968,99.23,1
1215601,1,11177,0,51093,52924,51294.73,53266.93,-201.73,-342.93,0.436114,99.22,1
1215641,1,11217,0,51111,52981,51294.37,53266.36,-183.37,-285.36,0.436262,99.22,1
1215681,1,11257,0,51140,53044,51294.06,53265.92,-154.06,-221.92,0.436412,99.21,1
1215721,1,11297,0,51156,53068,51293.79,53265.52,-137.79,-197.52,0.436563,99.21,1
1215761,1,11337,0,51160,53057,51293.52,53265.11,-133.52,-208.11,0.436715,99.21,1
1215801,1,11377,0,51151,53041,51293.23,53264.66,-142.23,-223.66,0.436869,99.20,1
1215841,1,11417,0,51147,53054,51292.94,53264.24,-145.94,-210.24,0.437024,99.20,1
1215882,1,11458,0,51161,53098,51292.68,53263.91,-131.68,-165.91,0.437181,99.20,1
1215922,1,11498,0,51183,53154,51292.46,53263.69,-109.46,-109.69,0.437339,99.19,1
1215962,1,11538,0,51205,53217,51292.29,53263.60,-87.29,-46.60,0.437498,99.19,1
1216002,1,11578,0,51227,53270,51292.16,53263.61,-65.16,6.39,0.437657,99.18,1
1216042,1,11618,0,51255,53321,51292.09,53263.73,-37.09,57.27,0.437816,99.18,1
1216082,1,11658,0,51276,53370,51292.05,53263.95,-16.05,106.05,0.437973,99.18,1
1216122,1,11698,0,51293,53414,51292.06,53264.25,0.94,149.75,0.438130,99.17,1
1216162,1,11738,0,51310,53452,51292.10,53264.62,17.90,187.38,0.438284,99.17,1
1216202,1,11778,0,51321,53412,51292.16,53264.92,28.84,147.08,0.438438,99.16,1
1216242,1,11818,0,51260,53168,51292.09,53264.73,-32.09,-96.73,0.438590,99.16,1
1216282,1,11858,0,51138,52907,51291.79,53264.01,-153.79,-357.01,0.438742,99.16,1
1216322,1,11898,0,51050,52799,51291.30,53263.08,-241.30,-464.08,0.438895,99.15,1
1216362,1,11938,0,51033,52788,51290.79,53262.13,-257.79,-474.13,0.439050,99.15,1
1216402,1,11978,0,51049,52835,51290.31,53261.28,-241.31,-426.28,0.439209,99.15,1
1216442,1,12018,0,51072,52897,51289.87,53260.55,-217.87,-363.55,0.439370,99.14,1
1216482,1,12058,0,51095,52942,51289.49,53259.92,-194.49,-317.92,0.439535,99.14,1
1216522,1,12098,0,51103,52937,51289.12,53259.27,-186.12,-322.27,0.439700,99.13,1
1216563,1,12139,0,51093,52915,51288.73,53258.59,-195.73,-343.59,0.439868,99.13,1
1216603,1,12179,0,51084,52921,51288.32,53257.91,-204.32,-336.91,0.440038,99.13,1
1216643,1,12219,0,51093,52964,51287.93,53257.33,-194.93,-293.33,0.440211,99.12,1
1216683,1,12259,0,51121,53015,51287.60,53256.84,-166.60,-241.84,0.440387,99.12,1
1216723,1,12299,0,51145,53080,51287.31,53256.49,-142.31,-176.49,0.440564,99.11,1
1216763,1,12339,0,51169,53144,51287.08,53256.27,-118.08,-112.27,0.440744,99.11,1
1216803,1,12379,0,51200,53198,51286.91,53256.16,-86.91,-58.16,0.440924,99.11,1
1216843,1,12419,0,51227,53247,51286.79,53256.14,-59.79,-9.14,0.441104,99.10,1
1216883,1,12459,0,51248,53294,51286.71,53256.22,-38.71,37.78,0.441284,99.10,1
1216923,1,12499,0,51265,53330,51286.67,53256.37,-21.67,73.63,0.441464,99.09,1
1216963,1,12539,0,51258,53221,51286.61,53256.30,-28.61,-35.30,0.441643,99.09,1
1217003,1,12579,0,51163,52934,51286.37,53255.65,-123.37,-321.65,0.441819,99.09,1
1217043,1,12619,0,51039,52690,51285.87,53254.52,-246.87,-564.52,0.441993,99.08,1
1217083,1,12659,0,50965,52609,51285.23,53253.23,-320.23,-644.23,0.442167,99.08,1
1217123,1,12699,0,50954,52626,51284.57,53251.98,-330.57,-625.98,0.442344,99.07,1
1217164,1,12740,0,50976,52677,51283.96,53250.83,-307.96,-573.83,0.442524,99.07,1
1217204,1,12780,0,51000,52742,51283.39,53249.82,-283.39,-507.82,0.442708,99.07,1
1217244,1,12820,0,51027,52787,51282.88,53248.89,-255.88,-461.89,0.442894,99.06,1
1217284,1,12860,0,51031,52790,51282.37,53247.97,-251.37,-457.97,0.443082,99.06,1
1217324,1,12900,0,51030,52780,51281.87,53247.04,-251.87,-467.04,0.443272,99.05,1
1217364,1,12940,0,51032,52795,51281.37,53246.14,-249.37,-451.14,0.443464,99.05,1
1217404,1,12980,0,51043,52840,51280.89,53245.32,-237.89,-405.32,0.443659,99.04,1
1217444,1,13020,0,51069,52901,51280.47,53244.64,-211.47,-343.64,0.443857,99.04,1
1217484,1,13060,0,51101,52965,51280.11,53244.08,-179.11,-279.08,0.444056,99.04,1
1217524,1,13100,0,51133,53026,51279.82,53243.64,-146.82,-217.64,0.444257,99.03,1
1217564,1,13140,0,51155,53082,51279.57,53243.32,-124.57,-161.32,0.444459,99.03,1
1217604,1,13180,0,51178,53127,51279.37,53243.09,-101.37,-116.09,0.444662,99.02,1
1217644,1,13220,0,51195,53162,51279.20,53242.93,-84.20,-80.93,0.444866,99.02,1
1217684,1,13260,0,51211,53196,51279.06,53242.84,-68.06,-46.84,0.445069,99.01,1
1217724,1,13300,0,51207,53086,51278.92,53242.53,-71.92,-156.53,0.445272,99.01,1
1217764,1,13340,0,51106,52785,51278.57,53241.61,-172.57,-456.61,0.445470,99.01,1
1217804,1,13380,0,50971,52535,51277.96,53240.20,-306.96,-705.20,0.445662,99.00,1
1217845,1,13421,0,50900,52448,51277.21,53238.62,-377.21,-790.62,0.445852,99.00,1
1217885,1,13461,0,50894,52471,51276.44,53237.09,-382.44,-766.09,0.446042,98.99,1
1217925,1,13501,0,50907,52527,51275.70,53235.67,-368.70,-708.67,0.446235,98.99,1
1217965,1,13541,0,50944,52600,51275.04,53234.40,-331.04,-634.40,0.446429,98.98,1
1218005,1,13581,0,50973,52648,51274.44,53233.23,-301.44,-585.23,0.446624,98.98,1
1218045,1,13621,0,50982,52651,51273.86,53232.06,-291.86,-581.06,0.446819,98.97,1
1218085,1,13661,0,50981,52639,51273.27,53230.88,-292.27,-591.88,0.447013,98.97,1
1218125,1,13701,0,50984,52652,51272.70,53229.72,-288.70,-577.72,0.447207,98.97,1
1218165,1,13741,0,51002,52691,51272.16,53228.65,-270.16,-537.65,0.447401,98.96,1
1218205,1,13781,0,51027,52751,51271.67,53227.70,-244.67,-476.70,0.447596,98.96,1
1218245,1,13821,0,51052,52816,51271.23,53226.87,-219.23,-410.87,0.447791,98.95,1
1218285,1,13861,0,51082,52874,51270.85,53226.17,-188.85,-352.17,0.447986,98.95,1
1218325,1,13901,0,51102,52921,51270.52,53225.56,-168.52,-304.56,0.448182,98.94,1
1218365,1,13941,0,51120,52955,51270.21,53225.02,-150.21,-270.02,0.448378,98.94,1
1218405,1,13981,0,51129,52995,51269.93,53224.57,-140.93,-229.57,0.448574,98.93,1
1218445,1,14021,0,51154,53030,51269.70,53224.18,-115.70,-194.18,0.448771,98.93,1
1218486,1,14062,0,51156,52972,51269.48,53223.68,-113.48,-251.68,0.448967,98.92,1
1218526,1,14102,0,51079,52695,51269.10,53222.62,-190.10,-527.62,0.449156,98.92,1
1218566,1,14142,0,50937,52412,51268.43,53221.00,-331.43,-809.00,0.449336,98.92,1
1218606,1,14182,0,50851,52295,51267.60,53219.15,-416.60,-924.15,0.449510,98.91,1
1218646,1,14222,0,50836,52299,51266.74,53217.31,-430.74,-918.31,0.449681,98.91,1
1218686,1,14262,0,50858,52353,51265.92,53215.58,-407.92,-862.58,0.449849,98.90,1
1218726,1,14302,0,50885,52432,51265.16,53214.02,-380.16,-782.02,0.450017,98.90,1
1218766,1,14342,0,50919,52485,51264.47,53212.56,-345.47,-727.56,0.450184,98.89,1
1218806,1,14382,0,50932,52484,51263.80,53211.10,-331.80,-727.10,0.450347,98.89,1
1218846,1,14422,0,50933,52459,51263.14,53209.60,-330.14,-750.60,0.450507,98.88,1
1218886,1,14462,0,50930,52465,51262.48,53208.11,-332.48,-743.11,0.450663,98.88,1
1218926,1,14502,0,50935,52507,51261.83,53206.71,-326.83,-699.71,0.450817,98.87,1
1218966,1,14542,0,50958,52563,51261.22,53205.42,-303.22,-642.42,0.450971,98.87,1
1219006,1,14582,0,50989,52628,51260.68,53204.27,-271.68,-576.27,0.451123,98.87,1
1219046,1,14622,0,51013,52692,51260.19,53203.25,-247.19,-511.25,0.451275,98.86,1
1219086,1,14662,0,51036,52740,51259.74,53202.32,-223.74,-462.32,0.451426,98.86,1
1219126,1,14702,0,51054,52777,51259.33,53201.47,-205.33,-424.47,0.451577,98.85,1
1219167,1,14743,0,51074,52812,51258.96,53200.70,-184.96,-388.70,0.451727,98.85,1
1219207,1,14783,0,51084,52849,51258.61,53199.99,-174.61,-350.99,0.451877,98.84,1
1219247,1,14823,0,51100,52844,51258.30,53199.28,-158.30,-355.28,0.452026,98.84,1
1219287,1,14863,0,51051,52616,51257.88,53198.12,-206.88,-582.12,0.452169,98.84,1
1219327,1,14903,0,50920,52304,51257.21,53196.33,-337.21,-892.33,0.452301,98.83,1
1219367,1,14943,0,50810,52143,51256.31,53194.23,-446.31,-1051.23,0.452426,98.83,1
1219407,1,14983,0,50782,52140,51255.36,53192.12,-473.36,-1052.12,0.452547,98.82,1
1219447,1,15023,0,50796,52192,51254.45,53190.12,-458.45,-998.12,0.452665,98.82,1
1219487,1,15063,0,50833,52263,51253.61,53188.27,-420.61,-925.27,0.452781,98.81,1
1219527,1,15103,0,50868,52319,51252.84,53186.53,-384.84,-867.53,0.452894,98.81,1
1219567,1,15143,0,50882,52336,51252.09,53184.83,-370.09,-848.83,0.453004,98.81,1
1219607,1,15183,0,50877,52319,51251.34,53183.10,-374.34,-864.10,0.453110,98.80,1
1219647,1,15223,0,50877,52316,51250.60,53181.37,-373.60,-865.37,0.453213,98.80,1
1219687,1,15263,0,50887,52351,51249.87,53179.71,-362.87,-828.71,0.453313,98.79,1
1219727,1,15303,0,50912,52415,51249.20,53178.18,-337.20,-763.18,0.453411,98.79,1
1219767,1,15343,0,50935,52482,51248.57,53176.79,-313.57,-694.79,0.453508,98.79,1
1219807,1,15383,0,50964,52554,51248.00,53175.54,-284.00,-621.54,0.453604,98.78,1
1219848,1,15424,0,50995,52617,51247.50,53174.43,-252.50,-557.43,0.453700,98.78,1
1219888,1,15464,0,51019,52672,51247.04,53173.42,-228.04,-501.42,0.453794,98.78,1
1219928,1,15504,0,51034,52716,51246.61,53172.51,-212.61,-456.51,0.453889,98.77,1
1219968,1,15544,0,51055,52760,51246.23,53171.68,-191.23,-411.68,0.453982,98.77,1
1220008,1,15584,0,51076,52788,51245.89,53170.92,-169.89,-382.92,0.454076,98.76,1
1220048,1,15624,0,51060,52638,51245.52,53169.85,-185.52,-531.85,0.454166,98.76,1
1220088,1,15664,0,50947,52317,51244.92,53168.15,-297.92,-851.15,0.454247,98.76,1
1220128,1,15704,0,50822,52098,51244.08,53166.01,-422.08,-1068.01,0.454321,98.75,1
1220168,1,15744,0,50775,52054,51243.14,53163.79,-468.14,-1109.79,0.454389,98.75,1
1220208,1,15784,0,50785,52091,51242.23,53161.64,-457.23,-1070.64,0.454454,98.75,1
1220248,1,15824,0,50805,52148,51241.35,53159.61,-436.35,-1011.61,0.454516,98.74,1
1220288,1,15864,0,50838,52223,51240.55,53157.74,-402.55,-934.74,0.454575,98.74,1
1220328,1,15904,0,50870,52267,51239.81,53155.96,-369.81,-888.96,0.454631,98.74,1
1220368,1,15944,0,50874,52267,51239.08,53154.18,-365.08,-887.18,0.454684,98.73,1
1220408,1,15984,0,50871,52263,51238.34,53152.40,-367.34,-889.40,0.454734,98.73,1
1220448,1,16024,0,50874,52283,51237.62,53150.66,-363.62,-867.66,0.454781,98.73,1
1220489,1,16065,0,50892,52342,51236.93,53149.05,-344.93,-807.05,0.454827,98.73,1
1220529,1,16105,0,50922,52416,51236.30,53147.58,-314.30,-731.58,0.454872,98.72,1
1220569,1,16145,0,50954,52492,51235.73,53146.27,-281.73,-654.27,0.454915,98.72,1
1220609,1,16185,0,50988,52560,51235.24,53145.10,-247.24,-585.10,0.454958,98.72,1
1220649,1,16225,0,51017,52620,51234.80,53144.05,-217.80,-524.05,0.454999,98.71,1
1220689,1,16265,0,51043,52670,51234.42,53143.11,-191.42,-473.11,0.455039,98.71,1
1220729,1,16305,0,51060,52722,51234.07,53142.27,-174.07,-420.27,0.455079,98.71,1
1220769,1,16345,0,51085,52769,51233.78,53141.52,-148.78,-372.52,0.455118,98.71,1
1220809,1,16385,0,51113,52804,51233.54,53140.85,-120.54,-336.85,0.455156,98.70,1
1220849,1,16425,0,51105,52651,51233.29,53139.87,-128.29,-488.87,0.455191,98.70,1
1220889,1,16465,0,50984,52317,51232.79,53138.23,-248.79,-821.23,0.455218,98.70,1
1220929,1,16505,0,50848,52082,51232.02,53136.12,-384.02,-1054.12,0.455237,98.70,1
1220969,1,16545,0,50792,52018,51231.14,53133.88,-439.14,-1115.88,0.455251,98.69,1
1221009,1,16585,0,50791,52044,51230.26,53131.70,-439.26,-1087.70,0.455261,98.69,1
1221049,1,16625,0,50806,52090,51229.41,53129.62,-423.41,-1039.62,0.455269,98.69,1
1221089,1,16665,0,50835,52156,51228.62,53127.68,-393.62,-971.68,0.455273,98.69,1
1221129,1,16705,0,50862,52202,51227.89,53125.82,-365.89,-923.82,0.455275,98.69,1
1221170,1,16746,0,50875,52200,51227.19,53123.97,-352.19,-923.97,0.455272,98.68,1
1221210,1,16786,0,50871,52195,51226.48,53122.12,-355.48,-927.12,0.455267,98.68,1
1221250,1,16826,0,50871,52227,51225.77,53120.33,-354.77,-893.33,0.455258,98.68,1
1221290,1,16866,0,50894,52277,51225.11,53118.64,-331.11,-841.64,0.455248,98.68,1
1221330,1,16906,0,50926,52351,51224.51,53117.11,-298.51,-766.11,0.455236,98.68,1
1221370,1,16946,0,50958,52428,51223.98,53115.73,-265.98,-687.73,0.455222,98.67,1
1221410,1,16986,0,50989,52493,51223.51,53114.49,-234.51,-621.49,0.455206,98.67,1
1221450,1,17026,0,51023,52557,51223.11,53113.38,-200.11,-556.38,0.455189,98.67,1
1221490,1,17066,0,51052,52600,51222.77,53112.36,-170.77,-512.36,0.455170,98.67,1
1221530,1,17106,0,51070,52637,51222.46,53111.41,-152.46,-474.41,0.455150,98.67,1
1221570,1,17146,0,51083,52672,51222.19,53110.53,-139.19,-438.53,0.455128,98.67,1
1221610,1,17186,0,51098,52709,51221.94,53109.73,-123.94,-400.73,0.455105,98.67,1
1221650,1,17226,0,51122,52732,51221.74,53108.97,-99.74,-376.97,0.455080,98.66,1
1221690,1,17266,0,51107,52588,51221.52,53107.93,-114.52,-519.93,0.455052,98.66,1
1221730,1,17306,0,50984,52241,51221.04,53106.20,-237.04,-865.20,0.455016,98.66,1
1221770,1,17346,0,50844,51994,51220.29,53103.98,-376.29,-1109.98,0.454973,98.66,1
1221811,1,17387,0,50779,51935,51219.41,53101.64,-440.41,-1166.64,0.454926,98.66,1
1221851,1,17427,0,50782,51969,51218.53,53099.37,-436.53,-1130.38,0.454875,98.66,1
1221891,1,17467,0,50803,52026,51217.70,53097.23,-414.70,-1071.23,0.454822,98.66,1
1221931,1,17507,0,50835,52097,51216.94,53095.23,-381.94,-998.23,0.454766,98.66,1
1221971,1,17547,0,50867,52141,51216.24,53093.32,-349.24,-952.32,0.454707,98.66,1
1222011,1,17587,0,50875,52142,51215.56,53091.42,-340.56,-949.42,0.454644,98.66,1
1222051,1,17627,0,50868,52136,51214.86,53089.51,-346.86,-953.51,0.454579,98.65,1
1222091,1,17667,0,50876,52162,51214.19,53087.66,-338.19,-925.66,0.454511,98.65,1
1222131,1,17707,0,50899,52213,51213.56,53085.91,-314.56,-872.91,0.454440,98.65,1
1222171,1,17747,0,50934,52287,51213.00,53084.31,-279.00,-797.31,0.454367,98.65,1
1222211,1,17787,0,50961,52363,51212.50,53082.87,-251.50,-719.87,0.454292,98.65,1
1222251,1,17827,0,50997,52431,51212.07,53081.57,-215.07,-650.57,0.454215,98.65,1
1222291,1,17867,0,51021,52489,51211.69,53080.39,-190.69,-591.39,0.454136,98.65,1
1222331,1,17907,0,51046,52527,51211.36,53079.28,-165.36,-552.28,0.454055,98.65,1
1222371,1,17947,0,51061,52561,51211.06,53078.25,-150.06,-517.25,0.453973,98.65,1
1222411,1,17987,0,51071,52598,51210.78,53077.29,-139.78,-479.29,0.453889,98.65,1
1222451,1,18027,0,51089,52644,51210.54,53076.42,-121.54,-432.42,0.453804,98.65,1
1222492,1,18068,0,51111,52647,51210.34,53075.56,-99.34,-428.56,0.453718,98.65,1
1222532,1,18108,0,51063,52413,51210.05,53074.24,-147.05,-661.24,0.453627,98.65,1
1222572,1,18148,0,50920,52077,51209.47,53072.25,-289.47,-995.25,0.453530,98.65,1
1222612,1,18188,0,50803,51912,51208.66,53069.93,-405.66,-1157.93,0.453429,98.65,1
1222652,1,18228,0,50779,51906,51207.80,53067.60,-428.80,-1161.60,0.453324,98.65,1
1222692,1,18268,0,50795,51960,51206.97,53065.38,-411.97,-1105.38,0.453217,98.65,1
1222732,1,18308,0,50823,52026,51206.21,53063.30,-383.21,-1037.30,0.453109,98.65,1
1222772,1,18348,0,50861,52106,51205.52,53061.39,-344.52,-955.39,0.452998,98.66,1
1222812,1,18388,0,50893,52148,51204.89,53059.57,-311.89,-911.57,0.452885,98.66,1
1222852,1,18428,0,50904,52146,51204.29,53057.74,-300.29,-911.74,0.452769,98.66,1
1222892,1,18468,0,50905,52154,51203.70,53055.94,-298.70,-901.94,0.452650,98.66,1
1222932,1,18508,0,50911,52196,51203.11,53054.22,-292.11,-858.22,0.452529,98.66,1
1222972,1,18548,0,50942,52259,51202.59,53052.63,-260.59,-793.63,0.452405,98.66,1
1223012,1,18588,0,50970,52338,51202.12,53051.20,-232.12,-713.20,0.452280,98.66,1
1223052,1,18628,0,51005,52419,51201.73,53049.94,-196.73,-630.94,0.452154,98.66,1
1223092,1,18668,0,51039,52488,51201.41,53048.82,-162.41,-560.82,0.452026,98.66,1
1223133,1,18709,0,51064,52544,51201.13,53047.81,-137.13,-503.81,0.451896,98.66,1
1223173,1,18749,0,51090,52598,51200.91,53046.91,-110.91,-448.91,0.451766,98.67,1
1223213,1,18789,0,51106,52644,51200.72,53046.11,-94.72,-402.11,0.451634,98.67,1
1223253,1,18829,0,51124,52689,51200.57,53045.39,-76.57,-356.39,0.451502,98.67,1
1223293,1,18869,0,51151,52743,51200.47,53044.79,-49.47,-301.79,0.451370,98.67,1
1223333,1,18909,0,51168,52692,51200.41,53044.09,-32.41,-352.09,0.451236,98.67,1
1223373,1,18949,0,51086,52402,51200.18,53042.81,-114.18,-640.81,0.451098,98.67,1
1223413,1,18989,0,50941,52094,51199.67,53040.91,-258.67,-946.91,0.450955,98.67,1
1223453,1,19029,0,50850,51974,51198.97,53038.78,-348.97,-1064.78,0.450808,98.68,1
1223493,1,19069,0,50842,51984,51198.26,53036.67,-356.26,-1052.67,0.450659,98.68,1
1223533,1,19109,0,50857,52046,51197.58,53034.69,-340.58,-988.69,0.450507,98.68,1
1223573,1,19149,0,50889,52121,51196.96,53032.87,-307.96,-911.87,0.450354,98.68,1
1223613,1,19189,0,50928,52191,51196.43,53031.18,-268.43,-840.18,0.450198,98.68,1
1223653,1,19229,0,50947,52221,51195.93,53029.57,-248.93,-808.57,0.450040,98.69,1
1223693,1,19269,0,50947,52212,51195.43,53027.93,-248.43,-815.93,0.449880,98.69,1
1223733,1,19309,0,50949,52221,51194.94,53026.32,-245.94,-805.32,0.449717,98.69,1
1223774,1,19350,0,50959,52268,51194.47,53024.80,-235.47,-756.80,0.449552,98.69,1
1223814,1,19390,0,50985,52334,51194.05,53023.43,-209.05,-689.43,0.449386,98.69,1
1223854,1,19430,0,51013,52416,51193.70,53022.21,-180.70,-606.21,0.449219,98.70,1
1223894,1,19470,0,51047,52490,51193.40,53021.15,-146.40,-531.15,0.449051,98.70,1
1223934,1,19510,0,51079,52554,51193.18,53020.21,-114.18,-466.21,0.448881,98.70,1
1223974,1,19550,0,51110,52623,51193.01,53019.42,-83.01,-396.42,0.448711,98.70,1
1224014,1,19590,0,51134,52672,51192.89,53018.73,-58.89,-346.73,0.448540,98.71,1
1224054,1,19630,0,51156,52718,51192.82,53018.12,-36.82,-300.12,0.448369,98.71,1
1224094,1,19670,0,51178,52754,51192.79,53017.60,-14.79,-263.60,0.448198,98.71,1
1224134,1,19710,0,51200,52799,51192.81,53017.16,7.19,-218.16,0.448026,98.71,1
1224174,1,19750,0,51218,52827,51192.86,53016.78,25.14,-189.78,0.447855,98.72,1
1224214,1,19790,0,51192,52638,51192.86,53016.02,-0.86,-378.02,0.447682,98.72,1
1224254,1,19830,0,51067,52285,51192.61,53014.56,-125.61,-729.56,0.447504,98.72,1
1224294,1,19870,0,50925,52062,51192.07,53012.66,-267.07,-950.66,0.447322,98.72,1
1224334,1,19910,0,50874,52022,51191.44,53010.68,-317.44,-988.68,0.447138,98.73,1
1224374,1,19950,0,50884,52066,51190.82,53008.79,-306.82,-942.79,0.446952,98.73,1
1224414,1,19990,0,50909,52130,51190.26,53007.04,-281.26,-877.04,0.446764,98.73,1
1224455,1,20031,0,50942,52205,51189.77,53005.43,-247.77,-800.43,0.446574,98.74,1
1224495,1,20071,0,50966,52246,51189.32,53003.92,-223.32,-757.92,0.446382,98.74,1
1224535,1,20111,0,50968,52244,51188.88,53002.40,-220.88,-758.40,0.446189,98.74,1
1224575,1,20151,0,50964,52233,51188.43,53000.86,-224.43,-767.86,0.445993,98.75,1
1224615,1,20191,0,50965,52255,51187.98,52999.37,-222.98,-744.37,0.445796,98.75,1
1224655,1,20231,0,50987,52316,51187.58,52998.00,-200.58,-682.00,0.445597,98.75,1
1224695,1,20271,0,51017,52390,51187.24,52996.79,-170.24,-606.79,0.445397,98.76,1
1224735,1,20311,0,51054,52465,51186.98,52995.72,-132.98,-530.72,0.445196,98.76,1
1224775,1,20351,0,51086,52533,51186.78,52994.80,-100.78,-461.80,0.444994,98.76,1
1224815,1,20391,0,51117,52596,51186.64,52994.00,-69.64,-398.00,0.444792,98.77,1
1224855,1,20431,0,51140,52643,51186.55,52993.30,-46.55,-350.30,0.444588,98.77,1
1224895,1,20471,0,51156,52686,51186.49,52992.69,-30.49,-306.69,0.444384,98.77,1
1224935,1,20511,0,51178,52720,51186.47,52992.14,-8.47,-272.14,0.444180,98.78,1
1224975,1,20551,0,51193,52762,51186.49,52991.69,6.51,-229.69,0.443976,98.78,1
1225015,1,20591,0,51193,52700,51186.50,52991.11,6.50,-291.11,0.443772,98.78,1
1225055,1,20631,0,51113,52393,51186.36,52989.91,-73.36,-596.91,0.443564,98.79,1
1225096,1,20672,0,50959,52093,51185.91,52988.12,-226.91,-895.12,0.443352,98.79,1
1225136,1,20712,0,50871,51986,51185.28,52986.11,-314.28,-1000.11,0.443137,98.80,1
1225176,1,20752,0,50861,52013,51184.63,52984.17,-323.63,-971.17,0.442922,98.80,1
1225216,1,20792,0,50884,52082,51184.03,52982.36,-300.03,-900.36,0.442706,98.80,1
1225256,1,20832,0,50917,52161,51183.50,52980.72,-266.50,-819.72,0.442490,98.81,1
1225296,1,20872,0,50954,52232,51183.04,52979.23,-229.04,-747.23,0.442272,98.81,1
1225336,1,20912,0,50976,52257,51182.62,52977.79,-206.62,-720.79,0.442053,98.82,1
1225376,1,20952,0,50981,52257,51182.22,52976.34,-201.22,-719.34,0.441832,98.82,1
1225416,1,20992,0,50984,52266,51181.83,52974.93,-197.83,-708.93,0.441610,98.82,1
1225456,1,21032,0,50997,52308,51181.46,52973.59,-184.46,-665.59,0.441386,98.83,1
1225496,1,21072,0,51024,52384,51181.15,52972.41,-157.15,-588.41,0.441161,98.83,1
1225536,1,21112,0,51056,52467,51180.90,52971.41,-124.90,-504.41,0.440936,98.84,1
1225576,1,21152,0,51095,52541,51180.73,52970.55,-85.73,-429.55,0.440709,98.84,1
1225616,1,21192,0,51127,52604,51180.62,52969.82,-53.62,-365.82,0.440482,98.85,1
1225656,1,21232,0,51149,52657,51180.56,52969.19,-31.56,-312.19,0.440255,98.85,1
1225696,1,21272,0,51166,52706,51180.53,52968.67,-14.53,-262.67,0.440028,98.86,1
1225736,1,21312,0,51189,52751,51180.55,52968.23,8.45,-217.23,0.439800,98.86,1
1225777,1,21353,0,51200,52746,51180.59,52967.79,19.41,-221.79,0.439573,98.86,1
1225817,1,21393,0,51154,52509,51180.54,52966.87,-26.54,-457.87,0.439344,98.87,1
1225857,1,21433,0,51008,52176,51180.20,52965.29,-172.20,-789.29,0.439111,98.87,1
1225897,1,21473,0,50892,52006,51179.62,52963.37,-287.62,-957.37,0.438876,98.88,1
1225937,1,21513,0,50866,52001,51179.00,52961.45,-313.00,-960.45,0.438641,98.88,1
1225977,1,21553,0,50881,52061,51178.40,52959.65,-297.40,-898.65,0.438405,98.89,1
1226017,1,21593,0,50911,52138,51177.87,52958.01,-266.87,-820.01,0.438169,98.89,1
1226057,1,21633,0,50953,52219,51177.42,52956.54,-224.42,-737.54,0.437932,98.90,1
1226097,1,21673,0,50985,52255,51177.04,52955.13,-192.04,-700.13,0.437693,98.90,1
1226137,1,21713,0,50994,52250,51176.67,52953.72,-182.67,-703.72,0.437453,98.91,1
1226177,1,21753,0,50987,52251,51176.29,52952.32,-189.29,-701.32,0.437212,98.91,1
1226217,1,21793,0,50992,52278,51175.93,52950.97,-183.93,-672.97,0.436969,98.92,1
1226257,1,21833,0,51013,52336,51175.60,52949.74,-162.60,-613.74,0.436725,98.92,1
1226297,1,21873,0,51043,52410,51175.34,52948.66,-132.34,-538.66,0.436481,98.93,1
1226337,1,21913,0,51075,52485,51175.14,52947.74,-100.14,-462.74,0.436235,98.93,1
1226377,1,21953,0,51105,52548,51175.00,52946.94,-70.00,-398.94,0.435989,98.94,1
1226417,1,21993,0,51128,52602,51174.90,52946.25,-46.90,-344.25,0.435743,98.94,1
1226458,1,22034,0,51148,52646,51174.85,52945.66,-26.85,-299.66,0.435496,98.95,1
1226498,1,22074,0,51167,52697,51174.84,52945.16,-7.84,-248.16,0.435249,98.95,1
1226538,1,22114,0,51182,52716,51174.85,52944.70,7.15,-228.70,0.435003,98.96,1
1226578,1,22154,0,51149,52507,51174.80,52943.83,-25.80,-436.83,0.434755,98.96,1
1226618,1,22194,0,51016,52164,51174.48,52942.27,-158.48,-778.27,0.434503,98.97,1
1226658,1,22234,0,50891,51974,51173.92,52940.34,-282.92,-966.34,0.434249,98.97,1
1226698,1,22274,0,50854,51964,51173.28,52938.38,-319.28,-974.38,0.433995,98.98,1
1226738,1,22314,0,50870,52022,51172.68,52936.55,-302.68,-914.55,0.433741,98.98,1
1226778,1,22354,0,50902,52087,51172.14,52934.85,-270.14,-847.85,0.433488,98.99,1
1226818,1,22394,0,50939,52162,51171.67,52933.31,-232.67,-771.31,0.433234,98.99,1
1226858,1,22434,0,50968,52190,51171.27,52931.82,-203.27,-741.82,0.432978,99.00,1
1226898,1,22474,0,50966,52177,51170.86,52930.32,-204.86,-753.32,0.432721,99.01,1
1226938,1,22514,0,50960,52160,51170.43,52928.78,-210.43,-768.78,0.432462,99.01,1
1226978,1,22554,0,50961,52185,51170.02,52927.29,-209.02,-742.29,0.432203,99.02,1
1227018,1,22594,0,50981,52244,51169.64,52925.93,-188.64,-681.93,0.431942,99.02,1
1227058,1,22634,0,51003,52312,51169.31,52924.70,-166.31,-612.70,0.431681,99.03,1
1227098,1,22674,0,51031,52378,51169.04,52923.61,-138.04,-545.61,0.431420,99.03,1
1227139,1,22715,0,51061,52435,51168.82,52922.63,-107.82,-487.63,0.431157,99.04,1
1227179,1,22755,0,51080,52488,51168.64,52921.77,-88.64,-433.77,0.430894,99.04,1
1227219,1,22795,0,51100,52540,51168.51,52921.00,-68.51,-381.00,0.430631,99.05,1
1227259,1,22835,0,51119,52579,51168.41,52920.32,-49.41,-341.32,0.430368,99.06,1
1227299,1,22875,0,51135,52563,51168.34,52919.61,-33.34,-356.61,0.430104,99.06,1
1227339,1,22915,0,51077,52323,51168.16,52918.41,-91.16,-595.41,0.429837,99.07,1
1227379,1,22955,0,50940,52006,51167.71,52916.59,-227.71,-910.59,0.429567,99.07,1
1227419,1,22995,0,50836,51860,51167.05,52914.48,-331.05,-1054.48,0.429297,99.08,1
1227459,1,23035,0,50818,51865,51166.36,52912.38,-348.36,-1047.38,0.429028,99.08,1
1227499,1,23075,0,50836,51914,51165.70,52910.38,-329.70,-996.38,0.428760,99.09,1
1227539,1,23115,0,50863,51993,51165.09,52908.55,-302.09,-915.55,0.428493,99.10,1
1227579,1,23155,0,50901,52062,51164.56,52906.86,-263.56,-844.86,0.428226,99.10,1
1227619,1,23195,0,50921,52078,51164.08,52905.20,-243.08,-827.20,0.427958,99.11,1
1227659,1,23235,0,50919,52069,51163.59,52903.53,-244.59,-834.53,0.427690,99.11,1
1227699,1,23275,0,50915,52072,51163.09,52901.87,-248.09,-829.87,0.427421,99.12,1
1227739,1,23315,0,50923,52112,51162.61,52900.29,-239.61,-788.29,0.427152,99.13,1
1227779,1,23355,0,50947,52176,51162.18,52898.85,-215.18,-722.85,0.426883,99.13,1
1227820,1,23396,0,50975,52250,51161.81,52897.55,-186.81,-647.55,0.426614,99.14,1
1227860,1,23436,0,51007,52327,51161.50,52896.41,-154.50,-569.41,0.426345,99.14,1
1227900,1,23476,0,51035,52397,51161.25,52895.41,-126.25,-498.41,0.426075,99.15,1
1227940,1,23516,0,51062,52450,51161.06,52894.52,-99.06,-444.52,0.425805,99.16,1
1227980,1,23556,0,51087,52498,51160.91,52893.73,-73.91,-395.73,0.425534,99.16,1
1228020,1,23596,0,51105,52554,51160.80,52893.05,-55.80,-339.05,0.425264,99.17,1
1228060,1,23636,0,51126,52549,51160.73,52892.36,-34.73,-343.36,0.424993,99.18,1
1228100,1,23676,0,51084,52312,51160.58,52891.20,-76.58,-579.20,0.424720,99.18,1
1228140,1,23716,0,50943,51995,51160.15,52889.41,-217.15,-894.41,0.424444,99.19,1
1228180,1,23756,0,50835,51841,51159.50,52887.32,-324.50,-1046.32,0.424169,99.19,1
1228220,1,23796,0,50808,51840,51158.80,52885.22,-350.80,-1045.22,0.423894,99.20,1
1228260,1,23836,0,50824,51886,51158.13,52883.23,-334.13,-997.23,0.423622,99.21,1
1228300,1,23876,0,50847,51955,51157.51,52881.37,-310.51,-926.37,0.423351,99.21,1
1228340,1,23916,0,50884,52033,51156.96,52879.68,-272.96,-846.68,0.423081,99.22,1
1228380,1,23956,0,50910,52071,51156.47,52878.06,-246.47,-807.06,0.422811,99.23,1
1228420,1,23996,0,50914,52074,51155.98,52876.45,-241.98,-802.45,0.422541,99.23,1
1228461,1,24037,0,50916,52083,51155.50,52874.87,-239.50,-791.87,0.422271,99.24,1
1228501,1,24077,0,50925,52126,51155.04,52873.37,-230.04,-747.37,0.422001,99.24,1
1228541,1,24117,0,50947,52192,51154.63,52872.01,-207.63,-680.01,0.421732,99.25,1
1228581,1,24157,0,50976,52272,51154.27,52870.81,-178.27,-598.81,0.421463,99.26,1
1228621,1,24197,0,51018,52347,51154.00,52869.76,-136.00,-522.76,0.421193,99.26,1
1228661,1,24237,0,51048,52415,51153.79,52868.86,-105.79,-453.86,0.420924,99.27,1
1228701,1,24277,0,51071,52477,51153.63,52868.07,-82.63,-391.07,0.420655,99.28,1
1228741,1,24317,0,51098,52525,51153.52,52867.39,-55.52,-342.39,0.420385,99.28,1
1228781,1,24357,0,51125,52573,51153.46,52866.80,-28.46,-293.80,0.420115,99.29,1
1228821,1,24397,0,51149,52614,51153.46,52866.30,-4.46,-252.30,0.419846,99.30,1
1228861,1,24437,0,51148,52511,51153.45,52865.59,-5.45,-354.59,0.419576,99.30,1
1228901,1,24477,0,51046,52194,51153.23,52864.25,-107.23,-670.25,0.419303,99.31,1
1228941,1,24517,0,50902,51931,51152.73,52862.38,-250.73,-931.38,0.419029,99.32,1
1228981,1,24557,0,50829,51858,51152.09,52860.37,-323.09,-1002.37,0.418756,99.32,1
1229021,1,24597,0,50825,51885,51151.44,52858.43,-326.44,-973.43,0.418484,99.33,1
1229061,1,24637,0,50840,51938,51150.82,52856.59,-310.82,-918.59,0.418215,99.33,1
1229101,1,24677,0,50871,52014,51150.26,52854.90,-279.26,-840.90,0.417947,99.34,1
1229142,1,24718,0,50901,52067,51149.76,52853.33,-248.76,-786.33,0.417679,99.35,1
1229182,1,24758,0,50917,52094,51149.30,52851.81,-232.30,-757.81,0.417412,99.35,1
1229222,1,24798,0,50915,52094,51148.83,52850.30,-233.83,-756.30,0.417146,99.36,1
1229262,1,24838,0,50920,52119,51148.37,52848.84,-228.37,-729.84,0.416880,99.37,1
1229302,1,24878,0,50940,52172,51147.96,52847.48,-207.96,-675.48,0.416615,99.37,1
1229342,1,24918,0,50974,52249,51147.61,52846.29,-173.61,-597.29,0.416349,99.38,1
1229382,1,24958,0,51005,52326,51147.32,52845.25,-142.32,-519.25,0.416084,99.39,1
1229422,1,24998,0,51039,52399,51147.11,52844.36,-108.11,-445.36,0.415819,99.39,1
1229462,1,25038,0,51076,52460,51146.97,52843.59,-70.97,-383.59,0.415554,99.40,1
1229502,1,25078,0,51098,52507,51146.87,52842.92,-48.87,-335.92,0.415288,99.41,1
1229542,1,25118,0,51114,52550,51146.81,52842.34,-32.81,-292.34,0.415023,99.41,1
1229582,1,25158,0,51134,52585,51146.79,52841.82,-12.79,-256.82,0.414758,99.42,1
1229622,1,25198,0,51150,52628,51146.79,52841.40,3.21,-213.40,0.414493,99.43,1
1229662,1,25238,0,51172,52673,51146.84,52841.06,25.16,-168.06,0.414228,99.43,1
1229702,1,25278,0,51173,52578,51146.90,52840.54,26.10,-262.54,0.413964,99.44,1
1229742,1,25318,0,51069,52255,51146.74,52839.37,-77.74,-584.37,0.413697,99.45,1
1229782,1,25358,0,50922,51978,51146.29,52837.65,-224.29,-859.65,0.413429,99.45,1
1229823,1,25399,0,50846,51904,51145.70,52835.78,-299.70,-931.78,0.413162,99.46,1
1229863,1,25439,0,50840,51933,51145.09,52833.98,-305.09,-900.98,0.412898,99.47,1
1229903,1,25479,0,50860,51989,51144.52,52832.29,-284.52,-843.29,0.412635,99.47,1
1229943,1,25519,0,50885,52065,51144.00,52830.75,-259.00,-765.75,0.412373,99.48,1
1229983,1,25559,0,50924,52118,51143.56,52829.33,-219.56,-711.33,0.412113,99.49,1
1230023,1,25599,0,50934,52122,51143.14,52827.91,-209.14,-705.91,0.411852,99.49,1
1230063,1,25639,0,50926,52118,51142.71,52826.50,-216.71,-708.50,0.411592,99.50,1
1230103,1,25679,0,50936,52139,51142.30,52825.12,-206.30,-686.12,0.411332,99.50,1
1230143,1,25719,0,50954,52191,51141.92,52823.86,-187.92,-632.86,0.411073,99.51,1
1230183,1,25759,0,50986,52265,51141.61,52822.74,-155.61,-557.74,0.410814,99.52,1
1230223,1,25799,0,51021,52339,51141.37,52821.77,-120.37,-482.77,0.410554,99.52,1
1230263,1,25839,0,51050,52411,51141.20,52820.95,-91.20,-409.95,0.410295,99.53,1
1230303,1,25879,0,51079,52466,51141.07,52820.25,-62.07,-354.25,0.410035,99.54,1
1230343,1,25919,0,51102,52513,51140.99,52819.63,-38.99,-306.63,0.409775,99.54,1
1230383,1,25959,0,51116,52551,51140.95,52819.10,-24.95,-268.10,0.409516,99.55,1
1230423,1,25999,0,51131,52591,51140.93,52818.64,-9.93,-227.64,0.409256,99.56,1
1230463,1,26039,0,51148,52638,51140.94,52818.29,7.06,-180.29,0.408997,99.56,1
1230504,1,26080,0,51167,52673,51141.00,52818.00,26.00,-145.00,0.408739,99.57,1
1230544,1,26120,0,51160,52543,51141.04,52817.45,18.96,-274.45,0.408480,99.58,1
1230584,1,26160,0,51042,52219,51140.84,52816.25,-98.84,-597.25,0.408220,99.58,1
1230624,1,26200,0,50911,51988,51140.38,52814.60,-229.38,-826.60,0.407959,99.59,1
1230664,1,26240,0,50856,51943,51139.82,52812.86,-283.82,-869.86,0.407699,99.60,1
1230704,1,26280,0,50858,51982,51139.25,52811.20,-281.25,-829.20,0.407441,99.60,1
1230744,1,26320,0,50883,52042,51138.74,52809.66,-255.74,-767.66,0.407186,99.61,1
1230784,1,26360,0,50918,52118,51138.30,52808.28,-220.30,-690.28,0.406931,99.62,1
1230824,1,26400,0,50950,52170,51137.93,52807.00,-187.93,-637.00,0.406676,99.62,1
1230864,1,26440,0,50969,52190,51137.59,52805.77,-168.59,-615.77,0.406421,99.63,1
1230904,1,26480,0,50966,52186,51137.25,52804.53,-171.25,-618.53,0.406166,99.64,1
1230944,1,26520,0,50973,52213,51136.92,52803.35,-163.92,-590.35,0.405911,99.64,1
1230984,1,26560,0,50990,52273,51136.62,52802.29,-146.62,-529.29,0.405657,99.65,1
1231024,1,26600,0,51019,52352,51136.39,52801.39,-117.39,-449.39,0.405402,99.65,1
1231064,1,26640,0,51051,52431,51136.22,52800.65,-85.22,-369.65,0.405147,99.66,1
1231105,1,26681,0,51084,52503,51136.12,52800.06,-52.12,-297.06,0.404893,99.67,1
1231145,1,26721,0,51114,52560,51136.08,52799.58,-22.08,-239.58,0.404638,99.67,1
1231185,1,26761,0,51136,52615,51136.08,52799.21,-0.08,-184.21,0.404384,99.68,1
1231225,1,26801,0,51157,52661,51136.12,52798.94,20.88,-137.94,0.404131,99.69,1
1231265,1,26841,0,51175,52706,51136.20,52798.75,38.80,-92.75,0.403879,99.69,1
1231305,1,26881,0,51197,52759,51136.32,52798.68,60.68,-39.68,0.403627,99.70,1
1231345,1,26921,0,51208,52696,51136.46,52798.47,71.54,-102.47,0.403377,99.71,1
1231385,1,26961,0,51126,52403,51136.45,52797.68,-10.45,-394.68,0.403126,99.71,1
1231425,1,27001,0,50988,52122,51136.15,52796.33,-148.15,-674.33,0.402873,99.72,1
1231465,1,27041,0,50907,52025,51135.69,52794.79,-228.69,-769.79,0.402620,99.73,1
1231505,1,27081,0,50895,52040,51135.21,52793.28,-240.21,-753.28,0.402368,99.73,1
1231545,1,27121,0,50914,52091,51134.77,52791.88,-220.77,-700.88,0.402117,99.74,1
1231585,1,27161,0,50938,52155,51134.38,52790.61,-196.38,-635.61,0.401867,99.75,1
1231625,1,27201,0,50974,52225,51134.06,52789.48,-160.06,-564.48,0.401618,99.75,1
1231665,1,27241,0,50992,52259,51133.78,52788.42,-141.78,-529.42,0.401368,99.76,1
1231705,1,27281,0,50995,52262,51133.50,52787.37,-138.50,-525.37,0.401118,99.76,1
1231745,1,27321,0,50998,52278,51133.23,52786.35,-135.23,-508.35,0.400868,99.77,1
1231786,1,27362,0,51015,52329,51133.00,52785.44,-118.00,-456.44,0.400618,99.78,1
1231826,1,27402,0,51038,52398,51132.81,52784.66,-94.81,-386.66,0.400368,99.78,1
1231866,1,27442,0,51073,52485,51132.69,52784.07,-59.69,-299.07,0.400118,99.79,1
1231906,1,27482,0,51106,52560,51132.64,52783.62,-26.64,-223.62,0.399868,99.80,1
1231946,1,27522,0,51143,52629,51132.66,52783.31,10.34,-154.31,0.399619,99.80,1
1231986,1,27562,0,51166,52693,51132.73,52783.13,33.27,-90.13,0.399371,99.81,1
1232026,1,27602,0,51191,52745,51132.85,52783.06,58.15,-38.06,0.399123,99.81,1
1232066,1,27642,0,51217,52796,51133.02,52783.09,83.98,12.91,0.398878,99.82,1
1232106,1,27682,0,51246,52845,51133.24,52783.21,112.76,61.79,0.398635,99.83,1
1232146,1,27722,0,51261,52868,51133.50,52783.38,127.50,84.62,0.398395,99.83,1
1232186,1,27762,0,51241,52698,51133.71,52783.21,107.29,-85.21,0.398156,99.84,1
1232226,1,27802,0,51119,52369,51133.69,52782.39,-14.69,-413.39,0.397917,99.84,1
1232266,1,27842,0,50992,52166,51133.41,52781.16,-141.41,-615.16,0.397676,99.85,1
1232306,1,27882,0,50950,52133,51133.04,52779.86,-183.04,-646.86,0.397435,99.85,1
1232346,1,27922,0,50957,52172,51132.69,52778.64,-175.69,-606.64,0.397193,99.85,1
1232386,1,27962,0,50976,52232,51132.37,52777.55,-156.37,-545.55,0.396953,99.86,1
1232426,1,28002,0,51006,52301,51132.12,52776.60,-126.12,-475.60,0.396712,99.86,1
1232467,1,28043,0,51029,52333,51131.92,52775.71,-102.92,-442.71,0.396471,99.87,1
1232507,1,28083,0,51037,52331,51131.73,52774.82,-94.73,-443.82,0.396229,99.87,1
1232547,1,28123,0,51026,52333,51131.52,52773.94,-105.52,-440.94,0.395987,99.88,1
1232587,1,28163,0,51034,52361,51131.33,52773.12,-97.33,-412.12,0.395744,99.88,1
1232627,1,28203,0,51057,52416,51131.18,52772.41,-74.18,-356.41,0.395502,99.88,1
1232667,1,28243,0,51085,52499,51131.09,52771.86,-46.09,-272.86,0.395259,99.89,1
1232707,1,28283,0,51121,52576,51131.07,52771.47,-10.07,-195.47,0.395017,99.89,1
1232747,1,28323,0,51155,52649,51131.12,52771.23,23.88,-122.23,0.394775,99.89,1
1232787,1,28363,0,51184,52701,51131.23,52771.09,52.77,-70.09,0.394535,99.90,1
1232827,1,28403,0,51211,52742,51131.39,52771.03,79.61,-29.03,0.394296,99.90,1
1232867,1,28443,0,51223,52781,51131.57,52771.05,91.43,9.95,0.394059,99.90,1
1232907,1,28483,0,51238,52818,51131.79,52771.14,106.21,46.86,0.393824,99.91,1
1232947,1,28523,0,51258,52848,51132.04,52771.30,125.96,76.70,0.393593,99.91,1
1232987,1,28563,0,51246,52711,51132.27,52771.18,113.73,-60.18,0.393364,99.91,1
1233027,1,28603,0,51131,52385,51132.27,52770.41,-1.27,-385.41,0.393134,99.91,1
1233067,1,28643,0,50999,52156,51132.00,52769.18,-133.00,-613.18,0.392901,99.92,1
1233107,1,28683,0,50937,52106,51131.61,52767.86,-194.61,-661.86,0.392669,99.92,1
1233148,1,28724,0,50942,52142,51131.23,52766.61,-189.23,-624.61,0.392437,99.92,1
1233188,1,28764,0,50964,52211,51130.90,52765.50,-166.90,-554.50,0.392206,99.92,1
1233228,1,28804,0,50996,52290,51130.63,52764.55,-134.63,-474.55,0.391975,99.93,1
1233268,1,28844,0,51029,52337,51130.43,52763.69,-101.43,-426.69,0.391744,99.93,1
1233308,1,28884,0,51037,52342,51130.25,52762.85,-93.25,-420.85,0.391512,99.93,1
1233348,1,28924,0,51034,52337,51130.05,52762.00,-96.05,-425.00,0.391280,99.93,1
1233388,1,28964,0,51038,52362,51129.87,52761.20,-91.87,-399.20,0.391047,99.93,1
1233428,1,29004,0,51062,52416,51129.74,52760.51,-67.74,-344.51,0.390814,99.94,1
1233468,1,29044,0,51089,52485,51129.66,52759.96,-40.66,-274.96,0.390581,99.94,1
1233508,1,29084,0,51122,52565,51129.64,52759.57,-7.64,-194.57,0.390348,99.94,1
1233548,1,29124,0,51154,52632,51129.69,52759.32,24.31,-127.32,0.390115,99.94,1
1233588,1,29164,0,51178,52681,51129.79,52759.16,48.21,-78.16,0.389884,99.94,1
1233628,1,29204,0,51200,52732,51129.93,52759.11,70.07,-27.11,0.389654,99.95,1
1233668,1,29244,0,51222,52773,51130.11,52759.14,91.89,13.86,0.389426,99.95,1
1233708,1,29284,0,51232,52814,51130.32,52759.25,101.68,54.75,0.389201,99.95,1
1233749,1,29325,0,51241,52729,51130.54,52759.19,110.46,-30.19,0.388978,99.95,1
1233789,1,29365,0,51142,52427,51130.57,52758.52,11.43,-331.52,0.388754,99.95,1
1233829,1,29405,0,51006,52163,51130.32,52757.33,-124.32,-594.33,0.388528,99.95,1
1233869,1,29445,0,50928,52088,51129.92,52756.00,-201.92,-668.00,0.388303,99.95,1
1233909,1,29485,0,50928,52121,51129.52,52754.73,-201.52,-633.73,0.388078,99.96,1
1233949,1,29525,0,50952,52181,51129.16,52753.58,-177.16,-572.58,0.387855,99.96,1
1233989,1,29565,0,50978,52262,51128.86,52752.60,-150.86,-490.60,0.387632,99.96,1
1234029,1,29605,0,51017,52323,51128.64,52751.74,-111.64,-428.74,0.387409,99.96,1
1234069,1,29645,0,51040,52342,51128.46,52750.93,-88.46,-408.93,0.387186,99.96,1
1234109,1,29685,0,51041,52339,51128.29,52750.10,-87.29,-411.10,0.386962,99.96,1
1234149,1,29725,0,51043,52353,51128.12,52749.31,-85.12,-396.31,0.386737,99.96,1
1234189,1,29765,0,51052,52405,51127.97,52748.62,-75.97,-343.62,0.386512,99.96,1
1234229,1,29805,0,51082,52465,51127.88,52748.05,-45.88,-283.05,0.386287,99.97,1
1234269,1,29845,0,51111,52542,51127.85,52747.64,-16.85,-205.64,0.386062,99.97,1
1234309,1,29885,0,51141,52610,51127.87,52747.37,13.13,-137.37,0.385837,99.97,1
1234349,1,29925,0,51167,52671,51127.95,52747.22,39.05,-76.22,0.385613,99.97,1
1234389,1,29965,0,51194,52724,51128.09,52747.17,65.91,-23.17,0.385390,99.97,1
1234430,1,30006,0,51212,52771,51128.25,52747.22,83.75,23.78,0.385170,99.97,1
1234470,1,30046,1,51234,52821,51128.46,52747.37,105.54,73.63,0.384952,99.97,1
1234510,1,30086,1,51245,52814,51128.70,52747.50,116.30,66.50,0.384737,99.97,1
1234550,1,30126,1,51195,52574,51128.83,52747.16,66.17,-173.16,0.384523,99.97,1
1234590,1,30166,1,51058,52246,51128.69,52746.16,-70.69,-500.16,0.384307,99.97,1
1234630,1,30206,1,50946,52097,51128.33,52744.86,-182.33,-647.86,0.384090,99.97,1
1234670,1,30246,1,50923,52105,51127.92,52743.59,-204.92,-638.59,0.383874,99.98,1
1234710,1,30286,1,50939,52157,51127.54,52742.41,-188.54,-585.41,0.383660,99.98,1
1234750,1,30326,1,50972,52223,51127.23,52741.37,-155.23,-518.37,0.383447,99.98,1
1234790,1,30366,1,51009,52299,51127.00,52740.49,-118.00,-441.49,0.383233,99.98,1
1234830,1,30406,1,51033,52330,51126.81,52739.67,-93.81,-409.67,0.383019,99.98,1
1234870,1,30446,1,51033,52324,51126.62,52738.84,-93.62,-414.84,0.382804,99.98,1
1234910,1,30486,1,51026,52322,51126.43,52738.01,-100.43,-416.01,0.382588,99.98,1
1234950,1,30526,1,51034,52360,51126.24,52737.26,-92.24,-377.26,0.382373,99.98,1
1234990,1,30566,1,51058,52425,51126.11,52736.63,-68.11,-311.63,0.382157,99.98,1
1235030,1,30606,1,51086,52496,51126.03,52736.15,-40.03,-240.15,0.381941,99.98,1
1235071,1,30647,1,51116,52563,51126.01,52735.81,-10.01,-172.81,0.381725,99.98,1
1235111,1,30687,1,51142,52629,51126.04,52735.60,15.96,-106.60,0.381510,99.98,1
1235151,1,30727,1,51167,52688,51126.12,52735.50,40.88,-47.50,0.381295,99.98,1
1235191,1,30767,1,51184,52740,51126.24,52735.52,57.76,4.48,0.381082,99.98,1
1235231,1,30807,1,51210,52785,51126.41,52735.62,83.59,49.38,0.380871,99.98,1
1235271,1,30847,1,51228,52833,51126.61,52735.81,101.39,97.19,0.380663,99.98,1
1235311,1,30887,1,51236,52766,51126.83,52735.87,109.17,30.12,0.380458,99.98,1
1235351,1,30927,1,51157,52459,51126.89,52735.32,30.11,-276.32,0.380252,99.99,1
1235391,1,30967,1,51017,52180,51126.68,52734.21,-109.68,-554.21,0.380043,99.99,1
1235431,1,31007,1,50938,52096,51126.30,52732.94,-188.30,-636.94,0.379835,99.99,1
1235471,1,31047,1,50931,52124,51125.91,52731.73,-194.91,-607.73,0.379628,99.99,1
1235511,1,31087,1,50951,52171,51125.56,52730.61,-174.56,-559.61,0.379422,99.99,1
1235551,1,31127,1,50979,52249,51125.27,52729.64,-146.27,-480.64,0.379217,99.99,1
1235591,1,31167,1,51008,52303,51125.04,52728.79,-117.04,-425.79,0.379011,99.99,1
1235631,1,31207,1,51018,52303,51124.82,52727.94,-106.82,-424.94,0.378806,99.99,1
1235672,1,31248,1,51005,52277,51124.59,52727.04,-119.59,-450.04,0.378600,99.99,1
1235712,1,31288,1,51001,52279,51124.34,52726.14,-123.34,-447.14,0.378394,99.99,1
1235752,1,31328,1,51008,52329,51124.11,52725.35,-116.11,-396.35,0.378189,99.99,1
1235792,1,31368,1,51029,52391,51123.92,52724.68,-94.92,-333.68,0.377984,99.99,1
1235832,1,31408,1,51063,52456,51123.80,52724.15,-60.80,-268.15,0.377779,99.99,1
1235872,1,31448,1,51092,52526,51123.74,52723.75,-31.74,-197.75,0.377574,99.99,1
1235912,1,31488,1,51116,52588,51123.72,52723.48,-7.72,-135.48,0.377369,99.99,1
1235952,1,31528,1,51146,52635,51123.77,52723.31,22.23,-88.31,0.377165,99.99,1
1235992,1,31568,1,51162,52662,51123.85,52723.19,38.15,-61.19,0.376962,99.99,1
1236032,1,31608,1,51177,52690,51123.96,52723.12,53.04,-33.12,0.376760,99.99,1
1236072,1,31648,1,51195,52726,51124.10,52723.13,70.90,2.87,0.376560,99.99,1
1236112,1,31688,1,51195,52703,51124.25,52723.09,70.75,-20.09,0.376361,99.99,1
1236152,1,31728,1,51146,52432,51124.29,52722.51,21.71,-290.51,0.376162,99.99,1
1236192,1,31768,1,50993,52095,51124.03,52721.25,-131.03,-626.25,0.375958,99.99,1
1236232,1,31808,1,50874,51923,51123.53,52719.66,-249.53,-796.66,0.375757,99.99,1
1236272,1,31848,1,50835,51893,51122.95,52718.01,-287.95,-825.01,0.375561,99.99,1
1236313,1,31889,1,50838,51919,51122.38,52716.41,-284.38,-797.41,0.375371,99.99,1
1236353,1,31929,1,50851,51959,51121.84,52714.90,-270.84,-755.90,0.375185,99.99,1
1236393,1,31969,1,50866,52002,51121.33,52713.47,-255.33,-711.47,0.375004,99.99,1
1236433,1,32009,1,50874,51996,51120.84,52712.04,-246.84,-716.04,0.374826,99.99,1
1236473,1,32049,1,50869,51986,51120.33,52710.59,-251.33,-724.59,0.374652,99.99,1
1236513,1,32089,1,50872,52009,51119.84,52709.19,-247.84,-700.19,0.374481,99.99,1
1236553,1,32129,1,50891,52082,51119.38,52707.93,-228.38,-625.93,0.374314,99.99,1
1236593,1,32169,1,50931,52166,51119.00,52706.85,-188.00,-540.85,0.374148,99.99,1
1236633,1,32209,1,50970,52253,51118.71,52705.95,-148.71,-452.95,0.373984,99.99,1
1236673,1,32249,1,51010,52329,51118.49,52705.19,-108.49,-376.19,0.373819,99.99,1
1236713,1,32289,1,51037,52390,51118.33,52704.56,-81.33,-314.56,0.373655,99.99,1
1236753,1,32329,1,51059,52436,51118.21,52704.03,-59.21,-268.03,0.373490,100.00,1
1236793,1,32369,1,51075,52477,51118.13,52703.57,-43.13,-226.57,0.373325,100.00,1
1236833,1,32409,1,51094,52513,51118.08,52703.20,-24.08,-190.20,0.373160,100.00,1
1236873,1,32449,1,51106,52550,51118.06,52702.89,-12.06,-152.89,0.372995,100.00,1
1236913,1,32489,1,51113,52504,51118.05,52702.50,-5.05,-198.50,0.372830,100.00,1
1236953,1,32529,1,51041,52259,51117.90,52701.61,-76.90,-442.61,0.372663,100.00,1
1236994,1,32570,1,50923,52026,51117.51,52700.26,-194.51,-674.26,0.372495,100.00,1
1237034,1,32610,1,50865,52000,51117.01,52698.86,-252.01,-698.86,0.372331,100.00,1
1237074,1,32650,1,50876,52068,51116.53,52697.60,-240.53,-629.60,0.372172,100.00,1
1237114,1,32690,1,50917,52156,51116.13,52696.52,-199.13,-540.52,0.372015,100.00,1
1237154,1,32730,1,50951,52230,51115.80,52695.58,-164.80,-465.58,0.371860,100.00,1
1237194,1,32770,1,50983,52266,51115.54,52694.72,-132.54,-428.72,0.371706,100.00,1
1237234,1,32810,1,50979,52250,51115.26,52693.84,-136.26,-443.84,0.371552,100.00,1
1237274,1,32850,1,50970,52241,51114.97,52692.93,-144.97,-451.93,0.371399,100.00,1
1237314,1,32890,1,50977,52285,51114.70,52692.11,-137.70,-407.11,0.371247,100.00,1
1237354,1,32930,1,51013,52359,51114.50,52691.45,-101.50,-332.45,0.371095,100.00,1
1237394,1,32970,1,51042,52435,51114.35,52690.94,-72.35,-255.94,0.370943,100.00,1
1237434,1,33010,1,51073,52513,51114.27,52690.58,-41.27,-177.58,0.370792,100.00,1
1237474,1,33050,1,51108,52591,51114.26,52690.38,-6.26,-99.38,0.370641,100.00,1
1237514,1,33090,1,51135,52648,51114.30,52690.30,20.70,-42.30,0.370490,100.00,1
1237554,1,33130,1,51153,52699,51114.38,52690.32,38.62,8.68,0.370340,100.00,1
1237594,1,33170,1,51175,52746,51114.50,52690.43,60.50,55.57,0.370191,100.00,1
1237635,1,33211,1,51195,52800,51114.66,52690.65,80.34,109.35,0.370044,100.00,1
1237675,1,33251,1,51206,52768,51114.85,52690.81,91.15,77.19,0.369899,100.00,1
1237715,1,33291,1,51141,52538,51114.90,52690.50,26.10,-152.50,0.369754,100.00,1
1237755,1,33331,1,51028,52315,51114.73,52689.75,-86.73,-374.75,0.369608,100.00,1
1237795,1,33371,1,50969,52261,51114.44,52688.90,-145.44,-427.90,0.369464,100.00,1
1237835,1,33411,1,50980,52318,51114.18,52688.16,-134.18,-370.16,0.369321,100.00,1
1237875,1,33451,1,51016,52418,51113.98,52687.62,-97.98,-269.62,0.369178,100.00,1
1237915,1,33491,1,51058,52509,51113.87,52687.26,-55.87,-178.26,0.369037,100.00,1
1237955,1,33531,1,51094,52550,51113.83,52686.99,-19.83,-136.99,0.368895,100.00,1
1237995,1,33571,1,51102,52541,51113.81,52686.70,-11.81,-145.70,0.368753,100.00,1
1238035,1,33611,1,51091,52535,51113.77,52686.40,-22.77,-151.40,0.368611,100.00,1
1238075,1,33651,1,51093,52550,51113.73,52686.13,-20.73,-136.13,0.368470,100.00,1
1238115,1,33691,1,51109,52600,51113.72,52685.96,-4.72,-85.96,0.368329,100.00,1
1238155,1,33731,1,51139,52667,51113.77,52685.92,25.23,-18.92,0.368188,100.00,1
1238195,1,33771,1,51159,52738,51113.86,52686.03,45.14,51.97,0.368048,100.00,1
1238235,1,33811,1,51189,52804,51114.01,52686.27,74.99,117.73,0.367909,100.00,1
1238276,1,33852,1,51209,52861,51114.20,52686.62,94.80,174.38,0.367773,100.00,1
1238316,1,33892,1,51232,52919,51114.44,52687.08,117.56,231.92,0.367639,100.00,1
1238356,1,33932,1,51250,52974,51114.71,52687.66,135.29,286.34,0.367508,100.00,1
1238396,1,33972,1,51269,52965,51115.02,52688.21,153.98,276.79,0.367381,100.00,1
1238436,1,34012,1,51226,52766,51115.25,52688.37,110.75,77.63,0.367258,100.00,1
1238476,1,34052,1,51112,52532,51115.24,52688.05,-3.24,-156.05,0.367134,100.00,1
1238516,1,34092,1,51040,52445,51115.09,52687.57,-75.09,-242.57,0.367011,100.00,1
1238556,1,34132,1,51039,52481,51114.94,52687.16,-75.94,-206.16,0.366889,100.00,1
1238596,1,34172,1,51072,52561,51114.86,52686.91,-42.86,-125.91,0.366767,100.00,1
1238636,1,34212,1,51112,52654,51114.85,52686.84,-2.85,-32.84,0.366645,100.00,1
1238676,1,34252,1,51148,52715,51114.92,52686.90,33.08,28.10,0.366524,100.00,1
1238716,1,34292,1,51158,52723,51115.00,52686.98,43.00,36.02,0.366404,100.00,1
1238756,1,34332,1,51151,52712,51115.08,52687.03,35.92,24.97,0.366284,100.00,1
1238796,1,34372,1,51150,52725,51115.15,52687.11,34.85,37.89,0.366165,100.00,1
1238836,1,34412,1,51161,52775,51115.24,52687.28,45.76,87.72,0.366047,100.00,1
1238876,1,34452,1,51188,52847,51115.39,52687.60,72.61,159.40,0.365930,100.00,1
1238916,1,34492,1,51217,52920,51115.59,52688.07,101.41,231.93,0.365814,100.00,1
1238957,1,34533,1,51245,52995,51115.86,52688.68,129.14,306.32,0.365701,100.00,1
1238997,1,34573,1,51273,53067,51116.17,52689.44,156.83,377.56,0.365592,100.00,1
1239037,1,34613,1,51302,53139,51116.54,52690.34,185.46,448.66,0.365486,100.00,1
1239077,1,34653,1,51324,53193,51116.96,52691.35,207.04,501.65,0.365385,100.00,1
1239117,1,34693,1,51341,53166,51117.41,52692.30,223.59,473.70,0.365292,100.00,1
1239157,1,34733,1,51282,52967,51117.74,52692.85,164.26,274.15,0.365205,100.00,1
1239197,1,34773,1,51184,52783,51117.87,52693.03,66.12,89.97,0.365119,100.00,1
1239237,1,34813,1,51143,52738,51117.93,52693.12,25.07,44.88,0.365033,100.00,1
1239277,1,34853,1,51150,52782,51117.99,52693.30,32.01,88.70,0.364947,100.00,1
1239317,1,34893,1,51178,52863,51118.11,52693.64,59.89,169.36,0.364862,100.00,1
1239357,1,34933,1,51216,52941,51118.31,52694.14,97.69,246.86,0.364778,100.00,1
1239397,1,34973,1,51243,52990,51118.56,52694.73,124.44,295.27,0.364696,100.00,1
1239437,1,35013,1,51250,52994,51118.82,52695.33,131.18,298.67,0.364616,100.00,1
1239477,1,35053,1,51241,52995,51119.07,52695.93,121.93,299.07,0.364539,100.00,1
1239517,1,35093,1,51245,53025,51119.32,52696.59,125.68,328.41,0.364462,100.00,1
1239558,1,35134,1,51263,53083,51119.61,52697.37,143.39,385.63,0.364387,100.00,1
1239598,1,35174,1,51291,53151,51119.96,52698.28,171.04,452.72,0.364315,100.00,1
1239638,1,35214,1,51317,53227,51120.35,52699.34,196.65,527.66,0.364245,100.00,1
1239678,1,35254,1,51346,53299,51120.80,52700.54,225.20,598.46,0.364178,100.00,1
1239718,1,35294,1,51376,53373,51121.32,52701.88,254.68,671.12,0.364116,100.00,1
1239758,1,35334,1,51404,53443,51121.88,52703.37,282.12,739.63,0.364059,100.00,1
1239798,1,35374,1,51429,53483,51122.50,52704.93,306.50,778.07,0.364009,100.00,1
1239838,1,35414,1,51420,53365,51123.10,52706.25,296.90,658.75,0.363969,100.00,1
1239878,1,35454,1,51341,53165,51123.54,52707.17,217.46,457.83,0.363935,100.00,1
1239918,1,35494,1,51263,53068,51123.82,52707.89,139.18,360.11,0.363902,100.00,1
1239958,1,35534,1,51245,53074,51124.06,52708.62,120.94,365.37,0.363869,100.00,1
1239998,1,35574,1,51266,53121,51124.34,52709.45,141.66,411.55,0.363836,100.00,1
1240038,1,35614,1,51290,53194,51124.68,52710.42,165.32,483.58,0.363804,100.00,1
1240078,1,35654,1,51319,53252,51125.07,52711.50,193.93,540.50,0.363772,100.00,1
1240118,1,35694,1,51330,53266,51125.48,52712.61,204.52,553.39,0.363741,100.00,1
1240159,1,35735,1,51326,53260,51125.88,52713.71,200.12,546.29,0.363712,100.00,1
1240199,1,35775,1,51324,53273,51126.28,52714.83,197.72,558.17,0.363684,100.00,1
1240239,1,35815,1,51335,53319,51126.70,52716.04,208.30,602.96,0.363656,100.00,1
1240279,1,35855,1,51357,53380,51127.16,52717.37,229.84,662.63,0.363628,100.00,1
1240319,1,35895,1,51386,53449,51127.68,52718.84,258.32,730.16,0.363602,100.00,1
1240359,1,35935,1,51413,53521,51128.25,52720.44,284.75,800.56,0.363576,100.00,1
1240399,1,35975,1,51441,53577,51128.87,52722.16,312.13,854.84,0.363553,100.00,1
1240439,1,36015,1,51469,53636,51129.55,52723.98,339.45,912.02,0.363534,100.00,1
1240479,1,36055,1,51496,53685,51130.29,52725.91,365.71,959.09,0.363519,100.00,1
1240519,1,36095,1,51505,53630,51131.04,52727.71,373.96,902.29,0.363513,100.00,1
1240559,1,36135,1,51436,53445,51131.64,52729.15,304.36,715.85,0.363513,100.00,1
1240599,1,36175,1,51356,53316,51132.09,52730.33,223.91,585.67,0.363514,100.00,1
1240639,1,36215,1,51326,53292,51132.48,52731.45,193.52,560.55,0.363515,100.00,1
1240679,1,36255,1,51333,53336,51132.89,52732.66,200.11,603.34,0.363514,100.00,1
1240719,1,36295,1,51358,53399,51133.34,52734.00,224.66,665.00,0.363513,100.00,1
1240759,1,36335,1,51382,53457,51133.84,52735.45,248.16,721.55,0.363512,100.00,1
1240800,1,36376,1,51402,53479,51134.38,52736.94,267.62,742.06,0.363511,100.00,1
1240840,1,36416,1,51402,53469,51134.91,52738.40,267.09,730.60,0.363511,100.00,1
1240880,1,36456,1,51392,53473,51135.43,52739.87,256.57,733.13,0.363511,100.00,1
1240920,1,36496,1,51397,53496,51135.95,52741.38,261.05,754.62,0.363510,100.00,1
1240960,1,36536,1,51412,53542,51136.51,52742.98,275.49,799.02,0.363509,100.00,1
1241000,1,36576,1,51435,53603,51137.11,52744.71,297.89,858.29,0.363508,100.00,1
1241040,1,36616,1,51466,53664,51137.77,52746.55,328.23,917.45,0.363507,100.00,1
1241080,1,36656,1,51491,53719,51138.47,52748.49,352.53,970.51,0.363507,100.00,1
1241120,1,36696,1,51516,53767,51139.23,52750.53,376.77,1016.47,0.363510,100.00,1
1241160,1,36736,1,51536,53813,51140.02,52752.66,395.98,1060.34,0.363515,100.00,1
1241200,1,36776,1,51553,53821,51140.85,52754.79,412.15,1066.21,0.363524,100.00,1
1241240,1,36816,1,51515,53669,51141.60,52756.62,373.40,912.38,0.363538,100.00,1
1241280,1,36856,1,51435,53516,51142.19,52758.14,292.81,757.86,0.363554,100.00,1
1241320,1,36896,1,51389,53464,51142.69,52759.55,246.31,704.45,0.363570,100.00,1
1241360,1,36936,1,51386,53497,51143.18,52761.03,242.82,735.97,0.363584,100.00,1
1241400,1,36976,1,51406,53546,51143.70,52762.60,262.30,783.40,0.363597,100.00,1
1241441,1,37017,1,51431,53606,51144.28,52764.29,286.72,841.71,0.363608,100.00,1
1241481,1,37057,1,51452,53636,51144.89,52766.04,307.11,869.96,0.363620,100.00,1
1241521,1,37097,1,51448,53631,51145.50,52767.77,302.50,863.23,0.363631,100.00,1
1241561,1,37137,1,51441,53616,51146.10,52769.46,294.90,846.54,0.363641,100.00,1
1241601,1,37177,1,51440,53620,51146.69,52771.17,293.31,848.83,0.363651,100.00,1
1241641,1,37217,1,51453,53654,51147.30,52772.93,305.70,881.07,0.363660,100.00,1
1241681,1,37257,1,51464,53704,51147.93,52774.80,316.07,929.20,0.363668,100.00,1
1241721,1,37297,1,51488,53753,51148.61,52776.75,339.39,976.25,0.363675,100.00,1
1241761,1,37337,1,51511,53795,51149.34,52778.79,361.66,1016.21,0.363683,100.00,1
1241801,1,37377,1,51534,53835,51150.11,52780.91,383.89,1054.09,0.363691,100.00,1
1241841,1,37417,1,51548,53879,51150.91,52783.11,397.09,1095.89,0.363700,100.00,1
1241881,1,37457,1,51566,53914,51151.74,52785.37,414.26,1128.63,0.363711,100.00,1
1241921,1,37497,1,51574,53858,51152.59,52787.52,421.41,1070.48,0.363725,100.00,1
1241961,1,37537,1,51511,53696,51153.30,52789.33,357.70,906.67,0.363741,100.00,1
1242001,1,37577,1,51437,53584,51153.87,52790.92,283.12,793.08,0.363758,100.00,1
1242041,1,37617,1,51409,53568,51154.39,52792.48,254.61,775.52,0.363773,100.00,1
1242082,1,37658,1,51424,53607,51154.93,52794.11,269.07,812.89,0.363787,100.00,1
1242122,1,37698,1,51441,53654,51155.50,52795.83,285.50,858.17,0.363799,100.00,1
1242162,1,37738,1,51463,53704,51156.12,52797.64,306.88,906.36,0.363810,100.00,1
1242202,1,37778,1,51475,53715,51156.76,52799.48,318.24,915.52,0.363821,100.00,1
1242242,1,37818,1,51474,53703,51157.39,52801.29,316.61,901.71,0.363832,100.00,1
1242282,1,37858,1,51471,53699,51158.02,52803.09,312.98,895.91,0.363842,100.00,1
1242322,1,37898,1,51470,53718,51158.65,52804.92,311.35,913.08,0.363851,100.00,1
1242362,1,37938,1,51482,53754,51159.30,52806.82,322.70,947.18,0.363859,100.00,1
1242402,1,37978,1,51503,53797,51159.98,52808.80,343.02,988.20,0.363867,100.00,1
1242442,1,38018,1,51529,53835,51160.72,52810.85,368.28,1024.15,0.363875,100.00,1
1242482,1,38058,1,51546,53872,51161.50,52812.98,384.50,1059.02,0.363883,100.00,1
1242522,1,38098,1,51562,53918,51162.30,52815.19,399.70,1102.81,0.363893,100.00,1
1242562,1,38138,1,51579,53949,51163.13,52817.46,415.87,1131.54,0.363903,100.00,1
1242602,1,38178,1,51595,53966,51164.00,52819.75,431.00,1146.25,0.363915,100.00,1
1242642,1,38218,1,51575,53861,51164.82,52821.84,410.18,1039.16,0.363930,100.00,1
1242682,1,38258,1,51501,53694,51165.49,52823.58,335.51,870.42,0.363947,100.00,1
1242722,1,38298,1,51441,53603,51166.04,52825.14,274.96,777.86,0.363963,100.00,1
1242763,1,38339,1,51427,53597,51166.57,52826.69,260.43,770.31,0.363978,100.00,1
1242803,1,38379,1,51437,53637,51167.11,52828.31,269.89,808.69,0.363993,100.00,1
1242843,1,38419,1,51451,53686,51167.68,52830.02,283.32,855.98,0.364006,100.00,1
1242883,1,38459,1,51475,53719,51168.30,52831.80,306.70,887.20,0.364018,100.00,1
1242923,1,38499,1,51482,53713,51168.93,52833.57,313.07,879.43,0.364031,100.00,1
1242963,1,38539,1,51476,53699,51169.54,52835.30,306.46,863.70,0.364044,100.00,1
1243003,1,38579,1,51468,53697,51170.14,52837.03,297.86,859.97,0.364056,100.00,1
1243043,1,38619,1,51477,53718,51170.75,52838.79,306.25,879.21,0.364067,100.00,1
1243083,1,38659,1,51496,53758,51171.41,52840.63,324.59,917.37,0.364079,100.00,1
1243123,1,38699,1,51524,53802,51172.11,52842.55,351.89,959.45,0.364091,100.00,1
1243163,1,38739,1,51540,53847,51172.85,52844.57,367.15,1002.43,0.364103,100.00,1
1243203,1,38779,1,51560,53887,51173.63,52846.65,386.37,1040.35,0.364117,100.00,1
1243243,1,38819,1,51579,53928,51174.44,52848.82,404.56,1079.18,0.364132,100.00,1
1243283,1,38859,1,51597,53959,51175.29,52851.04,421.71,1107.96,0.364149,100.00,1
1243323,1,38899,1,51609,53979,51176.16,52853.30,432.84,1125.70,0.364167,100.00,1
1243363,1,38939,1,51596,53888,51177.00,52855.37,419.00,1032.63,0.364189,100.00,1
1243403,1,38979,1,51526,53719,51177.70,52857.10,348.30,861.90,0.364212,100.00,1
1243444,1,39020,1,51467,53618,51178.27,52858.62,288.73,759.38,0.364237,100.00,1
1243484,1,39060,1,51442,53613,51178.80,52860.13,263.20,752.87,0.364260,100.00,1
1243524,1,39100,1,51456,53650,51179.36,52861.71,276.64,788.29,0.364284,100.00,1
1243564,1,39140,1,51479,53698,51179.96,52863.39,299.04,834.61,0.364307,100.00,1
1243604,1,39180,1,51506,53734,51180.61,52865.13,325.39,868.87,0.364331,100.00,1
1243644,1,39220,1,51512,53732,51181.27,52866.87,330.73,865.13,0.364356,100.00,1
1243684,1,39260,1,51502,53712,51181.92,52868.56,320.08,843.44,0.364381,100.00,1
1243724,1,39300,1,51505,53707,51182.57,52870.24,322.43,836.76,0.364408,100.00,1
1243764,1,39340,1,51513,53726,51183.23,52871.95,329.77,854.05,0.364435,100.00,1
1243804,1,39380,1,51530,53765,51183.93,52873.74,346.07,891.26,0.364464,100.00,1
1243844,1,39420,1,51546,53810,51184.65,52875.61,361.35,934.39,0.364494,100.00,1
1243884,1,39460,1,51571,53856,51185.43,52877.57,385.57,978.43,0.364525,100.00,1
1243924,1,39500,1,51589,53895,51186.23,52879.61,402.77,1015.39,0.364558,100.00,1
1243964,1,39540,1,51604,53929,51187.07,52881.71,416.93,1047.29,0.364594,100.00,1
1244004,1,39580,1,51617,53964,51187.93,52883.87,429.07,1080.13,0.364631,100.00,1
1244044,1,39620,1,51631,53988,51188.82,52886.09,442.18,1101.91,0.364671,100.00,1
1244085,1,39661,1,51624,53897,51189.69,52888.11,434.31,1008.89,0.364714,100.00,1
1244125,1,39701,1,51555,53733,51190.42,52889.80,364.58,843.20,0.364760,100.00,1
1244165,1,39741,1,51495,53641,51191.03,52891.30,303.97,749.70,0.364807,100.00,1
1244205,1,39781,1,51475,53632,51191.60,52892.79,283.40,739.21,0.364855,100.00,1
1244245,1,39821,1,51493,53664,51192.20,52894.33,300.80,769.67,0.364903,100.00,1
1244285,1,39861,1,51517,53722,51192.86,52895.99,324.14,826.01,0.364952,100.00,1
1244325,1,39901,1,51536,53755,51193.54,52897.71,342.46,857.29,0.365001,100.00,1
1244365,1,39941,1,51551,53760,51194.26,52899.43,356.74,860.57,0.365053,100.00,1
1244405,1,39981,1,51545,53734,51194.96,52901.11,350.04,832.89,0.365106,100.00,1
1244445,1,40021,1,51541,53718,51195.66,52902.74,345.34,815.26,0.365161,100.00,1
1244485,1,40061,1,51543,53736,51196.35,52904.41,346.65,831.59,0.365218,100.00,1
1244525,1,40101,1,51558,53775,51197.08,52906.15,360.92,868.85,0.365277,100.00,1
1244565,1,40141,1,51573,53813,51197.83,52907.97,375.17,905.03,0.365337,100.00,1
1244605,1,40181,1,51597,53853,51198.63,52909.86,398.37,943.14,0.365399,100.00,1
1244645,1,40221,1,51609,53892,51199.45,52911.82,409.55,980.18,0.365464,100.00,1
1244685,1,40261,1,51622,53922,51200.30,52913.85,421.70,1008.15,0.365530,100.00,1
1244725,1,40301,1,51638,53949,51201.18,52915.92,436.82,1033.08,0.365600,100.00,1
1244766,1,40342,1,51650,53974,51202.07,52918.04,447.93,1055.96,0.365672,100.00,1
1244806,1,40382,1,51642,53906,51202.96,52920.01,439.04,985.99,0.365747,100.00,1
1244846,1,40422,1,51580,53733,51203.71,52921.64,376.29,811.36,0.365825,100.00,1
1244886,1,40462,1,51510,53614,51204.32,52923.03,305.68,690.97,0.365905,100.00,1
1244926,1,40502,1,51489,53588,51204.89,52924.36,284.11,663.64,0.365985,100.00,1
1244966,1,40542,1,51495,53611,51205.48,52925.73,289.52,685.27,0.366067,100.00,1
1245006,1,40582,1,51508,53660,51206.08,52927.20,301.92,732.80,0.366149,100.00,1
1245046,1,40622,1,51537,53692,51206.75,52928.73,330.25,763.27,0.366232,100.00,1
1245086,1,40662,1,51547,53688,51207.43,52930.25,339.57,757.75,0.366318,100.00,1
1245126,1,40702,1,51539,53656,51208.09,52931.71,330.91,724.29,0.366405,100.00,1
1245166,1,40742,1,51529,53640,51208.74,52933.12,320.26,706.87,0.366494,100.00,1
1245206,1,40782,1,51526,53650,51209.37,52934.56,316.62,715.44,0.366584,100.00,1
1245246,1,40822,1,51540,53679,51210.04,52936.05,329.96,742.95,0.366676,100.00,1
1245286,1,40862,1,51553,53722,51210.73,52937.62,342.27,784.37,0.366769,100.00,1
1245326,1,40902,1,51568,53761,51211.44,52939.27,356.56,821.73,0.366864,100.00,1
1245366,1,40942,1,51584,53790,51212.19,52940.98,371.81,849.02,0.366961,100.00,1
1245407,1,40983,1,51598,53821,51212.96,52942.74,385.04,878.26,0.367059,100.00,1
1245447,1,41023,1,51610,53853,51213.76,52944.56,396.24,908.44,0.367160,100.00,1
1245487,1,41063,1,51620,53875,51214.57,52946.42,405.43,928.58,0.367262,100.00,1
1245527,1,41103,1,51620,53826,51215.38,52948.18,404.62,877.82,0.367367,100.00,1
1245567,1,41143,1,51565,53652,51216.08,52949.59,348.92,702.41,0.367475,100.00,1
1245607,1,41183,1,51494,53511,51216.64,52950.72,277.36,560.28,0.367584,100.00,1
1245647,1,41223,1,51452,53469,51217.11,52951.76,234.89,517.24,0.367694,100.00,1
1245687,1,41263,1,51457,53488,51217.59,52952.83,239.41,535.17,0.367805,100.00,1
1245727,1,41303,1,51477,53530,51218.11,52953.99,258.89,576.01,0.367916,100.00,1
1245767,1,41343,1,51497,53564,51218.67,52955.21,278.33,608.79,0.368028,100.00,1
1245807,1,41383,1,51509,53568,51219.25,52956.44,289.75,611.56,0.368142,100.00,1
1245847,1,41423,1,51500,53546,51219.82,52957.62,280.18,588.38,0.368257,100.00,1
1245887,1,41463,1,51493,53531,51220.36,52958.77,272.64,572.23,0.368373,100.00,1
1245927,1,41503,1,51490,53539,51220.90,52959.93,269.10,579.07,0.368491,100.00,1
1245967,1,41543,1,51504,53570,51221.47,52961.15,282.53,608.85,0.368609,100.00,1
1246007,1,41583,1,51518,53619,51222.06,52962.46,295.94,656.54,0.368729,100.00,1
1246047,1,41623,1,51541,53664,51222.70,52963.87,318.30,700.13,0.368849,100.00,1
1246088,1,41664,1,51559,53698,51223.38,52965.34,335.62,732.66,0.368972,100.00,1
1246128,1,41704,1,51571,53735,51224.07,52966.88,346.93,768.12,0.369095,100.00,1
1246168,1,41744,1,51584,53772,51224.80,52968.49,359.20,803.51,0.369220,100.00,1
1246208,1,41784,1,51597,53802,51225.54,52970.16,371.46,831.84,0.369347,100.00,1
1246248,1,41824,1,51608,53770,51226.31,52971.76,381.69,798.24,0.369477,100.00,1
1246288,1,41864,1,51566,53614,51226.99,52973.05,339.01,640.95,0.369609,100.00,1
1246328,1,41904,1,51483,53471,51227.50,52974.04,255.50,496.96,0.369742,100.00,1
1246368,1,41944,1,51446,53427,51227.94,52974.95,218.06,452.05,0.369876,100.00,1
1246408,1,41984,1,51456,53446,51228.39,52975.89,227.61,470.11,0.370011,100.00,1
1246448,1,42024,1,51477,53485,51228.89,52976.91,248.11,508.09,0.370147,100.00,1
1246488,1,42064,1,51495,53533,51229.43,52978.03,265.57,554.97,0.370284,100.00,1
1246528,1,42104,1,51508,53545,51229.99,52979.16,278.01,565.84,0.370422,100.00,1
1246568,1,42144,1,51506,53526,51230.54,52980.26,275.46,545.74,0.370561,100.00,1
1246608,1,42184,1,51495,53513,51231.07,52981.32,263.93,531.68,0.370702,100.00,1
1246648,1,42224,1,51494,53523,51231.60,52982.41,262.40,540.59,0.370844,100.00,1
1246688,1,42264,1,51501,53561,51232.14,52983.57,268.86,577.43,0.370986,100.00,1
1246728,1,42304,1,51523,53611,51232.72,52984.83,290.28,626.17,0.371130,100.00,1
1246769,1,42345,1,51543,53655,51233.34,52986.17,309.66,668.83,0.371275,100.00,1
1246809,1,42385,1,51558,53707,51234.00,52987.61,324.00,719.39,0.371420,100.00,1
1246849,1,42425,1,51575,53746,51234.68,52989.13,340.32,756.87,0.371567,100.00,1
1246889,1,42465,1,51594,53785,51235.40,52990.72,358.60,794.28,0.371715,100.00,1
1246929,1,42505,1,51615,53822,51236.16,52992.39,378.84,829.61,0.371864,100.00,1
1246969,1,42545,1,51621,53827,51236.93,52994.06,384.07,832.94,0.372015,100.00,1
1247009,1,42585,1,51594,53694,51237.64,52995.46,356.36,698.54,0.372169,100.00,1
1247049,1,42625,1,51529,53533,51238.23,52996.54,290.77,536.46,0.372325,100.00,1
1247089,1,42665,1,51486,53469,51238.73,52997.48,247.27,471.52,0.372482,100.00,1
1247129,1,42705,1,51481,53487,51239.21,52998.46,241.79,488.54,0.372640,100.00,1
1247169,1,42745,1,51496,53528,51239.73,52999.52,256.27,528.48,0.372799,100.00,1
1247209,1,42785,1,51516,53576,51240.28,53000.68,275.72,575.32,0.372958,100.00,1
1247249,1,42825,1,51536,53597,51240.87,53001.87,295.12,595.12,0.373119,100.00,1
1247289,1,42865,1,51535,53590,51241.46,53003.05,293.54,586.95,0.373282,100.00,1
1247329,1,42905,1,51526,53572,51242.04,53004.19,283.96,567.81,0.373445,100.00,1
1247369,1,42945,1,51521,53578,51242.59,53005.34,278.41,572.66,0.373610,100.00,1
1247410,1,42986,1,51531,53615,51243.17,53006.56,287.83,608.44,0.373776,100.00,1
1247450,1,43026,1,51545,53662,51243.78,53007.87,301.22,654.13,0.373942,100.00,1
1247490,1,43066,1,51568,53720,51244.43,53009.30,323.57,710.70,0.374109,100.00,1
1247530,1,43106,1,51589,53761,51245.12,53010.80,343.88,750.20,0.374277,100.00,1
1247570,1,43146,1,51608,53803,51245.84,53012.39,362.16,790.61,0.374446,100.00,1
1247610,1,43186,1,51625,53843,51246.60,53014.05,378.40,828.95,0.374616,100.00,1
1247650,1,43226,1,51642,53889,51247.39,53015.80,394.61,873.20,0.374788,100.00,1
1247690,1,43266,1,51660,53925,51248.22,53017.62,411.78,907.38,0.374961,100.00,1
1247730,1,43306,1,51674,53889,51249.07,53019.36,424.93,869.64,0.375136,100.00,1
1247770,1,43346,1,51632,53726,51249.84,53020.78,382.16,705.22,0.375315,100.00,1
1247810,1,43386,1,51552,53592,51250.45,53021.92,301.55,570.08,0.375496,100.00,1
1247850,1,43426,1,51522,53560,51250.99,53023.00,271.01,537.00,0.375678,100.00,1
1247890,1,43466,1,51527,53589,51251.54,53024.13,275.46,564.87,0.375860,100.00,1
1247930,1,43506,1,51542,53627,51252.12,53025.34,289.87,601.66,0.376044,100.00,1
1247970,1,43546,1,51565,53676,51252.75,53026.64,312.25,649.36,0.376228,100.00,1
1248010,1,43586,1,51575,53681,51253.40,53027.95,321.60,653.05,0.376414,100.00,1
1248051,1,43627,1,51571,53661,51254.04,53029.21,316.96,631.79,0.376601,100.00,1
1248091,1,43667,1,51555,53649,51254.64,53030.46,300.36,618.54,0.376789,100.00,1
1248131,1,43707,1,51555,53672,51255.24,53031.74,299.76,640.26,0.376977,100.00,1
1248171,1,43747,1,51565,53707,51255.86,53033.09,309.14,673.91,0.377166,100.00,1
1248211,1,43787,1,51590,53756,51256.53,53034.54,333.47,721.46,0.377356,100.00,1
1248251,1,43827,1,51612,53808,51257.24,53036.09,354.76,771.91,0.377546,100.00,1
1248291,1,43867,1,51635,53861,51258.00,53037.74,377.00,823.26,0.377737,100.00,1
1248331,1,43907,1,51653,53899,51258.79,53039.46,394.21,859.54,0.377929,100.00,1
1248371,1,43947,1,51672,53927,51259.62,53041.24,412.38,885.76,0.378122,100.00,1
1248411,1,43987,1,51691,53957,51260.48,53043.07,430.52,913.93,0.378317,100.00,1
1248451,1,44027,1,51700,53991,51261.36,53044.97,438.64,946.03,0.378513,100.00,1
1248491,1,44067,1,51711,53967,51262.26,53046.81,448.74,920.19,0.378712,100.00,1
1248531,1,44107,1,51668,53811,51263.07,53048.34,404.93,762.66,0.378914,100.00,1
1248571,1,44147,1,51596,53656,51263.74,53049.56,332.26,606.44,0.379118,100.00,1
1248611,1,44187,1,51548,53609,51264.31,53050.68,283.69,558.32,0.379323,100.00,1
1248651,1,44227,1,51547,53624,51264.88,53051.83,282.12,572.17,0.379528,100.00,1
1248692,1,44268,1,51561,53659,51265.47,53053.04,295.53,605.96,0.379734,100.00,1
1248732,1,44308,1,51578,53698,51266.10,53054.34,311.90,643.66,0.379941,100.00,1
1248772,1,44348,1,51587,53716,51266.74,53055.66,320.26,660.34,0.380149,100.00,1
1248812,1,44388,1,51586,53700,51267.38,53056.95,318.62,643.05,0.380357,100.00,1
1248852,1,44428,1,51580,53684,51268.01,53058.20,311.99,625.80,0.380567,100.00,1
1248892,1,44468,1,51578,53704,51268.63,53059.50,309.37,644.50,0.380777,100.00,1
1248932,1,44508,1,51597,53743,51269.29,53060.86,327.71,682.14,0.380988,100.00,1
1248972,1,44548,1,51619,53790,51269.98,53062.32,349.02,727.68,0.381199,100.00,1
1249012,1,44588,1,51645,53836,51270.73,53063.87,374.27,772.13,0.381412,100.00,1
1249052,1,44628,1,51666,53881,51271.53,53065.51,394.47,815.49,0.381626,100.00,1
1249092,1,44668,1,51674,53914,51272.33,53067.21,401.67,846.79,0.381841,100.00,1
1249132,1,44708,1,51693,53940,51273.18,53068.95,419.82,871.05,0.382057,100.00,1
1249172,1,44748,1,51706,53969,51274.04,53070.75,431.96,898.25,0.382275,100.00,1
1249212,1,44788,1,51709,54007,51274.91,53072.63,434.09,934.37,0.382494,100.00,1
1249252,1,44828,1,51725,54008,51275.82,53074.50,449.18,933.50,0.382714,100.00,1
1249293,1,44869,1,51701,53879,51276.67,53076.11,424.33,802.89,0.382937,100.00,1
1249333,1,44909,1,51626,53712,51277.37,53077.38,348.63,634.62,0.383162,100.00,1
1249373,1,44949,1,51572,53654,51277.96,53078.54,294.04,575.46,0.383387,100.00,1
1249413,1,44989,1,51568,53663,51278.54,53079.71,289.46,583.29,0.383614,100.00,1
1249453,1,45029,1,51583,53706,51279.15,53080.96,303.85,625.04,0.383840,100.00,1
1249493,1,45069,1,51605,53750,51279.80,53082.30,325.20,667.70,0.384067,100.00,1
1249533,1,45109,1,51621,53785,51280.48,53083.71,340.52,701.29,0.384295,100.00,1
1249573,1,45149,1,51631,53784,51281.19,53085.11,349.81,698.89,0.384523,100.00,1
1249613,1,45189,1,51631,53769,51281.89,53086.48,349.11,682.52,0.384753,100.00,1
1249653,1,45229,1,51636,53777,51282.60,53087.87,353.40,689.13,0.384984,100.00,1
1249693,1,45269,1,51639,53815,51283.31,53089.32,355.69,725.68,0.385216,100.00,1
1249733,1,45309,1,51661,53864,51284.07,53090.87,376.93,773.12,0.385449,100.00,1
1249773,1,45349,1,51684,53913,51284.87,53092.52,399.13,820.48,0.385683,100.00,1
1249813,1,45389,1,51700,53959,51285.70,53094.25,414.30,864.75,0.385917,100.00,1
1249853,1,45429,1,51717,53995,51286.57,53096.06,430.43,898.94,0.386152,100.00,1
1249893,1,45469,1,51728,54033,51287.45,53097.93,440.55,935.07,0.386388,100.00,1
1249933,1,45509,1,51744,54062,51288.36,53099.86,455.64,962.14,0.386624,100.00,1
1249974,1,45550,1,51757,54090,51289.30,53101.84,467.70,988.16,0.386861,100.00,1
1250014,1,45590,1,51768,54130,51290.26,53103.90,477.74,1026.10,0.387098,100.00,1
1250054,1,45630,1,51770,54079,51291.22,53105.86,478.78,973.14,0.387337,100.00,1
1250094,1,45670,1,51718,53910,51292.07,53107.46,425.93,802.54,0.387578,100.00,1
1250134,1,45710,1,51651,53787,51292.79,53108.82,358.21,678.18,0.387821,100.00,1
1250174,1,45750,1,51620,53772,51293.45,53110.15,326.55,661.85,0.388064,100.00,1
1250214,1,45790,1,51632,53800,51294.13,53111.54,337.87,688.46,0.388307,100.00,1
1250254,1,45830,1,51652,53839,51294.85,53112.99,357.15,726.01,0.388551,100.00,1
1250294,1,45870,1,51674,53876,51295.61,53114.52,378.39,761.48,0.388795,100.00,1
1250334,1,45910,1,51684,53878,51296.38,53116.05,387.62,761.95,0.389041,100.00,1
1250374,1,45950,1,51676,53868,51297.14,53117.55,378.86,750.45,0.389287,100.00,1
1250414,1,45990,1,51671,53855,51297.89,53119.03,373.11,735.97,0.389535,100.00,1
1250454,1,46030,1,51674,53870,51298.65,53120.53,375.35,749.47,0.389783,100.00,1
1250494,1,46070,1,51684,53906,51299.42,53122.11,384.58,783.89,0.390032,100.00,1
1250534,1,46110,1,51696,53951,51300.21,53123.77,395.79,827.23,0.390280,100.00,1
1250574,1,46150,1,51721,53998,51301.06,53125.52,419.94,872.48,0.390530,100.00,1
1250615,1,46191,1,51737,54040,51301.93,53127.35,435.07,912.65,0.390779,100.00,1
1250655,1,46231,1,51752,54075,51302.84,53129.25,449.16,945.75,0.391028,100.00,1
1250695,1,46271,1,51760,54106,51303.75,53131.20,456.25,974.80,0.391278,100.00,1
1250735,1,46311,1,51774,54142,51304.69,53133.22,469.31,1008.78,0.391527,100.00,1
1250775,1,46351,1,51788,54172,51305.66,53135.30,482.34,1036.70,0.391775,100.00,1
1250815,1,46391,1,51804,54176,51306.66,53137.38,497.34,1038.62,0.392025,100.00,1
1250855,1,46431,1,51768,54034,51307.58,53139.18,460.42,894.82,0.392276,100.00,1
1250895,1,46471,1,51698,53874,51308.36,53140.65,389.64,733.35,0.392528,100.00,1
1250935,1,46511,1,51655,53809,51309.06,53141.99,345.94,667.01,0.392781,100.00,1
1250975,1,46551,1,51650,53821,51309.74,53143.35,340.26,677.65,0.393035,100.00,1
1251015,1,46591,1,51664,53855,51310.45,53144.77,353.55,710.23,0.393288,100.00,1
1251055,1,46631,1,51680,53895,51311.20,53146.27,368.80,748.73,0.393542,100.00,1
1251095,1,46671,1,51697,53905,51311.97,53147.79,385.03,757.21,0.393797,100.00,1
1251135,1,46711,1,51687,53887,51312.72,53149.27,374.28,737.73,0.394052,100.00,1
1251175,1,46751,1,51675,53873,51313.45,53150.72,361.55,722.28,0.394308,100.00,1
1251215,1,46791,1,51674,53875,51314.17,53152.17,359.83,722.83,0.394564,100.00,1
1251256,1,46832,1,51681,53906,51314.90,53153.68,366.10,752.32,0.394820,100.00,1
1251296,1,46872,1,51700,53949,51315.68,53155.27,384.32,793.73,0.395076,100.00,1
1251336,1,46912,1,51714,54002,51316.47,53156.97,397.53,845.03,0.395331,100.00,1
1251376,1,46952,1,51736,54050,51317.31,53158.76,418.69,891.24,0.395586,100.00,1
1251416,1,46992,1,51753,54078,51318.18,53160.60,434.82,917.40,0.395841,100.00,1
1251456,1,47032,1,51768,54113,51319.09,53162.50,448.91,950.50,0.396095,100.00,1
1251496,1,47072,1,51775,54143,51320.00,53164.46,455.00,978.54,0.396349,100.00,1
1251536,1,47112,1,51792,54179,51320.95,53166.50,471.05,1012.50,0.396602,100.00,1
1251576,1,47152,1,51812,54187,51321.93,53168.54,490.07,1018.46,0.396855,100.00,1
1251616,1,47192,1,51789,54063,51322.86,53170.33,466.14,892.67,0.397110,100.00,1
1251656,1,47232,1,51711,53883,51323.64,53171.75,387.36,711.25,0.397367,100.00,1
1251696,1,47272,1,51651,53800,51324.30,53173.01,326.70,626.99,0.397623,100.00,1
1251736,1,47312,1,51637,53797,51324.92,53174.26,312.08,622.74,0.397880,100.00,1
1251776,1,47352,1,51648,53820,51325.57,53175.55,322.43,644.45,0.398137,100.00,1
1251816,1,47392,1,51664,53852,51326.25,53176.91,337.75,675.09,0.398394,100.00,1
1251856,1,47432,1,51670,53867,51326.94,53178.29,343.06,688.71,0.398651,100.00,1
1251896,1,47472,1,51674,53852,51327.63,53179.64,346.37,672.36,0.398908,100.00,1
1251937,1,47513,1,51659,53831,51328.30,53180.95,330.70,650.05,0.399166,100.00,1
1251977,1,47553,1,51652,53832,51328.95,53182.25,323.05,649.75,0.399423,100.00,1
1252017,1,47593,1,51658,53864,51329.61,53183.61,328.39,680.39,0.399680,100.00,1
1252057,1,47633,1,51675,53906,51330.30,53185.06,344.70,720.94,0.399937,100.00,1
1252097,1,47673,1,51697,53949,51331.03,53186.59,365.97,762.41,0.400193,100.00,1
1252137,1,47713,1,51716,54001,51331.80,53188.21,384.20,812.79,0.400449,100.00,1
1252177,1,47753,1,51734,54039,51332.61,53189.92,401.39,849.08,0.400704,100.00,1
1252217,1,47793,1,51750,54071,51333.44,53191.68,416.56,879.32,0.400958,100.00,1
1252257,1,47833,1,51766,54101,51334.31,53193.50,431.69,907.50,0.401213,100.00,1
1252297,1,47873,1,51783,54133,51335.21,53195.38,447.79,937.62,0.401466,100.00,1
1252337,1,47913,1,51786,54142,51336.11,53197.27,449.89,944.73,0.401720,100.00,1
1252377,1,47953,1,51763,54011,51336.96,53198.90,426.04,812.10,0.401974,99.99,1
1252417,1,47993,1,51688,53836,51337.67,53200.18,350.33,635.82,0.402230,99.99,1
1252457,1,48033,1,51634,53762,51338.26,53201.30,295.74,560.70,0.402486,99.99,1
1252497,1,48073,1,51623,53765,51338.83,53202.43,284.17,562.57,0.402742,99.99,1
1252537,1,48113,1,51630,53789,51339.41,53203.61,290.59,585.39,0.402997,99.99,1
1252578,1,48154,1,51638,53816,51340.01,53204.84,297.99,611.16,0.403252,99.99,1
1252618,1,48194,1,51651,53843,51340.64,53206.11,310.36,636.89,0.403507,99.98,1
1252658,1,48234,1,51652,53839,51341.26,53207.38,310.74,631.62,0.403762,99.98,1
1252698,1,48274,1,51643,53826,51341.87,53208.62,301.13,617.38,0.404016,99.98,1
1252738,1,48314,1,51640,53834,51342.46,53209.87,297.54,624.13,0.404269,99.98,1
1252778,1,48354,1,51652,53869,51343.09,53211.19,308.91,657.81,0.404522,99.97,1
1252818,1,48394,1,51668,53920,51343.74,53212.61,324.26,707.39,0.404773,99.97,1
1252858,1,48434,1,51695,53977,51344.44,53214.14,350.56,762.86,0.405024,99.97,1
1252898,1,48474,1,51721,54026,51345.20,53215.77,375.80,810.23,0.405273,99.96,1
1252938,1,48514,1,51742,54064,51345.99,53217.46,396.01,846.54,0.405522,99.96,1
1252978,1,48554,1,51752,54095,51346.80,53219.22,405.20,875.78,0.405769,99.96,1
1253018,1,48594,1,51766,54135,51347.64,53221.05,418.36,913.95,0.406015,99.95,1
1253058,1,48634,1,51777,54167,51348.50,53222.95,428.50,944.05,0.406260,99.95,1
1253098,1,48674,1,51795,54187,51349.40,53224.88,445.60,962.12,0.406504,99.95,1
1253138,1,48714,1,51779,54089,51350.26,53226.61,428.74,862.39,0.406748,99.94,1
1253178,1,48754,1,51713,53925,51350.98,53228.01,362.02,696.99,0.406993,99.94,1
1253218,1,48794,1,51653,53843,51351.59,53229.24,301.41,613.76,0.407237,99.94,1
1253259,1,48835,1,51637,53838,51352.16,53230.46,284.84,607.54,0.407481,99.93,1
1253299,1,48875,1,51647,53864,51352.75,53231.73,294.25,632.27,0.407723,99.93,1
1253339,1,48915,1,51652,53902,51353.35,53233.07,298.65,668.93,0.407965,99.93,1
1253379,1,48955,1,51667,53929,51353.98,53234.46,313.02,694.54,0.408205,99.92,1
1253419,1,48995,1,51674,53929,51354.62,53235.86,319.38,693.14,0.408444,99.92,1
1253459,1,49035,1,51669,53919,51355.25,53237.22,313.75,681.78,0.408683,99.91,1
1253499,1,49075,1,51665,53932,51355.87,53238.61,309.13,693.39,0.408920,99.91,1
1253539,1,49115,1,51678,53963,51356.52,53240.06,321.48,722.94,0.409155,99.91,1
1253579,1,49155,1,51700,54008,51357.20,53241.60,342.80,766.40,0.409390,99.90,1
1253619,1,49195,1,51719,54055,51357.93,53243.23,361.07,811.77,0.409622,99.90,1
1253659,1,49235,1,51743,54107,51358.70,53244.96,384.30,862.04,0.409854,99.89,1
1253699,1,49275,1,51759,54145,51359.50,53246.76,399.50,898.24,0.410083,99.89,1
1253739,1,49315,1,51768,54179,51360.32,53248.63,407.68,930.37,0.410310,99.88,1
1253779,1,49355,1,51784,54205,51361.16,53250.54,422.84,954.46,0.410536,99.88,1
1253819,1,49395,1,51796,54241,51362.04,53252.52,433.96,988.48,0.410759,99.88,1
1253859,1,49435,1,51808,54286,51362.93,53254.59,445.07,1031.41,0.410980,99.87,1
1253899,1,49475,1,51820,54290,51363.84,53256.66,456.16,1033.34,0.411199,99.87,1
1253940,1,49516,1,51793,54165,51364.70,53258.48,428.30,906.52,0.411418,99.86,1
1253980,1,49556,1,51721,54019,51365.42,53260.00,355.58,759.00,0.411636,99.86,1
1254020,1,49596,1,51673,53973,51366.04,53261.43,306.96,711.57,0.411852,99.85,1
1254060,1,49636,1,51669,53984,51366.64,53262.87,302.36,721.13,0.412067,99.85,1
1254100,1,49676,1,51688,54014,51367.29,53264.37,320.71,749.62,0.412280,99.84,1
1254140,1,49716,1,51701,54052,51367.95,53265.95,333.05,786.05,0.412491,99.84,1
1254180,1,49756,1,51707,54078,51368.63,53267.58,338.37,810.42,0.412699,99.83,1
1254220,1,49796,1,51715,54074,51369.33,53269.19,345.67,804.81,0.412906,99.83,1
1254260,1,49836,1,51717,54065,51370.02,53270.79,346.98,794.21,0.413112,99.82,1
1254300,1,49876,1,51716,54077,51370.71,53272.40,345.29,804.60,0.413316,99.82,1
1254340,1,49916,1,51727,54115,51371.43,53274.09,355.57,840.91,0.413518,99.82,1
1254380,1,49956,1,51744,54158,51372.18,53275.86,371.82,882.14,0.413718,99.81,1
1254420,1,49996,1,51762,54203,51372.96,53277.71,389.04,925.29,0.413915,99.81,1
1254460,1,50036,1,51781,54250,51373.77,53279.66,407.23,970.34,0.414110,99.80,1
1254500,1,50076,1,51796,54290,51374.62,53281.68,421.38,1008.32,0.414302,99.80,1
1254540,1,50116,1,51810,54319,51375.49,53283.75,434.51,1035.25,0.414492,99.79,1
1254581,1,50157,1,51820,54348,51376.38,53285.88,443.62,1062.12,0.414679,99.79,1
1254621,1,50197,1,51831,54383,51377.29,53288.08,453.71,1094.92,0.414862,99.78,1
1254661,1,50237,1,51840,54430,51378.22,53290.36,461.78,1139.64,0.415042,99.78,1
1254701,1,50277,1,51856,54427,51379.18,53292.64,476.82,1134.36,0.415220,99.77,1
1254741,1,50317,1,51824,54301,51380.07,53294.66,443.93,1006.34,0.415396,99.77,1
1254781,1,50357,1,51759,54181,51380.82,53296.43,378.18,884.57,0.415570,99.76,1
1254821,1,50397,1,51725,54151,51381.52,53298.14,343.48,852.86,0.415742,99.76,1
1254861,1,50437,1,51724,54177,51382.20,53299.90,341.80,877.10,0.415912,99.75,1
1254901,1,50477,1,51747,54197,51382.93,53301.70,364.07,895.30,0.416079,99.75,1
1254941,1,50517,1,51759,54231,51383.69,53303.55,375.31,927.45,0.416244,99.74,1
1254981,1,50557,1,51768,54249,51384.46,53305.45,383.54,943.55,0.416406,99.74,1
1255021,1,50597,1,51768,54244,51385.23,53307.32,382.77,936.68,0.416567,99.74,1
1255061,1,50637,1,51762,54237,51385.98,53309.18,376.02,927.82,0.416725,99.73,1
1255101,1,50677,1,51764,54249,51386.74,53311.07,377.26,937.93,0.416880,99.73,1
1255141,1,50717,1,51771,54278,51387.51,53313.00,383.49,965.00,0.417033,99.72,1
1255181,1,50757,1,51783,54322,51388.30,53315.02,394.70,1006.98,0.417183,99.72,1
1255221,1,50797,1,51803,54369,51389.13,53317.13,413.87,1051.87,0.417330,99.71,1
1255262,1,50838,1,51818,54408,51389.99,53319.31,428.01,1088.69,0.417474,99.71,1
1255302,1,50878,1,51832,54441,51390.88,53321.56,441.12,1119.44,0.417614,99.70,1
1255342,1,50918,1,51840,54477,51391.78,53323.87,448.22,1153.13,0.417751,99.70,1
1255382,1,50958,1,51852,54507,51392.70,53326.24,459.30,1180.76,0.417883,99.69,1
1255422,1,50998,1,51870,54542,51393.66,53328.67,476.34,1213.33,0.418013,99.69,1
1255462,1,51038,1,51880,54585,51394.63,53331.19,485.37,1253.81,0.418138,99.69,1
1255502,1,51078,1,51893,54573,51395.63,53333.67,497.37,1239.33,0.418261,99.68,1
1255542,1,51118,1,51853,54442,51396.55,53335.89,456.45,1106.11,0.418381,99.68,1
1255582,1,51158,1,51795,54331,51397.34,53337.88,397.66,993.12,0.418500,99.67,1
1255622,1,51198,1,51771,54300,51398.09,53339.81,372.91,960.19,0.418616,99.67,1
1255662,1,51238,1,51772,54320,51398.84,53341.77,373.16,978.23,0.418730,99.66,1
1255702,1,51278,1,51780,54340,51399.61,53343.77,380.39,996.23,0.418841,99.66,1
1255742,1,51318,1,51792,54365,51400.39,53345.81,391.61,1019.19,0.418950,99.66,1
1255782,1,51358,1,51798,54379,51401.19,53347.87,396.81,1031.13,0.419056,99.65,1
1255822,1,51398,1,51796,54364,51401.98,53349.91,394.02,1014.09,0.419159,99.65,1
1255862,1,51438,1,51786,54359,51402.75,53351.93,383.25,1007.07,0.419261,99.65,1
1255902,1,51478,1,51789,54370,51403.52,53353.97,385.48,1016.03,0.419360,99.64,1
1255943,1,51519,1,51792,54397,51404.30,53356.05,387.70,1040.95,0.419455,99.64,1
1255983,1,51559,1,51806,54439,51405.10,53358.22,400.90,1080.78,0.419548,99.63,1
1256023,1,51599,1,51824,54484,51405.94,53360.48,418.06,1123.52,0.419638,99.63,1
1256063,1,51639,1,51842,54527,51406.82,53362.81,435.18,1164.19,0.419724,99.63,1
1256103,1,51679,1,51856,54553,51407.71,53365.20,448.29,1187.80,0.419808,99.62,1
1256143,1,51719,1,51863,54588,51408.62,53367.64,454.37,1220.36,0.419888,99.62,1
1256183,1,51759,1,51876,54623,51409.56,53370.15,466.44,1252.85,0.419964,99.62,1
1256223,1,51799,1,51894,54657,51410.53,53372.73,483.47,1284.27,0.420037,99.61,1
1256263,1,51839,1,51913,54679,51411.54,53375.34,501.46,1303.66,0.420107,99.61,1
1256303,1,51879,1,51904,54603,51412.52,53377.80,491.48,1225.20,0.420175,99.61,1
1256343,1,51919,1,51842,54463,51413.38,53379.97,428.62,1083.03,0.420242,99.60,1
1256383,1,51959,1,51789,54385,51414.14,53381.98,374.86,1003.02,0.420307,99.60,1
1256423,1,51999,1,51775,54377,51414.86,53383.97,360.14,993.03,0.420370,99.60,1
1256463,1,52039,1,51783,54391,51415.60,53385.99,367.40,1005.01,0.420430,99.59,1
1256503,1,52079,1,51787,54414,51416.34,53388.05,370.66,1025.95,0.420488,99.59,1
1256543,1,52119,1,51794,54429,51417.10,53390.13,376.90,1038.87,0.420544,99.59,1
1256583,1,52159,1,51794,54427,51417.85,53392.20,376.15,1034.80,0.420597,99.58,1
1256624,1,52200,1,51786,54412,51418.59,53394.24,367.41,1017.76,0.420648,99.58,1
1256664,1,52240,1,51780,54412,51419.31,53396.28,360.69,1015.72,0.420696,99.58,1
1256704,1,52280,1,51782,54438,51420.04,53398.36,361.96,1039.64,0.420742,99.57,1
1256744,1,52320,1,51793,54477,51420.79,53400.52,372.21,1076.48,0.420784,99.57,1
1256784,1,52360,1,51816,54517,51421.58,53402.76,394.42,1114.24,0.420824,99.57,1
1256824,1,52400,1,51831,54561,51422.40,53405.07,408.60,1155.93,0.420861,99.57,1
1256864,1,52440,1,51850,54600,51423.25,53407.46,426.75,1192.54,0.420895,99.56,1
1256904,1,52480,1,51868,54626,51424.14,53409.90,443.86,1216.10,0.420926,99.56,1
1256944,1,52520,1,51880,54653,51425.06,53412.39,454.94,1240.61,0.420955,99.56,1
1256984,1,52560,1,51891,54683,51425.99,53414.93,465.01,1268.07,0.420981,99.56,1
1257024,1,52600,1,51904,54710,51426.95,53417.52,477.05,1292.48,0.421004,99.55,1
1257064,1,52640,1,51900,54653,51427.90,53420.00,472.10,1233.00,0.421026,99.55,1
1257104,1,52680,1,51845,54506,51428.73,53422.17,416.27,1083.83,0.421047,99.55,1
1257144,1,52720,1,51783,54413,51429.45,53424.15,353.55,988.85,0.421066,99.55,1
1257184,1,52760,1,51763,54398,51430.11,53426.10,332.89,971.90,0.421083,99.54,1
1257224,1,52800,1,51763,54415,51430.78,53428.08,332.22,986.92,0.421098,99.54,1
1257265,1,52841,1,51770,54426,51431.46,53430.08,338.54,995.92,0.421110,99.54,1
1257305,1,52881,1,51781,54448,51432.16,53432.12,348.84,1015.88,0.421121,99.54,1
1257345,1,52921,1,51781,54448,51432.86,53434.15,348.14,1013.85,0.421129,99.54,1
1257385,1,52961,1,51775,54437,51433.55,53436.16,341.45,1000.84,0.421135,99.53,1
1257425,1,53001,1,51769,54423,51434.22,53438.13,334.78,984.87,0.421139,99.53,1
1257465,1,53041,1,51772,54445,51434.89,53440.15,337.11,1004.85,0.421140,99.53,1
1257505,1,53081,1,51781,54481,51435.59,53442.23,345.41,1038.77,0.421140,99.53,1
1257545,1,53121,1,51801,54520,51436.32,53444.39,364.68,1075.61,0.421137,99.53,1
1257585,1,53161,1,51818,54556,51437.09,53446.61,380.91,1109.39,0.421131,99.53,1
1257625,1,53201,1,51834,54584,51437.88,53448.89,396.12,1135.11,0.421124,99.52,1
1257665,1,53241,1,51848,54610,51438.70,53451.21,409.30,1158.79,0.421114,99.52,1
1257705,1,53281,1,51852,54637,51439.53,53453.59,412.47,1183.41,0.421102,99.52,1
1257745,1,53321,1,51863,54663,51440.38,53456.01,422.62,1206.99,0.421088,99.52,1
1257785,1,53361,1,51875,54679,51441.25,53458.46,433.75,1220.54,0.421071,99.52,1
1257825,1,53401,1,51867,54601,51442.10,53460.74,424.90,1140.26,0.421054,99.52,1
1257865,1,53441,1,51802,54456,51442.82,53462.73,359.18,993.27,0.421036,99.52,1
1257905,1,53481,1,51745,54371,51443.43,53464.55,301.57,906.45,0.421016,99.51,1
1257946,1,53522,1,51729,54365,51444.00,53466.35,285.00,898.65,0.420994,99.51,1
1257986,1,53562,1,51730,54374,51444.58,53468.17,285.42,905.83,0.420970,99.51,1
1258026,1,53602,1,51732,54392,51445.16,53470.02,286.84,921.98,0.420944,99.51,1
1258066,1,53642,1,51738,54409,51445.74,53471.89,292.26,937.11,0.420916,99.51,1
1258106,1,53682,1,51743,54405,51446.34,53473.76,296.66,931.24,0.420886,99.51,1
1258146,1,53722,1,51741,54389,51446.93,53475.59,294.07,913.41,0.420854,99.51,1
1258186,1,53762,1,51727,54396,51447.49,53477.44,279.51,918.56,0.420820,99.51,1
1258226,1,53802,1,51737,54418,51448.07,53479.32,288.93,938.68,0.420784,99.51,1
1258266,1,53842,1,51756,54449,51448.69,53481.26,307.31,967.74,0.420746,99.51,1
1258306,1,53882,1,51774,54483,51449.34,53483.27,324.66,999.73,0.420706,99.50,1
1258346,1,53922,1,51791,54518,51450.03,53485.34,340.97,1032.66,0.420665,99.50,1
1258386,1,53962,1,51805,54553,51450.74,53487.47,354.26,1065.53,0.420621,99.50,1
1258426,1,54002,1,51814,54582,51451.46,53489.66,362.54,1092.34,0.420575,99.50,1
1258466,1,54042,1,51829,54603,51452.22,53491.89,376.78,1111.11,0.420528,99.50,1
1258506,1,54082,1,51833,54627,51452.98,53494.16,380.02,1132.84,0.420478,99.50,1
1258546,1,54122,1,51841,54613,51453.76,53496.40,387.24,1116.60,0.420427,99.50,1
1258586,1,54162,1,51799,54487,51454.45,53498.39,344.55,988.61,0.420376,99.50,1
1258627,1,54203,1,51732,54361,51455.01,53500.11,276.99,860.89,0.420322,99.50,1
1258667,1,54243,1,51697,54322,51455.49,53501.76,241.51,820.24,0.420267,99.50,1
1258707,1,54283,1,51694,54332,51455.97,53503.42,238.03,828.58,0.420211,99.50,1
1258747,1,54323,1,51699,54354,51456.46,53505.12,242.54,848.88,0.420152,99.50,1
1258787,1,54363,1,51710,54378,51456.96,53506.87,253.04,871.13,0.420092,99.50,1
1258827,1,54403,1,51722,54397,51457.50,53508.65,264.50,888.35,0.420030,99.50,1
1258867,1,54443,1,51723,54393,51458.03,53510.42,264.97,882.58,0.419966,99.50,1
1258907,1,54483,1,51717,54385,51458.55,53512.17,258.45,872.83,0.419900,99.50,1
1258947,1,54523,1,51724,54396,51459.08,53513.94,264.92,882.06,0.419833,99.50,1
1258987,1,54563,1,51735,54427,51459.63,53515.77,275.37,911.23,0.419764,99.50,1
1259027,1,54603,1,51753,54469,51460.22,53517.67,292.78,951.33,0.419693,99.50,1
1259067,1,54643,1,51763,54508,51460.83,53519.65,302.17,988.35,0.419620,99.50,1
1259107,1,54683,1,51786,54543,51461.48,53521.70,324.52,1021.30,0.419545,99.50,1
1259147,1,54723,1,51796,54572,51462.15,53523.80,333.85,1048.20,0.419468,99.50,1
1259187,1,54763,1,51808,54595,51462.84,53525.95,345.16,1069.05,0.419390,99.50,1
1259227,1,54803,1,51817,54626,51463.55,53528.15,353.45,1097.85,0.419310,99.50,1
1259267,1,54843,1,51827,54654,51464.28,53530.40,362.72,1123.60,0.419228,99.50,1
1259308,1,54884,1,51828,54619,51465.01,53532.58,362.99,1086.42,0.419145,99.50,1
1259348,1,54924,1,51779,54478,51465.64,53534.47,313.36,943.53,0.419061,99.50,1
1259388,1,54964,1,51715,54385,51466.14,53536.18,248.86,848.82,0.418975,99.51,1
1259428,1,55004,1,51692,54361,51466.59,53537.83,225.41,823.17,0.418888,99.51,1
1259468,1,55044,1,51698,54376,51467.06,53539.50,230.94,836.50,0.418799,99.51,1
1259508,1,55084,1,51707,54402,51467.54,53541.23,239.46,860.77,0.418708,99.51,1
1259548,1,55124,1,51716,54430,51468.04,53543.01,247.96,886.99,0.418615,99.51,1
1259588,1,55164,1,51727,54443,51468.56,53544.81,258.44,898.19,0.418521,99.51,1
1259628,1,55204,1,51731,54428,51469.09,53546.58,261.91,881.42,0.418425,99.51,1
1259668,1,55244,1,51728,54424,51469.61,53548.34,258.39,875.66,0.418327,99.51,1
1259708,1,55284,1,51729,54445,51470.12,53550.13,258.87,894.87,0.418228,99.51,1
1259748,1,55324,1,51741,54479,51470.67,53551.99,270.33,927.01,0.418128,99.51,1
1259788,1,55364,1,51758,54517,51471.24,53553.92,286.76,963.08,0.418025,99.51,1
1259828,1,55404,1,51775,54561,51471.85,53555.93,303.15,1005.07,0.417921,99.52,1
1259868,1,55444,1,51790,54596,51472.49,53558.02,317.51,1037.98,0.417815,99.52,1
1259909,1,55485,1,51803,54625,51473.15,53560.15,329.85,1064.85,0.417708,99.52,1
1259949,1,55525,1,51808,54649,51473.82,53562.33,334.18,1086.67,0.417598,99.52,1
1259989,1,55565,1,51820,54688,51474.52,53564.59,345.48,1123.41,0.417487,99.52,1
1260029,1,55605,1,51834,54721,51475.24,53566.90,358.76,1154.10,0.417374,99.52,1
1260069,1,55645,1,51836,54678,51475.96,53569.12,360.04,1108.88,0.417259,99.52,1
1260109,1,55685,1,51787,54543,51476.59,53571.07,310.41,971.93,0.417144,99.52,1
1260149,1,55725,1,51728,54452,51477.09,53572.83,250.91,879.17,0.417027,99.53,1
1260189,1,55765,1,51710,54440,51477.56,53574.57,232.44,865.43,0.416909,99.53,1
1260229,1,55805,1,51720,54454,51478.04,53576.33,241.96,877.67,0.416789,99.53,1
1260269,1,55845,1,51731,54474,51478.55,53578.12,252.45,895.87,0.416667,99.53,1
1260309,1,55885,1,51743,54505,51479.08,53579.98,263.92,925.02,0.416544,99.53,1
1260349,1,55925,1,51747,54510,51479.62,53581.84,267.38,928.16,0.416419,99.53,1
1260389,1,55965,1,51746,54490,51480.16,53583.66,265.84,906.34,0.416294,99.54,1
1260429,1,56005,1,51736,54487,51480.67,53585.47,255.33,901.53,0.416166,99.54,1
1260469,1,56045,1,51735,54504,51481.18,53587.31,253.82,916.69,0.416037,99.54,1
1260509,1,56085,1,51747,54535,51481.71,53589.21,265.29,945.79,0.415907,99.54,1
1260550,1,56126,1,51761,54573,51482.27,53591.18,278.73,981.82,0.415774,99.54,1
1260590,1,56166,1,51775,54615,51482.86,53593.23,292.14,1021.77,0.415640,99.55,1
1260630,1,56206,1,51789,54652,51483.47,53595.34,305.53,1056.66,0.415504,99.55,1
1260670,1,56246,1,51802,54684,51484.11,53597.52,317.89,1086.48,0.415366,99.55,1
1260710,1,56286,1,51818,54711,51484.77,53599.75,333.23,1111.25,0.415227,99.55,1
1260750,1,56326,1,51831,54750,51485.47,53602.05,345.53,1147.95,0.415085,99.55,1
1260790,1,56366,1,51841,54781,51486.18,53604.41,354.82,1176.59,0.414942,99.56,1
1260830,1,56406,1,51853,54755,51486.91,53606.71,366.09,1148.29,0.414798,99.56,1
1260870,1,56446,1,51809,54611,51487.56,53608.72,321.44,1002.28,0.414654,99.56,1
1260910,1,56486,1,51747,54502,51488.08,53610.51,258.92,891.49,0.414509,99.56,1
1260950,1,56526,1,51715,54475,51488.54,53612.24,226.46,862.76,0.414362,99.56,1
1260990,1,56566,1,51714,54486,51488.99,53613.99,225.01,872.01,0.414213,99.57,1
1261030,1,56606,1,51725,54502,51489.46,53615.77,235.54,886.23,0.414063,99.57,1
1261070,1,56646,1,51732,54527,51489.95,53617.59,242.05,909.41,0.413912,99.57,1
1261110,1,56686,1,51737,54530,51490.45,53619.42,246.55,910.58,0.413759,99.57,1
1261150,1,56726,1,51733,54515,51490.93,53621.21,242.07,893.79,0.413605,99.58,1
1261191,1,56767,1,51719,54501,51491.39,53622.98,227.61,878.02,0.413449,99.58,1
1261231,1,56807,1,51719,54522,51491.85,53624.78,227.15,897.22,0.413291,99.58,1
1261271,1,56847,1,51728,54555,51492.32,53626.64,235.68,928.36,0.413132,99.59,1
1261311,1,56887,1,51750,54595,51492.84,53628.58,257.16,966.42,0.412971,99.59,1
1261351,1,56927,1,51764,54637,51493.38,53630.60,270.62,1006.40,0.412808,99.59,1
1261391,1,56967,1,51780,54674,51493.95,53632.69,286.05,1041.31,0.412644,99.59,1
1261431,1,57007,1,51796,54704,51494.56,53634.83,301.44,1069.17,0.412478,99.60,1
1261471,1,57047,1,51810,54735,51495.19,53637.04,314.81,1097.96,0.412310,99.60,1
1261511,1,57087,1,51824,54761,51495.85,53639.29,328.15,1121.71,0.412141,99.60,1
1261551,1,57127,1,51835,54786,51496.53,53641.58,338.47,1144.42,0.411971,99.61,1
1261591,1,57167,1,51828,54717,51497.20,53643.73,330.80,1073.27,0.411800,99.61,1
1261631,1,57207,1,51772,54569,51497.75,53645.58,274.25,923.42,0.411628,99.61,1
1261671,1,57247,1,51710,54468,51498.17,53647.23,211.83,820.77,0.411456,99.61,1
1261711,1,57287,1,51682,54451,51498.54,53648.84,183.46,802.16,0.411282,99.62,1
1261751,1,57327,1,51682,54463,51498.91,53650.46,183.09,812.54,0.411106,99.62,1
1261792,1,57368,1,51692,54482,51499.29,53652.13,192.71,829.87,0.410929,99.62,1
1261832,1,57408,1,51698,54501,51499.69,53653.83,198.31,847.17,0.410750,99.63,1
1261872,1,57448,1,51701,54506,51500.09,53655.54,200.91,850.46,0.410570,99.63,1
1261912,1,57488,1,51692,54486,51500.48,53657.20,191.52,828.80,0.410389,99.63,1
1261952,1,57528,1,51685,54483,51500.85,53658.85,184.15,824.15,0.410205,99.64,1
1261992,1,57568,1,51691,54507,51501.23,53660.55,189.77,846.45,0.410020,99.64,1
1262032,1,57608,1,51701,54546,51501.64,53662.32,199.36,883.68,0.409834,99.64,1
1262072,1,57648,1,51723,54590,51502.08,53664.18,220.92,925.82,0.409645,99.65,1
1262112,1,57688,1,51747,54630,51502.57,53666.11,244.43,963.89,0.409455,99.65,1
1262152,1,57728,1,51764,54657,51503.10,53668.10,260.90,988.90,0.409264,99.65,1
1262192,1,57768,1,51772,54686,51503.64,53670.14,268.36,1015.86,0.409071,99.66,1
1262232,1,57808,1,51784,54711,51504.20,53672.22,279.80,1038.78,0.408876,99.66,1
1262272,1,57848,1,51793,54741,51504.78,53674.36,288.22,1066.64,0.408680,99.66,1
1262312,1,57888,1,51802,54749,51505.37,53676.51,296.62,1072.49,0.408483,99.67,1
1262352,1,57928,1,51780,54646,51505.93,53678.45,274.07,967.55,0.408285,99.67,1
1262392,1,57968,1,51704,54483,51506.32,53680.06,197.68,802.94,0.408086,99.68,1
1262433,1,58009,1,51651,54400,51506.61,53681.50,144.39,718.50,0.407886,99.68,1
1262473,1,58049,1,51631,54393,51506.86,53682.93,124.14,710.07,0.407685,99.68,1
1262513,1,58089,1,51631,54415,51507.11,53684.39,123.89,730.61,0.407482,99.69,1
1262553,1,58129,1,51637,54436,51507.37,53685.90,129.62,750.10,0.407278,99.69,1
1262593,1,58169,1,51653,54459,51507.67,53687.45,145.33,771.55,0.407071,99.70,1
1262633,1,58209,1,51653,54454,51507.96,53688.98,145.04,765.02,0.406864,99.70,1
1262673,1,58249,1,51646,54436,51508.24,53690.48,137.76,745.52,0.406655,99.70,1
1262713,1,58289,1,51643,54438,51508.51,53691.97,134.49,746.03,0.406444,99.71,1
1262753,1,58329,1,51654,54457,51508.80,53693.50,145.20,763.50,0.406232,99.71,1
1262793,1,58369,1,51666,54496,51509.12,53695.11,156.88,800.89,0.406018,99.72,1
1262833,1,58409,1,51680,54536,51509.46,53696.79,170.54,839.21,0.405803,99.72,1
1262873,1,58449,1,51698,54567,51509.84,53698.54,188.16,868.46,0.405586,99.72,1
1262913,1,58489,1,51714,54595,51510.25,53700.33,203.75,894.67,0.405367,99.73,1
1262953,1,58529,1,51723,54623,51510.68,53702.18,212.32,920.82,0.405147,99.73,1
1262993,1,58569,1,51727,54649,51511.11,53704.07,215.89,944.93,0.404925,99.74,1
1263033,1,58609,1,51736,54674,51511.56,53706.01,224.44,967.99,0.404701,99.74,1
1263074,1,58650,1,51743,54653,51512.02,53707.91,230.98,945.09,0.404476,99.75,1
1263114,1,58690,1,51702,54512,51512.41,53709.52,189.59,802.48,0.404251,99.75,1
1263154,1,58730,1,51621,54362,51512.62,53710.82,108.37,651.18,0.404024,99.75,1
1263194,1,58770,1,51571,54308,51512.74,53712.02,58.26,595.98,0.403796,99.76,1
1263234,1,58810,1,51567,54307,51512.85,53713.21,54.15,593.79,0.403567,99.76,1
1263274,1,58850,1,51572,54330,51512.97,53714.44,59.03,615.56,0.403336,99.77,1
1263314,1,58890,1,51583,54359,51513.11,53715.73,69.89,643.27,0.403105,99.77,1
1263354,1,58930,1,51597,54377,51513.28,53717.05,83.72,659.95,0.402872,99.78,1
1263394,1,58970,1,51600,54360,51513.46,53718.34,86.54,641.66,0.402637,99.78,1
1263434,1,59010,1,51591,54345,51513.61,53719.60,77.39,625.40,0.402402,99.79,1
1263474,1,59050,1,51586,54352,51513.76,53720.86,72.24,631.14,0.402165,99.79,1
1263514,1,59090,1,51593,54380,51513.92,53722.18,79.08,657.82,0.401927,99.80,1
1263554,1,59130,1,51605,54418,51514.10,53723.58,90.90,694.42,0.401688,99.80,1
1263594,1,59170,1,51623,54460,51514.32,53725.05,108.68,734.95,0.401446,99.81,1
1263634,1,59210,1,51638,54492,51514.57,53726.59,123.43,765.41,0.401203,99.81,1
1263674,1,59250,1,51651,54526,51514.84,53728.19,136.16,797.81,0.400959,99.82,1
1263715,1,59291,1,51661,54556,51515.14,53729.84,145.86,826.16,0.400712,99.82,1
1263755,1,59331,1,51676,54587,51515.46,53731.56,160.54,855.44,0.400463,99.83,1
1263795,1,59371,1,51683,54580,51515.80,53733.26,167.20,846.74,0.400213,99.83,1
1263835,1,59411,1,51645,54438,51516.05,53734.67,128.95,703.33,0.399962,99.84,1
1263875,1,59451,1,51571,54286,51516.16,53735.77,54.84,550.23,0.399710,99.84,1
1263915,1,59491,1,51518,54219,51516.17,53736.74,1.83,482.26,0.399458,99.85,1
1263955,1,59531,1,51506,54228,51516.15,53737.73,-10.15,490.27,0.399204,99.85,1
1263995,1,59571,1,51514,54250,51516.14,53738.75,-2.14,511.25,0.398950,99.86,1
1264035,1,59611,1,51534,54281,51516.18,53739.84,17.82,541.16,0.398696,99.86,1
1264075,1,59651,1,51545,54300,51516.24,53740.96,28.76,559.04,0.398440,99.86,1
1264115,1,59691,1,51539,54292,51516.29,53742.06,22.71,549.94,0.398183,99.87,1
1264155,1,59731,1,51534,54277,51516.32,53743.13,17.68,533.87,0.397925,99.87,1
1264195,1,59771,1,51531,54280,51516.35,53744.21,14.65,535.79,0.397666,99.88,1
1264235,1,59811,1,51541,54312,51516.40,53745.34,24.60,566.66,0.397406,99.88,1
1264275,1,59851,1,51548,54359,51516.47,53746.57,31.53,612.43,0.397145,99.88,1
1264316,1,59892,1,51575,54401,51516.59,53747.88,58.41,653.12,0.396882,99.89,1
1264356,1,59932,1,51586,54442,51516.73,53749.27,69.27,692.73,0.396618,99.89,1
1264396,1,59972,1,51598,54484,51516.89,53750.75,81.11,733.25,0.396351,99.89,1
1264436,1,60012,2,51617,54521,51517.09,53752.29,99.91,768.71,0.396083,99.90,1
1264476,1,60052,2,51636,54555,51517.33,53753.89,118.67,801.11,0.395812,99.90,1
