t_ms,trial_id,t_trial_ms,phase,red_raw,ir_raw,red_dc,ir_dc,red_ac,ir_ac,R,spo2,spo2_valid
1618403,1,0,0,51747,53271,51029.77,52567.76,717.23,703.24,0.452035,98.62,1
1618443,1,40,0,51305,53324,51030.32,52569.27,274.68,754.73,0.451934,98.62,1
1618483,1,80,0,51315,53281,51030.89,52570.70,284.11,710.30,0.451834,98.63,1
1618523,1,120,0,51253,53072,51031.33,52571.70,221.67,500.30,0.451734,98.63,1
1618563,1,160,0,51155,52878,51031.58,52572.32,123.42,305.68,0.451635,98.63,1
1618603,1,200,0,50678,52812,51030.87,52572.80,-352.87,239.20,0.451547,98.63,1
1618643,1,240,0,50517,52828,51029.85,52573.31,-512.85,254.69,0.451481,98.64,1
1618683,1,280,0,51113,52872,51030.02,52573.91,82.98,298.09,0.451415,98.64,1
1618723,1,320,0,51136,52932,51030.23,52574.62,105.77,357.37,0.451348,98.64,1
1618763,1,360,0,51168,52964,51030.51,52575.41,137.49,388.59,0.451281,98.64,1
1618803,1,400,0,51174,52968,51030.80,52576.19,143.20,391.81,0.451214,98.64,1
1618843,1,440,0,51169,52961,51031.07,52576.96,137.93,384.04,0.451146,98.65,1
1618883,1,480,0,51168,52979,51031.35,52577.77,136.65,401.23,0.451077,98.65,1
1618923,1,520,0,51182,53024,51031.65,52578.66,150.35,445.34,0.451007,98.65,1
1618964,1,561,0,51207,53081,51032.00,52579.67,175.00,501.33,0.450937,98.65,1
1619004,1,601,0,51228,53139,51032.39,52580.79,195.61,558.21,0.450865,98.66,1
1619044,1,641,0,51257,53201,51032.84,52582.03,224.16,618.97,0.450792,98.66,1
1619084,1,681,0,51278,53259,51033.34,52583.39,244.66,675.61,0.450718,98.66,1
1619124,1,721,0,51308,53302,51033.89,52584.82,274.11,717.18,0.450642,98.66,1
1619164,1,761,0,51311,53223,51034.44,52586.10,276.56,636.90,0.450568,98.66,1
1619204,1,801,0,51229,53005,51034.83,52586.94,194.17,418.06,0.450494,98.67,1
1619244,1,841,0,51130,52831,51035.02,52587.43,94.98,243.57,0.450421,98.67,1
1619284,1,881,0,51089,52786,51035.13,52587.83,53.87,198.17,0.450348,98.67,1
1619324,1,921,0,51096,52815,51035.26,52588.29,60.74,226.71,0.450274,98.67,1
1619364,1,961,0,51119,52869,51035.43,52588.85,83.57,280.15,0.450200,98.68,1
1619404,1,1001,0,51146,52929,51035.65,52589.53,110.35,339.47,0.450125,98.68,1
1619444,1,1041,0,51165,52958,51035.91,52590.27,129.09,367.73,0.450050,98.68,1
1619484,1,1081,0,51175,52958,51036.19,52591.01,138.81,366.99,0.449975,98.68,1
1619524,1,1121,0,51173,52951,51036.46,52591.73,136.54,359.27,0.449899,98.68,1
1619564,1,1161,0,51174,52979,51036.74,52592.51,137.26,386.49,0.449823,98.69,1
1619604,1,1201,0,51189,53027,51037.05,52593.38,151.95,433.62,0.449747,98.69,1
1619644,1,1241,0,51212,53089,51037.40,52594.37,174.60,494.63,0.449670,98.69,1
1619685,1,1282,0,51242,53148,51037.81,52595.48,204.19,552.52,0.449592,98.69,1
1619725,1,1322,0,51268,53209,51038.27,52596.71,229.73,612.29,0.449513,98.69,1
1619765,1,1362,0,51293,53264,51038.78,52598.04,254.22,665.96,0.449433,98.70,1
1619805,1,1402,0,51311,53314,51039.33,52599.48,271.67,714.52,0.449352,98.70,1
1619845,1,1442,0,51327,53297,51039.91,52600.87,287.09,696.13,0.449272,98.70,1
1619885,1,1482,0,51275,53105,51040.38,52601.88,234.62,503.12,0.449193,98.70,1
1619925,1,1522,0,51171,52890,51040.64,52602.46,130.36,287.54,0.449115,98.71,1
1619965,1,1562,0,51102,52803,51040.77,52602.86,61.23,200.14,0.449036,98.71,1
1620005,1,1602,0,51092,52812,51040.87,52603.28,51.13,208.72,0.448958,98.71,1
1620045,1,1642,0,51113,52850,51041.02,52603.77,71.98,246.23,0.448879,98.71,1
1620085,1,1682,0,51143,52908,51041.22,52604.38,101.78,303.62,0.448800,98.71,1
1620125,1,1722,0,51166,52945,51041.47,52605.07,124.53,339.93,0.448720,98.72,1
1620165,1,1762,0,51173,52946,51041.74,52605.75,131.26,340.25,0.448641,98.72,1
1620205,1,1802,0,51167,52935,51041.99,52606.41,125.01,328.59,0.448562,98.72,1
1620245,1,1842,0,51170,52945,51042.25,52607.09,127.75,337.91,0.448482,98.72,1
1620285,1,1882,0,51176,52981,51042.52,52607.84,133.48,373.16,0.448402,98.72,1
1620325,1,1922,0,51194,53036,51042.82,52608.70,151.18,427.30,0.448322,98.73,1
1620365,1,1962,0,51217,53092,51043.17,52609.67,173.83,482.33,0.448241,98.73,1
1620406,1,2003,0,51246,53146,51043.58,52610.74,202.42,535.26,0.448159,98.73,1
1620446,1,2043,0,51264,53195,51044.02,52611.91,219.98,583.09,0.448077,98.73,1
1620486,1,2083,0,51282,53241,51044.50,52613.17,237.50,627.83,0.447994,98.73,1
1620526,1,2123,0,51296,53278,51045.00,52614.50,251.00,663.50,0.447910,98.74,1
1620566,1,2163,0,51302,53210,51045.52,52615.69,256.48,594.31,0.447827,98.74,1
1620606,1,2203,0,51227,52966,51045.88,52616.39,181.12,349.61,0.447745,98.74,1
1620646,1,2243,0,51112,52764,51046.01,52616.69,65.99,147.31,0.447665,98.74,1
1620686,1,2283,0,51058,52696,51046.04,52616.85,11.96,79.15,0.447584,98.74,1
1620726,1,2323,0,51054,52703,51046.05,52617.02,7.95,85.98,0.447503,98.75,1
1620766,1,2363,0,51073,52745,51046.11,52617.28,26.89,127.72,0.447422,98.75,1
1620806,1,2403,0,51093,52789,51046.20,52617.62,46.80,171.37,0.447342,98.75,1
1620846,1,2443,0,51111,52810,51046.33,52618.01,64.67,191.99,0.447261,98.75,1
1620886,1,2483,0,51109,52789,51046.46,52618.36,62.54,170.64,0.447180,98.75,1
1620926,1,2523,0,51096,53025,51046.56,52619.17,49.44,405.83,0.447097,98.76,1
1620966,1,2563,0,51097,53167,51046.66,52620.27,50.34,546.73,0.447008,98.76,1
1621006,1,2603,0,51109,52824,51046.79,52620.68,62.21,203.32,0.446920,98.76,1
1621046,1,2643,0,51131,52879,51046.95,52621.20,84.05,257.80,0.446830,98.76,1
1621086,1,2683,0,51154,52932,51047.17,52621.82,106.83,310.18,0.446741,98.76,1
1621127,1,2724,0,51175,52815,51047.43,52622.21,127.57,192.79,0.446653,98.77,1
1621167,1,2764,0,51194,52689,51047.72,52622.34,146.28,66.66,0.446568,98.77,1
1621207,1,2804,0,51209,53074,51048.04,52623.25,160.96,450.75,0.446483,98.77,1
1621247,1,2844,0,51220,53049,51048.39,52624.10,171.61,424.90,0.446398,98.77,1
1621287,1,2884,0,51173,52842,51048.64,52624.54,124.36,217.46,0.446314,98.78,1
1621327,1,2924,0,51051,52586,51048.64,52624.46,2.36,-38.46,0.446230,98.78,1
1621367,1,2964,0,50965,52460,51048.48,52624.14,-83.48,-164.14,0.446146,98.78,1
1621407,1,3004,0,50949,52451,51048.28,52623.79,-99.28,-172.79,0.446064,98.78,1
1621447,1,3044,0,50955,52469,51048.10,52623.48,-93.10,-154.48,0.445982,98.78,1
1621487,1,3084,0,50975,52509,51047.95,52623.26,-72.95,-114.26,0.445902,98.79,1
1621527,1,3124,0,51000,52554,51047.86,52623.12,-47.86,-69.12,0.445821,98.79,1
1621567,1,3164,0,51011,52565,51047.79,52623.01,-36.79,-58.01,0.445741,98.79,1
1621607,1,3204,0,51005,52555,51047.70,52622.87,-42.70,-67.87,0.445662,98.79,1
1621647,1,3244,0,51243,52563,51048.09,52622.76,194.91,-59.76,0.445587,98.79,1
1621687,1,3284,0,51352,52602,51048.70,52622.72,303.30,-20.72,0.445526,98.80,1
1621727,1,3324,0,51038,52661,51048.68,52622.80,-10.68,38.20,0.445465,98.80,1
1621767,1,3364,0,51062,52723,51048.71,52623.00,13.29,100.00,0.445404,98.80,1
1621808,1,3405,0,51089,52784,51048.79,52623.32,40.21,160.68,0.445343,98.80,1
1621848,1,3445,0,50989,52842,51048.67,52623.76,-59.67,218.24,0.445281,98.80,1
1621888,1,3485,0,50878,52896,51048.33,52624.31,-170.33,271.69,0.445222,98.81,1
1621928,1,3525,0,51155,52913,51048.55,52624.89,106.45,288.11,0.445163,98.81,1
1621968,1,3565,0,51124,52725,51048.70,52625.09,75.30,99.91,0.445105,98.81,1
1622008,1,3605,0,51009,52451,51048.62,52624.74,-39.62,-173.74,0.445046,98.81,1
1622048,1,3645,0,50153,52303,51046.83,52624.10,-893.83,-321.10,0.445100,98.81,1
1622088,1,3685,0,50878,52287,51046.50,52623.43,-168.50,-336.43,0.445154,98.82,1
1622128,1,3725,0,50890,52313,51046.18,52622.81,-156.18,-309.81,0.445209,98.82,1
1622168,1,3765,0,50911,52352,51045.91,52622.27,-134.91,-270.27,0.445264,98.82,1
1622208,1,3805,0,50940,52413,51045.70,52621.85,-105.70,-208.85,0.445320,98.82,1
1622248,1,3845,0,50964,52444,51045.54,52621.50,-81.54,-177.50,0.445375,98.82,1
1622288,1,3885,0,50963,52447,51045.38,52621.15,-82.38,-174.15,0.445431,98.82,1
1622328,1,3925,0,50966,52452,51045.22,52620.81,-79.22,-168.81,0.445486,98.82,1
1622368,1,3965,0,50976,52490,51045.09,52620.55,-69.09,-130.55,0.445541,98.82,1
1622408,1,4005,0,50998,52551,51044.99,52620.41,-46.99,-69.41,0.445596,98.83,1
1622448,1,4045,0,51026,52622,51044.96,52620.42,-18.96,1.58,0.445651,98.83,1
1622488,1,4085,0,51054,52689,51044.98,52620.55,9.02,68.45,0.445706,98.83,1
1622529,1,4126,0,51079,52743,51045.05,52620.80,33.95,122.20,0.445760,98.83,1
1622569,1,4166,0,51101,52792,51045.16,52621.14,55.84,170.86,0.445814,98.83,1
1622609,1,4206,0,51118,52844,51045.31,52621.59,72.69,222.41,0.445867,98.83,1
1622649,1,4246,0,51140,52896,51045.50,52622.14,94.50,273.86,0.445919,98.83,1
1622689,1,4286,0,51159,52898,51045.73,52622.70,113.27,275.30,0.445970,98.83,1
1622729,1,4326,0,51121,52693,51045.88,52622.84,75.12,70.16,0.446022,98.83,1
1622769,1,4366,0,50999,52418,51045.79,52622.43,-46.79,-204.43,0.446072,98.83,1
1622809,1,4406,0,50902,52274,51045.50,52621.73,-143.50,-347.73,0.446122,98.83,1
1622849,1,4446,0,50879,52264,51045.17,52621.02,-166.17,-357.02,0.446172,98.83,1
1622889,1,4486,0,50891,52293,51044.86,52620.36,-153.86,-327.36,0.446222,98.83,1
1622929,1,4526,0,50912,52336,51044.59,52619.79,-132.59,-283.79,0.446273,98.83,1
1622969,1,4566,0,50942,52394,51044.39,52619.34,-102.39,-225.34,0.446323,98.83,1
1623009,1,4606,0,50959,52415,51044.22,52618.94,-85.22,-203.94,0.446373,98.83,1
1623049,1,4646,0,50960,52414,51044.05,52618.53,-84.05,-204.53,0.446422,98.83,1
1623089,1,4686,0,50956,52423,51043.88,52618.14,-87.88,-195.14,0.446471,98.83,1
1623129,1,4726,0,50968,52465,51043.73,52617.83,-75.73,-152.83,0.446521,98.83,1
1623169,1,4766,0,50989,52525,51043.62,52617.65,-54.62,-92.65,0.446570,98.83,1
1623209,1,4806,0,51021,52595,51043.57,52617.61,-22.57,-22.61,0.446619,98.83,1
1623250,1,4847,0,51046,52662,51043.58,52617.70,2.42,44.30,0.446668,98.83,1
1623290,1,4887,0,51074,52724,51043.64,52617.91,30.36,106.09,0.446717,98.83,1
1623330,1,4927,0,51101,52787,51043.76,52618.25,57.24,168.75,0.446765,98.83,1
1623370,1,4967,0,51120,52839,51043.91,52618.69,76.09,220.31,0.446812,98.83,1
1623410,1,5007,0,51140,52879,51044.11,52619.21,95.89,259.79,0.446859,98.83,1
1623450,1,5047,0,51160,52925,51044.34,52619.83,115.66,305.17,0.446904,98.83,1
1623490,1,5087,0,51181,52979,51044.62,52620.55,136.38,358.45,0.446948,98.83,1
1623530,1,5127,0,51199,53035,51044.93,52621.38,154.07,413.62,0.446989,98.83,1
1623570,1,5167,0,51219,52976,51045.27,52622.09,173.73,353.91,0.447032,98.83,1
1623610,1,5207,0,51138,52697,51045.46,52622.24,92.54,74.76,0.447076,98.83,1
1623650,1,5247,0,51015,52443,51045.40,52621.89,-30.40,-178.89,0.447118,98.83,1
1623690,1,5287,0,50943,52364,51045.20,52621.37,-102.20,-257.37,0.447160,98.83,1
1623730,1,5327,0,50936,52383,51044.98,52620.89,-108.98,-237.89,0.447202,98.83,1
1623770,1,5367,0,50949,52425,51044.79,52620.50,-95.79,-195.50,0.447244,98.83,1
1623810,1,5407,0,50979,52483,51044.66,52620.23,-65.66,-137.23,0.447286,98.83,1
1623850,1,5447,0,51000,52518,51044.57,52620.03,-44.57,-102.03,0.447328,98.83,1
1623890,1,5487,0,50999,52509,51044.48,52619.81,-45.48,-110.81,0.447370,98.83,1
1623930,1,5527,0,50992,52490,51044.37,52619.55,-52.38,-129.55,0.447411,98.83,1
1623971,1,5568,0,50990,52506,51044.27,52619.32,-54.27,-113.32,0.447453,98.83,1
1624011,1,5608,0,51006,52559,51044.19,52619.20,-38.19,-60.20,0.447494,98.83,1
1624051,1,5648,0,51034,52623,51044.17,52619.21,-10.17,3.79,0.447536,98.83,1
1624091,1,5688,0,51063,52692,51044.21,52619.36,18.79,72.64,0.447577,98.83,1
1624131,1,5728,0,51089,52756,51044.30,52619.63,44.70,136.37,0.447617,98.83,1
1624171,1,5768,0,51121,52923,51044.46,52620.24,76.54,302.76,0.447655,98.83,1
1624211,1,5808,0,51141,52856,51044.65,52620.71,96.35,235.29,0.447693,98.83,1
1624251,1,5848,0,51156,52894,51044.87,52621.26,111.12,272.74,0.447729,98.83,1
1624291,1,5888,0,51175,52923,51045.14,52621.87,129.86,301.13,0.447766,98.82,1
1624331,1,5928,0,51194,53358,51045.44,52623.34,148.56,734.66,0.447784,98.82,1
1624371,1,5968,0,51212,53533,51045.77,52625.16,166.23,907.84,0.447775,98.82,1
1624411,1,6008,0,51227,53021,51046.14,52625.95,180.86,395.05,0.447767,98.82,1
1624451,1,6048,0,51198,52836,51046.44,52626.37,151.56,209.62,0.447762,98.82,1
1624491,1,6088,0,51075,52516,51046.50,52626.16,28.50,-110.16,0.447757,98.82,1
1624531,1,6128,0,50957,51997,51046.32,52624.90,-89.32,-627.90,0.447738,98.82,1
1624571,1,6168,0,50916,51756,51046.07,52623.16,-130.07,-867.16,0.447694,98.82,1
1624611,1,6208,0,50921,52318,51045.82,52622.55,-124.82,-304.55,0.447651,98.82,1
1624651,1,6248,0,50934,52362,51045.59,52622.03,-111.59,-260.03,0.447607,98.82,1
1624692,1,6289,0,50954,52415,51045.41,52621.62,-91.41,-206.62,0.447564,98.82,1
1624732,1,6329,0,50973,52439,51045.27,52621.25,-72.27,-182.25,0.447521,98.82,1
1624772,1,6369,0,50973,52433,51045.12,52620.88,-72.12,-187.88,0.447477,98.82,1
1624812,1,6409,0,50968,52430,51044.97,52620.50,-76.97,-190.50,0.447434,98.82,1
1624852,1,6449,0,50979,52466,51044.84,52620.19,-65.84,-154.19,0.447391,98.82,1
1624892,1,6489,0,51046,52530,51044.84,52620.01,1.16,-90.01,0.447347,98.82,1
1624932,1,6529,0,51030,52612,51044.82,52620.00,-14.82,-8.00,0.447304,98.82,1
1624972,1,6569,0,51068,52684,51044.86,52620.12,23.14,63.88,0.447261,98.82,1
1625012,1,6609,0,51104,52746,51044.98,52620.38,59.02,125.62,0.447218,98.82,1
1625052,1,6649,0,51510,52795,51045.91,52620.73,464.09,174.27,0.447222,98.82,1
1625092,1,6689,0,51627,52841,51047.08,52621.17,579.92,219.83,0.447298,98.82,1
1625132,1,6729,0,51168,52892,51047.32,52621.71,120.68,270.29,0.447373,98.82,1
1625172,1,6769,0,51185,52925,51047.60,52622.32,137.40,302.68,0.447447,98.82,1
1625212,1,6809,0,51189,52843,51047.88,52622.77,141.12,220.23,0.447523,98.82,1
1625252,1,6849,0,50784,52568,51047.36,52622.66,-263.36,-54.66,0.447614,98.82,1
1625292,1,6889,0,50545,52334,51046.35,52622.08,-501.35,-288.08,0.447755,98.82,1
1625332,1,6929,0,50903,52258,51046.07,52621.36,-143.07,-363.36,0.447892,98.82,1
1625372,1,6969,0,50902,52281,51045.78,52620.68,-143.78,-339.68,0.448028,98.82,1
1625413,1,7010,0,50918,52320,51045.53,52620.07,-127.53,-300.07,0.448163,98.82,1
1625453,1,7050,0,50942,52385,51045.32,52619.61,-103.32,-234.61,0.448297,98.82,1
1625493,1,7090,0,50969,52442,51045.17,52619.25,-76.17,-177.25,0.448430,98.82,1
1625533,1,7130,0,50983,52458,51045.05,52618.93,-62.05,-160.93,0.448562,98.81,1
1625573,1,7170,0,50985,52456,51044.93,52618.61,-59.93,-162.61,0.448694,98.81,1
1625613,1,7210,0,50989,52478,51044.82,52618.32,-55.82,-140.32,0.448824,98.81,1
1625653,1,7250,0,51007,52536,51044.75,52618.16,-37.75,-82.16,0.448954,98.81,1
1625693,1,7290,0,51037,52611,51044.73,52618.15,-7.73,-7.15,0.449084,98.81,1
1625733,1,7330,0,51070,52686,51044.78,52618.29,25.22,67.71,0.449214,98.81,1
1625773,1,7370,0,51108,52754,51044.91,52618.56,63.09,135.44,0.449343,98.81,1
1625813,1,7410,0,51138,52822,51045.10,52618.97,92.90,203.03,0.449471,98.81,1
1625853,1,7450,0,51165,52872,51045.34,52619.48,119.66,252.52,0.449599,98.80,1
1625893,1,7490,0,51180,52915,51045.61,52620.07,134.39,294.93,0.449726,98.80,1
1625933,1,7530,0,51203,52960,51045.93,52620.75,157.07,339.25,0.449853,98.80,1
1625973,1,7570,0,51221,52999,51046.28,52621.51,174.72,377.49,0.449978,98.80,1
1626013,1,7610,0,51211,52900,51046.61,52622.07,164.39,277.93,0.450106,98.80,1
1626053,1,7650,0,51122,52627,51046.76,52622.08,75.24,4.92,0.450234,98.80,1
1626094,1,7691,0,51001,52407,51046.67,52621.65,-45.67,-214.65,0.450360,98.80,1
1626134,1,7731,0,50941,52354,51046.46,52621.11,-105.46,-267.11,0.450485,98.79,1
1626174,1,7771,0,50940,52383,51046.25,52620.64,-106.25,-237.64,0.450608,98.79,1
1626214,1,7811,0,50956,52440,51046.07,52620.28,-90.07,-180.28,0.450732,98.79,1
1626254,1,7851,0,50989,52512,51045.96,52620.06,-56.96,-108.06,0.450855,98.79,1
1626294,1,7891,0,51020,52556,51045.91,52619.94,-25.91,-63.94,0.450978,98.79,1
1626334,1,7931,0,51030,52574,51045.87,52619.85,-15.88,-45.85,0.451100,98.78,1
1626374,1,7971,0,51028,52577,51045.84,52619.76,-17.84,-42.76,0.451222,98.78,1
1626414,1,8011,0,51039,52600,51045.83,52619.72,-6.83,-19.72,0.451344,98.78,1
1626454,1,8051,0,51062,52647,51045.86,52619.78,16.14,27.22,0.451465,98.78,1
1626494,1,8091,0,51089,52713,51045.95,52619.96,43.05,93.04,0.451586,98.78,1
1626534,1,8131,0,51118,52786,51046.09,52620.30,71.91,165.70,0.451706,98.77,1
1626574,1,8171,0,51145,52849,51046.29,52620.75,98.71,228.25,0.451825,98.77,1
1626614,1,8211,0,51170,52899,51046.54,52621.31,123.46,277.69,0.451944,98.77,1
1626654,1,8251,0,51192,52943,51046.84,52621.96,145.16,321.04,0.452061,98.77,1
1626694,1,8291,0,51203,52984,51047.15,52622.68,155.85,361.32,0.452177,98.77,1
1626734,1,8331,0,51218,53025,51047.49,52623.49,170.51,401.51,0.452290,98.76,1
1626774,1,8371,0,51239,53074,51047.87,52624.39,191.12,449.61,0.452401,98.76,1
1626815,1,8412,0,51254,53065,51048.29,52625.27,205.71,439.73,0.452511,98.76,1
1626855,1,8452,0,51207,52867,51048.61,52625.76,158.39,241.24,0.452624,98.76,1
1626895,1,8492,0,51090,52618,51048.70,52625.74,41.30,-7.74,0.452737,98.75,1
1626935,1,8532,0,51008,52497,51048.62,52625.48,-40.62,-128.48,0.452849,98.75,1
1626975,1,8572,0,50989,52503,51048.50,52625.24,-59.50,-122.24,0.452960,98.75,1
1627015,1,8612,0,51008,52556,51048.42,52625.11,-40.42,-69.11,0.453072,98.75,1
1627055,1,8652,0,51037,52625,51048.40,52625.11,-11.40,-0.11,0.453183,98.75,1
1627095,1,8692,0,51068,52678,51048.44,52625.21,19.56,52.79,0.453294,98.74,1
1627135,1,8732,0,51088,52684,51048.52,52625.33,39.48,58.67,0.453405,98.74,1
1627175,1,8772,0,51085,52670,51048.59,52625.42,36.41,44.58,0.453515,98.74,1
1627215,1,8812,0,51079,52676,51048.66,52625.52,30.34,50.48,0.453626,98.74,1
1627255,1,8852,0,51092,52715,51048.75,52625.70,43.25,89.30,0.453736,98.73,1
1627295,1,8892,0,51107,52772,51048.86,52625.99,58.14,146.01,0.453845,98.73,1
1627335,1,8932,0,51142,52838,51049.05,52626.42,92.95,211.58,0.453954,98.73,1
1627375,1,8972,0,51169,52900,51049.29,52626.96,119.71,273.04,0.454062,98.73,1
1627415,1,9012,0,51191,52957,51049.58,52627.62,141.42,329.37,0.454167,98.72,1
1627455,1,9052,0,51209,53005,51049.90,52628.38,159.10,376.62,0.454271,98.72,1
1627496,1,9093,0,51227,53033,51050.25,52629.20,176.75,403.80,0.454373,98.72,1
1627536,1,9133,0,51236,53076,51050.62,52630.09,185.37,445.91,0.454471,98.72,1
1627576,1,9173,0,51249,53451,51051.02,52631.73,197.98,819.27,0.454539,98.71,1
1627616,1,9213,0,51268,53548,51051.46,52633.57,216.54,914.43,0.454570,98.71,1
1627656,1,9253,0,51211,52872,51051.78,52634.04,159.22,237.96,0.454605,98.71,1
1627696,1,9293,0,51092,52626,51051.86,52634.03,40.14,-8.03,0.454641,98.71,1
1627736,1,9333,0,51013,52515,51051.78,52633.79,-38.78,-118.79,0.454676,98.71,1
1627776,1,9373,0,50997,52231,51051.67,52632.98,-54.67,-401.98,0.454703,98.70,1
1627816,1,9413,0,51016,52099,51051.60,52631.92,-35.60,-532.92,0.454713,98.70,1
1627856,1,9453,0,51037,52602,51051.57,52631.86,-14.57,-29.86,0.454724,98.70,1
1627896,1,9493,0,51063,52646,51051.60,52631.89,11.40,14.11,0.454735,98.70,1
1627936,1,9533,0,51068,52644,51051.63,52631.92,16.37,12.08,0.454746,98.69,1
1627976,1,9573,0,51061,52622,51051.65,52631.90,9.35,-9.90,0.454757,98.69,1
1628016,1,9613,0,51058,52618,51051.67,52631.87,6.33,-13.87,0.454767,98.69,1
1628056,1,9653,0,51069,52657,51051.70,52631.92,17.30,25.08,0.454778,98.69,1
1628096,1,9693,0,51086,52719,51051.77,52632.10,34.23,86.90,0.454789,98.69,1
1628136,1,9733,0,51125,52783,51051.92,52632.40,73.08,150.60,0.454800,98.69,1
1628177,1,9774,0,51140,52843,51052.10,52632.82,87.90,210.18,0.454810,98.68,1
1628217,1,9814,0,51166,52891,51052.33,52633.34,113.67,257.66,0.454821,98.68,1
1628257,1,9854,0,51178,52940,51052.58,52633.96,125.42,306.04,0.454830,98.68,1
1628297,1,9894,0,51546,52982,51053.57,52634.66,492.43,347.34,0.454905,98.68,1
1628337,1,9934,0,51658,53011,51054.78,52635.41,603.22,375.59,0.455074,98.68,1
1628377,1,9974,0,51211,52900,51055.09,52635.94,155.91,264.06,0.455244,98.68,1
1628417,1,10014,0,51114,52643,51055.21,52635.96,58.79,7.04,0.455415,98.67,1
1628457,1,10054,0,51009,52447,51055.12,52635.58,-46.12,-188.58,0.455583,98.67,1
1628497,1,10094,0,50696,52395,51054.40,52635.10,-358.40,-240.10,0.455783,98.67,1
1628537,1,10134,0,50570,52412,51053.43,52634.66,-483.43,-222.66,0.456041,98.67,1
1628577,1,10174,0,50981,52459,51053.29,52634.30,-72.29,-175.30,0.456298,98.67,1
1628617,1,10214,0,51008,52524,51053.20,52634.09,-45.20,-110.09,0.456554,98.66,1
1628657,1,10254,0,51036,52558,51053.17,52633.93,-17.17,-75.93,0.456809,98.66,1
1628697,1,10294,0,51041,52559,51053.14,52633.79,-12.14,-74.79,0.457063,98.66,1
1628737,1,10334,0,51041,52558,51053.12,52633.64,-12.12,-75.64,0.457315,98.66,1
1628777,1,10374,0,51040,52583,51053.10,52633.54,-13.10,-50.54,0.457567,98.65,1
1628817,1,10414,0,51056,52631,51053.11,52633.53,2.89,-2.53,0.457818,98.65,1
1628858,1,10455,0,51084,52697,51053.17,52633.66,30.83,63.34,0.458068,98.65,1
1628898,1,10495,0,51111,52761,51053.29,52633.92,57.71,127.08,0.458317,98.64,1
1628938,1,10535,0,51141,52832,51053.46,52634.32,87.54,197.68,0.458564,98.64,1
1628978,1,10575,0,51164,52887,51053.68,52634.82,110.32,252.18,0.458809,98.64,1
1629018,1,10615,0,51183,52930,51053.95,52635.41,129.05,294.59,0.459052,98.63,1
1629058,1,10655,0,51210,52979,51054.26,52636.10,155.74,342.90,0.459291,98.63,1
1629098,1,10695,0,51228,53027,51054.61,52636.88,173.39,390.12,0.459526,98.63,1
1629138,1,10735,0,51228,52934,51054.95,52637.48,173.05,296.52,0.459762,98.62,1
1629178,1,10775,0,51143,52673,51055.13,52637.55,87.87,35.45,0.460000,98.62,1
1629218,1,10815,0,51034,52455,51055.09,52637.19,-21.09,-182.19,0.460234,98.62,1
1629258,1,10855,0,50975,52387,51054.93,52636.69,-79.93,-249.69,0.460464,98.61,1
1629298,1,10895,0,50975,52410,51054.77,52636.23,-79.77,-226.23,0.460692,98.61,1
1629338,1,10935,0,50989,52455,51054.64,52635.87,-65.64,-180.87,0.460917,98.60,1
1629378,1,10975,0,51016,52516,51054.57,52635.64,-38.57,-119.64,0.461141,98.60,1
1629418,1,11015,0,51039,52565,51054.54,52635.50,-15.54,-70.50,0.461364,98.60,1
1629458,1,11055,0,51050,52573,51054.53,52635.37,-4.53,-62.37,0.461587,98.59,1
1629498,1,11095,0,51054,52571,51054.53,52635.24,-0.53,-64.24,0.461808,98.59,1
1629539,1,11136,0,51049,52588,51054.52,52635.15,-5.52,-47.15,0.462028,98.58,1
1629579,1,11176,0,51068,52635,51054.55,52635.15,13.45,-0.15,0.462247,98.58,1
1629619,1,11216,0,51087,52707,51054.61,52635.29,32.39,71.71,0.462466,98.58,1
1629659,1,11256,0,51123,52779,51054.75,52635.58,68.25,143.42,0.462684,98.57,1
1629699,1,11296,0,51156,52848,51054.95,52636.01,101.05,211.99,0.462900,98.57,1
1629739,1,11336,0,51185,52915,51055.21,52636.57,129.79,278.43,0.463115,98.56,1
1629779,1,11376,0,51207,52969,51055.52,52637.23,151.48,331.77,0.463327,98.56,1
1629819,1,11416,0,51230,53011,51055.87,52637.98,174.13,373.02,0.463536,98.55,1
1629859,1,11456,0,51251,53052,51056.26,52638.81,194.74,413.19,0.463741,98.55,1
1629899,1,11496,0,51275,53102,51056.70,52639.74,218.30,462.26,0.463944,98.54,1
1629939,1,11536,0,51294,53144,51057.18,52640.75,236.82,503.25,0.464142,98.54,1
1629979,1,11576,0,51290,53035,51057.64,52641.54,232.36,393.46,0.464343,98.54,1
1630019,1,11616,0,51194,52759,51057.92,52641.77,136.08,117.23,0.464549,98.53,1
1630059,1,11656,0,51077,52540,51057.96,52641.57,19.04,-101.57,0.464753,98.53,1
1630099,1,11696,0,51013,52480,51057.87,52641.25,-44.87,-161.25,0.464955,98.52,1
1630139,1,11736,0,51014,52497,51057.78,52640.96,-43.78,-143.96,0.465156,98.52,1
1630180,1,11777,0,51029,52543,51057.73,52640.77,-28.73,-97.77,0.465355,98.51,1
1630220,1,11817,0,51052,52599,51057.71,52640.68,-5.71,-41.68,0.465553,98.51,1
1630260,1,11857,0,51073,52635,51057.75,52640.67,15.25,-5.67,0.465751,98.50,1
1630300,1,11897,0,51074,52630,51057.78,52640.65,16.22,-10.65,0.465948,98.50,1
1630340,1,11937,0,51071,52622,51057.81,52640.62,13.19,-18.62,0.466145,98.49,1
1630380,1,11977,0,51073,52645,51057.84,52640.63,15.16,4.37,0.466341,98.49,1
1630420,1,12017,0,51088,52702,51057.90,52640.75,30.10,61.25,0.466537,98.49,1
1630460,1,12057,0,51120,52767,51058.03,52641.01,61.97,125.99,0.466732,98.48,1
1630500,1,12097,0,51158,52836,51058.23,52641.40,99.77,194.60,0.466926,98.48,1
1630540,1,12137,0,51185,52901,51058.48,52641.92,126.52,259.08,0.467119,98.47,1
1630580,1,12177,0,51214,52955,51058.80,52642.55,155.20,312.45,0.467311,98.47,1
1630620,1,12217,0,51233,53099,51059.15,52643.46,173.85,455.54,0.467494,98.46,1
1630660,1,12257,0,51251,53038,51059.54,52644.25,191.46,393.75,0.467675,98.46,1
1630700,1,12297,0,51265,53073,51059.95,52645.11,205.05,427.89,0.467853,98.45,1
1630740,1,12337,0,51276,53112,51060.38,52646.04,215.62,465.96,0.468027,98.45,1
1630780,1,12377,0,51290,53598,51060.84,52647.95,229.16,950.05,0.468143,98.44,1
1630820,1,12417,0,51311,53449,51061.34,52649.55,249.66,799.45,0.468230,98.44,1
1630861,1,12458,0,51310,53097,51061.84,52650.45,248.16,446.55,0.468321,98.44,1
1630901,1,12498,0,51211,52811,51062.14,52650.77,148.86,160.23,0.468417,98.43,1
1630941,1,12538,0,51083,52576,51062.19,52650.62,20.81,-74.62,0.468513,98.43,1
1630981,1,12578,0,51020,52069,51062.11,52649.46,-42.11,-580.46,0.468584,98.42,1
1631021,1,12618,0,51021,51924,51062.02,52648.01,-41.02,-724.01,0.468619,98.42,1
1631061,1,12658,0,51032,52572,51061.96,52647.86,-29.96,-75.86,0.468655,98.41,1
1631101,1,12698,0,51063,52633,51061.97,52647.83,1.03,-14.83,0.468690,98.41,1
1631141,1,12738,0,51087,52672,51062.02,52647.88,24.98,24.12,0.468725,98.41,1
1631181,1,12778,0,51095,52651,51062.09,52647.89,32.91,3.11,0.468760,98.40,1
1631221,1,12818,0,51085,52627,51062.13,52647.85,22.87,-20.85,0.468796,98.40,1
1631261,1,12858,0,51080,52642,51062.17,52647.84,17.83,-5.84,0.468831,98.40,1
1631301,1,12898,0,51093,52681,51062.23,52647.91,30.77,33.09,0.468867,98.39,1
1631341,1,12938,0,51216,52738,51062.54,52648.09,153.46,89.91,0.468909,98.39,1
1631381,1,12978,0,51148,52798,51062.71,52648.39,85.29,149.61,0.468952,98.39,1
1631421,1,13018,0,51166,52849,51062.92,52648.79,103.08,200.21,0.468996,98.38,1
1631461,1,13058,0,51184,52890,51063.16,52649.27,120.84,240.73,0.469040,98.38,1
1631501,1,13098,0,51631,52924,51064.30,52649.82,566.70,274.18,0.469184,98.38,1
1631542,1,13139,0,51217,52945,51064.61,52650.41,152.39,294.59,0.469327,98.37,1
1631582,1,13179,0,51223,52976,51064.92,52651.07,158.08,324.93,0.469469,98.37,1
1631622,1,13219,0,51231,52983,51065.25,52651.73,165.75,331.27,0.469610,98.37,1
1631662,1,13259,0,51205,52808,51065.54,52652.04,139.46,155.96,0.469756,98.36,1
1631702,1,13299,0,50693,52510,51064.79,52651.76,-371.79,-141.76,0.469943,98.36,1
1631742,1,13339,0,50465,52324,51063.59,52651.11,-598.59,-327.11,0.470228,98.36,1
1631782,1,13379,0,50935,52294,51063.34,52650.40,-128.34,-356.40,0.470506,98.35,1
1631822,1,13419,0,50943,52329,51063.10,52649.76,-120.10,-320.76,0.470779,98.35,1
1631862,1,13459,0,50967,52374,51062.91,52649.21,-95.91,-275.21,0.471047,98.34,1
1631902,1,13499,0,50995,52439,51062.77,52648.79,-67.77,-209.79,0.471311,98.34,1
1631942,1,13539,0,51019,52469,51062.69,52648.43,-43.69,-179.43,0.471573,98.34,1
1631982,1,13579,0,51024,52466,51062.61,52648.07,-38.61,-182.07,0.471831,98.33,1
1632022,1,13619,0,51022,52463,51062.54,52647.70,-40.54,-184.70,0.472086,98.33,1
1632062,1,13659,0,51029,52496,51062.47,52647.40,-33.47,-151.40,0.472339,98.32,1
1632102,1,13699,0,51042,52546,51062.43,52647.20,-20.43,-101.20,0.472590,98.32,1
1632142,1,13739,0,51073,52618,51062.45,52647.14,10.55,-29.14,0.472840,98.32,1
1632182,1,13779,0,51103,52686,51062.54,52647.21,40.46,38.79,0.473090,98.31,1
1632223,1,13820,0,51127,52743,51062.66,52647.41,64.34,95.59,0.473339,98.31,1
1632263,1,13860,0,51151,52797,51062.84,52647.71,88.16,149.29,0.473588,98.30,1
1632303,1,13900,0,51173,52844,51063.07,52648.10,109.93,195.90,0.473837,98.30,1
1632343,1,13940,0,51188,52893,51063.32,52648.59,124.68,244.41,0.474084,98.29,1
1632383,1,13980,0,51205,52845,51063.60,52648.99,141.40,196.01,0.474334,98.29,1
1632423,1,14020,0,51133,52580,51063.74,52648.85,69.26,-68.85,0.474584,98.29,1
1632463,1,14060,0,51001,52316,51063.62,52648.19,-62.62,-332.19,0.474823,98.28,1
1632503,1,14100,0,50921,52210,51063.33,52647.31,-142.33,-437.31,0.475051,98.28,1
1632543,1,14140,0,50915,52224,51063.04,52646.47,-148.04,-422.47,0.475269,98.27,1
1632583,1,14180,0,50937,52272,51062.79,52645.72,-125.79,-373.72,0.475478,98.27,1
1632623,1,14220,0,50960,52339,51062.58,52645.11,-102.58,-306.11,0.475682,98.26,1
1632663,1,14260,0,50991,52402,51062.44,52644.62,-71.44,-242.62,0.475881,98.26,1
1632703,1,14300,0,51008,52422,51062.33,52644.18,-54.33,-222.18,0.476076,98.25,1
1632743,1,14340,0,51008,52409,51062.23,52643.71,-54.23,-234.71,0.476266,98.25,1
1632783,1,14380,0,51005,52413,51062.11,52643.25,-57.11,-230.25,0.476453,98.24,1
1632823,1,14420,0,51017,52462,51062.02,52642.89,-45.02,-180.89,0.476636,98.24,1
1632863,1,14460,0,51039,52525,51061.98,52642.66,-22.98,-117.66,0.476818,98.23,1
1632903,1,14500,0,51069,52594,51062.00,52642.56,7.00,-48.56,0.476998,98.23,1
1632944,1,14541,0,51098,52659,51062.07,52642.59,35.93,16.41,0.477179,98.22,1
1632984,1,14581,0,51123,52718,51062.20,52642.75,60.80,75.25,0.477360,98.22,1
1633024,1,14621,0,51138,52766,51062.35,52642.99,75.65,123.01,0.477541,98.21,1
1633064,1,14661,0,51164,52810,51062.55,52643.33,101.45,166.67,0.477723,98.21,1
1633104,1,14701,0,51183,52852,51062.79,52643.75,120.21,208.25,0.477904,98.20,1
1633144,1,14741,0,51194,52822,51063.06,52644.11,130.94,177.89,0.478089,98.20,1
1633184,1,14781,0,51131,52567,51063.20,52643.95,67.80,-76.95,0.478274,98.20,1
1633224,1,14821,0,51001,52277,51063.07,52643.22,-62.07,-366.22,0.478446,98.19,1
1633264,1,14861,0,50912,52154,51062.77,52642.24,-150.77,-488.24,0.478603,98.19,1
1633304,1,14901,0,50898,52157,51062.44,52641.27,-164.44,-484.27,0.478747,98.18,1
1633344,1,14941,0,50914,52209,51062.14,52640.41,-148.14,-431.41,0.478882,98.18,1
1633384,1,14981,0,50938,52277,51061.90,52639.68,-123.90,-362.68,0.479009,98.17,1
1633424,1,15021,0,50969,52335,51061.71,52639.07,-92.71,-304.07,0.479131,98.17,1
1633464,1,15061,0,50990,52344,51061.57,52638.48,-71.57,-294.48,0.479247,98.16,1
1633504,1,15101,0,50987,52333,51061.43,52637.87,-74.43,-304.87,0.479356,98.16,1
1633544,1,15141,0,50980,52342,51061.27,52637.29,-81.27,-295.29,0.479459,98.15,1
1633584,1,15181,0,50987,52385,51061.12,52636.78,-74.12,-251.78,0.479558,98.15,1
1633625,1,15222,0,51013,52450,51061.02,52636.41,-48.02,-186.41,0.479654,98.15,1
1633665,1,15262,0,51040,52522,51060.98,52636.18,-20.98,-114.18,0.479749,98.14,1
1633705,1,15302,0,51072,52597,51061.01,52636.11,10.99,-39.11,0.479844,98.14,1
1633745,1,15342,0,51097,52658,51061.08,52636.15,35.92,21.85,0.479939,98.13,1
1633785,1,15382,0,51125,52701,51061.21,52636.29,63.79,64.71,0.480035,98.13,1
1633825,1,15422,0,51147,52747,51061.38,52636.51,85.62,110.49,0.480132,98.13,1
1633865,1,15462,0,51160,52868,51061.58,52636.97,98.42,231.03,0.480228,98.12,1
1633905,1,15502,0,51176,52828,51061.81,52637.36,114.19,190.64,0.480325,98.12,1
1633945,1,15542,0,51200,52862,51062.09,52637.80,137.91,224.20,0.480424,98.11,1
1633985,1,15582,0,51186,52709,51062.34,52637.95,123.66,71.05,0.480528,98.11,1
1634025,1,15622,0,51074,52793,51062.36,52638.26,11.64,154.74,0.480629,98.11,1
1634065,1,15662,0,50940,52657,51062.12,52638.30,-122.12,18.70,0.480737,98.10,1
1634105,1,15702,0,50885,52102,51061.77,52637.23,-176.77,-535.23,0.480828,98.10,1
1634145,1,15742,0,50895,52134,51061.44,52636.23,-166.44,-502.23,0.480906,98.10,1
1634185,1,15782,0,50910,52186,51061.14,52635.33,-151.14,-449.33,0.480974,98.09,1
1634225,1,15822,0,50933,51849,51060.88,52633.76,-127.88,-784.76,0.480995,98.09,1
1634265,1,15862,0,50951,51767,51060.66,52632.03,-109.66,-865.03,0.480962,98.08,1
1634305,1,15902,0,50953,52268,51060.45,52631.30,-107.45,-363.30,0.480923,98.08,1
1634346,1,15943,0,50949,52255,51060.23,52630.55,-111.23,-375.55,0.480879,98.08,1
1634386,1,15983,0,50945,52287,51060.00,52629.86,-115.00,-342.86,0.480831,98.08,1
1634426,1,16023,0,50970,52354,51059.82,52629.31,-89.82,-275.31,0.480780,98.07,1
1634466,1,16063,0,51004,52431,51059.71,52628.92,-55.71,-197.92,0.480728,98.07,1
1634506,1,16103,0,51034,52503,51059.66,52628.67,-25.66,-125.67,0.480676,98.07,1
1634546,1,16143,0,51065,52571,51059.67,52628.55,5.33,-57.55,0.480623,98.06,1
1634586,1,16183,0,51140,52628,51059.83,52628.55,80.17,-0.55,0.480572,98.06,1
1634626,1,16223,0,51116,52671,51059.94,52628.64,56.06,42.36,0.480523,98.06,1
1634666,1,16263,0,51130,52702,51060.08,52628.79,69.92,73.21,0.480475,98.06,1
1634706,1,16303,0,51149,52738,51060.26,52629.01,88.74,108.99,0.480430,98.06,1
1634746,1,16343,0,51528,52774,51061.20,52629.30,466.80,144.70,0.480463,98.05,1
1634786,1,16383,0,51687,52819,51062.45,52629.68,624.55,189.32,0.480628,98.05,1
1634826,1,16423,0,51177,52696,51062.68,52629.81,114.32,66.19,0.480797,98.05,1
1634866,1,16463,0,51073,52372,51062.71,52629.30,10.29,-257.30,0.480959,98.05,1
1634906,1,16503,0,50933,52128,51062.45,52628.30,-129.45,-500.30,0.481104,98.05,1
1634946,1,16543,0,50566,52066,51061.46,52627.17,-495.46,-561.17,0.481300,98.04,1
1634986,1,16583,0,50369,52091,51060.07,52626.10,-691.07,-535.10,0.481614,98.04,1
1635027,1,16624,0,50880,52136,51059.71,52625.12,-179.71,-489.12,0.481914,98.04,1
1635067,1,16664,0,50912,52200,51059.42,52624.27,-147.42,-424.27,0.482203,98.03,1
1635107,1,16704,0,50987,52246,51059.28,52623.52,-72.28,-377.52,0.482480,98.03,1
1635147,1,16744,0,50938,52244,51059.04,52622.76,-121.04,-378.76,0.482748,98.03,1
1635187,1,16784,0,50932,52236,51058.78,52621.99,-126.78,-385.99,0.483006,98.03,1
1635227,1,16824,0,50939,52267,51058.54,52621.28,-119.54,-354.28,0.483257,98.02,1
1635267,1,16864,0,50960,52333,51058.35,52620.71,-98.35,-287.71,0.483502,98.02,1
1635307,1,16904,0,50992,52413,51058.21,52620.29,-66.21,-207.29,0.483745,98.02,1
1635347,1,16944,0,51030,52485,51058.16,52620.02,-28.16,-135.02,0.483985,98.01,1
1635387,1,16984,0,51062,52552,51058.17,52619.89,3.83,-67.89,0.484224,98.01,1
1635427,1,17024,0,51091,52605,51058.23,52619.86,32.77,-14.86,0.484463,98.01,1
1635467,1,17064,0,51110,52649,51058.34,52619.92,51.66,29.08,0.484702,98.00,1
1635507,1,17104,0,51127,52689,51058.48,52620.06,68.52,68.94,0.484941,98.00,1
1635547,1,17144,0,51147,52734,51058.66,52620.29,88.34,113.71,0.485180,97.99,1
1635587,1,17184,0,51165,52748,51058.87,52620.55,106.13,127.45,0.485421,97.99,1
1635627,1,17224,0,51134,52566,51059.02,52620.44,74.98,-54.44,0.485662,97.99,1
1635667,1,17264,0,51011,52262,51058.93,52619.73,-47.93,-357.73,0.485892,97.98,1
1635707,1,17304,0,50896,52080,51058.61,52618.65,-162.61,-538.65,0.486102,97.98,1
1635748,1,17345,0,50854,52046,51058.20,52617.50,-204.20,-571.50,0.486296,97.97,1
1635788,1,17385,0,50859,52081,51057.80,52616.43,-198.80,-535.43,0.486476,97.97,1
1635828,1,17425,0,50872,52137,51057.43,52615.48,-185.43,-478.48,0.486647,97.97,1
1635868,1,17465,0,50908,52208,51057.13,52614.66,-149.13,-406.66,0.486811,97.96,1
1635908,1,17505,0,50932,52244,51056.88,52613.93,-124.88,-369.93,0.486967,97.96,1
1635948,1,17545,0,50943,52251,51056.66,52613.20,-113.66,-362.20,0.487117,97.95,1
1635988,1,17585,0,50937,52261,51056.42,52612.50,-119.42,-351.50,0.487260,97.95,1
1636028,1,17625,0,50951,52298,51056.21,52611.87,-105.21,-313.87,0.487398,97.95,1
1636068,1,17665,0,50980,52362,51056.05,52611.37,-76.05,-249.37,0.487532,97.94,1
1636108,1,17705,0,51011,52433,51055.96,52611.02,-44.96,-178.02,0.487664,97.94,1
1636148,1,17745,0,51040,52506,51055.93,52610.81,-15.93,-104.81,0.487795,97.93,1
1636188,1,17785,0,51071,52573,51055.96,52610.73,15.04,-37.73,0.487925,97.93,1
1636228,1,17825,0,51091,52623,51056.04,52610.76,34.96,12.24,0.488055,97.93,1
1636268,1,17865,0,51116,52665,51056.16,52610.87,59.84,54.13,0.488186,97.92,1
1636308,1,17905,0,51131,52703,51056.31,52611.06,74.69,91.94,0.488318,97.92,1
1636348,1,17945,0,51144,52747,51056.48,52611.33,87.52,135.67,0.488450,97.91,1
1636388,1,17985,0,51162,52770,51056.70,52611.65,105.30,158.35,0.488582,97.91,1
1636429,1,18026,0,51137,52597,51056.86,52611.62,80.14,-14.63,0.488717,97.91,1
1636469,1,18066,0,51018,52283,51056.78,52610.97,-38.78,-327.97,0.488842,97.90,1
1636509,1,18106,0,50894,52080,51056.45,52609.91,-162.45,-529.91,0.488952,97.90,1
1636549,1,18146,0,50842,52034,51056.03,52608.75,-214.03,-574.75,0.489049,97.90,1
1636589,1,18186,0,50845,52060,51055.61,52607.66,-210.61,-547.66,0.489135,97.89,1
1636629,1,18226,0,50863,52108,51055.22,52606.66,-192.22,-498.66,0.489213,97.89,1
1636669,1,18266,0,50891,52176,51054.89,52605.80,-163.89,-429.80,0.489285,97.88,1
1636709,1,18306,0,50916,52217,51054.62,52605.02,-138.62,-388.02,0.489351,97.88,1
1636749,1,18346,0,50925,52218,51054.36,52604.25,-129.36,-386.25,0.489411,97.88,1
1636789,1,18386,0,50926,52217,51054.11,52603.48,-128.11,-386.48,0.489464,97.87,1
1636829,1,18426,0,50933,52248,51053.86,52602.77,-120.86,-354.77,0.489512,97.87,1
1636869,1,18466,0,50957,52308,51053.67,52602.18,-96.67,-294.18,0.489557,97.87,1
1636909,1,18506,0,50983,52380,51053.53,52601.73,-70.53,-221.73,0.489599,97.86,1
1636949,1,18546,0,51020,52451,51053.46,52601.43,-33.46,-150.43,0.489640,97.86,1
1636989,1,18586,0,51049,52518,51053.46,52601.27,-4.46,-83.27,0.489681,97.86,1
1637029,1,18626,0,51072,52568,51053.50,52601.20,18.50,-33.20,0.489721,97.85,1
1637069,1,18666,0,51086,52616,51053.56,52601.23,32.44,14.77,0.489761,97.85,1
1637109,1,18706,0,51105,52650,51053.67,52601.33,51.33,48.67,0.489802,97.85,1
1637150,1,18747,0,51119,52693,51053.80,52601.52,65.20,91.48,0.489844,97.85,1
1637190,1,18787,0,51138,52742,51053.97,52601.80,84.03,140.20,0.489886,97.84,1
1637230,1,18827,0,51158,53000,51054.18,52602.59,103.82,397.41,0.489919,97.84,1
1637270,1,18867,0,51143,52947,51054.36,52603.29,88.64,343.71,0.489946,97.84,1
1637310,1,18907,0,51032,52319,51054.32,52602.72,-22.32,-283.72,0.489966,97.84,1
1637350,1,18947,0,50904,52107,51054.02,52601.73,-150.02,-494.73,0.489975,97.83,1
1637390,1,18987,0,50855,52058,51053.62,52600.64,-198.62,-542.64,0.489975,97.83,1
1637430,1,19027,0,50856,51998,51053.22,52599.44,-197.22,-601.44,0.489961,97.83,1
1637470,1,19067,0,50875,51914,51052.87,52598.07,-177.87,-684.07,0.489925,97.83,1
1637510,1,19107,0,50909,52198,51052.58,52597.27,-143.58,-399.27,0.489885,97.82,1
1637550,1,19147,0,50929,52233,51052.34,52596.55,-123.34,-363.55,0.489840,97.82,1
1637590,1,19187,0,50936,52229,51052.11,52595.81,-116.11,-366.81,0.489791,97.82,1
1637630,1,19227,0,50930,51518,51051.86,52593.66,-121.86,-1075.66,0.489675,97.82,1
1637670,1,19267,0,50934,52251,51051.63,52592.98,-117.63,-341.98,0.489556,97.82,1
1637710,1,19307,0,50953,52307,51051.43,52592.41,-98.43,-285.41,0.489436,97.81,1
1637750,1,19347,0,50985,52380,51051.30,52591.98,-66.30,-211.98,0.489316,97.81,1
1637790,1,19387,0,51010,52447,51051.22,52591.70,-41.22,-144.70,0.489195,97.81,1
1637830,1,19427,0,51040,52511,51051.20,52591.54,-11.20,-80.54,0.489073,97.81,1
1637871,1,19468,0,51062,52561,51051.22,52591.48,10.78,-30.48,0.488953,97.81,1
1637911,1,19508,0,51082,52601,51051.29,52591.50,30.71,9.50,0.488833,97.81,1
1637951,1,19548,0,51235,52641,51051.65,52591.60,183.35,49.40,0.488723,97.81,1
1637991,1,19588,0,51370,52676,51052.29,52591.77,317.71,84.23,0.488646,97.81,1
1638031,1,19628,0,51125,52722,51052.44,52592.03,72.56,129.97,0.488569,97.81,1
1638071,1,19668,0,51145,52712,51052.62,52592.27,92.37,119.73,0.488495,97.81,1
1638111,1,19708,0,51098,52488,51052.72,52592.07,45.28,-104.07,0.488420,97.81,1
1638151,1,19748,0,50962,52186,51052.54,52591.25,-90.54,-405.25,0.488338,97.80,1
1638191,1,19788,0,50719,52033,51051.87,52590.14,-332.87,-557.14,0.488271,97.80,1
1638231,1,19828,0,50844,52022,51051.46,52589.00,-207.46,-567.00,0.488198,97.80,1
1638271,1,19868,0,50856,52059,51051.07,52587.95,-195.07,-528.95,0.488119,97.80,1
1638311,1,19908,0,50875,52119,51050.72,52587.01,-175.72,-468.01,0.488036,97.80,1
1638351,1,19948,0,50364,52175,51049.35,52586.18,-685.35,-411.18,0.488079,97.80,1
1638391,1,19988,0,50149,52188,51047.55,52585.39,-898.55,-397.39,0.488319,97.80,1
1638431,1,20028,0,50916,52172,51047.29,52584.56,-131.29,-412.56,0.488550,97.80,1
1638471,1,20068,0,50906,52173,51047.00,52583.74,-141.00,-410.74,0.488773,97.80,1
1638511,1,20108,0,50917,52220,51046.75,52583.02,-129.75,-363.02,0.488990,97.80,1
1638552,1,20149,0,50944,52283,51046.54,52582.42,-102.54,-299.42,0.489203,97.80,1
1638592,1,20189,0,50968,52355,51046.39,52581.96,-78.39,-226.96,0.489412,97.80,1
1638632,1,20229,0,51002,52430,51046.30,52581.66,-44.30,-151.66,0.489620,97.80,1
1638672,1,20269,0,51030,52500,51046.27,52581.50,-16.27,-81.50,0.489826,97.80,1
1638712,1,20309,0,51055,52549,51046.29,52581.44,8.71,-32.44,0.490032,97.80,1
1638752,1,20349,0,51077,52594,51046.35,52581.47,30.65,12.53,0.490238,97.79,1
1638792,1,20389,0,51097,52642,51046.45,52581.59,50.55,60.41,0.490443,97.79,1
1638832,1,20429,0,51115,52693,51046.59,52581.81,68.41,111.19,0.490648,97.79,1
1638872,1,20469,0,51128,52635,51046.75,52581.92,81.25,53.08,0.490854,97.79,1
1638912,1,20509,0,51055,52361,51046.77,52581.48,8.23,-220.48,0.491056,97.79,1
1638952,1,20549,0,50927,52085,51046.54,52580.49,-119.54,-495.49,0.491241,97.78,1
1638992,1,20589,0,50843,51987,51046.13,52579.30,-203.13,-592.30,0.491411,97.78,1
1639032,1,20629,0,50830,51997,51045.70,52578.14,-215.70,-581.14,0.491568,97.78,1
1639072,1,20669,0,50846,52036,51045.30,52577.05,-199.30,-541.05,0.491713,97.78,1
1639112,1,20709,0,50874,52100,51044.96,52576.10,-170.96,-476.10,0.491850,97.78,1
1639152,1,20749,0,50899,52159,51044.67,52575.27,-145.67,-416.27,0.491979,97.77,1
1639192,1,20789,0,50913,52178,51044.41,52574.48,-131.41,-396.48,0.492102,97.77,1
1639232,1,20829,0,50917,52171,51044.16,52573.67,-127.16,-402.67,0.492218,97.77,1
1639273,1,20870,0,50914,52185,51043.90,52572.89,-129.90,-387.89,0.492328,97.77,1
1639313,1,20910,0,50929,52230,51043.67,52572.21,-114.67,-342.21,0.492432,97.76,1
1639353,1,20950,0,50952,52299,51043.49,52571.66,-91.49,-272.66,0.492534,97.76,1
1639393,1,20990,0,50984,52379,51043.37,52571.28,-59.37,-192.28,0.492633,97.76,1
1639433,1,21030,0,51018,52447,51043.32,52571.04,-25.32,-124.04,0.492732,97.76,1
1639473,1,21070,0,51050,52517,51043.34,52570.93,6.66,-53.93,0.492829,97.76,1
1639513,1,21110,0,51070,52575,51043.39,52570.94,26.61,4.06,0.492927,97.75,1
1639553,1,21150,0,51098,52623,51043.50,52571.04,54.50,51.96,0.493025,97.75,1
1639593,1,21190,0,51119,52672,51043.65,52571.25,75.35,100.75,0.493124,97.75,1
1639633,1,21230,0,51146,52717,51043.86,52571.54,102.14,145.46,0.493224,97.75,1
1639673,1,21270,0,51157,52666,51044.09,52571.73,112.91,94.27,0.493326,97.74,1
1639713,1,21310,0,51078,52399,51044.16,52571.39,33.84,-172.39,0.493426,97.74,1
1639753,1,21350,0,50944,52116,51043.96,52570.48,-99.96,-454.48,0.493514,97.74,1
1639793,1,21390,0,50857,52000,51043.59,52569.34,-186.59,-569.34,0.493588,97.74,1
1639833,1,21430,0,50846,52004,51043.19,52568.21,-197.19,-564.21,0.493650,97.73,1
1639873,1,21470,0,50854,52044,51042.81,52567.16,-188.81,-523.16,0.493704,97.73,1
1639913,1,21510,0,50877,52105,51042.48,52566.24,-165.48,-461.24,0.493751,97.73,1
1639953,1,21550,0,50907,52162,51042.21,52565.43,-135.21,-403.43,0.493792,97.73,1
1639994,1,21591,0,50923,52177,51041.97,52564.65,-118.97,-387.65,0.493827,97.72,1
1640034,1,21631,0,50922,52181,51041.73,52563.89,-119.73,-382.89,0.493856,97.72,1
1640074,1,21671,0,50919,52193,51041.49,52563.14,-122.49,-370.14,0.493880,97.72,1
1640114,1,21711,0,50937,52248,51041.28,52562.52,-104.28,-314.52,0.493901,97.72,1
1640154,1,21751,0,50967,52319,51041.13,52562.03,-74.13,-243.03,0.493919,97.72,1
1640194,1,21791,0,50997,52401,51041.05,52561.71,-44.05,-160.71,0.493937,97.71,1
1640234,1,21831,0,51031,52475,51041.03,52561.54,-10.03,-86.54,0.493953,97.71,1
1640274,1,21871,0,51065,52546,51041.08,52561.51,23.92,-15.51,0.493970,97.71,1
1640314,1,21911,0,51093,52602,51041.18,52561.59,51.82,40.41,0.493987,97.71,1
1640354,1,21951,0,51116,52647,51041.34,52561.76,74.66,85.24,0.494006,97.71,1
1640394,1,21991,0,51137,52689,51041.53,52562.02,95.47,126.98,0.494026,97.71,1
1640434,1,22031,0,51156,52731,51041.76,52562.36,114.24,168.64,0.494047,97.70,1
1640474,1,22071,0,51177,52816,51042.03,52562.86,134.97,253.14,0.494070,97.70,1
1640514,1,22111,0,51197,52913,51042.34,52563.57,154.66,349.43,0.494091,97.70,1
1640554,1,22151,0,51155,52576,51042.57,52563.59,112.43,12.41,0.494116,97.70,1
1640594,1,22191,0,51019,52267,51042.52,52563.00,-23.52,-296.00,0.494134,97.70,1
1640634,1,22231,0,50908,52092,51042.25,52562.06,-134.25,-470.06,0.494143,97.70,1
1640674,1,22271,0,50872,52508,51041.91,52561.95,-169.91,-53.95,0.494160,97.69,1
1640715,1,22312,0,50885,52112,51041.60,52561.05,-156.60,-449.05,0.494170,97.69,1
1640755,1,22352,0,50908,52169,51041.34,52560.27,-133.34,-391.27,0.494174,97.69,1
1640795,1,22392,0,50934,52237,51041.12,52559.63,-107.12,-322.63,0.494175,97.69,1
1640835,1,22432,0,50953,52258,51040.95,52559.03,-87.95,-301.03,0.494173,97.69,1
1640875,1,22472,0,50954,51876,51040.77,52557.66,-86.77,-681.66,0.494141,97.69,1
1640915,1,22512,0,50949,51775,51040.59,52556.10,-91.59,-781.10,0.494075,97.69,1
1640955,1,22552,0,50960,52289,51040.43,52555.57,-80.43,-266.57,0.494006,97.69,1
1640995,1,22592,0,50982,52352,51040.31,52555.16,-58.31,-203.16,0.493935,97.68,1
1641035,1,22632,0,51019,52430,51040.27,52554.91,-21.27,-124.91,0.493865,97.68,1
1641075,1,22672,0,51053,52501,51040.30,52554.81,12.70,-53.81,0.493794,97.68,1
1641115,1,22712,0,51086,52560,51040.39,52554.82,45.61,5.18,0.493724,97.68,1
1641155,1,22752,0,51107,52615,51040.52,52554.94,66.48,60.06,0.493655,97.68,1
1641195,1,22792,0,51122,52661,51040.69,52555.16,81.31,105.84,0.493588,97.68,1
1641235,1,22832,0,51183,52697,51040.97,52555.44,142.03,141.56,0.493526,97.68,1
1641275,1,22872,0,51165,52742,51041.22,52555.82,123.78,186.18,0.493466,97.68,1
1641315,1,22912,0,51181,52780,51041.50,52556.27,139.50,223.73,0.493410,97.68,1
1641355,1,22952,0,51176,52678,51041.77,52556.51,134.23,121.49,0.493358,97.68,1
1641395,1,22992,0,51439,52400,51042.57,52556.20,396.43,-156.20,0.493353,97.68,1
1641436,1,23033,0,51433,52173,51043.35,52555.43,389.65,-382.43,0.493382,97.68,1
1641476,1,23073,0,50900,52112,51043.07,52554.55,-143.07,-442.55,0.493404,97.68,1
1641516,1,23113,0,50898,52146,51042.78,52553.73,-144.78,-407.73,0.493421,97.68,1
1641556,1,23153,0,50920,52207,51042.53,52553.04,-122.53,-346.04,0.493434,97.68,1
1641596,1,23193,0,50673,52275,51041.79,52552.48,-368.79,-277.48,0.493480,97.68,1
1641636,1,23233,0,50543,52318,51040.80,52552.02,-497.80,-234.02,0.493593,97.68,1
1641676,1,23273,0,50988,52318,51040.69,52551.55,-52.69,-233.55,0.493702,97.68,1
1641716,1,23313,0,50987,52319,51040.59,52551.09,-53.59,-232.09,0.493808,97.67,1
1641756,1,23353,0,50999,52349,51040.50,52550.68,-41.50,-201.68,0.493910,97.67,1
1641796,1,23393,0,51018,52405,51040.46,52550.39,-22.46,-145.39,0.494011,97.67,1
1641836,1,23433,0,51049,52478,51040.48,52550.25,8.52,-72.25,0.494111,97.67,1
1641876,1,23473,0,51087,52555,51040.57,52550.26,46.43,4.74,0.494212,97.67,1
1641916,1,23513,0,51117,52631,51040.73,52550.43,76.27,80.57,0.494313,97.67,1
1641956,1,23553,0,51143,52681,51040.93,52550.69,102.07,130.31,0.494416,97.67,1
1641996,1,23593,0,51162,52726,51041.18,52551.04,120.82,174.96,0.494521,97.67,1
1642036,1,23633,0,51183,52773,51041.46,52551.48,141.54,221.52,0.494627,97.67,1
1642076,1,23673,0,51203,52819,51041.79,52552.02,161.21,266.98,0.494735,97.67,1
1642116,1,23713,0,51220,52842,51042.14,52552.60,177.86,289.40,0.494846,97.67,1
1642157,1,23754,0,51194,52679,51042.45,52552.86,151.55,126.14,0.494962,97.66,1
1642197,1,23794,0,51088,52407,51042.54,52552.57,45.46,-145.57,0.495076,97.66,1
1642237,1,23834,0,50981,52237,51042.42,52551.94,-61.42,-314.94,0.495183,97.66,1
1642277,1,23874,0,50943,52215,51042.22,52551.27,-99.22,-336.27,0.495284,97.66,1
1642317,1,23914,0,50952,52245,51042.04,52550.66,-90.04,-305.66,0.495379,97.66,1
1642357,1,23954,0,50977,52300,51041.91,52550.16,-64.91,-250.16,0.495470,97.66,1
1642397,1,23994,0,51006,52375,51041.84,52549.81,-35.84,-174.81,0.495559,97.66,1
1642437,1,24034,0,51034,52412,51041.83,52549.54,-7.83,-137.54,0.495647,97.66,1
1642477,1,24074,0,51041,52415,51041.83,52549.27,-0.83,-134.27,0.495732,97.65,1
1642517,1,24114,0,51042,52415,51041.83,52549.00,0.17,-134.00,0.495816,97.65,1
1642557,1,24154,0,51053,52448,51041.85,52548.80,11.15,-100.80,0.495898,97.65,1
1642597,1,24194,0,51075,52511,51041.92,52548.73,33.08,-37.73,0.495981,97.65,1
1642637,1,24234,0,51103,52584,51042.04,52548.80,60.96,35.20,0.496064,97.65,1
1642677,1,24274,0,51137,52650,51042.23,52549.00,94.77,101.00,0.496150,97.65,1
1642717,1,24314,0,51167,52718,51042.48,52549.34,124.52,168.66,0.496238,97.64,1
1642757,1,24354,0,51186,52769,51042.77,52549.78,143.23,219.22,0.496328,97.64,1
1642797,1,24394,0,51208,52813,51043.11,52550.31,164.89,262.69,0.496421,97.64,1
1642837,1,24434,0,51225,52857,51043.47,52550.92,181.53,306.08,0.496516,97.64,1
1642878,1,24475,0,51245,52899,51043.87,52551.62,201.12,347.38,0.496614,97.64,1
1642918,1,24515,0,51253,52861,51044.29,52552.24,208.71,308.76,0.496718,97.64,1
1642958,1,24555,0,51187,52622,51044.58,52552.38,142.42,69.62,0.496828,97.63,1
1642998,1,24595,0,51062,52362,51044.61,52552.00,17.39,-190.00,0.496934,97.63,1
1643038,1,24635,0,50986,52256,51044.50,52551.41,-58.50,-295.41,0.497033,97.63,1
1643078,1,24675,0,50975,52268,51044.36,52550.85,-69.36,-282.85,0.497127,97.63,1
1643118,1,24715,0,50988,52308,51044.25,52550.36,-56.25,-242.36,0.497216,97.63,1
1643158,1,24755,0,51014,52365,51044.19,52549.99,-30.19,-184.99,0.497302,97.63,1
1643198,1,24795,0,51044,52413,51044.19,52549.72,-0.19,-136.72,0.497386,97.62,1
1643238,1,24835,0,51062,52434,51044.22,52549.49,17.78,-115.49,0.497469,97.62,1
1643278,1,24875,0,51062,52427,51044.26,52549.25,17.74,-122.25,0.497550,97.62,1
1643318,1,24915,0,51062,52443,51044.29,52549.04,17.71,-106.04,0.497630,97.62,1
1643358,1,24955,0,51075,52486,51044.36,52548.91,30.64,-62.91,0.497710,97.62,1
1643398,1,24995,0,51099,52549,51044.46,52548.91,54.54,0.09,0.497790,97.61,1
1643438,1,25035,0,51134,52620,51044.64,52549.05,89.36,70.95,0.497873,97.61,1
1643478,1,25075,0,51160,52683,51044.87,52549.32,115.12,133.68,0.497959,97.61,1
1643518,1,25115,0,51185,52737,51045.16,52549.70,139.84,187.30,0.498048,97.61,1
1643559,1,25156,0,51208,52783,51045.48,52550.17,162.52,232.83,0.498142,97.61,1
1643599,1,25196,0,51223,52827,51045.84,52550.72,177.16,276.28,0.498239,97.61,1
1643639,1,25236,0,51241,52875,51046.23,52551.37,194.77,323.63,0.498340,97.60,1
1643679,1,25276,0,51255,52917,51046.65,52552.11,208.35,364.89,0.498443,97.60,1
1643719,1,25316,0,51273,52905,51047.10,52552.81,225.90,352.19,0.498552,97.60,1
1643759,1,25356,0,51228,52691,51047.46,52553.09,180.54,137.91,0.498671,97.60,1
1643799,1,25396,0,51106,52419,51047.58,52552.82,58.42,-133.82,0.498789,97.60,1
1643839,1,25436,0,51017,52287,51047.52,52552.29,-30.52,-265.29,0.498900,97.59,1
1643879,1,25476,0,50994,52428,51047.42,52552.05,-53.42,-124.05,0.499010,97.59,1
1643919,1,25516,0,51011,52557,51047.35,52552.06,-36.35,4.94,0.499121,97.59,1
1643959,1,25556,0,51029,52357,51047.31,52551.67,-18.31,-194.67,0.499227,97.59,1
1643999,1,25596,0,51053,52413,51047.32,52551.39,5.68,-138.39,0.499331,97.59,1
1644039,1,25636,0,51067,52425,51047.36,52551.14,19.64,-126.14,0.499433,97.58,1
1644079,1,25676,0,51070,52404,51047.41,52550.85,22.59,-146.85,0.499533,97.58,1
1644119,1,25716,0,51063,52266,51047.44,52550.28,15.56,-284.28,0.499624,97.58,1
1644159,1,25756,0,51072,52446,51047.49,52550.07,24.51,-104.07,0.499715,97.58,1
1644199,1,25796,0,51094,52504,51047.59,52549.98,46.41,-45.98,0.499805,97.57,1
1644239,1,25836,0,51115,52568,51047.72,52550.02,67.28,17.98,0.499897,97.57,1
1644280,1,25877,0,51147,52047,51047.92,52549.02,99.08,-502.02,0.499967,97.57,1
1644320,1,25917,0,51167,52000,51048.16,52547.92,118.84,-547.92,0.500012,97.57,1
1644360,1,25957,0,51186,52736,51048.44,52548.30,137.56,187.70,0.500060,97.57,1
1644400,1,25997,0,51206,52771,51048.75,52548.75,157.25,222.25,0.500114,97.56,1
1644440,1,26037,0,51218,52807,51049.09,52549.27,168.91,257.73,0.500171,97.56,1
1644480,1,26077,0,51244,52854,51049.48,52549.87,194.52,304.12,0.500234,97.56,1
1644520,1,26117,0,51259,52880,51049.91,52550.54,209.09,329.46,0.500303,97.56,1
1644560,1,26157,0,51239,52738,51050.29,52550.91,188.71,187.09,0.500382,97.56,1
1644600,1,26197,0,51237,52445,51050.66,52550.70,186.34,-105.70,0.500473,97.55,1
1644640,1,26237,0,51238,52254,51051.04,52550.11,186.96,-296.11,0.500568,97.55,1
1644680,1,26277,0,50993,52220,51050.92,52549.45,-57.92,-329.45,0.500654,97.55,1
1644720,1,26317,0,50997,52258,51050.82,52548.86,-53.82,-290.86,0.500731,97.55,1
1644760,1,26357,0,51013,52305,51050.74,52548.37,-37.74,-243.37,0.500802,97.55,1
1644800,1,26397,0,51580,52362,51051.80,52548.00,528.20,-186.00,0.500975,97.54,1
1644840,1,26437,0,50987,52386,51051.67,52547.68,-64.67,-161.68,0.501147,97.54,1
1644880,1,26477,0,51061,52383,51051.69,52547.35,9.31,-164.35,0.501314,97.54,1
1644920,1,26517,0,51051,52377,51051.69,52547.01,-0.69,-170.01,0.501478,97.54,1
1644960,1,26557,0,51054,52406,51051.70,52546.73,2.30,-140.73,0.501640,97.53,1
1645001,1,26598,0,50546,52459,51050.69,52546.55,-504.69,-87.55,0.501894,97.53,1
1645041,1,26638,0,50422,52539,51049.43,52546.54,-627.43,-7.54,0.502286,97.53,1
1645081,1,26678,0,51132,52612,51049.60,52546.67,82.40,65.33,0.502678,97.53,1
1645121,1,26718,0,51163,52671,51049.82,52546.92,113.18,124.08,0.503071,97.52,1
1645161,1,26758,0,51186,52720,51050.10,52547.27,135.90,172.73,0.503465,97.52,1
1645201,1,26798,0,51208,52767,51050.41,52547.71,157.59,219.29,0.503861,97.52,1
1645241,1,26838,0,51226,52818,51050.77,52548.25,175.23,269.75,0.504256,97.51,1
1645281,1,26878,0,51246,52864,51051.16,52548.89,194.84,315.11,0.504651,97.51,1
1645321,1,26918,0,51261,52836,51051.58,52549.46,209.42,286.54,0.505048,97.51,1
1645361,1,26958,0,51213,52610,51051.90,52549.58,161.10,60.42,0.505453,97.50,1
1645401,1,26998,0,51090,52339,51051.98,52549.16,38.02,-210.16,0.505851,97.50,1
1645441,1,27038,0,51006,52222,51051.89,52548.51,-45.89,-326.51,0.506234,97.49,1
1645481,1,27078,0,50989,52225,51051.77,52547.87,-62.77,-322.87,0.506604,97.49,1
1645521,1,27118,0,51004,52261,51051.67,52547.29,-47.67,-286.29,0.506963,97.48,1
1645561,1,27158,0,51028,52323,51051.62,52546.85,-23.62,-223.85,0.507315,97.48,1
1645601,1,27198,0,51053,52390,51051.63,52546.54,1.37,-156.54,0.507662,97.47,1
1645641,1,27238,0,51065,52407,51051.66,52546.26,13.34,-139.26,0.508005,97.47,1
1645681,1,27278,0,51067,52402,51051.69,52545.97,15.31,-143.97,0.508345,97.46,1
1645722,1,27319,0,51066,52409,51051.72,52545.70,14.28,-136.70,0.508682,97.46,1
1645762,1,27359,0,51080,52452,51051.78,52545.51,28.22,-93.51,0.509017,97.45,1
1645802,1,27399,0,51099,52518,51051.87,52545.45,47.13,-27.45,0.509351,97.45,1
1645842,1,27439,0,51127,52591,51052.03,52545.55,74.97,45.45,0.509686,97.44,1
1645882,1,27479,0,51162,52664,51052.25,52545.79,109.75,118.21,0.510023,97.43,1
1645922,1,27519,0,51192,52726,51052.53,52546.15,139.47,179.85,0.510362,97.43,1
1645962,1,27559,0,51214,52784,51052.86,52546.62,161.14,237.37,0.510702,97.42,1
1646002,1,27599,0,51237,52830,51053.23,52547.19,183.77,282.81,0.511042,97.42,1
1646042,1,27639,0,51260,52879,51053.64,52547.86,206.36,331.14,0.511382,97.41,1
1646082,1,27679,0,51282,52926,51054.10,52548.61,227.90,377.39,0.511721,97.40,1
1646122,1,27719,0,51298,52884,51054.59,52549.29,243.41,334.71,0.512066,97.40,1
1646162,1,27759,0,51235,52631,51054.95,52549.45,180.05,81.55,0.512420,97.39,1
1646202,1,27799,0,51106,52366,51055.05,52549.08,50.95,-183.08,0.512770,97.39,1
1646242,1,27839,0,51026,52261,51054.99,52548.51,-28.99,-287.51,0.513108,97.38,1
1646282,1,27879,0,51015,52269,51054.91,52547.95,-39.91,-278.95,0.513434,97.37,1
1646322,1,27919,0,51026,52318,51054.86,52547.49,-28.86,-229.49,0.513753,97.37,1
1646362,1,27959,0,51051,52384,51054.85,52547.17,-3.85,-163.17,0.514067,97.36,1
1646402,1,27999,0,51077,52434,51054.90,52546.94,22.10,-112.94,0.514379,97.35,1
1646442,1,28039,0,51091,52447,51054.97,52546.74,36.03,-99.74,0.514688,97.35,1
1646483,1,28080,0,51087,52436,51055.04,52546.52,31.96,-110.52,0.514996,97.34,1
1646523,1,28120,0,51085,52448,51055.10,52546.33,29.90,-98.33,0.515301,97.33,1
1646563,1,28160,0,51091,52497,51055.18,52546.23,35.82,-49.23,0.515606,97.33,1
1646603,1,28200,0,51118,52562,51055.30,52546.26,62.70,15.74,0.515911,97.32,1
1646643,1,28240,0,51149,52633,51055.49,52546.44,93.51,86.56,0.516218,97.31,1
1646683,1,28280,0,51180,52706,51055.74,52546.76,124.26,159.24,0.516527,97.31,1
1646723,1,28320,0,51213,52771,51056.06,52547.21,156.94,223.79,0.516837,97.30,1
1646763,1,28360,0,51238,52824,51056.42,52547.76,181.58,276.24,0.517148,97.29,1
1646803,1,28400,0,51261,52863,51056.83,52548.39,204.17,314.61,0.517461,97.29,1
1646843,1,28440,0,51281,52905,51057.28,52549.11,223.72,355.89,0.517774,97.28,1
1646883,1,28480,0,51300,52950,51057.77,52549.91,242.23,400.09,0.518087,97.27,1
1646923,1,28520,0,51316,52960,51058.29,52550.73,257.71,409.27,0.518400,97.26,1
1646963,1,28560,0,51286,52769,51058.75,52551.17,227.25,217.83,0.518726,97.26,1
1647003,1,28600,0,51165,52466,51058.96,52551.00,106.04,-85.00,0.519055,97.25,1
1647043,1,28640,0,51062,52305,51058.97,52550.51,3.03,-245.51,0.519373,97.24,1
1647083,1,28680,0,51027,52292,51058.91,52550.00,-31.91,-258.00,0.519681,97.24,1
1647123,1,28720,0,51035,52338,51058.86,52549.57,-23.86,-211.57,0.519983,97.23,1
1647163,1,28760,0,51057,52401,51058.86,52549.28,-1.86,-148.28,0.520280,97.22,1
1647204,1,28801,0,51087,52453,51058.91,52549.09,28.09,-96.09,0.520575,97.22,1
1647244,1,28841,0,51100,52463,51059.00,52548.91,41.00,-85.91,0.520869,97.21,1
1647284,1,28881,0,51090,52442,51059.06,52548.70,30.94,-106.70,0.521161,97.20,1
1647324,1,28921,0,51077,52679,51059.10,52548.96,17.90,130.04,0.521449,97.19,1
1647364,1,28961,0,51093,52839,51059.17,52549.55,33.83,289.45,0.521725,97.19,1
1647404,1,29001,0,51111,52532,51059.27,52549.51,51.73,-17.51,0.522001,97.18,1
1647444,1,29041,0,51137,52607,51059.43,52549.63,77.57,57.37,0.522279,97.17,1
1647484,1,29081,0,51170,52671,51059.65,52549.87,110.35,121.13,0.522558,97.17,1
1647524,1,29121,0,51198,52607,51059.93,52549.99,138.07,57.01,0.522844,97.16,1
1647564,1,29161,0,51223,52478,51060.26,52549.84,162.74,-71.84,0.523140,97.15,1
1647604,1,29201,0,51240,52808,51060.62,52550.36,179.38,257.64,0.523438,97.14,1
1647644,1,29241,0,51256,52850,51061.01,52550.96,194.99,299.04,0.523738,97.14,1
1647684,1,29281,0,51270,52874,51061.43,52551.61,208.57,322.39,0.524038,97.13,1
1647724,1,29321,0,51263,52120,51061.83,52550.75,201.17,-430.75,0.524327,97.12,1
1647764,1,29361,0,51161,52447,51062.03,52550.54,98.97,-103.54,0.524617,97.12,1
1647804,1,29401,0,51033,52217,51061.97,52549.88,-28.97,-332.88,0.524890,97.11,1
1647844,1,29441,0,50969,52161,51061.79,52549.10,-92.79,-388.10,0.525144,97.10,1
1647884,1,29481,0,50966,52185,51061.60,52548.37,-95.60,-363.37,0.525381,97.09,1
1647925,1,29522,0,50984,52227,51061.45,52547.73,-77.45,-320.73,0.525606,97.09,1
1647965,1,29562,0,51007,52285,51061.34,52547.21,-54.34,-262.21,0.525821,97.08,1
1648005,1,29602,0,51027,52316,51061.27,52546.75,-34.27,-230.75,0.526029,97.07,1
1648045,1,29642,0,51185,52309,51061.52,52546.28,123.48,-237.28,0.526234,97.07,1
1648085,1,29682,0,51265,52297,51061.93,52545.78,203.07,-248.78,0.526448,97.06,1
1648125,1,29722,0,51022,52312,51061.85,52545.32,-39.85,-233.32,0.526654,97.05,1
1648165,1,29762,0,51036,52370,51061.80,52544.97,-25.80,-174.97,0.526855,97.05,1
1648205,1,29802,0,51063,52446,51061.80,52544.77,1.20,-98.77,0.527055,97.04,1
1648245,1,29842,0,51098,52522,51061.88,52544.73,36.12,-22.73,0.527254,97.03,1
1648285,1,29882,0,51034,52581,51061.82,52544.80,-27.82,36.20,0.527452,97.03,1
1648325,1,29922,0,51156,52628,51062.02,52544.97,93.98,83.03,0.527653,97.02,1
1648365,1,29962,0,51182,52677,51062.26,52545.24,119.74,131.76,0.527858,97.01,1
1648405,1,30002,0,51199,52715,51062.53,52545.58,136.47,169.42,0.528065,97.01,1
1648445,1,30042,1,50631,52617,51061.67,52545.72,-430.67,71.28,0.528352,97.00,1
1648485,1,30082,1,50448,52323,51060.44,52545.28,-612.44,-222.28,0.528784,96.99,1
1648525,1,30122,1,50975,52087,51060.27,52544.36,-85.27,-457.36,0.529183,96.99,1
1648565,1,30162,1,50909,52021,51059.97,52543.32,-150.97,-522.32,0.529547,96.98,1
1648605,1,30202,1,50909,52055,51059.67,52542.34,-150.67,-487.34,0.529882,96.97,1
1648645,1,30242,1,50927,52106,51059.41,52541.47,-132.41,-435.47,0.530195,96.97,1
1648686,1,30283,1,50957,52182,51059.20,52540.75,-102.20,-358.75,0.530492,96.96,1
1648726,1,30323,1,50984,52232,51059.05,52540.13,-75.05,-308.13,0.530778,96.95,1
1648766,1,30363,1,50995,52245,51058.93,52539.54,-63.93,-294.54,0.531052,96.95,1
1648806,1,30403,1,50990,52239,51058.79,52538.94,-68.79,-299.94,0.531314,96.94,1
1648846,1,30443,1,50993,52258,51058.66,52538.38,-65.66,-280.38,0.531567,96.93,1
1648886,1,30483,1,51012,52316,51058.57,52537.94,-46.57,-221.94,0.531813,96.93,1
1648926,1,30523,1,51042,52397,51058.54,52537.66,-16.54,-140.66,0.532055,96.92,1
1648966,1,30563,1,51077,52475,51058.58,52537.53,18.42,-62.53,0.532297,96.91,1
1649006,1,30603,1,51111,52532,51058.68,52537.52,52.32,-5.52,0.532539,96.91,1
1649046,1,30643,1,51137,52584,51058.84,52537.62,78.16,46.38,0.532782,96.90,1
1649086,1,30683,1,51160,52630,51059.04,52537.80,100.96,92.20,0.533027,96.89,1
1649126,1,30723,1,51176,52671,51059.28,52538.07,116.72,132.93,0.533275,96.89,1
1649166,1,30763,1,51178,52603,51059.52,52538.21,118.48,64.79,0.533527,96.88,1
1649206,1,30803,1,51096,52311,51059.59,52537.75,36.41,-226.75,0.533771,96.87,1
1649246,1,30843,1,50966,52040,51059.40,52536.76,-93.40,-496.76,0.533982,96.87,1
1649286,1,30883,1,50883,51957,51059.05,52535.60,-176.05,-578.60,0.534160,96.86,1
1649326,1,30923,1,50877,51979,51058.69,52534.49,-181.69,-555.49,0.534311,96.85,1
1649366,1,30963,1,50896,52024,51058.36,52533.47,-162.36,-509.47,0.534440,96.85,1
1649406,1,31003,1,50914,52087,51058.07,52532.58,-144.07,-445.58,0.534553,96.84,1
1649447,1,31044,1,50943,52136,51057.84,52531.79,-114.84,-395.79,0.534652,96.83,1
1649487,1,31084,1,50949,52139,51057.63,52531.00,-108.63,-392.00,0.534737,96.83,1
1649527,1,31124,1,50945,52134,51057.41,52530.21,-112.41,-396.21,0.534810,96.82,1
1649567,1,31164,1,50945,52153,51057.18,52529.45,-112.18,-376.45,0.534871,96.82,1
1649607,1,31204,1,50958,52192,51056.99,52528.78,-98.99,-336.78,0.534924,96.81,1
1649647,1,31244,1,50985,52254,51056.84,52528.23,-71.84,-274.23,0.534970,96.80,1
1649687,1,31284,1,51012,52328,51056.75,52527.84,-44.75,-199.84,0.535013,96.80,1
1649727,1,31324,1,51036,52386,51056.71,52527.55,-20.71,-141.55,0.535053,96.79,1
1649767,1,31364,1,51062,52430,51056.73,52527.36,5.27,-97.36,0.535092,96.79,1
1649807,1,31404,1,51084,52467,51056.78,52527.24,27.22,-60.24,0.535131,96.78,1
1649847,1,31444,1,51101,52490,51056.87,52527.16,44.13,-37.16,0.535171,96.78,1
1649887,1,31484,1,51107,52512,51056.97,52527.14,50.03,-15.14,0.535211,96.77,1
1649927,1,31524,1,51093,52376,51057.05,52526.84,35.95,-150.84,0.535249,96.77,1
1649967,1,31564,1,50988,52079,51056.91,52525.94,-68.91,-446.94,0.535267,96.76,1
1650007,1,31604,1,50871,51891,51056.54,52524.67,-185.54,-633.67,0.535255,96.76,1
1650047,1,31644,1,50829,51867,51056.09,52523.36,-227.09,-656.36,0.535220,96.76,1
1650087,1,31684,1,50837,51912,51055.65,52522.14,-218.65,-610.14,0.535167,96.75,1
1650127,1,31724,1,50854,51973,51055.25,52521.04,-201.25,-548.04,0.535101,96.75,1
1650168,1,31765,1,50889,52038,51054.91,52520.07,-165.91,-482.07,0.535025,96.74,1
1650208,1,31805,1,50907,52059,51054.62,52519.15,-147.62,-460.15,0.534938,96.74,1
1650248,1,31845,1,50905,52058,51054.32,52518.23,-149.32,-460.23,0.534841,96.74,1
1650288,1,31885,1,50902,52069,51054.02,52517.33,-152.02,-448.33,0.534736,96.73,1
1650328,1,31925,1,50914,52108,51053.74,52516.52,-139.74,-408.52,0.534625,96.73,1
1650368,1,31965,1,50938,52179,51053.51,52515.84,-115.51,-336.84,0.534509,96.73,1
1650408,1,32005,1,50970,52261,51053.35,52515.34,-83.35,-254.34,0.534390,96.73,1
1650448,1,32045,1,51005,52344,51053.25,52515.00,-48.25,-171.00,0.534271,96.72,1
1650488,1,32085,1,51041,52403,51053.23,52514.77,-12.23,-111.77,0.534150,96.72,1
1650528,1,32125,1,51067,52465,51053.26,52514.68,13.74,-49.68,0.534030,96.72,1
1650568,1,32165,1,51095,52518,51053.34,52514.68,41.66,3.32,0.533911,96.72,1
1650608,1,32205,1,51119,52573,51053.48,52514.80,65.52,58.20,0.533794,96.72,1
1650648,1,32245,1,51137,52608,51053.64,52514.99,83.36,93.01,0.533679,96.71,1
1650688,1,32285,1,51124,52491,51053.79,52514.94,70.21,-23.94,0.533566,96.71,1
1650728,1,32325,1,51041,52382,51053.76,52514.68,-12.76,-132.68,0.533452,96.71,1
1650768,1,32365,1,50963,52390,51053.58,52514.43,-90.58,-124.43,0.533340,96.71,1
1650808,1,32405,1,50945,52195,51053.37,52513.79,-108.37,-318.79,0.533223,96.71,1
1650848,1,32445,1,50967,52275,51053.20,52513.32,-86.20,-238.32,0.533105,96.71,1
1650889,1,32486,1,51010,52373,51053.11,52513.04,-43.11,-140.04,0.532986,96.71,1
1650929,1,32526,1,51047,52935,51053.10,52513.88,-6.10,421.12,0.532852,96.71,1
1650969,1,32566,1,51053,52353,51053.10,52513.56,-0.10,-160.56,0.532716,96.70,1
1651009,1,32606,1,51052,52439,51053.10,52513.41,-1.10,-74.41,0.532581,96.70,1
1651049,1,32646,1,51056,52466,51053.11,52513.32,2.89,-47.32,0.532445,96.70,1
1651089,1,32686,1,51078,52525,51053.16,52513.34,24.84,11.66,0.532310,96.70,1
1651129,1,32726,1,51105,52136,51053.26,52512.59,51.74,-376.59,0.532164,96.70,1
1651169,1,32766,1,51135,52001,51053.43,52511.57,81.57,-510.57,0.531998,96.70,1
1651209,1,32806,1,51171,52749,51053.66,52512.04,117.34,236.96,0.531833,96.70,1
1651249,1,32846,1,51196,52809,51053.95,52512.64,142.05,296.36,0.531669,96.70,1
1651289,1,32886,1,51223,52861,51054.29,52513.34,168.71,347.66,0.531507,96.70,1
1651329,1,32926,1,51243,52913,51054.67,52514.14,188.33,398.86,0.531346,96.70,1
1651369,1,32966,1,51264,52953,51055.09,52515.02,208.91,437.98,0.531186,96.70,1
1651409,1,33006,1,51260,52879,51055.50,52515.75,204.50,363.25,0.531031,96.70,1
1651449,1,33046,1,51195,52667,51055.78,52516.05,139.22,150.95,0.530883,96.71,1
1651489,1,33086,1,51205,52530,51056.08,52516.08,148.92,13.92,0.530744,96.71,1
1651529,1,33126,1,51070,52521,51056.11,52516.09,13.89,4.91,0.530605,96.71,1
1651569,1,33166,1,51086,52583,51056.17,52516.23,29.83,66.77,0.530467,96.71,1
1651609,1,33206,1,51118,52659,51056.30,52516.51,61.70,142.49,0.530328,96.71,1
1651650,1,33247,1,51581,52730,51057.35,52516.94,523.65,213.06,0.530292,96.71,1
1651690,1,33287,1,51687,52750,51058.61,52517.41,628.39,232.59,0.530392,96.71,1
1651730,1,33327,1,51163,52749,51058.82,52517.87,104.18,231.12,0.530490,96.71,1
1651770,1,33367,1,51163,52761,51059.03,52518.36,103.97,242.64,0.530585,96.71,1
1651810,1,33407,1,51175,52806,51059.27,52518.94,115.73,287.06,0.530676,96.71,1
1651850,1,33447,1,50838,52869,51058.82,52519.64,-220.82,349.36,0.530771,96.71,1
1651890,1,33487,1,50764,52948,51058.23,52520.50,-294.23,427.50,0.530877,96.71,1
1651930,1,33527,1,51257,53018,51058.63,52521.50,198.37,496.50,0.530970,96.71,1
1651970,1,33567,1,51285,53086,51059.09,52522.63,225.91,563.37,0.531049,96.71,1
1652010,1,33607,1,51317,53137,51059.60,52523.86,257.40,613.14,0.531114,96.71,1
1652050,1,33647,1,51340,53187,51060.16,52525.19,279.84,661.81,0.531164,96.72,1
1652090,1,33687,1,51359,53230,51060.76,52526.60,298.24,703.40,0.531198,96.72,1
1652130,1,33727,1,51354,53177,51061.35,52527.90,292.65,649.10,0.531223,96.72,1
1652170,1,33767,1,51293,52990,51061.81,52528.82,231.19,461.18,0.531247,96.72,1
1652210,1,33807,1,51208,52837,51062.11,52529.44,145.89,307.56,0.531269,96.72,1
1652250,1,33847,1,51174,52818,51062.33,52530.02,111.67,287.98,0.531288,96.72,1
1652290,1,33887,1,51181,52862,51062.57,52530.68,118.43,331.32,0.531302,96.72,1
1652330,1,33927,1,51203,52925,51062.85,52531.47,140.15,393.53,0.531310,96.72,1
1652371,1,33968,1,51234,52993,51063.20,52532.40,170.80,460.60,0.531310,96.72,1
1652411,1,34008,1,51248,53019,51063.57,52533.37,184.43,485.63,0.531301,96.72,1
1652451,1,34048,1,51256,53027,51063.95,52534.36,192.05,492.64,0.531285,96.72,1
1652491,1,34088,1,51253,53039,51064.33,52535.37,188.67,503.63,0.531260,96.72,1
1652531,1,34128,1,51258,53077,51064.72,52536.46,193.28,540.54,0.531225,96.72,1
1652571,1,34168,1,51284,53136,51065.16,52537.66,218.84,598.34,0.531178,96.72,1
1652611,1,34208,1,51307,53213,51065.64,52539.01,241.36,673.99,0.531116,96.72,1
1652651,1,34248,1,51339,53283,51066.19,52540.50,272.81,742.50,0.531038,96.72,1
1652691,1,34288,1,51367,53347,51066.79,52542.11,300.21,804.89,0.530944,96.72,1
1652731,1,34328,1,51397,53403,51067.45,52543.83,329.55,859.17,0.530834,96.72,1
1652771,1,34368,1,51418,53456,51068.16,52545.66,349.84,910.34,0.530708,96.72,1
1652811,1,34408,1,51440,53505,51068.90,52547.58,371.10,957.42,0.530568,96.72,1
1652851,1,34448,1,51446,53471,51069.66,52549.43,376.34,921.57,0.530417,96.72,1
1652891,1,34488,1,51393,53313,51070.30,52550.95,322.70,762.05,0.530263,96.72,1
1652931,1,34528,1,51320,53176,51070.80,52552.20,249.20,623.80,0.530104,96.72,1
1652971,1,34568,1,51282,53149,51071.23,52553.40,210.77,595.60,0.529939,96.72,1
1653011,1,34608,1,51287,53191,51071.66,52554.68,215.34,636.32,0.529767,96.72,1
1653051,1,34648,1,51309,53247,51072.14,52556.06,236.86,690.94,0.529586,96.72,1
1653092,1,34689,1,51336,53306,51072.66,52557.56,263.34,748.44,0.529396,96.72,1
1653132,1,34729,1,51351,53334,51073.22,52559.12,277.78,774.88,0.529198,96.73,1
1653172,1,34769,1,51354,53334,51073.79,52560.67,280.21,773.33,0.528992,96.73,1
1653212,1,34809,1,51343,53347,51074.32,52562.24,268.68,784.76,0.528777,96.73,1
1653252,1,34849,1,51356,53371,51074.89,52563.86,281.11,807.14,0.528554,96.73,1
1653292,1,34889,1,51370,53421,51075.48,52565.57,294.52,855.43,0.528321,96.73,1
1653332,1,34929,1,51395,53489,51076.12,52567.42,318.88,921.58,0.528078,96.73,1
1653372,1,34969,1,51420,53552,51076.81,52569.39,343.19,982.61,0.527825,96.74,1
1653412,1,35009,1,51446,53609,51077.55,52571.47,368.45,1037.53,0.527562,96.74,1
1653452,1,35049,1,51474,53660,51078.34,52573.65,395.66,1086.35,0.527290,96.74,1
1653492,1,35089,1,51493,53710,51079.17,52575.93,413.83,1134.07,0.527010,96.74,1
1653532,1,35129,1,51512,53750,51080.04,52578.27,431.96,1171.73,0.526722,96.75,1
1653572,1,35169,1,51518,53713,51080.92,52580.54,437.08,1132.46,0.526431,96.75,1
1653612,1,35209,1,51463,53559,51081.68,52582.50,381.32,976.50,0.526137,96.75,1
1653652,1,35249,1,51394,53439,51082.31,52584.21,311.69,854.79,0.525840,96.76,1
1653692,1,35289,1,51360,53417,51082.87,52585.88,277.13,831.12,0.525539,96.76,1
1653732,1,35329,1,51368,53451,51083.44,52587.61,284.56,863.39,0.525232,96.76,1
1653772,1,35369,1,51386,53505,51084.04,52589.45,301.96,915.55,0.524919,96.77,1
1653812,1,35409,1,51409,53560,51084.70,52591.39,324.30,968.61,0.524600,96.77,1
1653853,1,35450,1,51425,53581,51085.38,52593.37,339.62,987.63,0.524277,96.77,1
1653893,1,35490,1,51425,53574,51086.06,52595.33,338.94,978.67,0.523950,96.78,1
1653933,1,35530,1,51414,53579,51086.71,52597.30,327.29,981.70,0.523617,96.78,1
1653973,1,35570,1,51422,53604,51087.39,52599.32,334.61,1004.68,0.523279,96.78,1
1654013,1,35610,1,51437,53646,51088.09,52601.41,348.91,1044.59,0.522936,96.79,1
1654053,1,35650,1,51457,53698,51088.82,52603.61,368.18,1094.39,0.522588,96.79,1
1654093,1,35690,1,51477,53762,51089.60,52605.92,387.40,1156.08,0.522234,96.80,1
1654133,1,35730,1,51504,53813,51090.43,52608.34,413.57,1204.66,0.521876,96.80,1
1654173,1,35770,1,51529,54040,51091.31,52611.20,437.69,1428.80,0.521505,96.81,1
1654213,1,35810,1,51548,54184,51092.23,52614.35,455.77,1569.65,0.521120,96.81,1
1654253,1,35850,1,51564,53926,51093.17,52616.97,470.83,1309.03,0.520733,96.82,1
1654293,1,35890,1,51547,53826,51094.08,52619.39,452.92,1206.61,0.520346,96.82,1
1654333,1,35930,1,51475,53670,51094.84,52621.49,380.16,1048.51,0.519960,96.83,1
1654373,1,35970,1,51418,53561,51095.49,52623.37,322.51,937.63,0.519572,96.83,1
1654413,1,36010,1,51405,53410,51096.11,52624.95,308.89,785.05,0.519186,96.84,1
1654453,1,36050,1,51418,53622,51096.76,52626.94,321.24,995.06,0.518798,96.84,1
1654493,1,36090,1,51434,53672,51097.43,52629.03,336.57,1042.97,0.518406,96.85,1
1654533,1,36130,1,51451,53707,51098.14,52631.19,352.86,1075.81,0.518013,96.86,1
1654574,1,36171,1,51457,53061,51098.86,52632.05,358.14,428.95,0.517630,96.86,1
1654614,1,36211,1,51449,53621,51099.56,52634.03,349.44,986.97,0.517246,96.87,1
1654654,1,36251,1,51442,53698,51100.25,52636.16,341.75,1061.84,0.516860,96.88,1
1654694,1,36291,1,51448,53725,51100.95,52638.34,347.05,1086.66,0.516471,96.88,1
1654734,1,36331,1,51466,53765,51101.68,52640.59,364.32,1124.41,0.516079,96.89,1
1654774,1,36371,1,51483,53816,51102.44,52642.94,380.56,1173.06,0.515684,96.89,1
1654814,1,36411,1,51507,53867,51103.25,52645.39,403.75,1221.61,0.515286,96.90,1
1654854,1,36451,1,51522,53914,51104.09,52647.93,417.91,1266.07,0.514886,96.91,1
1654894,1,36491,1,51658,53952,51105.20,52650.54,552.80,1301.46,0.514493,96.92,1
1654934,1,36531,1,51771,53988,51106.53,52653.21,664.47,1334.79,0.514117,96.92,1
1654974,1,36571,1,51569,53950,51107.46,52655.81,461.54,1294.19,0.513739,96.93,1
1655014,1,36611,1,51517,53796,51108.28,52658.09,408.72,1137.91,0.513362,96.94,1
1655054,1,36651,1,51444,53673,51108.95,52660.12,335.05,1012.88,0.512983,96.94,1
1655094,1,36691,1,51934,53633,51110.60,52662.07,823.40,970.93,0.512644,96.95,1
1655134,1,36731,1,51356,53654,51111.09,52664.05,244.91,989.95,0.512301,96.96,1
1655174,1,36771,1,51433,53697,51111.74,52666.12,321.26,1030.88,0.511955,96.97,1
1655214,1,36811,1,51449,53736,51112.41,52668.26,336.59,1067.74,0.511606,96.97,1
1655254,1,36851,1,51458,53742,51113.11,52670.41,344.89,1071.59,0.511254,96.98,1
1655295,1,36892,1,50968,53725,51112.82,52672.52,-144.82,1052.48,0.510894,96.99,1
1655335,1,36932,1,50858,53712,51112.31,52674.60,-254.31,1037.40,0.510529,96.99,1
1655375,1,36972,1,51439,53729,51112.96,52676.71,326.04,1052.29,0.510161,97.00,1
1655415,1,37012,1,51450,53768,51113.64,52678.89,336.36,1089.11,0.509790,97.01,1
1655455,1,37052,1,51466,53803,51114.35,52681.14,351.65,1121.86,0.509417,97.02,1
1655495,1,37092,1,51487,53849,51115.09,52683.48,371.91,1165.52,0.509042,97.03,1
1655535,1,37132,1,51502,53893,51115.87,52685.90,386.13,1207.10,0.508664,97.03,1
1655575,1,37172,1,51518,53934,51116.67,52688.39,401.33,1245.61,0.508284,97.04,1
1655615,1,37212,1,51542,53971,51117.52,52690.96,424.48,1280.04,0.507902,97.05,1
1655655,1,37252,1,51554,53974,51118.40,52693.53,435.60,1280.47,0.507520,97.06,1
1655695,1,37292,1,51530,53849,51119.22,52695.84,410.78,1153.16,0.507137,97.06,1
1655735,1,37332,1,51456,53699,51119.90,52697.85,336.10,1001.15,0.506754,97.07,1
1655775,1,37372,1,51406,53626,51120.47,52699.71,285.53,926.29,0.506371,97.08,1
1655815,1,37412,1,51398,53630,51121.03,52701.57,276.97,928.43,0.505986,97.09,1
1655855,1,37452,1,51414,53660,51121.61,52703.49,292.39,956.51,0.505599,97.10,1
1655895,1,37492,1,51426,53700,51122.22,52705.48,303.78,994.52,0.505212,97.10,1
1655935,1,37532,1,51437,53724,51122.86,52707.52,314.14,1016.48,0.504823,97.11,1
1655975,1,37572,1,51435,53711,51123.48,52709.53,311.52,1001.47,0.504433,97.12,1
1656016,1,37613,1,51427,53693,51124.09,52711.50,302.91,981.50,0.504042,97.13,1
1656056,1,37653,1,51420,53696,51124.68,52713.47,295.32,982.53,0.503649,97.14,1
1656096,1,37693,1,51428,53727,51125.29,52715.50,302.71,1011.50,0.503256,97.15,1
1656136,1,37733,1,51442,53769,51125.93,52717.61,316.07,1051.39,0.502860,97.16,1
1656176,1,37773,1,51461,53810,51126.60,52719.79,334.40,1090.21,0.502464,97.16,1
1656216,1,37813,1,51484,53859,51127.31,52722.07,356.69,1136.93,0.502066,97.17,1
1656256,1,37853,1,51502,53903,51128.06,52724.44,373.94,1178.56,0.501667,97.18,1
1656296,1,37893,1,51517,53943,51128.84,52726.87,388.16,1216.13,0.501267,97.19,1
1656336,1,37933,1,51538,53967,51129.66,52729.36,408.34,1237.64,0.500866,97.20,1
1656376,1,37973,1,51535,53888,51130.47,52731.68,404.53,1156.32,0.500466,97.21,1
1656416,1,38013,1,51469,53727,51131.15,52733.67,337.85,993.33,0.500067,97.22,1
1656456,1,38053,1,51408,53620,51131.71,52735.44,276.29,884.56,0.499668,97.22,1
1656496,1,38093,1,51388,53596,51132.22,52737.16,255.78,858.84,0.499268,97.23,1
1656536,1,38133,1,51391,53619,51132.74,52738.93,258.26,880.07,0.498868,97.24,1
1656576,1,38173,1,51409,53657,51133.30,52740.77,275.70,916.23,0.498467,97.25,1
1656616,1,38213,1,51424,53691,51133.88,52742.67,290.12,948.33,0.498065,97.26,1
1656656,1,38253,1,51425,53681,51134.46,52744.55,290.54,936.45,0.497664,97.27,1
1656697,1,38294,1,51417,53662,51135.03,52746.38,281.97,915.62,0.497262,97.28,1
1656737,1,38334,1,51410,53655,51135.58,52748.20,274.42,906.80,0.496860,97.29,1
1656777,1,38374,1,51408,53675,51136.12,52750.06,271.87,924.94,0.496457,97.30,1
1656817,1,38414,1,51423,53714,51136.70,52751.99,286.30,962.01,0.496053,97.30,1
1656857,1,38454,1,51437,53750,51137.30,52753.98,299.70,996.02,0.495649,97.31,1
1656897,1,38494,1,51459,53797,51137.95,52756.07,321.05,1040.93,0.495244,97.32,1
1656937,1,38534,1,51478,53839,51138.62,52758.24,339.37,1080.76,0.494839,97.33,1
1656977,1,38574,1,51496,53875,51139.34,52760.47,356.66,1114.53,0.494433,97.34,1
1657017,1,38614,1,51514,53907,51140.09,52762.77,373.91,1144.23,0.494028,97.35,1
1657057,1,38654,1,51522,53894,51140.86,52765.03,381.14,1128.97,0.493624,97.36,1
1657097,1,38694,1,51492,53744,51141.56,52766.99,350.44,977.01,0.493221,97.37,1
1657137,1,38734,1,51416,53587,51142.11,52768.63,273.89,818.37,0.492819,97.38,1
1657177,1,38774,1,51366,53514,51142.56,52770.12,223.44,743.87,0.492417,97.39,1
1657217,1,38814,1,51363,53519,51143.00,52771.62,220.00,747.37,0.492015,97.40,1
1657257,1,38854,1,51372,53539,51143.46,52773.16,228.54,765.84,0.491614,97.41,1
1657297,1,38894,1,51384,53579,51143.94,52774.77,240.06,804.23,0.491212,97.42,1
1657337,1,38934,1,51394,53589,51144.44,52776.40,249.56,812.60,0.490811,97.43,1
1657377,1,38974,1,51390,53571,51144.93,52777.99,245.07,793.01,0.490410,97.43,1
1657418,1,39015,1,51378,53549,51145.40,52779.54,232.60,769.46,0.490009,97.44,1
1657458,1,39055,1,51375,53554,51145.86,52781.09,229.14,772.91,0.489609,97.45,1
1657498,1,39095,1,51379,53578,51146.33,52782.68,232.67,795.32,0.489208,97.46,1
1657538,1,39135,1,51398,53619,51146.84,52784.36,251.16,834.64,0.488808,97.47,1
1657578,1,39175,1,51415,53968,51147.37,52786.72,267.62,1181.28,0.488403,97.48,1
1657618,1,39215,1,51441,54117,51147.96,52789.38,293.04,1327.62,0.487992,97.49,1
1657658,1,39255,1,51450,53747,51148.57,52791.30,301.43,955.70,0.487581,97.50,1
1657698,1,39295,1,51471,53782,51149.21,52793.29,321.79,988.71,0.487172,97.51,1
1657738,1,39335,1,51489,53808,51149.89,52795.32,339.11,1012.68,0.486763,97.52,1
1657778,1,39375,1,51494,53535,51150.59,52796.80,343.41,738.20,0.486359,97.53,1
1657818,1,39415,1,51439,53203,51151.16,52797.61,287.84,405.39,0.485959,97.54,1
1657858,1,39455,1,51363,53427,51151.59,52798.87,211.41,628.13,0.485561,97.55,1
1657898,1,39495,1,51322,53381,51151.93,52800.04,170.07,580.96,0.485164,97.56,1
1657938,1,39535,1,51328,53394,51152.29,52801.22,175.71,592.78,0.484767,97.57,1
1657978,1,39575,1,51339,53430,51152.66,52802.48,186.34,627.52,0.484370,97.58,1
1658018,1,39615,1,51350,53459,51153.05,52803.79,196.95,655.21,0.483974,97.59,1
1658058,1,39655,1,51356,53459,51153.46,52805.11,202.54,653.89,0.483579,97.60,1
1658098,1,39695,1,51348,53436,51153.85,52806.37,194.15,629.63,0.483185,97.61,1
1658139,1,39736,1,51339,53419,51154.22,52807.59,184.78,611.41,0.482791,97.62,1
1658179,1,39776,1,51340,53428,51154.59,52808.84,185.41,619.16,0.482397,97.63,1
1658219,1,39816,1,51351,53470,51154.99,52810.16,196.01,659.84,0.482004,97.64,1
1658259,1,39856,1,51370,53514,51155.42,52811.57,214.58,702.43,0.481612,97.65,1
1658299,1,39896,1,51600,53565,51156.31,52813.08,443.69,751.92,0.481229,97.66,1
1658339,1,39936,1,51712,53602,51157.42,52814.66,554.58,787.34,0.480862,97.67,1
1658379,1,39976,1,51430,53642,51157.97,52816.31,272.03,825.69,0.480495,97.68,1
1658419,1,40016,1,51445,53682,51158.54,52818.05,286.46,863.95,0.480129,97.68,1
1658459,1,40056,1,51458,53707,51159.14,52819.82,298.86,887.18,0.479763,97.69,1
1658499,1,40096,1,51405,53651,51159.64,52821.49,245.36,829.51,0.479398,97.70,1
1658539,1,40136,1,51218,53469,51159.75,52822.79,58.25,646.21,0.479030,97.71,1
1658579,1,40176,1,51334,53314,51160.11,52823.77,173.89,490.23,0.478664,97.72,1
1658619,1,40216,1,51300,53276,51160.39,52824.68,139.61,451.32,0.478299,97.73,1
1658659,1,40256,1,51301,53292,51160.67,52825.61,140.33,466.39,0.477934,97.74,1
1658699,1,40296,1,50678,53326,51159.70,52826.62,-481.70,499.38,0.477583,97.75,1
1658739,1,40336,1,51334,53362,51160.05,52827.69,173.95,534.31,0.477233,97.76,1
1658779,1,40376,1,51338,53369,51160.41,52828.77,177.59,540.23,0.476884,97.77,1
1658819,1,40416,1,51329,53340,51160.75,52829.80,168.25,510.20,0.476536,97.78,1
1658860,1,40457,1,51317,53323,51161.06,52830.79,155.94,492.21,0.476188,97.79,1
1658900,1,40497,1,51318,53340,51161.38,52831.80,156.62,508.20,0.475841,97.80,1
1658940,1,40537,1,51333,53384,51161.72,52832.91,171.28,551.09,0.475495,97.81,1
1658980,1,40577,1,51355,53431,51162.11,52834.11,192.89,596.89,0.475149,97.82,1
1659020,1,40617,1,51381,53476,51162.55,52835.39,218.45,640.61,0.474804,97.83,1
1659060,1,40657,1,51395,53517,51163.01,52836.76,231.99,680.24,0.474460,97.84,1
1659100,1,40697,1,51412,53554,51163.51,52838.20,248.49,715.80,0.474117,97.85,1
1659140,1,40737,1,51432,53590,51164.05,52839.70,267.95,750.30,0.473775,97.86,1
1659180,1,40777,1,51451,53623,51164.62,52841.27,286.37,781.73,0.473435,97.86,1
1659220,1,40817,1,51462,53598,51165.22,52842.78,296.78,755.22,0.473097,97.87,1
1659260,1,40857,1,51418,53427,51165.73,52843.95,252.27,583.05,0.472761,97.88,1
1659300,1,40897,1,51337,53243,51166.07,52844.75,170.93,398.25,0.472428,97.89,1
1659340,1,40937,1,51282,53175,51166.31,52845.41,115.69,329.59,0.472095,97.90,1
1659380,1,40977,1,51284,53188,51166.55,52846.10,117.45,341.90,0.471763,97.91,1
1659420,1,41017,1,51291,53222,51166.80,52846.85,124.20,375.15,0.471432,97.92,1
1659460,1,41057,1,51312,53276,51167.09,52847.71,144.91,428.29,0.471102,97.93,1
1659500,1,41097,1,51328,53287,51167.41,52848.59,160.59,438.41,0.470774,97.94,1
1659540,1,41137,1,51322,53265,51167.72,52849.43,154.28,415.57,0.470446,97.95,1
1659581,1,41178,1,51315,53243,51168.02,52850.21,146.98,392.79,0.470120,97.96,1
1659621,1,41218,1,51316,53258,51168.32,52851.03,147.68,406.97,0.469794,97.96,1
1659661,1,41258,1,51322,53293,51168.62,52851.92,153.37,441.08,0.469470,97.97,1
1659701,1,41298,1,51346,53348,51168.98,52852.91,177.02,495.09,0.469147,97.98,1
1659741,1,41338,1,51368,53400,51169.38,52854.00,198.62,546.00,0.468825,97.99,1
1659781,1,41378,1,51391,53442,51169.82,52855.18,221.18,586.82,0.468504,98.00,1
1659821,1,41418,1,51408,53491,51170.30,52856.45,237.70,634.55,0.468185,98.01,1
1659861,1,41458,1,51430,53527,51170.82,52857.80,259.18,669.20,0.467867,98.02,1
1659901,1,41498,1,51450,53559,51171.38,52859.20,278.62,699.80,0.467552,98.03,1
1659941,1,41538,1,51465,53578,51171.97,52860.64,293.03,717.36,0.467240,98.04,1
1659981,1,41578,1,51451,53471,51172.53,52861.86,278.47,609.14,0.466931,98.04,1
1660021,1,41618,1,51381,53275,51172.95,52862.69,208.05,412.31,0.466624,98.05,1
1660061,1,41658,1,51304,53159,51173.21,52863.28,130.79,295.72,0.466319,98.06,1
1660101,1,41698,1,51290,53144,51173.44,52863.84,116.56,280.16,0.466015,98.07,1
1660141,1,41738,1,51299,53186,51173.70,52864.49,125.30,321.51,0.465712,98.08,1
1660181,1,41778,1,51317,53237,51173.98,52865.23,143.02,371.77,0.465410,98.09,1
1660221,1,41818,1,51338,53274,51174.31,52866.05,163.69,407.95,0.465110,98.10,1
1660262,1,41859,1,51348,53274,51174.66,52866.87,173.34,407.13,0.464811,98.10,1
1660302,1,41899,1,51343,53250,51175.00,52867.64,168.00,382.36,0.464514,98.11,1
1660342,1,41939,1,51331,53250,51175.31,52868.41,155.69,381.59,0.464219,98.12,1
1660382,1,41979,1,51338,53286,51175.64,52869.24,162.36,416.76,0.463924,98.13,1
1660422,1,42019,1,51355,53334,51176.00,52870.17,179.00,463.83,0.463631,98.14,1
1660462,1,42059,1,51380,53392,51176.41,52871.22,203.59,520.78,0.463340,98.15,1
1660502,1,42099,1,51408,53446,51176.87,52872.37,231.12,573.63,0.463050,98.16,1
1660542,1,42139,1,51434,53496,51177.39,52873.62,256.61,622.38,0.462762,98.16,1
1660582,1,42179,1,51452,53539,51177.94,52874.95,274.06,664.05,0.462477,98.17,1
1660622,1,42219,1,51475,53573,51178.54,52876.35,296.46,696.65,0.462195,98.18,1
1660662,1,42259,1,51488,53606,51179.16,52877.81,308.84,728.19,0.461916,98.19,1
1660702,1,42299,1,51498,53576,51179.80,52879.21,318.20,696.79,0.461641,98.20,1
1660742,1,42339,1,51451,53406,51180.34,52880.27,270.66,525.73,0.461370,98.20,1
1660782,1,42379,1,51366,53224,51180.71,52880.95,185.29,343.05,0.461101,98.21,1
1660822,1,42419,1,51321,53266,51180.99,52881.72,140.01,384.28,0.460833,98.22,1
1660862,1,42459,1,51318,53386,51181.27,52882.73,136.73,503.27,0.460565,98.23,1
1660902,1,42499,1,51338,53245,51181.58,52883.46,156.42,361.54,0.460298,98.24,1
1660942,1,42539,1,51359,53292,51181.94,52884.28,177.06,407.72,0.460033,98.24,1
1660983,1,42580,1,51374,53311,51182.32,52885.14,191.68,425.86,0.459770,98.25,1
1661023,1,42620,1,51374,53825,51182.71,52887.02,191.29,937.98,0.459501,98.26,1
1661063,1,42660,1,51366,53224,51183.07,52887.70,182.93,336.30,0.459234,98.27,1
1661103,1,42700,1,51363,53306,51183.43,52888.54,179.57,417.46,0.458970,98.28,1
1661143,1,42740,1,51377,53349,51183.82,52889.46,193.18,459.54,0.458706,98.28,1
1661183,1,42780,1,51404,53403,51184.26,52890.48,219.74,512.52,0.458445,98.29,1
1661223,1,42820,1,51426,52931,51184.75,52890.57,241.25,40.43,0.458190,98.30,1
1661263,1,42860,1,51448,52889,51185.27,52890.57,262.73,-1.57,0.457941,98.31,1
1661303,1,42900,1,51473,53562,51185.85,52891.91,287.15,670.09,0.457695,98.31,1
1661343,1,42940,1,51494,53598,51186.47,52893.32,307.53,704.68,0.457452,98.32,1
1661383,1,42980,1,51513,53629,51187.12,52894.80,325.87,734.20,0.457213,98.33,1
1661423,1,43020,1,51525,53650,51187.80,52896.31,337.20,753.69,0.456978,98.34,1
1661463,1,43060,1,51510,53543,51188.45,52897.60,321.55,645.40,0.456747,98.34,1
1661503,1,43100,1,51435,53342,51188.94,52898.49,246.06,443.51,0.456521,98.35,1
1661543,1,43140,1,51387,53224,51189.34,52899.14,197.66,324.86,0.456296,98.36,1
1661583,1,43180,1,51475,53218,51189.91,52899.79,285.09,318.21,0.456079,98.37,1
1661623,1,43220,1,51357,53259,51190.25,52900.50,166.75,358.50,0.455863,98.37,1
1661663,1,43260,1,51378,53315,51190.62,52901.34,187.37,413.66,0.455648,98.38,1
1661704,1,43301,1,51398,53355,51191.04,52902.25,206.96,452.75,0.455436,98.39,1
1661744,1,43341,1,51839,53354,51192.34,52903.15,646.66,450.85,0.455258,98.39,1
1661784,1,43381,1,51399,53336,51192.75,52904.02,206.25,431.98,0.455081,98.40,1
1661824,1,43421,1,51393,53339,51193.16,52904.89,199.84,434.11,0.454907,98.41,1
1661864,1,43461,1,51398,53375,51193.57,52905.83,204.43,469.17,0.454733,98.41,1
1661904,1,43501,1,51422,53428,51194.02,52906.88,227.98,521.12,0.454562,98.42,1
1661944,1,43541,1,51067,53494,51193.77,52908.05,-126.77,585.95,0.454387,98.43,1
1661984,1,43581,1,50878,53549,51193.14,52909.34,-315.14,639.66,0.454217,98.43,1
1662024,1,43621,1,51498,53597,51193.75,52910.71,304.25,686.29,0.454049,98.44,1
1662064,1,43661,1,51521,53637,51194.41,52912.17,326.59,724.83,0.453884,98.45,1
1662104,1,43701,1,51537,53674,51195.09,52913.69,341.91,760.31,0.453723,98.45,1
1662144,1,43741,1,51554,53711,51195.81,52915.29,358.19,795.71,0.453564,98.46,1
1662184,1,43781,1,51559,53683,51196.54,52916.82,362.46,766.18,0.453410,98.47,1
1662224,1,43821,1,51518,53505,51197.18,52918.00,320.82,587.00,0.453261,98.47,1
1662264,1,43861,1,51437,53332,51197.66,52918.83,239.34,413.17,0.453115,98.48,1
1662304,1,43901,1,51388,53276,51198.05,52919.54,189.95,356.46,0.452970,98.48,1
1662344,1,43941,1,51379,53299,51198.41,52920.30,180.59,378.70,0.452827,98.49,1
1662384,1,43981,1,51401,53348,51198.82,52921.16,202.18,426.84,0.452686,98.49,1
1662425,1,44022,1,51423,53400,51199.27,52922.12,223.73,477.88,0.452546,98.50,1
1662465,1,44062,1,51440,53426,51199.75,52923.13,240.25,502.87,0.452409,98.51,1
1662505,1,44102,1,51437,53414,51200.23,52924.11,236.77,489.89,0.452273,98.51,1
1662545,1,44142,1,51429,53398,51200.68,52925.06,228.32,472.94,0.452140,98.52,1
1662585,1,44182,1,51431,53412,51201.14,52926.04,229.86,485.96,0.452008,98.52,1
1662625,1,44222,1,51444,53460,51201.63,52927.11,242.37,532.89,0.451878,98.53,1
1662665,1,44262,1,51465,53519,51202.16,52928.29,262.84,590.71,0.451750,98.53,1
1662705,1,44302,1,51491,53579,51202.74,52929.60,288.26,649.40,0.451623,98.54,1
1662745,1,44342,1,51522,53629,51203.38,52931.00,318.62,698.00,0.451499,98.54,1
1662785,1,44382,1,51541,53670,51204.05,52932.48,336.95,737.52,0.451378,98.55,1
1662825,1,44422,1,51562,53712,51204.77,52934.04,357.23,777.96,0.451261,98.55,1
1662865,1,44462,1,51578,53747,51205.52,52935.66,372.48,811.34,0.451146,98.56,1
1662905,1,44502,1,51586,53763,51206.28,52937.32,379.72,825.68,0.451035,98.56,1
1662945,1,44542,1,51573,53640,51207.02,52938.73,365.98,701.27,0.450929,98.57,1
1662985,1,44582,1,51490,53434,51207.58,52939.72,282.42,494.28,0.450827,98.57,1
1663025,1,44622,1,51420,53322,51208.01,52940.48,211.99,381.52,0.450727,98.58,1
1663065,1,44662,1,51399,53319,51208.39,52941.24,190.61,377.76,0.450629,98.58,1
1663105,1,44702,1,51412,53361,51208.80,52942.08,203.20,418.92,0.450532,98.59,1
1663146,1,44743,1,51430,53415,51209.25,52943.03,220.75,471.97,0.450436,98.59,1
1663186,1,44783,1,51452,53451,51209.73,52944.04,242.27,506.96,0.450342,98.60,1
1663226,1,44823,1,51456,53448,51210.23,52945.05,245.77,502.95,0.450250,98.60,1
1663266,1,44863,1,51454,53426,51210.71,52946.02,243.29,479.98,0.450160,98.61,1
1663306,1,44903,1,51443,53419,51211.18,52946.96,231.82,472.04,0.450072,98.61,1
1663346,1,44943,1,51454,53452,51211.67,52947.98,242.33,504.02,0.449986,98.61,1
1663386,1,44983,1,51468,53500,51212.18,52949.08,255.82,550.92,0.449901,98.62,1
1663426,1,45023,1,51496,53556,51212.75,52950.30,283.25,605.70,0.449818,98.62,1
1663466,1,45063,1,51523,53604,51213.37,52951.61,309.62,652.39,0.449738,98.63,1
1663506,1,45103,1,51540,53642,51214.03,52952.99,325.97,689.01,0.449660,98.63,1
1663546,1,45143,1,51559,53680,51214.72,52954.45,344.28,725.55,0.449586,98.63,1
1663586,1,45183,1,51570,53713,51215.43,52955.96,354.57,757.04,0.449514,98.64,1
1663626,1,45223,1,51580,53730,51216.16,52957.52,363.84,772.48,0.449445,98.64,1
1663666,1,45263,1,51565,53605,51216.86,52958.81,348.14,646.19,0.449381,98.65,1
1663706,1,45303,1,51489,53388,51217.41,52959.67,271.59,428.33,0.449320,98.65,1
1663746,1,45343,1,51407,53259,51217.79,52960.27,189.21,298.73,0.449262,98.65,1
1663786,1,45383,1,51378,53244,51218.11,52960.84,159.89,283.16,0.449205,98.66,1
1663826,1,45423,1,51387,53279,51218.45,52961.48,168.55,317.52,0.449149,98.66,1
1663867,1,45464,1,51409,53329,51218.83,52962.22,190.17,366.78,0.449094,98.66,1
1663907,1,45504,1,51429,53371,51219.25,52963.04,209.75,407.96,0.449041,98.67,1
1663947,1,45544,1,51433,53365,51219.68,52963.84,213.32,401.16,0.448989,98.67,1
1663987,1,45584,1,51430,53346,51220.11,52964.61,209.89,381.39,0.448940,98.67,1
1664027,1,45624,1,51421,53335,51220.51,52965.35,200.49,369.65,0.448892,98.68,1
1664067,1,45664,1,51426,53366,51220.92,52966.15,205.08,399.85,0.448845,98.68,1
1664107,1,45704,1,51441,53416,51221.36,52967.05,219.64,448.95,0.448800,98.68,1
1664147,1,45744,1,51464,53467,51221.85,52968.05,242.15,498.95,0.448757,98.69,1
1664187,1,45784,1,51492,53518,51222.39,52969.16,269.61,548.84,0.448715,98.69,1
1664227,1,45824,1,51511,53737,51222.97,52970.69,288.03,766.31,0.448672,98.69,1
1664267,1,45864,1,51528,53865,51223.59,52972.48,304.41,892.52,0.448624,98.69,1
1664307,1,45904,1,51544,53620,51224.23,52973.78,319.77,646.22,0.448579,98.70,1
1664347,1,45944,1,51551,53635,51224.88,52975.10,326.12,659.90,0.448537,98.70,1
1664387,1,45984,1,51543,53522,51225.52,52976.20,317.48,545.80,0.448500,98.70,1
1664427,1,46024,1,51460,53231,51225.99,52976.71,234.01,254.29,0.448467,98.70,1
1664467,1,46064,1,51375,52943,51226.29,52976.64,148.71,-33.64,0.448436,98.71,1
1664507,1,46104,1,51341,53138,51226.52,52976.96,114.48,161.04,0.448405,98.71,1
1664547,1,46144,1,51348,53169,51226.77,52977.35,121.23,191.65,0.448376,98.71,1
1664588,1,46185,1,51365,53218,51227.04,52977.84,137.96,240.16,0.448348,98.71,1
1664628,1,46225,1,51390,52519,51227.37,52976.92,162.63,-457.92,0.448318,98.72,1
1664668,1,46265,1,51393,53260,51227.70,52977.48,165.30,282.52,0.448290,98.72,1
1664708,1,46305,1,51383,53237,51228.02,52978.00,154.98,259.00,0.448263,98.72,1
1664748,1,46345,1,51383,53234,51228.33,52978.52,154.67,255.48,0.448237,98.72,1
1664788,1,46385,1,51388,53263,51228.65,52979.09,159.35,283.91,0.448213,98.73,1
1664828,1,46425,1,51404,53315,51229.00,52979.76,175.00,335.24,0.448189,98.73,1
1664868,1,46465,1,51429,53369,51229.40,52980.54,199.60,388.46,0.448167,98.73,1
1664908,1,46505,1,51457,53421,51229.86,52981.42,227.14,439.58,0.448147,98.73,1
1664948,1,46545,1,51665,53460,51230.73,52982.38,434.27,477.62,0.448141,98.73,1
1664988,1,46585,1,51813,53499,51231.89,52983.41,581.11,515.59,0.448164,98.74,1
1665028,1,46625,1,51511,53525,51232.45,52984.50,278.55,540.50,0.448189,98.74,1
1665068,1,46665,1,51520,53546,51233.03,52985.62,286.97,560.37,0.448216,98.74,1
1665108,1,46705,1,51507,53437,51233.58,52986.53,273.42,450.47,0.448246,98.74,1
1665148,1,46745,1,51358,53210,51233.83,52986.98,124.17,223.02,0.448276,98.74,1
1665188,1,46785,1,51103,53054,51233.57,52987.11,-130.57,66.89,0.448308,98.74,1
1665228,1,46825,1,51302,53029,51233.71,52987.20,68.29,41.80,0.448341,98.75,1
1665269,1,46866,1,51308,53061,51233.86,52987.35,74.14,73.65,0.448373,98.75,1
1665309,1,46906,1,51325,53113,51234.04,52987.60,90.96,125.40,0.448407,98.75,1
1665349,1,46946,1,50728,53157,51233.03,52987.94,-505.03,169.06,0.448465,98.75,1
1665389,1,46986,1,51355,53156,51233.27,52988.28,121.73,167.72,0.448525,98.75,1
1665429,1,47026,1,51354,53137,51233.52,52988.57,120.48,148.43,0.448585,98.75,1
1665469,1,47066,1,51343,53139,51233.73,52988.87,109.27,150.12,0.448646,98.75,1
1665509,1,47106,1,51353,53165,51233.97,52989.23,119.03,175.77,0.448707,98.75,1
1665549,1,47146,1,51373,53215,51234.25,52989.68,138.75,225.32,0.448769,98.75,1
1665589,1,47186,1,51398,53275,51234.58,52990.25,163.42,284.75,0.448832,98.75,1
1665629,1,47226,1,51425,53325,51234.96,52990.93,190.04,334.07,0.448897,98.76,1
1665669,1,47266,1,51444,53365,51235.38,52991.68,208.62,373.32,0.448962,98.76,1
1665709,1,47306,1,51455,53399,51235.82,52992.49,219.18,406.51,0.449029,98.76,1
1665749,1,47346,1,51468,53431,51236.29,52993.37,231.71,437.63,0.449098,98.76,1
1665789,1,47386,1,51484,53452,51236.79,52994.29,247.21,457.71,0.449168,98.76,1
1665829,1,47426,1,51480,53373,51237.27,52995.05,242.73,377.95,0.449240,98.76,1
1665869,1,47466,1,51408,53144,51237.62,52995.35,170.38,148.65,0.449316,98.76,1
1665909,1,47506,1,51307,52965,51237.76,52995.29,69.24,-30.29,0.449392,98.76,1
1665950,1,47547,1,51263,52923,51237.81,52995.14,25.19,-72.14,0.449467,98.76,1
1665990,1,47587,1,51261,52957,51237.86,52995.07,23.14,-38.07,0.449542,98.76,1
1666030,1,47627,1,51280,53012,51237.94,52995.11,42.06,16.89,0.449617,98.76,1
1666070,1,47667,1,51305,53054,51238.08,52995.23,66.92,58.77,0.449693,98.76,1
1666110,1,47707,1,51316,53063,51238.23,52995.36,77.77,67.64,0.449768,98.76,1
1666150,1,47747,1,51317,53048,51238.39,52995.47,78.61,52.53,0.449845,98.76,1
1666190,1,47787,1,51304,53046,51238.53,52995.57,65.47,50.43,0.449921,98.76,1
1666230,1,47827,1,51312,53071,51238.68,52995.72,73.32,75.28,0.449998,98.76,1
1666270,1,47867,1,51335,53119,51238.87,52995.97,96.13,123.03,0.450075,98.76,1
1666310,1,47907,1,51358,53176,51239.11,52996.33,118.89,179.67,0.450153,98.76,1
1666350,1,47947,1,51381,53231,51239.39,52996.80,141.61,234.20,0.450231,98.76,1
1666390,1,47987,1,51402,53275,51239.72,52997.36,162.28,277.64,0.450311,98.76,1
1666430,1,48027,1,51421,53311,51240.09,52997.99,180.91,313.01,0.450392,98.76,1
1666470,1,48067,1,51433,53339,51240.47,52998.68,192.53,340.32,0.450474,98.76,1
1666510,1,48107,1,51443,53371,51240.88,52999.42,202.12,371.58,0.450557,98.75,1
1666550,1,48147,1,51451,53370,51241.30,53000.16,209.70,369.84,0.450642,98.75,1
1666590,1,48187,1,51418,53203,51241.66,53000.57,176.34,202.43,0.450730,98.75,1
1666631,1,48228,1,51321,52968,51241.82,53000.51,79.18,-32.51,0.450818,98.75,1
1666671,1,48268,1,51238,52855,51241.81,53000.22,-3.81,-145.22,0.450905,98.75,1
1666711,1,48308,1,51221,52871,51241.77,52999.96,-20.77,-128.96,0.450991,98.75,1
1666751,1,48348,1,51234,52912,51241.75,52999.79,-7.75,-87.79,0.451077,98.75,1
1666791,1,48388,1,51256,52961,51241.79,52999.71,14.21,-38.71,0.451163,98.75,1
1666831,1,48428,1,51280,53001,51241.86,52999.71,38.14,1.29,0.451249,98.75,1
1666871,1,48468,1,51281,53004,51241.94,52999.72,39.06,4.28,0.451334,98.75,1
1666911,1,48508,1,51276,52985,51242.01,52999.70,33.99,-14.70,0.451420,98.75,1
1666951,1,48548,1,51276,52997,51242.08,52999.69,33.92,-2.69,0.451505,98.75,1
1666991,1,48588,1,51292,53031,51242.18,52999.75,49.82,31.25,0.451591,98.74,1
1667031,1,48628,1,51311,53091,51242.32,52999.94,68.68,91.06,0.451677,98.74,1
1667071,1,48668,1,51336,53155,51242.51,53000.25,93.49,154.75,0.451762,98.74,1
1667111,1,48708,1,51362,53206,51242.75,53000.66,119.25,205.34,0.451849,98.74,1
1667151,1,48748,1,51383,53239,51243.04,53001.14,139.96,237.86,0.451936,98.74,1
1667191,1,48788,1,51396,53274,51243.34,53001.69,152.66,272.31,0.452024,98.74,1
1667231,1,48828,1,51399,53301,51243.66,53002.29,155.34,298.71,0.452112,98.74,1
1667271,1,48868,1,51414,53335,51244.00,53002.96,170.00,332.04,0.452201,98.74,1
1667312,1,48909,1,51427,53348,51244.37,53003.65,182.63,344.35,0.452291,98.74,1
1667352,1,48949,1,51412,53227,51244.70,53004.10,167.30,222.90,0.452383,98.73,1
1667392,1,48989,1,51317,52984,51244.85,53004.06,72.15,-20.06,0.452476,98.73,1
1667432,1,49029,1,51224,52843,51244.81,53003.74,-20.81,-160.74,0.452567,98.73,1
1667472,1,49069,1,51196,53083,51244.71,53003.90,-48.71,79.10,0.452658,98.73,1
1667512,1,49109,1,51208,53215,51244.64,53004.32,-36.64,210.68,0.452748,98.73,1
1667552,1,49149,1,51228,52934,51244.61,53004.18,-16.61,-70.18,0.452838,98.73,1
1667592,1,49189,1,51253,52983,51244.63,53004.14,8.37,-21.14,0.452927,98.73,1
1667632,1,49229,1,51265,52983,51244.67,53004.10,20.33,-21.10,0.453016,98.72,1
1667672,1,49269,1,51262,52804,51244.71,53003.70,17.29,-199.70,0.453103,98.72,1
1667712,1,49309,1,51260,52682,51244.74,53003.06,15.26,-321.06,0.453186,98.72,1
1667752,1,49349,1,51264,53007,51244.78,53003.07,19.22,3.93,0.453270,98.72,1
1667792,1,49389,1,51281,53061,51244.85,53003.19,36.15,57.81,0.453353,98.72,1
1667832,1,49429,1,51313,53122,51244.99,53003.43,68.01,118.57,0.453436,98.72,1
1667872,1,49469,1,51337,53175,51245.17,53003.77,91.83,171.23,0.453519,98.71,1
1667912,1,49509,1,51354,53223,51245.39,53004.21,108.61,218.79,0.453602,98.71,1
1667952,1,49549,1,51369,53252,51245.64,53004.71,123.36,247.29,0.453686,98.71,1
1667993,1,49590,1,51379,53285,51245.91,53005.27,133.09,279.73,0.453769,98.71,1
1668033,1,49630,1,51389,53313,51246.20,53005.89,142.80,307.11,0.453852,98.71,1
1668073,1,49670,1,51405,53352,51246.52,53006.58,158.48,345.42,0.453934,98.71,1
1668113,1,49710,1,51404,53289,51246.84,53007.15,157.16,281.85,0.454018,98.70,1
1668153,1,49750,1,51333,53053,51247.01,53007.24,85.99,45.76,0.454103,98.70,1
1668193,1,49790,1,51490,52874,51247.50,53006.98,242.50,-132.98,0.454197,98.70,1
1668233,1,49830,1,51560,52836,51248.12,53006.64,311.88,-170.64,0.454306,98.70,1
1668273,1,49870,1,51190,52877,51248.01,53006.38,-58.01,-129.38,0.454415,98.70,1
1668313,1,49910,1,51212,52925,51247.94,53006.22,-35.94,-81.22,0.454524,98.70,1
1668353,1,49950,1,51238,52974,51247.92,53006.16,-9.92,-32.16,0.454633,98.69,1
1668393,1,49990,1,51070,52992,51247.56,53006.13,-177.56,-14.13,0.454746,98.69,1
1668433,1,50030,1,50902,52984,51246.87,53006.09,-344.87,-22.09,0.454881,98.69,1
1668473,1,50070,1,51241,52972,51246.86,53006.02,-5.86,-34.02,0.455016,98.69,1
1668513,1,50110,1,51246,52995,51246.86,53006.00,-0.86,-11.00,0.455150,98.69,1
1668553,1,50150,1,51259,53050,51246.89,53006.09,12.11,43.91,0.455284,98.68,1
1668593,1,50190,1,51282,53116,51246.96,53006.31,35.04,109.69,0.455417,98.68,1
1668633,1,50230,1,51306,53178,51247.08,53006.66,58.92,171.34,0.455549,98.68,1
1668674,1,50271,1,51329,53221,51247.24,53007.09,81.76,213.91,0.455680,98.68,1
1668714,1,50311,1,51346,53261,51247.44,53007.59,98.56,253.41,0.455809,98.68,1
1668754,1,50351,1,51358,53294,51247.66,53008.17,110.34,285.83,0.455937,98.67,1
1668794,1,50391,1,51370,53334,51247.91,53008.82,122.09,325.18,0.456062,98.67,1
1668834,1,50431,1,51391,53372,51248.20,53009.55,142.80,362.45,0.456185,98.67,1
1668874,1,50471,1,51398,53379,51248.50,53010.29,149.50,368.71,0.456306,98.67,1
1668914,1,50511,1,51368,53213,51248.74,53010.70,119.26,202.30,0.456428,98.66,1
1668954,1,50551,1,51268,52979,51248.78,53010.63,19.22,-31.63,0.456549,98.66,1
1668994,1,50591,1,51189,52877,51248.66,53010.37,-59.66,-133.37,0.456670,98.66,1
1669034,1,50631,1,51177,52890,51248.52,53010.13,-71.52,-120.13,0.456791,98.66,1
1669074,1,50671,1,51196,52939,51248.42,53009.99,-52.42,-70.99,0.456912,98.65,1
1669114,1,50711,1,51217,53001,51248.36,53009.97,-31.36,-8.97,0.457033,98.65,1
1669154,1,50751,1,51241,53040,51248.34,53010.04,-7.34,29.96,0.457153,98.65,1
1669194,1,50791,1,51250,53034,51248.35,53010.09,1.65,23.91,0.457273,98.65,1
1669234,1,50831,1,51235,53019,51248.32,53010.11,-13.32,8.89,0.457392,98.64,1
1669274,1,50871,1,51229,53024,51248.29,53010.13,-19.29,13.87,0.457511,98.64,1
1669314,1,50911,1,51236,53066,51248.26,53010.25,-12.26,55.75,0.457630,98.64,1
1669355,1,50952,1,51255,53126,51248.28,53010.48,6.72,115.52,0.457748,98.64,1
1669395,1,50992,1,51284,53188,51248.35,53010.84,35.65,177.16,0.457864,98.63,1
1669435,1,51032,1,51307,53252,51248.47,53011.32,58.53,240.68,0.457978,98.63,1
1669475,1,51072,1,51328,53303,51248.63,53011.91,79.37,291.09,0.458088,98.63,1
1669515,1,51112,1,51351,53337,51248.84,53012.56,102.16,324.44,0.458195,98.63,1
1669555,1,51152,1,51362,53368,51249.06,53013.27,112.94,354.73,0.458298,98.62,1
1669595,1,51192,1,51377,53414,51249.32,53014.07,127.68,399.93,0.458396,98.62,1
1669635,1,51232,1,51393,53453,51249.61,53014.95,143.39,438.05,0.458489,98.62,1
1669675,1,51272,1,51405,53422,51249.92,53015.77,155.08,406.23,0.458578,98.62,1
1669715,1,51312,1,51352,53207,51250.13,53016.15,101.87,190.85,0.458668,98.61,1
1669755,1,51352,1,51244,52991,51250.12,53016.10,-6.12,-25.10,0.458758,98.61,1
1669795,1,51392,1,51173,52925,51249.96,53015.92,-76.96,-90.92,0.458848,98.61,1
1669835,1,51432,1,51171,52955,51249.81,53015.80,-78.81,-60.80,0.458940,98.61,1
1669875,1,51472,1,51192,53006,51249.70,53015.78,-57.70,-9.78,0.459032,98.60,1
1669915,1,51512,1,51218,53057,51249.63,53015.86,-31.63,41.14,0.459123,98.60,1
1669955,1,51552,1,51233,53090,51249.60,53016.01,-16.60,73.99,0.459214,98.60,1
1669995,1,51592,1,51226,53074,51249.55,53016.13,-23.55,57.87,0.459305,98.60,1
1670035,1,51632,1,51216,53063,51249.49,53016.22,-33.49,46.78,0.459396,98.59,1
1670076,1,51673,1,51219,53080,51249.43,53016.35,-30.43,63.65,0.459487,98.59,1
1670116,1,51713,1,51226,53133,51249.38,53016.59,-23.38,116.41,0.459576,98.59,1
1670156,1,51753,1,51253,53202,51249.39,53016.96,3.61,185.04,0.459664,98.59,1
1670196,1,51793,1,51280,53272,51249.45,53017.47,30.55,254.53,0.459747,98.58,1
1670236,1,51833,1,51308,53322,51249.57,53018.08,58.43,303.92,0.459826,98.58,1
1670276,1,51873,1,51330,53376,51249.73,53018.80,80.27,357.20,0.459900,98.58,1
1670316,1,51913,1,51345,53413,51249.93,53019.59,95.07,393.41,0.459967,98.58,1
1670356,1,51953,1,51362,53453,51250.15,53020.45,111.85,432.55,0.460026,98.58,1
1670396,1,51993,1,51380,53494,51250.41,53021.40,129.59,472.60,0.460077,98.57,1
1670436,1,52033,1,51404,53526,51250.72,53022.41,153.28,503.59,0.460120,98.57,1
1670476,1,52073,1,51403,53447,51251.03,53023.27,151.97,423.73,0.460160,98.57,1
1670516,1,52113,1,51323,53208,51251.17,53023.64,71.83,184.36,0.460199,98.57,1
1670556,1,52153,1,51208,53022,51251.09,53023.64,-43.09,-1.64,0.460238,98.56,1
1670596,1,52193,1,51168,52989,51250.92,53023.57,-82.92,-34.57,0.460278,98.56,1
1670636,1,52233,1,51168,53029,51250.76,53023.58,-82.76,5.42,0.460321,98.56,1
1670676,1,52273,1,51190,53212,51250.64,53023.96,-60.64,188.04,0.460362,98.56,1
1670716,1,52313,1,51207,53355,51250.55,53024.62,-43.55,330.37,0.460398,98.56,1
1670756,1,52353,1,51226,53141,51250.50,53024.86,-24.50,116.14,0.460433,98.55,1
1670797,1,52394,1,51212,53117,51250.43,53025.05,-38.43,91.95,0.460468,98.55,1
1670837,1,52434,1,51203,53119,51250.34,53025.23,-47.34,93.77,0.460502,98.55,1
1670877,1,52474,1,51205,53148,51250.25,53025.48,-45.25,122.52,0.460537,98.55,1
1670917,1,52514,1,51224,53090,51250.20,53025.61,-26.20,64.39,0.460571,98.55,1
1670957,1,52554,1,51255,53265,51250.21,53026.09,4.79,238.91,0.460602,98.54,1
1670997,1,52594,1,51280,53332,51250.27,53026.70,29.73,305.30,0.460627,98.54,1
1671037,1,52634,1,51302,53390,51250.37,53027.43,51.63,362.57,0.460646,98.54,1
1671077,1,52674,1,51325,52880,51250.53,53027.14,74.47,-147.14,0.460664,98.54,1
1671117,1,52714,1,51344,52806,51250.71,53026.70,93.29,-220.70,0.460683,98.54,1
1671157,1,52754,1,51355,53494,51250.93,53027.63,104.07,466.37,0.460691,98.54,1
1671197,1,52794,1,51372,53532,51251.17,53028.64,120.83,503.36,0.460689,98.53,1
1671237,1,52834,1,51390,53557,51251.45,53029.70,138.55,527.30,0.460677,98.53,1
1671277,1,52874,1,51370,53422,51251.68,53030.49,118.32,391.51,0.460660,98.53,1
1671317,1,52914,1,51274,53168,51251.73,53030.77,22.27,137.23,0.460643,98.53,1
1671357,1,52954,1,51171,53022,51251.57,53030.75,-80.57,-8.75,0.460627,98.53,1
1671397,1,52994,1,51208,53008,51251.48,53030.71,-43.48,-22.71,0.460612,98.53,1
1671437,1,53034,1,51330,53050,51251.64,53030.75,78.36,19.25,0.460599,98.53,1
1671477,1,53074,1,51163,53101,51251.47,53030.89,-88.47,70.11,0.460588,98.52,1
1671518,1,53115,1,51188,53150,51251.34,53031.12,-63.34,118.87,0.460578,98.52,1
1671558,1,53155,1,51196,53154,51251.23,53031.37,-55.23,122.63,0.460567,98.52,1
1671598,1,53195,1,51692,53135,51252.12,53031.58,439.88,103.42,0.460615,98.52,1
1671638,1,53235,1,51143,53136,51251.90,53031.79,-108.90,104.21,0.460665,98.52,1
1671678,1,53275,1,51181,53160,51251.76,53032.05,-70.76,127.95,0.460715,98.52,1
1671718,1,53315,1,51199,53224,51251.65,53032.43,-52.65,191.57,0.460764,98.52,1
1671758,1,53355,1,51226,53296,51251.60,53032.96,-25.60,263.04,0.460809,98.52,1
1671798,1,53395,1,50728,53357,51250.55,53033.61,-522.55,323.39,0.460928,98.52,1
1671838,1,53435,1,50572,53403,51249.20,53034.35,-677.20,368.65,0.461165,98.51,1
1671878,1,53475,1,51306,53439,51249.31,53035.16,56.69,403.84,0.461391,98.51,1
1671918,1,53515,1,51313,53473,51249.44,53036.04,63.56,436.96,0.461604,98.51,1
1671958,1,53555,1,51327,53508,51249.60,53036.98,77.40,471.02,0.461802,98.51,1
1671998,1,53595,1,51343,53536,51249.79,53037.98,93.21,498.02,0.461984,98.51,1
1672038,1,53635,1,51342,53450,51249.97,53038.81,92.03,411.19,0.462157,98.51,1
1672078,1,53675,1,51258,53207,51249.99,53039.14,8.01,167.86,0.462327,98.50,1
1672118,1,53715,1,51139,53016,51249.77,53039.10,-110.77,-23.10,0.462500,98.50,1
1672158,1,53755,1,51085,52967,51249.44,53038.96,-164.44,-71.96,0.462679,98.50,1
1672199,1,53796,1,51082,52997,51249.11,53038.87,-167.11,-41.88,0.462866,98.50,1
1672239,1,53836,1,51102,53049,51248.82,53038.90,-146.82,10.10,0.463058,98.50,1
1672279,1,53876,1,51121,53103,51248.56,53039.03,-127.56,63.97,0.463254,98.49,1
1672319,1,53916,1,51138,53118,51248.34,53039.19,-110.34,78.81,0.463452,98.49,1
1672359,1,53956,1,51134,53100,51248.12,53039.31,-114.12,60.69,0.463653,98.49,1
1672399,1,53996,1,51124,53096,51247.87,53039.42,-123.87,56.58,0.463858,98.49,1
1672439,1,54036,1,51131,53122,51247.64,53039.59,-116.64,82.41,0.464065,98.48,1
1672479,1,54076,1,51148,53169,51247.44,53039.85,-99.44,129.15,0.464273,98.48,1
1672519,1,54116,1,51172,53229,51247.29,53040.23,-75.29,188.77,0.464480,98.48,1
1672559,1,54156,1,51201,53289,51247.20,53040.73,-46.20,248.27,0.464682,98.47,1
1672599,1,54196,1,51221,53338,51247.15,53041.33,-26.15,296.67,0.464877,98.47,1
1672639,1,54236,1,51235,53375,51247.13,53042.00,-12.13,333.00,0.465062,98.47,1
1672679,1,54276,1,51255,53408,51247.14,53042.73,7.86,365.27,0.465237,98.47,1
1672719,1,54316,1,51262,53433,51247.18,53043.51,14.82,389.49,0.465399,98.46,1
1672759,1,54356,1,51280,53456,51247.24,53044.34,32.76,411.66,0.465549,98.46,1
1672799,1,54396,1,51259,53331,51247.27,53044.91,11.73,286.09,0.465693,98.46,1
1672840,1,54437,1,51157,53067,51247.09,53044.96,-90.09,22.04,0.465838,98.45,1
1672880,1,54477,1,51041,52901,51246.68,53044.68,-205.68,-143.68,0.465994,98.45,1
1672920,1,54517,1,50994,52878,51246.17,53044.34,-252.17,-166.34,0.466167,98.45,1
1672960,1,54557,1,51002,52919,51245.68,53044.09,-243.68,-125.09,0.466357,98.44,1
1673000,1,54597,1,51025,52967,51245.24,53043.94,-220.24,-76.94,0.466560,98.44,1
1673040,1,54637,1,51046,53021,51244.84,53043.90,-198.84,-22.90,0.466774,98.44,1
1673080,1,54677,1,51059,53033,51244.47,53043.88,-185.47,-10.88,0.466999,98.43,1
1673120,1,54717,1,51056,53011,51244.10,53043.82,-188.10,-32.82,0.467233,98.43,1
1673160,1,54757,1,51049,53006,51243.71,53043.74,-194.71,-37.74,0.467478,98.43,1
1673200,1,54797,1,51056,53035,51243.33,53043.73,-187.33,-8.73,0.467734,98.42,1
1673240,1,54837,1,51073,53085,51242.99,53043.81,-169.99,41.19,0.467997,98.42,1
1673280,1,54877,1,51097,53148,51242.70,53044.02,-145.70,103.98,0.468265,98.42,1
1673320,1,54917,1,51122,53207,51242.46,53044.35,-120.46,162.65,0.468535,98.41,1
1673360,1,54957,1,51147,53244,51242.27,53044.75,-95.27,199.25,0.468803,98.41,1
1673400,1,54997,1,51157,53273,51242.11,53045.21,-85.11,227.79,0.469068,98.40,1
1673440,1,55037,1,51167,53306,51241.96,53045.73,-74.96,260.27,0.469328,98.40,1
1673480,1,55077,1,51179,53338,51241.83,53046.32,-62.83,291.68,0.469580,98.40,1
1673521,1,55118,1,51191,53326,51241.73,53046.88,-50.73,279.12,0.469825,98.39,1
1673561,1,55158,1,51144,53145,51241.54,53047.08,-97.54,97.92,0.470072,98.39,1
1673601,1,55198,1,51025,52894,51241.10,53046.77,-216.10,-152.77,0.470331,98.38,1
1673641,1,55238,1,50930,52771,51240.48,53046.22,-310.48,-275.22,0.470613,98.38,1
1673681,1,55278,1,50909,52777,51239.82,53045.69,-330.82,-268.69,0.470922,98.37,1
1673721,1,55318,1,50923,52822,51239.19,53045.24,-316.19,-223.24,0.471257,98.37,1
1673761,1,55358,1,50945,52880,51238.60,53044.91,-293.60,-164.91,0.471615,98.36,1
1673801,1,55398,1,50967,52923,51238.06,53044.67,-271.06,-121.67,0.471994,98.36,1
1673841,1,55438,1,50975,52915,51237.54,53044.41,-262.54,-129.41,0.472390,98.35,1
1673881,1,55478,1,50967,52891,51237.00,53044.11,-270.00,-153.11,0.472806,98.35,1
1673921,1,55518,1,50955,53150,51236.43,53044.32,-281.43,105.68,0.473243,98.34,1
1673961,1,55558,1,50963,53317,51235.89,53044.87,-272.89,272.13,0.473694,98.34,1
1674001,1,55598,1,50989,52992,51235.39,53044.77,-246.39,-52.77,0.474161,98.33,1
1674041,1,55638,1,51014,53053,51234.95,53044.79,-220.95,8.21,0.474642,98.33,1
1674081,1,55678,1,51037,53100,51234.56,53044.90,-197.56,55.10,0.475134,98.32,1
1674121,1,55718,1,51049,52965,51234.19,53044.74,-185.19,-79.74,0.475633,98.31,1
1674162,1,55759,1,51065,52816,51233.85,53044.28,-168.85,-228.28,0.476134,98.31,1
1674202,1,55799,1,51075,53208,51233.54,53044.61,-158.54,163.39,0.476638,98.30,1
1674242,1,55839,1,51088,53231,51233.25,53044.98,-145.25,186.02,0.477142,98.29,1
1674282,1,55879,1,51078,53134,51232.94,53045.16,-154.94,88.84,0.477652,98.29,1
1674322,1,55919,1,50981,52868,51232.43,53044.81,-251.43,-176.81,0.478176,98.28,1
1674362,1,55959,1,50860,52680,51231.69,53044.09,-371.69,-364.09,0.478725,98.27,1
1674402,1,55999,1,50806,52656,51230.84,53043.31,-424.84,-387.31,0.479307,98.26,1
1674442,1,56039,1,50813,52693,51230.00,53042.61,-417.00,-349.61,0.479924,98.26,1
1674482,1,56079,1,50839,52735,51229.22,53042.00,-390.22,-307.00,0.480571,98.25,1
1674522,1,56119,1,50856,52780,51228.48,53041.48,-372.48,-261.48,0.481246,98.24,1
1674562,1,56159,1,50872,52799,51227.77,53040.99,-355.77,-241.99,0.481947,98.23,1
1674602,1,56199,1,50866,52782,51227.04,53040.48,-361.04,-258.48,0.482674,98.22,1
1674642,1,56239,1,51187,52776,51226.96,53039.95,-39.96,-263.95,0.483389,98.21,1
1674682,1,56279,1,51283,52807,51227.08,53039.48,55.92,-232.48,0.484096,98.20,1
1674722,1,56319,1,50875,52863,51226.37,53039.13,-351.37,-176.13,0.484831,98.19,1
1674762,1,56359,1,50899,52925,51225.72,53038.91,-326.72,-113.91,0.485591,98.18,1
1674802,1,56399,1,50925,52984,51225.12,53038.80,-300.12,-54.80,0.486374,98.17,1
1674843,1,56440,1,50695,53025,51224.06,53038.77,-529.06,-13.77,0.487230,98.16,1
1674883,1,56480,1,50583,53063,51222.78,53038.82,-639.78,24.18,0.488193,98.15,1
1674923,1,56520,1,50972,53101,51222.28,53038.95,-250.28,62.05,0.489168,98.14,1
1674963,1,56560,1,50988,53143,51221.81,53039.16,-233.81,103.84,0.490153,98.13,1
1675003,1,56600,1,51004,53142,51221.38,53039.36,-217.38,102.64,0.491146,98.12,1
1675043,1,56640,1,50968,52953,51220.87,53039.19,-252.87,-86.19,0.492152,98.10,1
1675083,1,56680,1,50837,52702,51220.11,53038.52,-383.11,-336.52,0.493174,98.09,1
1675123,1,56720,1,50744,52593,51219.16,53037.63,-475.16,-444.63,0.494218,98.08,1
1675163,1,56760,1,50723,52598,51218.17,53036.75,-495.17,-438.75,0.495287,98.06,1
1675203,1,56800,1,50744,52637,51217.22,53035.95,-473.22,-398.95,0.496382,98.05,1
1675243,1,56840,1,50761,52690,51216.31,53035.26,-455.31,-345.26,0.497504,98.04,1
1675283,1,56880,1,50780,52733,51215.44,53034.66,-435.44,-301.66,0.498651,98.02,1
1675323,1,56920,1,50788,52731,51214.59,53034.05,-426.59,-303.05,0.499822,98.00,1
1675363,1,56960,1,50780,52714,51213.72,53033.41,-433.72,-319.41,0.501015,97.99,1
1675403,1,57000,1,50776,52724,51212.84,53032.80,-436.84,-308.80,0.502232,97.97,1
1675443,1,57040,1,50783,52774,51211.98,53032.28,-428.98,-258.28,0.503474,97.96,1
1675484,1,57081,1,50804,52834,51211.17,53031.89,-407.17,-197.89,0.504743,97.94,1
1675524,1,57121,1,50835,52897,51210.42,53031.62,-375.42,-134.62,0.506037,97.92,1
1675564,1,57161,1,50859,52955,51209.71,53031.46,-350.71,-76.46,0.507353,97.90,1
1675604,1,57201,1,50875,52996,51209.05,53031.39,-334.05,-35.39,0.508690,97.88,1
1675644,1,57241,1,50896,53030,51208.42,53031.39,-312.42,-1.39,0.510044,97.86,1
1675684,1,57281,1,50907,53068,51207.82,53031.47,-300.82,36.53,0.511414,97.85,1
1675724,1,57321,1,50923,53115,51207.25,53031.64,-284.25,83.36,0.512797,97.83,1
1675764,1,57361,1,50936,53096,51206.71,53031.77,-270.71,64.23,0.514192,97.81,1
1675804,1,57401,1,50886,52892,51206.07,53031.49,-320.07,-139.49,0.515602,97.78,1
1675844,1,57441,1,50765,52647,51205.19,53030.72,-440.19,-383.72,0.517021,97.76,1
1675884,1,57481,1,50677,52554,51204.14,53029.77,-527.14,-475.77,0.518451,97.74,1
1675924,1,57521,1,50654,52571,51203.04,53028.85,-549.04,-457.85,0.519899,97.72,1
1675964,1,57561,1,50667,52602,51201.97,53028.00,-534.97,-426.00,0.521368,97.70,1
1676004,1,57601,1,50686,52647,51200.94,53027.23,-514.94,-380.23,0.522858,97.67,1
1676044,1,57641,1,50704,52690,51199.95,53026.56,-495.95,-336.56,0.524371,97.65,1
1676084,1,57681,1,50706,52693,51198.96,53025.90,-492.96,-332.90,0.525906,97.63,1
1676124,1,57721,1,50706,52680,51197.97,53025.21,-491.97,-345.21,0.527460,97.60,1
1676165,1,57762,1,50702,52706,51196.98,53024.57,-494.98,-318.57,0.529038,97.58,1
1676205,1,57802,1,50713,52754,51196.02,53024.03,-483.02,-270.03,0.530640,97.55,1
1676245,1,57842,1,50740,52825,51195.11,53023.63,-455.11,-198.63,0.532270,97.53,1
1676285,1,57882,1,50770,52899,51194.26,53023.39,-424.26,-124.39,0.533926,97.50,1
1676325,1,57922,1,50797,52958,51193.46,53023.26,-396.46,-65.26,0.535605,97.47,1
1676365,1,57962,1,50825,53002,51192.73,53023.21,-367.73,-21.21,0.537306,97.45,1
1676405,1,58002,1,50837,53048,51192.02,53023.27,-355.02,24.73,0.539025,97.42,1
1676445,1,58042,1,50852,53091,51191.34,53023.40,-339.34,67.60,0.540761,97.39,1
1676485,1,58082,1,50876,53138,51190.71,53023.63,-314.71,114.37,0.542507,97.36,1
1676525,1,58122,1,50898,53169,51190.12,53023.93,-292.12,145.07,0.544260,97.33,1
1676565,1,58162,1,50879,53044,51189.50,53023.97,-310.50,20.03,0.546027,97.30,1
1676605,1,58202,1,50778,52802,51188.68,53023.53,-410.68,-221.53,0.547809,97.27,1
1676645,1,58242,1,50666,52662,51187.64,53022.80,-521.64,-360.80,0.549608,97.24,1
1676685,1,58282,1,50629,52642,51186.52,53022.04,-557.52,-380.04,0.551426,97.21,1
1676725,1,58322,1,50636,52672,51185.42,53021.34,-549.42,-349.34,0.553267,97.18,1
1676765,1,58362,1,50643,52711,51184.34,53020.72,-541.34,-309.72,0.555134,97.15,1
1676805,1,58402,1,50661,52765,51183.29,53020.21,-522.29,-255.21,0.557029,97.12,1
1676846,1,58443,1,50678,52782,51182.29,53019.73,-504.29,-237.73,0.558952,97.08,1
1676886,1,58483,1,50681,52780,51181.29,53019.26,-500.29,-239.26,0.560899,97.05,1
1676926,1,58523,1,50676,52803,51180.28,53018.83,-504.28,-215.83,0.562875,97.02,1
1676966,1,58563,1,50688,52948,51179.29,53018.69,-491.29,-70.69,0.564887,96.98,1
1677006,1,58603,1,50716,52920,51178.37,53018.49,-462.37,-98.49,0.566929,96.95,1
1677046,1,58643,1,50749,52997,51177.51,53018.45,-428.51,-21.45,0.568997,96.91,1
1677086,1,58683,1,50779,53069,51176.71,53018.55,-397.71,50.45,0.571086,96.88,1
1677126,1,58723,1,50809,53523,51175.98,53019.56,-366.98,503.44,0.573127,96.84,1
1677166,1,58763,1,50836,53176,51175.30,53019.87,-339.30,156.12,0.575175,96.80,1
1677206,1,58803,1,50850,53200,51174.65,53020.24,-324.65,179.76,0.577228,96.77,1
1677246,1,58843,1,50868,53250,51174.04,53020.70,-306.04,229.30,0.579278,96.73,1
1677286,1,58883,1,50885,53297,51173.46,53021.25,-288.46,275.75,0.581316,96.69,1
1677326,1,58923,1,50908,52940,51172.93,53021.09,-264.93,-81.09,0.583359,96.65,1
1677366,1,58963,1,50865,52553,51172.32,53020.16,-307.32,-467.16,0.585356,96.62,1
1677406,1,59003,1,50746,52923,51171.46,53019.97,-425.46,-96.97,0.587376,96.58,1
1677446,1,59043,1,50663,52828,51170.45,53019.59,-507.45,-191.59,0.589426,96.54,1
1677486,1,59083,1,50638,52835,51169.39,53019.22,-531.39,-184.22,0.591511,96.50,1
1677527,1,59124,1,50644,52858,51168.34,53018.90,-524.34,-160.90,0.593630,96.46,1
1677567,1,59164,1,50654,52912,51167.31,53018.69,-513.31,-106.69,0.595786,96.42,1
1677607,1,59204,1,50679,52960,51166.33,53018.57,-487.33,-58.57,0.597976,96.38,1
1677647,1,59244,1,50691,52974,51165.38,53018.48,-474.38,-44.48,0.600198,96.33,1
1677687,1,59284,1,50767,52976,51164.59,53018.40,-397.59,-42.40,0.602441,96.29,1
1677727,1,59324,1,50692,53003,51163.64,53018.37,-471.64,-15.37,0.604716,96.25,1
1677767,1,59364,1,50709,53058,51162.73,53018.45,-453.73,39.55,0.607019,96.21,1
1677807,1,59404,1,50739,53129,51161.89,53018.68,-422.89,110.32,0.609344,96.16,1
1677847,1,59444,1,51185,53192,51161.93,53019.02,23.07,172.98,0.611652,96.12,1
1677887,1,59484,1,51299,53255,51162.21,53019.50,136.79,235.50,0.613939,96.08,1
1677927,1,59524,1,50829,53303,51161.55,53020.07,-332.55,282.93,0.616214,96.03,1
1677967,1,59564,1,50846,53350,51160.92,53020.73,-314.92,329.27,0.618466,95.99,1
1678007,1,59604,1,50862,53383,51160.32,53021.45,-298.32,361.55,0.620688,95.94,1
1678047,1,59644,1,50524,53428,51159.05,53022.27,-635.05,405.73,0.622923,95.90,1
1678087,1,59684,1,50421,53476,51157.57,53023.18,-736.57,452.82,0.625184,95.85,1
1678127,1,59724,1,50910,53457,51157.08,53024.05,-247.08,432.95,0.627393,95.80,1
1678167,1,59764,1,50853,53275,51156.48,53024.55,-303.48,250.45,0.629593,95.76,1
1678207,1,59804,1,50739,53081,51155.64,53024.66,-416.64,56.34,0.631815,95.71,1
1678248,1,59845,1,50666,53006,51154.67,53024.63,-488.67,-18.63,0.634070,95.66,1
1678288,1,59885,1,50650,53014,51153.66,53024.61,-503.66,-10.61,0.636361,95.62,1
1678328,1,59925,1,50653,53050,51152.66,53024.66,-499.66,25.34,0.638687,95.57,1
1678368,1,59965,1,50672,53099,51151.70,53024.81,-479.70,74.19,0.641044,95.52,1
1678408,1,60005,2,50696,53136,51150.79,53025.03,-454.79,110.97,0.643424,95.47,1
1678448,1,60045,2,50703,53150,51149.89,53025.28,-446.89,124.72,0.645825,95.43,1
1678488,1,60085,2,50698,53159,51148.99,53025.55,-450.99,133.45,0.648248,95.38,1
1678528,1,60125,2,50707,53185,51148.11,53025.87,-441.11,159.13,0.650688,95.33,1
1678568,1,60165,2,50726,53236,51147.27,53026.29,-421.27,209.71,0.653137,95.28,1
1678608,1,60205,2,50755,53300,51146.48,53026.84,-391.48,273.16,0.655578,95.23,1
1678648,1,60245,2,50786,53364,51145.76,53027.52,-359.76,336.48,0.657996,95.18,1
1678688,1,60285,2,50811,53420,51145.09,53028.30,-334.09,391.70,0.660375,95.13,1
1678728,1,60325,2,50832,53461,51144.47,53029.17,-312.47,431.83,0.662703,95.08,1
1678768,1,60365,2,50848,53500,51143.88,53030.11,-295.88,469.89,0.664970,95.02,1
1678808,1,60405,2,50861,53540,51143.32,53031.13,-282.32,508.87,0.667165,94.97,1
1678848,1,60445,2,50878,53584,51142.79,53032.23,-264.79,551.77,0.669278,94.92,1
1678888,1,60485,2,50894,53596,51142.29,53033.36,-248.29,562.64,0.671307,94.87,1
1678929,1,60526,2,50865,53459,51141.73,53034.21,-276.73,424.79,0.673296,94.82,1
1678969,1,60566,2,50764,53261,51140.98,53034.67,-376.98,226.33,0.675287,94.77,1
1679009,1,60606,2,50674,53165,51140.05,53034.93,-466.05,130.07,0.677302,94.72,1
1679049,1,60646,2,50646,53161,51139.06,53035.18,-493.06,125.82,0.679346,94.67,1
1679089,1,60686,2,50653,53179,51138.09,53035.47,-485.09,143.53,0.681415,94.62,1
1679129,1,60726,2,50668,53227,51137.15,53035.86,-469.15,191.14,0.683502,94.56,1
1679169,1,60766,2,50685,53278,51136.25,53036.34,-451.25,241.66,0.685599,94.51,1
