t_ms,phase,red_raw,ir_raw,red_dc,ir_dc,red_ac,ir_ac,OD_red,OD_ir,R,spo2,spo2_valid
28,0,50705,52329,50100.86,51195.40,604.14,1133.60,-0.395788,-0.354410,0.589962,95.25,1
49,0,50722,52365,50102.11,51197.74,619.89,1167.26,-0.395813,-0.354455,0.589972,95.25,1
89,0,50739,52416,50103.38,51200.18,635.62,1215.82,-0.395838,-0.354503,0.589979,95.25,1
129,0,50759,52464,50104.69,51202.70,654.31,1261.30,-0.395864,-0.354552,0.589982,95.25,1
169,0,50780,52502,50106.04,51205.30,673.96,1296.70,-0.395891,-0.354603,0.589981,95.25,1
209,0,50800,52541,50107.43,51207.98,692.57,1333.02,-0.395919,-0.354655,0.589976,95.25,1
249,0,50819,52578,50108.86,51210.72,710.14,1367.28,-0.395948,-0.354709,0.589968,95.25,1
290,0,50834,52593,50110.31,51213.48,723.69,1379.52,-0.395977,-0.354763,0.589955,95.25,1
329,0,50798,52440,50111.69,51215.94,686.31,1224.06,-0.396004,-0.354811,0.589942,95.25,1
369,0,50711,52291,50112.89,51218.09,598.11,1072.91,-0.396028,-0.354853,0.589929,95.25,1
409,0,50680,52287,50114.02,51220.23,565.98,1066.77,-0.396051,-0.354894,0.589914,95.25,1
449,0,50692,52324,50115.18,51222.44,576.82,1101.56,-0.396074,-0.354938,0.589896,95.25,1
489,0,50709,52349,50116.37,51224.69,592.63,1124.31,-0.396097,-0.354982,0.589877,95.25,1
530,0,50718,52374,50117.57,51226.99,600.43,1147.01,-0.396121,-0.355026,0.589855,95.25,1
570,0,50728,52379,50118.79,51229.30,609.21,1149.70,-0.396146,-0.355072,0.589832,95.25,1
612,0,50723,52367,50120.00,51231.57,603.00,1135.43,-0.396170,-0.355116,0.589807,95.25,1
651,0,50711,52371,50121.19,51233.86,589.81,1137.14,-0.396194,-0.355160,0.589780,95.25,1
691,0,50719,52409,50122.38,51236.21,596.62,1172.79,-0.396217,-0.355206,0.589749,95.25,1
730,0,50741,52450,50123.62,51238.64,617.38,1211.36,-0.396242,-0.355254,0.589717,95.25,1
771,0,50763,52493,50124.90,51241.15,638.10,1251.85,-0.396268,-0.355303,0.589681,95.25,1
811,0,50775,52542,50126.20,51243.75,648.80,1298.25,-0.396294,-0.355354,0.589641,95.25,1
850,0,50795,52587,50127.54,51246.44,667.46,1340.56,-0.396320,-0.355406,0.589598,95.25,1
890,0,50822,52620,50128.93,51249.19,693.07,1370.81,-0.396348,-0.355460,0.589551,95.25,1
930,0,50844,52661,50130.36,51252.01,713.64,1408.99,-0.396377,-0.355515,0.589501,95.25,1
971,0,50834,52544,50131.77,51254.60,702.23,1289.40,-0.396405,-0.355565,0.589450,95.25,1
1011,0,50736,52334,50132.98,51256.76,603.02,1077.24,-0.396429,-0.355607,0.589399,95.25,1
1051,0,50668,52251,50134.05,51258.75,533.95,992.25,-0.396450,-0.355646,0.589348,95.25,1
1091,0,50661,52269,50135.11,51260.77,525.89,1008.23,-0.396471,-0.355686,0.589295,95.25,1
1130,0,50677,52287,50136.20,51262.82,540.80,1024.18,-0.396493,-0.355726,0.589242,95.25,1
1171,0,50678,52302,50137.28,51264.90,540.72,1037.10,-0.396515,-0.355766,0.589188,95.25,1
1212,0,50689,52314,50138.39,51267.00,550.61,1047.00,-0.396537,-0.355807,0.589132,95.25,1
1253,0,50691,52305,50139.49,51269.08,551.51,1035.92,-0.396559,-0.355848,0.589076,95.26,1
1291,0,50685,52301,50140.59,51271.14,544.41,1029.86,-0.396581,-0.355888,0.589019,95.26,1
1332,0,50692,52330,50141.69,51273.26,550.31,1056.74,-0.396603,-0.355929,0.588961,95.26,1
1371,0,50706,52364,50142.82,51275.45,563.18,1088.55,-0.396625,-0.355972,0.588901,95.26,1
1411,0,50733,52414,50144.00,51277.72,589.00,1136.28,-0.396649,-0.356016,0.588840,95.26,1
1451,0,50749,52463,50145.21,51280.09,603.79,1182.91,-0.396673,-0.356063,0.588777,95.26,1
1489,0,50771,52509,50146.47,51282.55,624.53,1226.45,-0.396698,-0.356111,0.588713,95.26,1
1531,0,50796,52549,50147.77,51285.09,648.23,1263.91,-0.396724,-0.356160,0.588646,95.26,1
1572,0,50815,52585,50149.11,51287.69,665.89,1297.31,-0.396750,-0.356211,0.588577,95.26,1
1612,0,50838,52619,50150.48,51290.36,687.52,1328.64,-0.396778,-0.356263,0.588507,95.26,1
1650,0,50843,52560,50151.87,51292.89,691.13,1267.11,-0.396806,-0.356312,0.588437,95.26,1
1691,0,50757,52312,50153.08,51294.93,603.92,1017.07,-0.396830,-0.356352,0.588368,95.26,1
1732,0,50658,52135,50154.09,51296.61,503.91,838.39,-0.396850,-0.356385,0.588300,95.26,1
1781,0,50621,52102,50155.03,51298.23,465.97,803.77,-0.396868,-0.356416,0.588234,95.26,1
1811,0,50623,52104,50155.96,51299.84,467.04,804.16,-0.396887,-0.356448,0.588168,95.27,1
1852,0,50620,52085,50156.89,51301.41,463.11,783.59,-0.396906,-0.356478,0.588103,95.27,1
1892,0,50627,52097,50157.84,51303.00,469.16,794.00,-0.396924,-0.356509,0.588039,95.27,1
1932,0,50635,52097,50158.79,51304.59,476.21,792.41,-0.396944,-0.356540,0.587977,95.27,1
1973,0,50630,52094,50159.74,51306.18,470.26,787.82,-0.396962,-0.356571,0.587915,95.27,1
2012,0,50633,52105,50160.69,51307.77,472.31,797.23,-0.396981,-0.356602,0.587855,95.27,1
2050,0,50652,52145,50161.67,51309.45,490.33,835.55,-0.397001,-0.356635,0.587795,95.27,1
2089,0,50675,52195,50162.70,51311.22,512.30,883.78,-0.397021,-0.356669,0.587737,95.27,1
2129,0,50700,52257,50163.77,51313.12,536.23,943.88,-0.397043,-0.356706,0.587679,95.27,1
2169,0,50728,52306,50164.90,51315.11,563.10,990.89,-0.397065,-0.356745,0.587621,95.27,1
2209,0,50752,52342,50166.08,51317.16,585.92,1024.84,-0.397089,-0.356785,0.587565,95.28,1
2250,0,50776,52382,50167.30,51319.29,608.70,1062.71,-0.397113,-0.356827,0.587509,95.28,1
2290,0,50791,52427,50168.55,51321.51,622.45,1105.49,-0.397138,-0.356870,0.587454,95.28,1
2330,0,50814,52471,50169.84,51323.81,644.16,1147.19,-0.397164,-0.356915,0.587399,95.28,1
2372,0,50822,52386,50171.15,51325.93,650.85,1060.07,-0.397190,-0.356956,0.587346,95.28,1
2412,0,50728,52102,50172.26,51327.49,555.74,774.51,-0.397212,-0.356986,0.587297,95.28,1
2452,0,50610,51911,50173.14,51328.66,436.86,582.34,-0.397229,-0.357009,0.587251,95.28,1
2493,0,50572,51880,50173.94,51329.76,398.06,550.24,-0.397245,-0.357031,0.587207,95.28,1
2533,0,50583,51882,50174.76,51330.87,408.24,551.13,-0.397262,-0.357052,0.587166,95.28,1
2574,0,50582,51867,50175.57,51331.94,406.43,535.06,-0.397278,-0.357073,0.587127,95.29,1
2613,0,50589,51901,50176.40,51333.08,412.60,567.92,-0.397295,-0.357095,0.587090,95.29,1
2651,0,50603,51929,50177.26,51334.27,425.74,594.73,-0.397312,-0.357119,0.587055,95.29,1
2692,0,50613,51931,50178.13,51335.47,434.87,595.53,-0.397329,-0.357142,0.587023,95.29,1
2733,0,50622,51947,50179.02,51336.69,442.98,610.31,-0.397347,-0.357166,0.586993,95.29,1
2773,0,50635,52001,50179.93,51338.02,455.07,662.98,-0.397365,-0.357192,0.586965,95.29,1
2816,0,50665,52067,50180.91,51339.48,484.09,727.52,-0.397384,-0.357220,0.586940,95.29,1
2852,0,50698,52127,50181.94,51341.06,516.06,785.94,-0.397405,-0.357251,0.586916,95.29,1
2892,0,50733,52175,50183.04,51342.73,549.96,832.27,-0.397427,-0.357283,0.586896,95.29,1
2933,0,50755,52220,50184.19,51344.48,570.81,875.52,-0.397450,-0.357317,0.586878,95.30,1
2972,0,50775,52271,50185.37,51346.34,589.63,924.66,-0.397473,-0.357354,0.586862,95.30,1
3014,0,50797,52317,50186.59,51348.28,610.41,968.72,-0.397498,-0.357391,0.586848,95.30,1
3054,0,50821,52360,50187.86,51350.30,633.14,1009.70,-0.397523,-0.357431,0.586837,95.30,1
3094,0,50843,52398,50189.18,51352.40,653.82,1045.60,-0.397549,-0.357472,0.586828,95.30,1
3134,0,50830,52234,50190.46,51354.17,639.54,879.83,-0.397575,-0.357506,0.586824,95.30,1
3175,0,50705,51919,50191.49,51355.30,513.51,563.70,-0.397595,-0.357528,0.586825,95.30,1
3216,0,50603,51773,50192.31,51356.14,410.69,416.86,-0.397612,-0.357544,0.586829,95.30,1
3255,0,50591,51777,50193.11,51356.98,397.89,420.02,-0.397627,-0.357561,0.586836,95.30,1
3296,0,50596,51768,50193.92,51357.80,402.08,410.20,-0.397644,-0.357577,0.586847,95.30,1
3335,0,50595,51781,50194.72,51358.65,400.28,422.35,-0.397660,-0.357593,0.586861,95.30,1
3377,0,50620,51833,50195.57,51359.60,424.43,473.40,-0.397677,-0.357612,0.586878,95.31,1
3416,0,50644,51860,50196.47,51360.61,447.53,499.39,-0.397694,-0.357631,0.586899,95.31,1
3456,0,50649,51868,50197.38,51361.62,451.62,506.38,-0.397713,-0.357651,0.586923,95.31,1
3495,0,50657,51899,50198.30,51362.70,458.70,536.30,-0.397731,-0.357672,0.586951,95.31,1
3533,0,50687,51954,50199.28,51363.88,487.72,590.12,-0.397750,-0.357695,0.586983,95.31,1
3576,0,50723,52022,50200.33,51365.20,522.67,656.80,-0.397771,-0.357721,0.587019,95.31,1
3616,0,50749,52089,50201.43,51366.64,547.57,722.36,-0.397793,-0.357749,0.587059,95.31,1
3654,0,50778,52139,50202.58,51368.19,575.42,770.81,-0.397816,-0.357779,0.587103,95.31,1
3695,0,50803,52181,50203.79,51369.82,599.21,811.18,-0.397840,-0.357811,0.587151,95.31,1
3735,0,50831,52224,50205.04,51371.53,625.96,852.47,-0.397865,-0.357844,0.587203,95.31,1
3773,0,50847,52269,50206.32,51373.32,640.68,895.68,-0.397891,-0.357879,0.587259,95.31,1
3815,0,50867,52315,50207.65,51375.21,659.35,939.79,-0.397917,-0.357916,0.587320,95.31,1
3856,0,50898,52357,50209.03,51377.17,688.97,979.83,-0.397945,-0.357954,0.587384,95.31,1
3897,0,50892,52198,50210.40,51378.82,681.60,819.18,-0.397972,-0.357986,0.587456,95.31,1
3938,0,50769,51894,50211.52,51379.85,557.48,514.15,-0.397994,-0.358006,0.587534,95.31,1
3977,0,50667,51776,50212.43,51380.64,454.57,395.36,-0.398012,-0.358021,0.587617,95.31,1
4017,0,50668,51797,50213.34,51381.48,454.66,415.52,-0.398031,-0.358038,0.587704,95.31,1
4057,0,50686,51812,50214.29,51382.34,471.71,429.66,-0.398049,-0.358054,0.587797,95.31,1
4097,0,50690,51835,50215.24,51383.25,474.76,451.75,-0.398068,-0.358072,0.587894,95.31,1
4137,0,50714,51888,50216.24,51384.26,497.76,503.74,-0.398088,-0.358092,0.587995,95.31,1
4177,0,50737,51903,50217.29,51385.30,519.71,517.70,-0.398109,-0.358112,0.588102,95.31,1
4217,0,50745,51904,50218.34,51386.34,526.66,517.66,-0.398130,-0.358132,0.588215,95.31,1
4257,0,50751,51935,50219.41,51387.43,531.59,547.57,-0.398151,-0.358154,0.588333,95.31,1
4296,0,50771,51993,50220.52,51388.64,550.48,604.36,-0.398173,-0.358177,0.588456,95.31,1
4337,0,50807,52049,50221.69,51389.96,585.31,659.04,-0.398197,-0.358203,0.588585,95.31,1
4376,0,50827,52100,50222.90,51391.39,604.10,708.61,-0.398221,-0.358231,0.588719,95.31,1
4416,0,50842,52143,50224.14,51392.89,617.86,750.11,-0.398246,-0.358260,0.588858,95.31,1
4458,0,50861,52183,50225.41,51394.47,635.59,788.53,-0.398271,-0.358291,0.589003,95.30,1
4497,0,50876,52212,50226.71,51396.11,649.29,815.89,-0.398297,-0.358322,0.589152,95.30,1
4537,0,50890,52252,50228.04,51397.82,661.96,854.18,-0.398323,-0.358356,0.589306,95.30,1
4578,0,50916,52307,50229.42,51399.64,686.58,907.36,-0.398351,-0.358391,0.589465,95.30,1
4617,0,50936,52318,50230.84,51401.48,705.16,916.52,-0.398379,-0.358427,0.589628,95.30,1
4654,0,50899,52088,50232.17,51402.86,666.83,685.14,-0.398405,-0.358454,0.589800,95.30,1
4697,0,50783,51842,50233.27,51403.74,549.73,438.26,-0.398427,-0.358471,0.589978,95.30,1
4742,0,50718,51787,50234.25,51404.51,483.75,382.49,-0.398447,-0.358486,0.590162,95.30,1
4779,0,50726,51804,50235.23,51405.31,490.77,398.69,-0.398466,-0.358501,0.590351,95.29,1
4816,0,50735,51813,50236.23,51406.12,498.77,406.87,-0.398486,-0.358517,0.590546,95.29,1
4853,0,50746,51850,50237.25,51407.02,508.75,442.98,-0.398506,-0.358535,0.590746,95.29,1
4893,0,50766,51900,50238.31,51408.00,527.69,492.00,-0.398528,-0.358554,0.590952,95.29,1
4933,0,50780,51917,50239.39,51409.02,540.61,507.98,-0.398549,-0.358574,0.591163,95.29,1
4974,0,50785,51922,50240.49,51410.05,544.51,511.95,-0.398571,-0.358594,0.591379,95.28,1
5017,0,50795,51967,50241.60,51411.16,553.40,555.84,-0.398593,-0.358615,0.591602,95.28,1
5058,0,50816,52034,50242.75,51412.41,573.25,621.59,-0.398616,-0.358640,0.591829,95.28,1
5098,0,50842,52098,50243.95,51413.78,598.05,684.22,-0.398640,-0.358666,0.592061,95.28,1
5139,0,50867,52154,50245.19,51415.26,621.81,738.74,-0.398665,-0.358695,0.592297,95.27,1
5182,0,50891,52193,50246.48,51416.82,644.52,776.18,-0.398690,-0.358725,0.592538,95.27,1
5220,0,50908,52238,50247.81,51418.46,660.19,819.54,-0.398717,-0.358757,0.592784,95.27,1
5259,0,50921,52285,50249.16,51420.20,671.84,864.80,-0.398743,-0.358791,0.593033,95.27,1
5298,0,50943,52326,50250.55,51422.01,692.45,903.99,-0.398771,-0.358826,0.593285,95.26,1
5339,0,50971,52377,50251.99,51423.92,719.01,953.08,-0.398800,-0.358863,0.593541,95.26,1
5378,0,50988,52424,50253.46,51425.92,734.54,998.08,-0.398829,-0.358902,0.593799,95.26,1
5419,0,50982,52256,50254.92,51427.58,727.08,828.42,-0.398858,-0.358935,0.594064,95.25,1
5458,0,50859,51939,50256.13,51428.61,602.87,510.39,-0.398882,-0.358954,0.594336,95.25,1
5499,0,50756,51799,50257.13,51429.35,498.87,369.65,-0.398902,-0.358969,0.594614,95.25,1
5540,0,50733,51805,50258.08,51430.10,474.92,374.90,-0.398921,-0.358984,0.594897,95.24,1
5579,0,50740,51804,50259.05,51430.85,480.95,373.15,-0.398940,-0.358998,0.595184,95.24,1
5618,0,50736,51799,50260.00,51431.59,476.00,367.41,-0.398959,-0.359012,0.595476,95.24,1
5659,0,50746,51845,50260.98,51432.42,485.02,412.58,-0.398979,-0.359029,0.595773,95.23,1
5699,0,50759,51877,50261.97,51433.31,497.03,443.69,-0.398999,-0.359046,0.596074,95.23,1
5741,0,50765,51885,50262.98,51434.21,502.02,450.79,-0.399019,-0.359064,0.596380,95.22,1
5780,0,50768,51912,50263.99,51435.17,504.01,476.83,-0.399039,-0.359082,0.596690,95.22,1
5820,0,50791,51971,50265.05,51436.25,525.95,534.75,-0.399060,-0.359103,0.597004,95.22,1
5859,0,50813,52035,50266.14,51437.45,546.86,597.55,-0.399081,-0.359126,0.597321,95.21,1
5900,0,50834,52097,50267.28,51438.77,566.72,658.23,-0.399104,-0.359152,0.597642,95.21,1
5940,0,50866,52158,50268.48,51440.21,597.52,717.79,-0.399128,-0.359180,0.597965,95.20,1
5980,0,50897,52207,50269.74,51441.74,627.26,765.26,-0.399153,-0.359210,0.598292,95.20,1
6020,0,50909,52257,50271.02,51443.37,637.98,813.62,-0.399178,-0.359242,0.598621,95.19,1
6061,0,50936,52314,50272.35,51445.12,663.65,868.88,-0.399205,-0.359275,0.598952,95.19,1
6101,0,50965,52352,50273.74,51446.93,691.26,905.07,-0.399233,-0.359311,0.599284,95.18,1
6140,0,50989,52398,50275.17,51448.84,713.83,949.16,-0.399261,-0.359348,0.599619,95.18,1
6179,0,51007,52405,50276.64,51450.75,730.36,954.25,-0.399290,-0.359385,0.599955,95.17,1
6220,0,50951,52139,50277.99,51452.13,673.01,686.87,-0.399317,-0.359412,0.600298,95.17,1
6258,0,50811,51845,50279.05,51452.91,531.95,392.09,-0.399338,-0.359427,0.600648,95.16,1
6299,0,50731,51770,50279.96,51453.55,451.04,316.45,-0.399356,-0.359439,0.601001,95.16,1
6338,0,50724,51774,50280.85,51454.19,443.15,319.81,-0.399374,-0.359452,0.601359,95.15,1
6378,0,50717,51766,50281.73,51454.82,435.27,311.18,-0.399391,-0.359464,0.601720,95.14,1
6420,0,50714,51782,50282.59,51455.47,431.41,326.53,-0.399409,-0.359477,0.602085,95.14,1
6461,0,50735,51836,50283.50,51456.23,451.50,379.77,-0.399427,-0.359492,0.602454,95.13,1
6501,0,50748,51859,50284.43,51457.04,463.57,401.96,-0.399445,-0.359507,0.602826,95.13,1
6542,0,50741,51869,50285.34,51457.87,455.66,411.13,-0.399463,-0.359523,0.603201,95.12,1
6580,0,50748,51904,50286.27,51458.76,461.73,445.24,-0.399482,-0.359541,0.603580,95.11,1
6620,0,50773,51985,50287.25,51459.82,485.75,525.18,-0.399501,-0.359561,0.603960,95.11,1
6660,0,50808,52066,50288.29,51461.03,519.71,604.97,-0.399522,-0.359585,0.604343,95.10,1
6701,0,50840,52128,50289.39,51462.37,550.61,665.63,-0.399544,-0.359611,0.604727,95.09,1
6741,0,50871,52189,50290.56,51463.82,580.44,725.18,-0.399567,-0.359639,0.605112,95.09,1
6780,0,50902,52230,50291.78,51465.36,610.22,764.64,-0.399591,-0.359669,0.605499,95.08,1
6818,0,50923,52276,50293.05,51466.98,629.95,809.02,-0.399617,-0.359700,0.605887,95.07,1
6858,0,50942,52327,50294.35,51468.70,647.65,858.30,-0.399642,-0.359734,0.606275,95.07,1
6900,0,50966,52379,50295.69,51470.52,670.31,908.48,-0.399669,-0.359769,0.606663,95.06,1
6940,0,50997,52438,50297.09,51472.46,699.91,965.54,-0.399697,-0.359807,0.607050,95.05,1
6979,0,51022,52411,50298.54,51474.34,723.46,936.66,-0.399726,-0.359843,0.607439,95.05,1
7019,0,50938,52115,50299.82,51475.62,638.18,639.38,-0.399751,-0.359868,0.607833,95.04,1
7061,0,50788,51852,50300.80,51476.37,487.20,375.63,-0.399771,-0.359883,0.608232,95.03,1
7100,0,50729,51802,50301.66,51477.02,427.34,324.98,-0.399788,-0.359895,0.608634,95.02,1
7140,0,50734,51822,50302.53,51477.71,431.47,344.29,-0.399805,-0.359909,0.609039,95.02,1
7180,0,50736,51827,50303.39,51478.41,432.61,348.59,-0.399822,-0.359923,0.609448,95.01,1
7220,0,50734,51869,50304.26,51479.20,429.74,389.80,-0.399839,-0.359938,0.609859,95.00,1
7260,0,50758,51917,50305.17,51480.07,452.83,436.93,-0.399858,-0.359955,0.610273,94.99,1
7300,0,50773,51931,50306.11,51480.97,466.89,450.03,-0.399876,-0.359972,0.610689,94.99,1
7342,0,50769,51949,50307.03,51481.91,461.97,467.09,-0.399895,-0.359990,0.611108,94.98,1
7381,0,50787,52000,50307.99,51482.95,479.01,517.05,-0.399914,-0.360011,0.611529,94.97,1
7422,0,50819,52069,50309.02,51484.12,509.98,584.88,-0.399934,-0.360033,0.611951,94.96,1
7462,0,50854,52145,50310.11,51485.45,543.89,659.55,-0.399956,-0.360059,0.612374,94.95,1
7502,0,50884,52205,50311.25,51486.89,572.75,718.11,-0.399979,-0.360087,0.612798,94.95,1
7541,0,50905,52251,50312.44,51488.42,592.56,762.58,-0.400002,-0.360117,0.613222,94.94,1
7582,0,50919,52299,50313.66,51490.04,605.34,808.96,-0.400026,-0.360148,0.613645,94.93,1
7621,0,50944,52347,50314.92,51491.75,629.08,855.25,-0.400051,-0.360182,0.614067,94.92,1
7661,0,50963,52394,50316.21,51493.56,646.79,900.44,-0.400077,-0.360217,0.614487,94.91,1
7702,0,50984,52454,50317.55,51495.48,666.45,958.52,-0.400104,-0.360254,0.614903,94.90,1
7741,0,51008,52450,50318.93,51497.39,689.07,952.61,-0.400131,-0.360291,0.615318,94.89,1
7782,0,50947,52191,50320.19,51498.78,626.81,692.22,-0.400156,-0.360318,0.615736,94.89,1
7822,0,50811,51946,50321.18,51499.67,489.82,446.33,-0.400176,-0.360335,0.616158,94.88,1
7864,0,50745,51915,50322.02,51500.50,422.98,414.50,-0.400192,-0.360352,0.616582,94.87,1
7903,0,50768,51955,50322.92,51501.41,445.08,453.59,-0.400210,-0.360369,0.617007,94.86,1
7942,0,50785,51977,50323.84,51502.37,461.16,474.63,-0.400229,-0.360388,0.617435,94.85,1
7984,0,50798,52030,50324.79,51503.42,473.21,526.58,-0.400248,-0.360408,0.617864,94.84,1
8021,0,50819,52061,50325.78,51504.54,493.22,556.46,-0.400267,-0.360430,0.618294,94.83,1
8061,0,50825,52056,50326.78,51505.64,498.22,550.36,-0.400287,-0.360451,0.618726,94.82,1
8102,0,50833,52068,50327.80,51506.77,505.20,561.23,-0.400307,-0.360473,0.619160,94.81,1
8141,0,50840,52120,50328.82,51508.00,511.18,612.00,-0.400328,-0.360497,0.619595,94.81,1
8181,0,50865,52181,50329.90,51509.34,535.10,671.66,-0.400349,-0.360523,0.620029,94.80,1
8221,0,50888,52234,50331.02,51510.79,556.98,723.21,-0.400371,-0.360551,0.620463,94.79,1
8262,0,50912,52291,50332.18,51512.36,579.82,778.64,-0.400394,-0.360582,0.620896,94.78,1
8302,0,50931,52334,50333.38,51514.00,597.62,820.00,-0.400418,-0.360614,0.621327,94.77,1
8344,0,50947,52373,50334.61,51515.72,612.39,857.28,-0.400443,-0.360647,0.621755,94.76,1
8384,0,50964,52411,50335.87,51517.51,628.13,893.49,-0.400468,-0.360682,0.622180,94.75,1
8425,0,50977,52451,50337.16,51519.38,639.84,931.62,-0.400493,-0.360718,0.622601,94.74,1
8464,0,50997,52503,50338.48,51521.35,658.52,981.65,-0.400519,-0.360756,0.623017,94.73,1
8503,0,50995,52358,50339.79,51523.02,655.21,834.98,-0.400545,-0.360789,0.623433,94.72,1
8542,0,50873,52034,50340.86,51524.05,532.14,509.95,-0.400567,-0.360809,0.623853,94.71,1
8582,0,50751,51879,50341.68,51524.76,409.32,354.24,-0.400583,-0.360822,0.624276,94.70,1
8622,0,50730,51876,50342.45,51525.46,387.55,350.54,-0.400598,-0.360836,0.624700,94.69,1
8662,0,50740,51883,50343.25,51526.18,396.75,356.82,-0.400614,-0.360850,0.625127,94.68,1
8702,0,50736,51879,50344.04,51526.88,391.96,352.12,-0.400630,-0.360864,0.625555,94.67,1
8744,0,50750,51922,50344.85,51527.68,405.15,394.32,-0.400646,-0.360879,0.625985,94.66,1
8783,0,50768,51958,50345.70,51528.54,422.30,429.46,-0.400663,-0.360896,0.626417,94.65,1
8824,0,50771,51962,50346.55,51529.41,424.45,432.59,-0.400680,-0.360913,0.626850,94.64,1
8865,0,50776,51976,50347.41,51530.30,428.59,445.70,-0.400697,-0.360930,0.627284,94.63,1
8904,0,50791,52029,50348.29,51531.30,442.71,497.70,-0.400714,-0.360949,0.627720,94.62,1
8942,0,50817,52095,50349.23,51532.43,467.77,562.57,-0.400733,-0.360971,0.628155,94.61,1
8984,0,50839,52149,50350.21,51533.66,488.79,615.34,-0.400752,-0.360995,0.628590,94.60,1
9024,0,50864,52192,50351.24,51534.98,512.76,657.02,-0.400773,-0.361021,0.629025,94.60,1
9064,0,50884,52230,50352.30,51536.37,531.70,693.63,-0.400794,-0.361048,0.629458,94.59,1
9105,0,50893,52266,50353.39,51537.83,539.61,728.17,-0.400816,-0.361076,0.629890,94.58,1
9145,0,50908,52299,50354.50,51539.36,553.50,759.64,-0.400838,-0.361106,0.630320,94.57,1
9184,0,50935,52346,50355.66,51540.97,579.34,805.03,-0.400861,-0.361137,0.630747,94.56,1
9225,0,50952,52357,50356.86,51542.60,595.14,814.40,-0.400884,-0.361169,0.631172,94.55,1
9265,0,50899,52095,50357.94,51543.71,541.06,551.29,-0.400906,-0.361190,0.631600,94.54,1
9305,0,50754,51797,50358.73,51544.21,395.27,252.79,-0.400922,-0.361200,0.632032,94.52,1
9342,0,50671,51717,50359.36,51544.56,311.64,172.44,-0.400934,-0.361207,0.632465,94.51,1
9384,0,50665,51698,50359.97,51544.87,305.03,153.13,-0.400946,-0.361213,0.632901,94.50,1
9425,0,50646,51669,50360.55,51545.12,285.45,123.88,-0.400958,-0.361217,0.633338,94.49,1
9465,0,50636,51674,50361.10,51545.38,274.90,128.62,-0.400969,-0.361222,0.633776,94.48,1
9504,0,50662,51737,50361.70,51545.76,300.30,191.24,-0.400981,-0.361230,0.634216,94.47,1
9546,0,50678,51760,50362.33,51546.19,315.67,213.81,-0.400993,-0.361238,0.634658,94.46,1
9585,0,50682,51769,50362.97,51546.64,319.03,222.36,-0.401006,-0.361247,0.635101,94.45,1
9627,0,50684,51807,50363.62,51547.16,320.38,259.84,-0.401019,-0.361257,0.635546,94.44,1
9664,0,50710,51869,50364.31,51547.80,345.69,321.20,-0.401033,-0.361270,0.635992,94.43,1
9704,0,50745,51935,50365.07,51548.58,379.93,386.42,-0.401048,-0.361285,0.636439,94.42,1
9745,0,50768,51998,50365.88,51549.48,402.12,448.52,-0.401064,-0.361302,0.636886,94.41,1
9784,0,50792,52046,50366.74,51550.48,425.26,495.52,-0.401081,-0.361321,0.637334,94.40,1
9825,0,50820,52094,50367.64,51551.57,452.36,542.43,-0.401099,-0.361342,0.637781,94.39,1
9866,0,50840,52148,50368.59,51552.76,471.41,595.24,-0.401117,-0.361366,0.638228,94.38,1
9905,0,50859,52191,50369.57,51554.04,489.43,636.96,-0.401137,-0.361390,0.638674,94.37,1
9945,0,50883,52247,50370.60,51555.43,512.40,691.57,-0.401157,-0.361417,0.639117,94.36,1
9982,0,50912,52250,50371.68,51556.82,540.32,693.18,-0.401179,-0.361444,0.639559,94.35,1
10025,0,50860,51987,50372.66,51557.68,487.34,429.32,-0.401198,-0.361461,0.640006,94.34,1
10065,0,50710,51712,50373.34,51557.99,336.66,154.01,-0.401212,-0.361467,0.640456,94.33,1
10106,0,50641,51652,50373.87,51558.18,267.13,93.82,-0.401222,-0.361471,0.640907,94.32,1
10146,0,50635,51635,50374.39,51558.33,260.61,76.67,-0.401233,-0.361474,0.641359,94.31,1
10186,0,50624,51616,50374.89,51558.45,249.11,57.55,-0.401243,-0.361476,0.641813,94.30,1
10226,0,50614,51632,50375.37,51558.60,238.62,73.40,-0.401252,-0.361479,0.642268,94.29,1
10267,0,50636,51689,50375.90,51558.86,260.10,130.14,-0.401263,-0.361484,0.642725,94.28,1
10306,0,50659,51719,50376.46,51559.18,282.54,159.82,-0.401274,-0.361490,0.643183,94.27,1
10346,0,50667,51734,50377.05,51559.53,289.95,174.47,-0.401285,-0.361497,0.643642,94.25,1
10386,0,50675,51782,50377.64,51559.98,297.36,222.02,-0.401297,-0.361506,0.644103,94.24,1
10426,0,50704,51851,50378.30,51560.56,325.70,290.44,-0.401310,-0.361517,0.644565,94.23,1
10467,0,50737,51916,50379.02,51561.27,357.98,354.73,-0.401324,-0.361531,0.645028,94.22,1
10507,0,50763,51971,50379.79,51562.09,383.21,408.91,-0.401340,-0.361547,0.645492,94.21,1
10547,0,50787,52029,50380.60,51563.02,406.40,465.98,-0.401356,-0.361565,0.645956,94.20,1
10587,0,50816,52079,50381.47,51564.06,434.53,514.94,-0.401373,-0.361585,0.646420,94.19,1
10627,0,50839,52125,50382.39,51565.18,456.61,559.82,-0.401391,-0.361607,0.646884,94.18,1
10668,0,50864,52176,50383.36,51566.41,480.64,609.59,-0.401411,-0.361630,0.647346,94.17,1
10706,0,50884,52228,50384.36,51567.73,499.64,660.27,-0.401430,-0.361656,0.647806,94.16,1
10748,0,50909,52252,50385.41,51569.10,523.59,682.90,-0.401451,-0.361683,0.648264,94.15,1
10787,0,50877,52051,50386.39,51570.07,490.61,480.93,-0.401471,-0.361701,0.648725,94.14,1
10826,0,50744,51787,50387.11,51570.50,356.89,216.50,-0.401485,-0.361710,0.649190,94.12,1
10868,0,50667,51720,50387.67,51570.80,279.33,149.20,-0.401496,-0.361716,0.649657,94.11,1
10908,0,50663,51720,50388.22,51571.10,274.78,148.90,-0.401507,-0.361721,0.650125,94.10,1
10948,0,50657,51703,50388.76,51571.37,268.24,131.63,-0.401518,-0.361727,0.650595,94.09,1
10988,0,50654,51721,50389.29,51571.67,264.71,149.33,-0.401528,-0.361732,0.651066,94.08,1
11028,0,50673,51792,50389.86,51572.11,283.14,219.89,-0.401540,-0.361741,0.651538,94.07,1
11068,0,50695,51820,50390.48,51572.61,304.52,247.39,-0.401552,-0.361751,0.652012,94.06,1
11107,0,50705,51819,50391.11,51573.10,313.89,245.90,-0.401564,-0.361760,0.652487,94.05,1
11147,0,50710,51859,50391.75,51573.67,318.25,285.33,-0.401577,-0.361771,0.652964,94.04,1
11187,0,50736,51919,50392.44,51574.36,343.56,344.64,-0.401591,-0.361785,0.653441,94.02,1
11266,0,50766,51979,50393.19,51575.18,372.81,403.82,-0.401606,-0.361800,0.653919,94.01,1
11268,0,50795,52030,50393.99,51576.09,401.01,453.91,-0.401622,-0.361818,0.654397,94.00,1
11309,0,50818,52064,50394.84,51577.06,423.16,486.94,-0.401638,-0.361837,0.654875,93.99,1
11346,0,50830,52112,50395.71,51578.13,434.29,533.87,-0.401656,-0.361858,0.655352,93.98,1
11389,0,50848,52153,50396.62,51579.29,451.38,573.71,-0.401674,-0.361880,0.655828,93.97,1
11428,0,50870,52203,50397.57,51580.54,472.43,622.46,-0.401693,-0.361904,0.656301,93.96,1
11468,0,50892,52244,50398.55,51581.86,493.45,662.14,-0.401712,-0.361930,0.656771,93.95,1
11507,0,50889,52133,50399.54,51582.97,489.46,550.03,-0.401732,-0.361951,0.657242,93.93,1
11548,0,50783,51888,50400.30,51583.58,382.70,304.42,-0.401747,-0.361963,0.657716,93.92,1
11589,0,50692,51791,50400.89,51584.00,291.11,207.00,-0.401759,-0.361971,0.658192,93.91,1
11629,0,50689,51808,50401.47,51584.45,287.53,223.55,-0.401770,-0.361980,0.658669,93.90,1
11668,0,50682,51803,50402.03,51584.89,279.97,218.11,-0.401781,-0.361989,0.659147,93.89,1
11706,0,50681,51826,50402.59,51585.37,278.41,240.63,-0.401792,-0.361998,0.659626,93.88,1
11745,0,50709,51887,50403.20,51585.98,305.80,301.02,-0.401804,-0.362010,0.660105,93.87,1
11789,0,50728,51904,50403.86,51586.61,324.14,317.39,-0.401817,-0.362022,0.660586,93.86,1
11829,0,50723,51917,50404.50,51587.27,318.50,329.73,-0.401830,-0.362035,0.661066,93.84,1
11868,0,50736,51956,50405.16,51588.01,330.84,367.99,-0.401843,-0.362049,0.661547,93.83,1
11909,0,50764,52009,50405.88,51588.86,358.12,420.14,-0.401858,-0.362066,0.662027,93.82,1
11949,0,50791,52059,50406.65,51589.80,384.35,469.20,-0.401873,-0.362084,0.662506,93.81,1
11987,0,50809,52108,50407.46,51590.84,401.54,517.16,-0.401889,-0.362104,0.662982,93.80,1
12027,0,50828,52149,50408.30,51591.95,419.70,557.05,-0.401906,-0.362126,0.663456,93.79,1
12068,0,50849,52184,50409.18,51593.14,439.82,590.86,-0.401923,-0.362149,0.663927,93.77,1
12107,0,50863,52224,50410.09,51594.40,452.91,629.60,-0.401941,-0.362173,0.664393,93.76,1
12147,0,50883,52263,50411.04,51595.74,471.96,667.26,-0.401960,-0.362199,0.664855,93.75,1
12189,0,50896,52305,50412.01,51597.16,483.99,707.84,-0.401979,-0.362226,0.665311,93.74,1
12228,0,50910,52281,50413.01,51598.52,496.99,682.48,-0.401999,-0.362253,0.665762,93.73,1
12269,0,50848,52044,50413.88,51599.41,434.12,444.59,-0.402016,-0.362270,0.666215,93.72,1
12308,0,50712,51843,50414.48,51599.90,297.52,243.10,-0.402028,-0.362280,0.666670,93.71,1
12349,0,50667,51810,50414.98,51600.32,252.02,209.68,-0.402038,-0.362288,0.667126,93.69,1
12390,0,50670,51797,50415.50,51600.72,254.50,196.28,-0.402048,-0.362296,0.667583,93.68,1
12430,0,50661,51781,50415.99,51601.08,245.01,179.92,-0.402058,-0.362303,0.668040,93.67,1
12470,0,50656,51812,50416.47,51601.50,239.53,210.50,-0.402068,-0.362311,0.668498,93.66,1
12510,0,50683,51864,50417.00,51602.03,266.00,261.97,-0.402078,-0.362321,0.668956,93.65,1
12550,0,50705,51880,50417.58,51602.59,287.42,277.41,-0.402090,-0.362332,0.669415,93.64,1
12591,0,50707,51897,50418.16,51603.18,288.84,293.82,-0.402101,-0.362343,0.669874,93.63,1
12630,0,50721,51940,50418.77,51603.86,302.23,336.14,-0.402113,-0.362356,0.670332,93.61,1
12669,0,50747,52002,50419.43,51604.65,327.57,397.35,-0.402126,-0.362372,0.670790,93.60,1
12710,0,50773,52052,50420.13,51605.55,352.87,446.45,-0.402140,-0.362389,0.671246,93.59,1
12751,0,50795,52093,50420.88,51606.52,374.12,486.48,-0.402155,-0.362408,0.671700,93.58,1
12789,0,50813,52137,50421.67,51607.59,391.33,529.41,-0.402171,-0.362429,0.672151,93.57,1
12832,0,50831,52176,50422.49,51608.72,408.51,567.28,-0.402187,-0.362451,0.672598,93.56,1
12870,0,50849,52206,50423.34,51609.92,425.66,596.08,-0.402204,-0.362474,0.673040,93.54,1
12911,0,50864,52249,50424.23,51611.20,439.77,637.80,-0.402222,-0.362499,0.673478,93.53,1
12951,0,50881,52298,50425.14,51612.57,455.86,685.43,-0.402240,-0.362525,0.673908,93.52,1
12991,0,50899,52307,50426.09,51613.96,472.91,693.04,-0.402258,-0.362552,0.674332,93.51,1
13030,0,50863,52102,50426.96,51614.94,436.04,487.06,-0.402276,-0.362571,0.674758,93.50,1
13071,0,50732,51862,50427.58,51615.44,304.42,246.56,-0.402288,-0.362581,0.675185,93.49,1
13110,0,50663,51804,50428.05,51615.82,234.95,188.18,-0.402297,-0.362588,0.675613,93.48,1
13150,0,50663,51788,50428.52,51616.16,234.48,171.84,-0.402307,-0.362595,0.676042,93.46,1
13190,0,50652,51756,50428.97,51616.44,223.03,139.56,-0.402316,-0.362600,0.676472,93.45,1
13228,0,50649,51769,50429.41,51616.75,219.59,152.25,-0.402324,-0.362606,0.676903,93.44,1
13270,0,50667,51826,50429.89,51617.16,237.11,208.84,-0.402334,-0.362614,0.677334,93.43,1
13310,0,50685,51855,50430.40,51617.64,254.60,237.36,-0.402344,-0.362623,0.677766,93.42,1
13351,0,50697,51865,50430.94,51618.14,266.06,246.86,-0.402355,-0.362633,0.678198,93.41,1
13390,0,50697,51892,50431.47,51618.69,265.53,273.31,-0.402365,-0.362644,0.678631,93.40,1
13430,0,50718,51955,50432.05,51619.36,285.95,335.64,-0.402377,-0.362657,0.679063,93.39,1
13472,0,50744,52008,50432.67,51620.14,311.33,387.86,-0.402389,-0.362672,0.679494,93.37,1
13512,0,50768,52055,50433.34,51621.01,334.66,433.99,-0.402402,-0.362689,0.679923,93.36,1
13551,0,50792,52104,50434.06,51621.98,357.94,482.02,-0.402416,-0.362707,0.680349,93.35,1
13590,0,50808,52155,50434.81,51623.05,373.19,531.95,-0.402431,-0.362728,0.680771,93.34,1
13631,0,50826,52201,50435.60,51624.20,390.40,576.80,-0.402447,-0.362751,0.681187,93.33,1
13674,0,50854,52251,50436.44,51625.46,417.56,625.54,-0.402464,-0.362775,0.681598,93.32,1
13712,0,50877,52297,50437.32,51626.80,439.68,670.20,-0.402481,-0.362801,0.682001,93.31,1
13753,0,50898,52351,50438.24,51628.25,459.76,722.75,-0.402499,-0.362829,0.682395,93.30,1
13791,0,50918,52307,50439.20,51629.61,478.80,677.39,-0.402518,-0.362855,0.682783,93.29,1
13833,0,50840,52051,50440.01,51630.45,399.99,420.55,-0.402534,-0.362872,0.683174,93.28,1
13871,0,50722,51881,50440.57,51630.96,281.43,250.04,-0.402546,-0.362881,0.683567,93.26,1
13913,0,50690,51859,50441.07,51631.41,248.93,227.59,-0.402556,-0.362890,0.683960,93.25,1
13952,0,50688,51844,50441.57,51631.84,246.43,212.16,-0.402565,-0.362898,0.684354,93.24,1
13992,0,50679,51830,50442.05,51632.24,236.95,197.76,-0.402575,-0.362906,0.684749,93.23,1
14028,0,50678,51864,50442.52,51632.70,235.48,231.30,-0.402584,-0.362915,0.685144,93.22,1
14070,0,50702,51915,50443.04,51633.27,258.96,281.73,-0.402594,-0.362926,0.685539,93.21,1
14113,0,50716,51935,50443.59,51633.87,272.41,301.12,-0.402605,-0.362938,0.685934,93.20,1
14153,0,50721,51948,50444.14,51634.50,276.86,313.50,-0.402616,-0.362950,0.686329,93.19,1
14192,0,50735,51997,50444.72,51635.23,290.28,361.77,-0.402628,-0.362964,0.686723,93.18,1
14228,0,50756,52064,50445.35,51636.09,310.65,427.91,-0.402640,-0.362981,0.687114,93.17,1
14272,0,50786,52115,50446.03,51637.05,339.97,477.95,-0.402654,-0.362999,0.687502,93.16,1
14311,0,50813,52172,50446.77,51638.12,366.23,533.88,-0.402668,-0.363020,0.687885,93.15,1
14351,0,50835,52224,50447.54,51639.29,387.46,584.71,-0.402684,-0.363043,0.688263,93.14,1
14391,0,50862,52277,50448.37,51640.57,413.62,636.43,-0.402700,-0.363068,0.688633,93.12,1
14431,0,50889,52328,50449.26,51641.95,439.74,686.05,-0.402718,-0.363094,0.688996,93.11,1
14471,0,50911,52372,50450.18,51643.41,460.82,728.59,-0.402736,-0.363122,0.689349,93.10,1
14511,0,50935,52420,50451.16,51644.96,483.84,775.04,-0.402755,-0.363153,0.689691,93.09,1
14551,0,50953,52477,50452.16,51646.62,500.84,830.37,-0.402775,-0.363185,0.690021,93.08,1
14591,0,50975,52470,50453.21,51648.27,521.79,821.73,-0.402796,-0.363217,0.690340,93.07,1
14631,0,50919,52257,50454.14,51649.49,464.86,607.51,-0.402815,-0.363240,0.690658,93.06,1
14671,0,50804,52070,50454.84,51650.34,349.16,419.66,-0.402828,-0.363257,0.690975,93.05,1
14711,0,50762,52056,50455.46,51651.15,306.54,404.85,-0.402841,-0.363272,0.691292,93.04,1
14753,0,50774,52069,50456.09,51651.98,317.91,417.02,-0.402853,-0.363289,0.691607,93.03,1
14792,0,50774,52060,50456.73,51652.80,317.27,407.20,-0.402866,-0.363304,0.691922,93.02,1
14832,0,50773,52090,50457.36,51653.68,315.64,436.32,-0.402878,-0.363321,0.692234,93.01,1
14873,0,50788,52138,50458.03,51654.64,329.97,483.36,-0.402892,-0.363340,0.692543,93.00,1
14912,0,50807,52160,50458.73,51655.66,348.27,504.34,-0.402905,-0.363360,0.692849,92.99,1
14952,0,50811,52173,50459.43,51656.69,351.57,516.31,-0.402919,-0.363380,0.693152,92.98,1
14992,0,50818,52215,50460.15,51657.81,357.85,557.19,-0.402934,-0.363401,0.693450,92.97,1
15032,0,50843,52277,50460.92,51659.05,382.08,617.95,-0.402949,-0.363425,0.693741,92.96,1
15072,0,50873,52327,50461.74,51660.38,411.26,666.62,-0.402965,-0.363451,0.694024,92.96,1
15113,0,50899,52372,50462.62,51661.81,436.38,710.19,-0.402983,-0.363479,0.694300,92.95,1
15152,0,50919,52416,50463.53,51663.32,455.47,752.68,-0.403001,-0.363508,0.694565,92.94,1
15192,0,50931,52454,50464.47,51664.90,466.53,789.10,-0.403019,-0.363539,0.694821,92.93,1
15233,0,50946,52488,50465.43,51666.55,480.57,821.45,-0.403038,-0.363570,0.695064,92.92,1
15270,0,50970,52527,50466.45,51668.27,503.55,858.73,-0.403058,-0.363604,0.695296,92.91,1
15312,0,50989,52572,50467.49,51670.08,521.51,901.92,-0.403079,-0.363639,0.695514,92.90,1
15352,0,51005,52622,50468.57,51671.98,536.43,950.02,-0.403100,-0.363676,0.695718,92.89,1
15393,0,51015,52569,50469.66,51673.78,545.34,895.22,-0.403122,-0.363710,0.695911,92.88,1
15433,0,50937,52339,50470.60,51675.11,466.40,663.89,-0.403141,-0.363736,0.696102,92.87,1
15473,0,50841,52208,50471.34,51676.18,369.66,531.82,-0.403155,-0.363757,0.696292,92.87,1
15531,0,50818,52210,50472.04,51677.25,345.96,532.75,-0.403169,-0.363778,0.696478,92.86,1
15553,0,50823,52224,50472.74,51678.34,350.26,545.66,-0.403183,-0.363799,0.696661,92.85,1
15594,0,50830,52235,50473.46,51679.46,356.54,555.54,-0.403197,-0.363820,0.696841,92.84,1
15633,0,50837,52286,50474.18,51680.67,362.82,605.33,-0.403212,-0.363844,0.697016,92.83,1
15673,0,50854,52310,50474.95,51681.93,379.05,628.07,-0.403227,-0.363868,0.697186,92.83,1
15713,0,50862,52313,50475.72,51683.20,386.28,629.80,-0.403242,-0.363893,0.697352,92.82,1
15753,0,50869,52329,50476.51,51684.49,392.49,644.51,-0.403258,-0.363918,0.697512,92.81,1
15793,0,50884,52372,50477.33,51685.86,406.67,686.14,-0.403274,-0.363944,0.697666,92.80,1
15833,0,50903,52430,50478.18,51687.35,424.82,742.65,-0.403291,-0.363973,0.697812,92.79,1
15873,0,50925,52480,50479.07,51688.94,445.93,791.06,-0.403309,-0.364004,0.697950,92.79,1
15913,0,50949,52514,50480.02,51690.59,468.98,823.41,-0.403327,-0.364036,0.698078,92.78,1
15954,0,50961,52552,50480.98,51692.31,480.02,859.69,-0.403346,-0.364069,0.698196,92.77,1
15994,0,50974,52595,50481.97,51694.12,492.03,900.88,-0.403366,-0.364104,0.698303,92.77,1
16034,0,50996,52629,50483.00,51695.99,513.00,933.01,-0.403386,-0.364140,0.698398,92.76,1
16074,0,51010,52662,50484.05,51697.93,525.95,964.07,-0.403407,-0.364178,0.698481,92.75,1
16114,0,51028,52700,50485.14,51699.93,542.86,1000.07,-0.403429,-0.364216,0.698551,92.75,1
16155,0,51039,52752,50486.25,51702.04,552.75,1049.96,-0.403451,-0.364257,0.698606,92.74,1
16195,0,51053,52713,50487.39,51704.06,565.61,1008.94,-0.403473,-0.364296,0.698651,92.73,1
16234,0,50979,52470,50488.37,51705.59,490.62,764.41,-0.403493,-0.364326,0.698693,92.73,1
16274,0,50860,52271,50489.12,51706.73,370.88,564.27,-0.403508,-0.364348,0.698734,92.72,1
16315,0,50811,52236,50489.77,51707.79,321.23,528.21,-0.403520,-0.364368,0.698773,92.72,1
16355,0,50817,52243,50490.42,51708.86,326.58,534.14,-0.403533,-0.364389,0.698810,92.71,1
16394,0,50819,52230,50491.08,51709.90,327.92,520.10,-0.403546,-0.364409,0.698846,92.71,1
16434,0,50810,52246,50491.72,51710.97,318.28,535.03,-0.403559,-0.364430,0.698879,92.70,1
16474,0,50828,52279,50492.40,51712.11,335.60,566.89,-0.403572,-0.364452,0.698910,92.69,1
16514,0,50832,52288,50493.08,51713.26,338.92,574.74,-0.403586,-0.364474,0.698938,92.69,1
16554,0,50836,52291,50493.77,51714.42,342.23,576.58,-0.403600,-0.364497,0.698964,92.68,1
16592,0,50840,52321,50494.46,51715.63,345.54,605.37,-0.403613,-0.364520,0.698986,92.68,1
16634,0,50859,52377,50495.19,51716.96,363.81,660.04,-0.403628,-0.364546,0.699004,92.68,1
16675,0,50884,52433,50495.97,51718.39,388.03,714.61,-0.403643,-0.364573,0.699016,92.67,1
16715,0,50906,52476,50496.79,51719.91,409.21,756.09,-0.403659,-0.364603,0.699022,92.67,1
16755,0,50921,52518,50497.64,51721.50,423.36,796.50,-0.403676,-0.364634,0.699021,92.66,1
16796,0,50936,52561,50498.52,51723.18,437.48,837.82,-0.403694,-0.364666,0.699012,92.66,1
16836,0,50957,52600,50499.44,51724.94,457.56,875.06,-0.403712,-0.364700,0.698995,92.65,1
16876,0,50977,52645,50500.39,51726.78,476.61,918.22,-0.403731,-0.364736,0.698968,92.65,1
16916,0,50995,52694,50501.39,51728.71,493.61,965.29,-0.403751,-0.364773,0.698931,92.65,1
16956,0,51014,52743,50502.41,51730.75,511.59,1012.25,-0.403771,-0.364812,0.698883,92.64,1
16996,0,51040,52743,50503.49,51732.77,536.51,1010.23,-0.403792,-0.364851,0.698826,92.64,1
17035,0,50985,52505,50504.46,51734.32,480.54,770.68,-0.403811,-0.364881,0.698767,92.64,1
17076,0,50850,52236,50505.15,51735.32,344.85,500.68,-0.403825,-0.364901,0.698708,92.63,1
17116,0,50767,52155,50505.67,51736.16,261.33,418.84,-0.403835,-0.364917,0.698650,92.63,1
17155,0,50764,52157,50506.19,51737.01,257.81,419.99,-0.403846,-0.364933,0.698591,92.63,1
17195,0,50762,52139,50506.70,51737.81,255.30,401.19,-0.403856,-0.364949,0.698532,92.62,1
17235,0,50747,52147,50507.18,51738.63,239.82,408.37,-0.403865,-0.364965,0.698472,92.62,1
17276,0,50764,52194,50507.70,51739.54,256.30,454.46,-0.403875,-0.364982,0.698411,92.62,1
17317,0,50774,52208,50508.23,51740.48,265.77,467.52,-0.403886,-0.365000,0.698348,92.62,1
17356,0,50778,52206,50508.77,51741.41,269.23,464.59,-0.403897,-0.365018,0.698285,92.62,1
17396,0,50777,52233,50509.31,51742.40,267.69,490.60,-0.403907,-0.365037,0.698219,92.61,1
17437,0,50796,52292,50509.89,51743.50,286.11,548.50,-0.403919,-0.365059,0.698151,92.61,1
17476,0,50831,52354,50510.53,51744.72,320.47,609.28,-0.403932,-0.365082,0.698080,92.61,1
17516,0,50861,52412,50511.23,51746.06,349.77,665.94,-0.403945,-0.365108,0.698005,92.61,1
17556,0,50885,52465,50511.98,51747.50,373.02,717.50,-0.403960,-0.365136,0.697925,92.61,1
17596,0,50912,52521,50512.79,51749.04,399.21,771.96,-0.403976,-0.365166,0.697839,92.60,1
17668,0,50940,52556,50513.64,51750.66,426.36,805.34,-0.403993,-0.365197,0.697748,92.60,1
17676,0,50961,52604,50514.54,51752.37,446.46,851.63,-0.404011,-0.365230,0.697651,92.60,1
17716,0,50981,52653,50515.47,51754.17,465.53,898.83,-0.404029,-0.365265,0.697547,92.60,1
17756,0,51001,52697,50516.44,51756.05,484.56,940.95,-0.404049,-0.365301,0.697436,92.60,1
17796,0,51022,52741,50517.45,51758.03,504.55,982.97,-0.404069,-0.365339,0.697316,92.60,1
17836,0,51029,52630,50518.48,51759.77,510.52,870.23,-0.404089,-0.365373,0.697194,92.60,1
17876,0,50910,52311,50519.26,51760.88,390.74,550.12,-0.404104,-0.365395,0.697074,92.60,1
17918,0,50774,52110,50519.77,51761.58,254.23,348.42,-0.404115,-0.365408,0.696955,92.60,1
17957,0,50741,52102,50520.22,51762.26,220.78,339.74,-0.404123,-0.365421,0.696837,92.60,1
17997,0,50752,52120,50520.68,51762.98,231.32,357.02,-0.404133,-0.365435,0.696718,92.60,1
18037,0,50749,52120,50521.14,51763.70,227.86,356.30,-0.404142,-0.365449,0.696601,92.59,1
18077,0,50748,52152,50521.59,51764.47,226.41,387.53,-0.404151,-0.365464,0.696483,92.59,1
18117,0,50771,52184,50522.09,51765.31,248.91,418.69,-0.404160,-0.365480,0.696364,92.59,1
18158,0,50778,52189,50522.61,51766.16,255.39,422.84,-0.404171,-0.365497,0.696246,92.59,1
18197,0,50778,52209,50523.12,51767.05,254.88,441.95,-0.404181,-0.365514,0.696127,92.59,1
18238,0,50798,52259,50523.67,51768.03,274.33,490.97,-0.404192,-0.365533,0.696007,92.59,1
18278,0,50832,52324,50524.29,51769.14,307.71,554.86,-0.404204,-0.365554,0.695885,92.59,1
18318,0,50865,52382,50524.97,51770.37,340.03,611.63,-0.404217,-0.365578,0.695762,92.60,1
18357,0,50887,52429,50525.70,51771.69,361.30,657.31,-0.404232,-0.365603,0.695636,92.60,1
18398,0,50907,52470,50526.46,51773.09,380.54,696.91,-0.404247,-0.365630,0.695507,92.60,1
18437,0,50929,52507,50527.27,51774.56,401.73,732.44,-0.404263,-0.365659,0.695376,92.60,1
18477,0,50949,52549,50528.11,51776.11,420.89,772.89,-0.404280,-0.365689,0.695240,92.60,1
18517,0,50963,52583,50528.98,51777.72,434.02,805.28,-0.404297,-0.365720,0.695101,92.60,1
18558,0,50977,52633,50529.88,51779.43,447.12,853.57,-0.404315,-0.365753,0.694957,92.60,1
18598,0,51003,52649,50530.83,51781.18,472.17,867.82,-0.404333,-0.365787,0.694808,92.60,1
18639,0,50956,52421,50531.68,51782.46,424.32,638.54,-0.404350,-0.365811,0.694661,92.60,1
18678,0,50819,52128,50532.25,51783.15,286.75,344.85,-0.404361,-0.365825,0.694517,92.60,1
18718,0,50728,52058,50532.65,51783.70,195.35,274.30,-0.404369,-0.365835,0.694373,92.60,1
18758,0,50734,52093,50533.05,51784.32,200.95,308.68,-0.404377,-0.365847,0.694231,92.60,1
18799,0,50759,52130,50533.50,51785.01,225.50,344.99,-0.404386,-0.365861,0.694088,92.61,1
18838,0,50772,52171,50533.98,51785.79,238.02,385.21,-0.404396,-0.365876,0.693946,92.61,1
18880,0,50791,52211,50534.50,51786.64,256.50,424.36,-0.404406,-0.365892,0.693805,92.61,1
18918,0,50806,52216,50535.04,51787.50,270.96,428.50,-0.404417,-0.365909,0.693663,92.61,1
18958,0,50806,52213,50535.58,51788.35,270.42,424.65,-0.404427,-0.365925,0.693522,92.61,1
18999,0,50812,52258,50536.14,51789.29,275.86,468.71,-0.404438,-0.365943,0.693381,92.61,1
19038,0,50846,52330,50536.76,51790.37,309.24,539.63,-0.404451,-0.365964,0.693239,92.61,1
19078,0,50876,52392,50537.44,51791.57,338.56,600.43,-0.404464,-0.365987,0.693096,92.62,1
19119,0,50901,52446,50538.16,51792.88,362.84,653.12,-0.404479,-0.366013,0.692950,92.62,1
19158,0,50925,52491,50538.94,51794.28,386.06,696.72,-0.404494,-0.366040,0.692803,92.62,1
19200,0,50943,52530,50539.75,51795.75,403.25,734.25,-0.404510,-0.366068,0.692652,92.62,1
19239,0,50957,52563,50540.58,51797.29,416.42,765.71,-0.404526,-0.366098,0.692499,92.62,1
19279,0,50973,52602,50541.45,51798.90,431.55,803.10,-0.404544,-0.366129,0.692342,92.63,1
19319,0,50986,52650,50542.34,51800.60,443.66,849.40,-0.404561,-0.366162,0.692180,92.63,1
19359,0,51013,52703,50543.28,51802.41,469.72,900.59,-0.404580,-0.366197,0.692012,92.63,1
19399,0,51008,52562,50544.21,51803.93,463.79,758.07,-0.404598,-0.366226,0.691845,92.63,1
19439,0,50886,52218,50544.89,51804.75,341.11,413.25,-0.404612,-0.366242,0.691682,92.63,1
19479,0,50743,52030,50545.29,51805.21,197.71,224.79,-0.404620,-0.366251,0.691520,92.64,1
19520,0,50720,52041,50545.64,51805.68,174.36,235.32,-0.404626,-0.366260,0.691359,92.64,1
19559,0,50744,52064,50546.04,51806.20,197.96,257.80,-0.404634,-0.366270,0.691200,92.64,1
19599,0,50747,52060,50546.45,51806.71,200.55,253.29,-0.404642,-0.366280,0.691042,92.64,1
19639,0,50753,52108,50546.86,51807.31,206.14,300.69,-0.404651,-0.366291,0.690885,92.65,1
19679,0,50772,52153,50547.31,51808.00,224.69,345.00,-0.404659,-0.366305,0.690729,92.65,1
19719,0,50786,52151,50547.79,51808.69,238.21,342.31,-0.404669,-0.366318,0.690574,92.65,1
19759,0,50789,52171,50548.28,51809.42,240.72,361.58,-0.404679,-0.366332,0.690420,92.65,1
19799,0,50804,52221,50548.79,51810.24,255.21,410.76,-0.404689,-0.366348,0.690266,92.66,1
19839,0,50831,52293,50549.36,51811.21,281.64,481.79,-0.404700,-0.366366,0.690113,92.66,1
19881,0,50860,52342,50549.98,51812.27,310.02,529.73,-0.404712,-0.366387,0.689958,92.66,1
19919,0,50879,52386,50550.64,51813.42,328.36,572.58,-0.404725,-0.366409,0.689803,92.67,1
19960,0,50894,52429,50551.32,51814.66,342.68,614.34,-0.404739,-0.366433,0.689647,92.67,1
19998,0,50911,52474,50552.04,51815.98,358.96,658.02,-0.404753,-0.366458,0.689488,92.67,1
20041,0,50932,52506,50552.80,51817.36,379.20,688.64,-0.404768,-0.366485,0.689327,92.67,1
20080,0,50948,52546,50553.60,51818.82,394.40,727.18,-0.404784,-0.366513,0.689164,92.68,1
20121,0,50964,52587,50554.42,51820.36,409.58,766.64,-0.404800,-0.366543,0.688997,92.68,1
20160,0,50989,52628,50555.29,51821.97,433.71,806.03,-0.404817,-0.366574,0.688827,92.68,1
20200,0,50967,52411,50556.11,51823.15,410.89,587.85,-0.404834,-0.366597,0.688660,92.69,1
20239,0,50815,52034,50556.63,51823.57,258.37,210.43,-0.404844,-0.366605,0.688497,92.69,1
20278,0,50681,51878,50556.88,51823.68,124.12,54.32,-0.404849,-0.366607,0.688335,92.69,1
20317,0,50659,51879,50557.09,51823.80,101.91,55.20,-0.404853,-0.366609,0.688174,92.70,1
20360,0,50656,51865,50557.29,51823.88,98.71,41.12,-0.404857,-0.366611,0.688014,92.70,1
20400,0,50644,51852,50557.46,51823.94,86.54,28.06,-0.404860,-0.366612,0.687855,92.70,1
20440,0,50650,51905,50557.65,51824.10,92.35,80.90,-0.404864,-0.366615,0.687697,92.70,1
20482,0,50678,51951,50557.89,51824.36,120.11,126.64,-0.404869,-0.366620,0.687541,92.71,1
20521,0,50684,51957,50558.15,51824.62,125.85,132.38,-0.404874,-0.366625,0.687385,92.71,1
20561,0,50688,51985,50558.41,51824.94,129.59,160.06,-0.404879,-0.366631,0.687230,92.71,1
20601,0,50708,52054,50558.71,51825.40,149.29,228.60,-0.404885,-0.366640,0.687076,92.72,1
20641,0,50743,52134,50559.08,51826.02,183.92,307.98,-0.404892,-0.366652,0.686922,92.72,1
20682,0,50777,52199,50559.52,51826.77,217.48,372.23,-0.404901,-0.366667,0.686769,92.72,1
20721,0,50803,52255,50560.01,51827.62,242.99,427.37,-0.404911,-0.366683,0.686614,92.73,1
20762,0,50830,52308,50560.55,51828.59,269.45,479.41,-0.404921,-0.366702,0.686460,92.73,1
20801,0,50853,52356,50561.14,51829.64,291.86,526.36,-0.404933,-0.366722,0.686304,92.73,1
20841,0,50879,52402,50561.77,51830.79,317.23,571.21,-0.404946,-0.366744,0.686147,92.74,1
20882,0,50905,52440,50562.46,51832.00,342.54,608.00,-0.404959,-0.366768,0.685988,92.74,1
20920,0,50923,52485,50563.18,51833.31,359.82,651.69,-0.404973,-0.366793,0.685828,92.74,1
20962,0,50944,52542,50563.95,51834.73,380.05,707.27,-0.404988,-0.366820,0.685664,92.75,1
21001,0,50955,52430,50564.73,51835.92,390.27,594.08,-0.405004,-0.366843,0.685503,92.75,1
21041,0,50827,52048,50565.26,51836.35,261.74,211.65,-0.405014,-0.366852,0.685346,92.75,1
21083,0,50661,51803,50565.45,51836.28,95.55,-33.28,-0.405018,-0.366850,0.685190,92.76,1
21122,0,50614,51790,50565.55,51836.19,48.45,-46.19,-0.405020,-0.366848,0.685034,92.76,1
21162,0,50619,51795,50565.66,51836.11,53.34,-41.11,-0.405022,-0.366847,0.684879,92.77,1
21203,0,50609,51779,50565.75,51836.00,43.25,-57.00,-0.405024,-0.366845,0.684725,92.77,1
21243,0,50613,51823,50565.84,51835.97,47.16,-12.97,-0.405026,-0.366844,0.684571,92.77,1
21284,0,50640,51890,50565.99,51836.08,74.01,53.92,-0.405029,-0.366846,0.684418,92.78,1
21323,0,50654,51906,50566.17,51836.22,87.83,69.78,-0.405032,-0.366849,0.684266,92.78,1
21363,0,50664,51921,50566.36,51836.39,97.64,84.61,-0.405036,-0.366852,0.684115,92.78,1
21403,0,50678,51988,50566.59,51836.70,111.41,151.30,-0.405041,-0.366858,0.683965,92.79,1
21443,0,50717,52068,50566.89,51837.16,150.11,230.84,-0.405047,-0.366867,0.683816,92.79,1
21483,0,50751,52143,50567.26,51837.78,183.74,305.22,-0.405054,-0.366879,0.683666,92.79,1
21543,0,50789,52201,50567.70,51838.50,221.30,362.50,-0.405063,-0.366893,0.683518,92.80,1
21564,0,50816,52249,50568.20,51839.33,247.80,409.67,-0.405073,-0.366909,0.683369,92.80,1
21601,0,50839,52294,50568.74,51840.24,270.26,453.76,-0.405083,-0.366927,0.683220,92.80,1
21640,0,50858,52340,50569.32,51841.24,288.68,498.76,-0.405095,-0.366946,0.683071,92.81,1
21683,0,50885,52388,50569.95,51842.33,315.05,545.67,-0.405107,-0.366967,0.682921,92.81,1
21723,0,50904,52439,50570.62,51843.53,333.38,595.47,-0.405121,-0.366990,0.682769,92.81,1
21762,0,50929,52501,50571.34,51844.84,357.66,656.16,-0.405135,-0.367015,0.682615,92.82,1
21802,0,50926,52358,50572.05,51845.87,353.95,512.13,-0.405149,-0.367035,0.682464,92.82,1
21845,0,50797,52017,50572.50,51846.21,224.50,170.79,-0.405158,-0.367042,0.682316,92.83,1
21882,0,50671,51848,50572.70,51846.22,98.30,1.78,-0.405162,-0.367042,0.682170,92.83,1
21924,0,50645,51889,50572.85,51846.30,72.15,42.70,-0.405164,-0.367044,0.682024,92.83,1
21964,0,50674,51929,50573.05,51846.47,100.95,82.53,-0.405169,-0.367047,0.681880,92.84,1
22004,0,50678,51954,50573.26,51846.69,104.74,107.31,-0.405173,-0.367051,0.681736,92.84,1
22045,0,50705,52024,50573.53,51847.04,131.47,176.96,-0.405178,-0.367058,0.681594,92.84,1
22084,0,50730,52063,50573.84,51847.48,156.16,215.52,-0.405184,-0.367066,0.681452,92.85,1
22124,0,50734,52065,50574.16,51847.91,159.84,217.09,-0.405190,-0.367075,0.681312,92.85,1
22164,0,50744,52097,50574.50,51848.41,169.50,248.59,-0.405197,-0.367084,0.681172,92.85,1
22205,0,50770,52160,50574.89,51849.04,195.11,310.96,-0.405205,-0.367096,0.681033,92.86,1
22244,0,50799,52232,50575.34,51849.80,223.66,382.20,-0.405214,-0.367111,0.680894,92.86,1
22285,0,50833,52299,50575.86,51850.70,257.14,448.30,-0.405224,-0.367128,0.680754,92.87,1
22324,0,50861,52348,50576.43,51851.70,284.57,496.30,-0.405235,-0.367148,0.680614,92.87,1
22364,0,50883,52390,50577.04,51852.78,305.96,537.22,-0.405247,-0.367168,0.680472,92.87,1
22405,0,50897,52428,50577.68,51853.93,319.32,574.07,-0.405260,-0.367191,0.680329,92.88,1
22445,0,50915,52479,50578.36,51855.18,336.64,623.82,-0.405273,-0.367215,0.680183,92.88,1
22485,0,50930,52528,50579.06,51856.53,350.94,671.47,-0.405287,-0.367241,0.680032,92.88,1
22525,0,50960,52576,50579.82,51857.97,380.18,718.03,-0.405302,-0.367269,0.679878,92.89,1
22565,0,50945,52398,50580.55,51859.05,364.45,538.95,-0.405317,-0.367289,0.679727,92.89,1
22606,0,50798,52061,50580.99,51859.46,217.01,201.54,-0.405325,-0.367297,0.679579,92.89,1
22648,0,50680,51927,50581.19,51859.59,98.81,67.41,-0.405329,-0.367300,0.679432,92.90,1
22686,0,50669,51960,50581.36,51859.80,87.64,100.20,-0.405333,-0.367304,0.679286,92.90,1
22725,0,50685,51991,50581.57,51860.06,103.43,130.94,-0.405337,-0.367309,0.679140,92.90,1
22764,0,50692,52048,50581.79,51860.44,110.21,187.56,-0.405341,-0.367316,0.678995,92.91,1
22806,0,50737,52141,50582.11,51861.00,154.89,280.00,-0.405348,-0.367327,0.678850,92.91,1
22845,0,50770,52176,50582.48,51861.64,187.52,314.36,-0.405355,-0.367339,0.678706,92.92,1
22886,0,50776,52184,50582.87,51862.28,193.13,321.72,-0.405363,-0.367352,0.678561,92.92,1
22926,0,50778,52214,50583.26,51862.98,194.74,351.02,-0.405370,-0.367365,0.678416,92.92,1
22965,0,50805,52280,50583.71,51863.82,221.29,416.18,-0.405379,-0.367381,0.678270,92.93,1
23005,0,50839,52352,50584.22,51864.80,254.78,487.20,-0.405389,-0.367400,0.678122,92.93,1
23045,0,50869,52410,50584.79,51865.89,284.21,544.11,-0.405401,-0.367421,0.677971,92.93,1
23086,0,50891,52458,50585.40,51867.07,305.60,590.93,-0.405413,-0.367444,0.677818,92.94,1
23126,0,50911,52496,50586.05,51868.33,324.95,627.67,-0.405426,-0.367468,0.677660,92.94,1
23167,0,50924,52528,50586.73,51869.65,337.27,658.35,-0.405439,-0.367494,0.677499,92.94,1
23207,0,50939,52568,50587.44,51871.05,351.56,696.95,-0.405453,-0.367521,0.677333,92.95,1
23246,0,50955,52617,50588.18,51872.54,366.82,744.46,-0.405468,-0.367550,0.677160,92.95,1
23286,0,50986,52670,50588.97,51874.14,397.03,795.86,-0.405483,-0.367580,0.676982,92.96,1
23327,0,50998,52583,50589.79,51875.56,408.21,707.44,-0.405500,-0.367608,0.676802,92.96,1
23366,0,50877,52226,50590.37,51876.26,286.63,349.74,-0.405511,-0.367621,0.676627,92.96,1
23407,0,50710,51968,50590.61,51876.45,119.39,91.55,-0.405516,-0.367625,0.676453,92.97,1
23446,0,50660,51932,50590.75,51876.56,69.25,55.44,-0.405518,-0.367627,0.676280,92.97,1
23486,0,50665,51927,50590.90,51876.66,74.10,50.34,-0.405521,-0.367629,0.676108,92.97,1
23526,0,50649,51901,50591.02,51876.71,57.98,24.29,-0.405524,-0.367630,0.675936,92.98,1
23566,0,50645,51945,50591.12,51876.85,53.88,68.15,-0.405526,-0.367633,0.675766,92.98,1
23607,0,50682,52007,50591.31,51877.11,90.69,129.89,-0.405529,-0.367638,0.675596,92.99,1
23648,0,50697,52027,50591.52,51877.41,105.48,149.59,-0.405534,-0.367643,0.675427,92.99,1
23687,0,50700,52038,50591.74,51877.73,108.26,160.27,-0.405538,-0.367650,0.675259,92.99,1
23727,0,50707,52087,50591.97,51878.15,115.03,208.85,-0.405543,-0.367658,0.675090,93.00,1
23768,0,50735,52165,50592.26,51878.73,142.74,286.27,-0.405548,-0.367669,0.674922,93.00,1
23807,0,50773,52229,50592.62,51879.43,180.38,349.57,-0.405555,-0.367682,0.674753,93.01,1
23850,0,50802,52289,50593.04,51880.25,208.96,408.75,-0.405564,-0.367698,0.674582,93.01,1
23888,0,50817,52343,50593.49,51881.18,223.51,461.82,-0.405573,-0.367716,0.674409,93.01,1
23927,0,50842,52387,50593.99,51882.19,248.01,504.81,-0.405583,-0.367735,0.674234,93.02,1
23967,0,50866,52434,50594.54,51883.29,271.46,550.71,-0.405593,-0.367757,0.674055,93.02,1
24008,0,50887,52485,50595.12,51884.50,291.87,600.50,-0.405605,-0.367780,0.673872,93.03,1
24048,0,50907,52535,50595.75,51885.80,311.25,649.20,-0.405617,-0.367805,0.673684,93.03,1
24088,0,50938,52591,50596.44,51887.21,341.56,703.79,-0.405631,-0.367832,0.673491,93.03,1
24127,0,50940,52435,50597.12,51888.30,342.87,546.70,-0.405644,-0.367853,0.673300,93.04,1
24178,0,50793,52040,50597.52,51888.61,195.48,151.39,-0.405652,-0.367859,0.673112,93.04,1
24228,0,50630,51825,50597.59,51888.48,32.41,-63.48,-0.405654,-0.367857,0.672925,93.05,1
24248,0,50591,51807,50597.57,51888.32,-6.57,-81.32,-0.405653,-0.367854,0.672738,93.05,1
24288,0,50593,51801,50597.57,51888.15,-4.57,-87.15,-0.405653,-0.367850,0.672551,93.05,1
24329,0,50578,51779,50597.53,51887.93,-19.53,-108.93,-0.405652,-0.367846,0.672365,93.06,1
24366,0,50578,51835,50597.49,51887.83,-19.49,-52.83,-0.405652,-0.367844,0.672179,93.06,1
24407,0,50613,51900,50597.52,51887.86,15.48,12.14,-0.405652,-0.367845,0.671993,93.07,1
24448,0,50631,51909,50597.59,51887.90,33.41,21.10,-0.405654,-0.367845,0.671808,93.07,1
24489,0,50635,51935,50597.66,51887.99,37.34,47.01,-0.405655,-0.367847,0.671624,93.07,1
24529,0,50644,51998,50597.75,51888.21,46.25,109.79,-0.405657,-0.367852,0.671440,93.08,1
24569,0,50681,52080,50597.92,51888.60,83.08,191.40,-0.405660,-0.367859,0.671256,93.08,1
24608,0,50722,52161,50598.17,51889.15,123.83,271.85,-0.405665,-0.367870,0.671072,93.09,1
24650,0,50754,52225,50598.48,51889.82,155.52,335.18,-0.405671,-0.367883,0.670886,93.09,1
24688,0,50781,52279,50598.85,51890.60,182.15,388.40,-0.405679,-0.367898,0.670698,93.10,1
24729,0,50806,52333,50599.27,51891.49,206.73,441.51,-0.405687,-0.367915,0.670508,93.10,1
24768,0,50834,52377,50599.74,51892.46,234.26,484.54,-0.405696,-0.367933,0.670315,93.10,1
24810,0,50851,52420,50600.24,51893.52,250.76,526.48,-0.405706,-0.367954,0.670119,93.11,1
24849,0,50876,52469,50600.80,51894.67,275.20,574.33,-0.405717,-0.367976,0.669919,93.11,1
24888,0,50897,52524,50601.39,51895.93,295.61,628.07,-0.405729,-0.368000,0.669714,93.12,1
24925,0,50919,52459,50602.03,51897.06,316.97,561.94,-0.405741,-0.368022,0.669509,93.12,1
24969,0,50801,52089,50602.43,51897.45,198.57,191.55,-0.405749,-0.368030,0.669307,93.13,1
25008,0,50616,51802,50602.45,51897.25,13.55,-95.25,-0.405750,-0.368026,0.669106,93.13,1
25050,0,50553,51772,50602.36,51897.00,-49.36,-125.00,-0.405748,-0.368021,0.668905,93.13,1
25089,0,50570,51811,50602.29,51896.83,-32.29,-85.83,-0.405747,-0.368018,0.668704,93.14,1
25130,0,50579,51816,50602.25,51896.67,-23.25,-80.67,-0.405746,-0.368015,0.668504,93.14,1
25169,0,50581,51863,50602.20,51896.61,-21.20,-33.61,-0.405745,-0.368013,0.668304,93.15,1
25210,0,50610,51919,50602.22,51896.65,7.78,22.35,-0.405745,-0.368014,0.668105,93.15,1
25251,0,50627,51924,50602.27,51896.71,24.73,27.29,-0.405746,-0.368015,0.667906,93.16,1
25290,0,50624,51934,50602.31,51896.78,21.69,37.22,-0.405747,-0.368017,0.667708,93.16,1
25329,0,50638,51996,50602.39,51896.98,35.61,99.02,-0.405748,-0.368021,0.667511,93.17,1
25369,0,50672,52079,50602.53,51897.35,69.47,181.65,-0.405751,-0.368028,0.667313,93.17,1
25409,0,50719,52154,50602.76,51897.86,116.24,256.14,-0.405756,-0.368037,0.667115,93.17,1
25450,0,50754,52214,50603.07,51898.50,150.93,315.50,-0.405762,-0.368050,0.666915,93.18,1
25489,0,50779,52264,50603.42,51899.23,175.58,364.77,-0.405769,-0.368064,0.666715,93.18,1
25530,0,50798,52308,50603.81,51900.05,194.19,407.95,-0.405777,-0.368080,0.666512,93.19,1
25569,0,50817,52344,50604.23,51900.94,212.77,443.06,-0.405785,-0.368097,0.666308,93.19,1
25612,0,50836,52396,50604.70,51901.93,231.30,494.07,-0.405794,-0.368116,0.666100,93.20,1
25649,0,50859,52451,50605.21,51903.03,253.79,547.97,-0.405804,-0.368137,0.665887,93.20,1
25690,0,50886,52471,50605.77,51904.16,280.23,566.84,-0.405815,-0.368159,0.665672,93.21,1
25731,0,50838,52196,50606.24,51904.75,231.76,291.25,-0.405825,-0.368170,0.665461,93.21,1
25771,0,50660,51847,50606.35,51904.64,53.65,-57.64,-0.405827,-0.368168,0.665250,93.22,1
25811,0,50547,51753,50606.23,51904.34,-59.23,-151.34,-0.405824,-0.368162,0.665039,93.22,1
25851,0,50549,51794,50606.12,51904.12,-57.12,-110.12,-0.405822,-0.368158,0.664829,93.23,1
25890,0,50569,51804,50606.04,51903.92,-37.04,-99.92,-0.405821,-0.368154,0.664620,93.23,1
25931,0,50576,51846,50605.98,51903.80,-29.98,-57.80,-0.405820,-0.368152,0.664411,93.24,1
25970,0,50598,51915,50605.97,51903.83,-7.97,11.17,-0.405819,-0.368152,0.664202,93.24,1
26011,0,50622,51942,50606.00,51903.91,16.00,38.09,-0.405820,-0.368154,0.663995,93.25,1
26050,0,50628,51948,50606.05,51904.00,21.95,44.00,-0.405821,-0.368156,0.663787,93.25,1
26091,0,50644,51990,50606.13,51904.17,37.87,85.83,-0.405822,-0.368159,0.663581,93.25,1
26131,0,50672,52070,50606.26,51904.50,65.74,165.50,-0.405825,-0.368165,0.663374,93.26,1
26171,0,50709,52148,50606.47,51904.99,102.53,243.01,-0.405829,-0.368175,0.663166,93.26,1
26210,0,50747,52207,50606.75,51905.59,140.25,301.41,-0.405835,-0.368187,0.662958,93.27,1
26251,0,50769,52264,50607.07,51906.31,161.93,357.69,-0.405841,-0.368200,0.662747,93.27,1
26290,0,50792,52311,50607.45,51907.12,184.55,403.87,-0.405848,-0.368216,0.662535,93.28,1
26332,0,50810,52352,50607.85,51908.02,202.15,443.98,-0.405856,-0.368233,0.662319,93.28,1
26372,0,50829,52397,50608.30,51909.00,220.70,488.00,-0.405865,-0.368252,0.662100,93.29,1
26413,0,50851,52445,50608.79,51910.07,242.21,534.93,-0.405875,-0.368273,0.661875,93.29,1
26451,0,50872,52508,50609.31,51911.27,262.69,596.73,-0.405885,-0.368296,0.661645,93.30,1
26491,0,50885,52418,50609.86,51912.28,275.14,505.72,-0.405896,-0.368315,0.661415,93.30,1
26532,0,50761,52012,50610.17,51912.48,150.83,99.52,-0.405902,-0.368319,0.661187,93.31,1
26571,0,50571,51727,50610.09,51912.11,-39.09,-185.11,-0.405901,-0.368312,0.660959,93.31,1
26611,0,50506,51693,50609.88,51911.67,-103.88,-218.67,-0.405897,-0.368304,0.660732,93.32,1
26648,0,50516,51718,50609.70,51911.29,-93.70,-193.29,-0.405893,-0.368296,0.660504,93.32,1
26691,0,50519,51715,50609.52,51910.89,-90.52,-195.89,-0.405889,-0.368289,0.660276,93.33,1
26731,0,50527,51759,50609.35,51910.59,-82.35,-151.59,-0.405886,-0.368283,0.660049,93.33,1
26772,0,50561,51829,50609.26,51910.43,-48.26,-81.43,-0.405884,-0.368280,0.659822,93.34,1
26812,0,50577,51859,50609.20,51910.33,-32.20,-51.33,-0.405883,-0.368278,0.659597,93.34,1
26852,0,50589,51875,50609.16,51910.26,-20.16,-35.26,-0.405882,-0.368276,0.659372,93.35,1
26892,0,50602,51939,50609.14,51910.32,-7.14,28.68,-0.405882,-0.368278,0.659147,93.35,1
26932,0,50637,52027,50609.20,51910.55,27.80,116.45,-0.405883,-0.368282,0.658923,93.36,1
26974,0,50677,52101,50609.34,51910.94,67.66,190.06,-0.405886,-0.368289,0.658698,93.36,1
27014,0,50709,52161,50609.54,51911.44,99.46,249.56,-0.405890,-0.368299,0.658472,93.37,1
27054,0,50734,52213,50609.79,51912.04,124.21,300.96,-0.405895,-0.368311,0.658245,93.38,1
27091,0,50753,52262,50610.08,51912.75,142.92,349.25,-0.405900,-0.368324,0.658015,93.38,1
27133,0,50773,52318,50610.41,51913.56,162.59,404.44,-0.405907,-0.368340,0.657782,93.39,1
27171,0,50796,52359,50610.78,51914.45,185.22,444.55,-0.405914,-0.368357,0.657544,93.39,1
27215,0,50825,52419,50611.21,51915.46,213.79,503.54,-0.405923,-0.368377,0.657302,93.40,1
27253,0,50849,52483,50611.68,51916.60,237.32,566.40,-0.405932,-0.368398,0.657052,93.40,1
27291,0,50858,52358,50612.18,51917.48,245.82,440.52,-0.405942,-0.368415,0.656804,93.41,1
27332,0,50714,51934,50612.38,51917.52,101.62,16.48,-0.405946,-0.368416,0.656558,93.41,1
27372,0,50533,51664,50612.22,51917.01,-79.22,-253.01,-0.405943,-0.368406,0.656310,93.42,1
27412,0,50471,51627,50611.94,51916.43,-140.94,-289.43,-0.405937,-0.368395,0.656062,93.42,1
27453,0,50474,51635,50611.67,51915.87,-137.67,-280.87,-0.405932,-0.368384,0.655814,93.43,1
27493,0,50466,51619,50611.38,51915.28,-145.38,-296.28,-0.405926,-0.368373,0.655565,93.43,1
27532,0,50468,51663,50611.09,51914.77,-143.09,-251.77,-0.405921,-0.368363,0.655318,93.44,1
27573,0,50497,51724,50610.87,51914.39,-113.87,-190.39,-0.405916,-0.368356,0.655071,93.45,1
27611,0,50515,51740,50610.68,51914.05,-95.68,-174.05,-0.405912,-0.368349,0.654825,93.45,1
27650,0,50513,51750,50610.48,51913.72,-97.48,-163.72,-0.405908,-0.368343,0.654580,93.46,1
27693,0,50530,51811,50610.32,51913.52,-80.32,-102.52,-0.405905,-0.368339,0.654336,93.46,1
27732,0,50566,51895,50610.23,51913.48,-44.23,-18.48,-0.405904,-0.368338,0.654094,93.47,1
27772,0,50599,51965,50610.21,51913.59,-11.21,51.41,-0.405903,-0.368340,0.653851,93.47,1
27812,0,50626,52025,50610.25,51913.81,15.75,111.19,-0.405904,-0.368345,0.653609,93.48,1
27852,0,50658,52078,50610.34,51914.14,47.66,163.86,-0.405906,-0.368351,0.653367,93.48,1
27892,0,50677,52122,50610.48,51914.55,66.52,207.45,-0.405908,-0.368359,0.653124,93.49,1
27933,0,50701,52163,50610.66,51915.05,90.34,247.95,-0.405912,-0.368369,0.652879,93.50,1
27972,0,50720,52206,50610.88,51915.64,109.12,290.36,-0.405916,-0.368380,0.652632,93.50,1
28012,0,50753,52261,50611.16,51916.33,141.84,344.67,-0.405922,-0.368393,0.652384,93.51,1
28052,0,50773,52300,50611.49,51917.10,161.51,382.90,-0.405928,-0.368408,0.652132,93.51,1
28092,0,50744,52058,50611.75,51917.38,132.25,140.62,-0.405934,-0.368413,0.651883,93.52,1
28132,0,50565,51665,50611.66,51916.87,-46.66,-251.87,-0.405932,-0.368404,0.651632,93.52,1
28172,0,50429,51523,50611.30,51916.09,-182.30,-393.09,-0.405924,-0.368389,0.651378,93.53,1
28212,0,50415,51550,50610.91,51915.36,-195.91,-365.36,-0.405917,-0.368375,0.651125,93.54,1
28253,0,50425,51566,50610.54,51914.66,-185.54,-348.66,-0.405910,-0.368361,0.650872,93.54,1
28293,0,50429,51582,50610.17,51914.00,-181.17,-332.00,-0.405902,-0.368348,0.650620,93.55,1
28333,0,50446,51645,50609.84,51913.46,-163.84,-268.46,-0.405896,-0.368338,0.650369,93.55,1
28374,0,50469,51681,50609.56,51913.00,-140.56,-232.00,-0.405890,-0.368329,0.650120,93.56,1
28415,0,50470,51685,50609.29,51912.54,-139.29,-227.54,-0.405885,-0.368320,0.649872,93.56,1
28454,0,50480,51715,50609.03,51912.15,-129.03,-197.15,-0.405880,-0.368313,0.649626,93.57,1
28494,0,50508,51800,50608.83,51911.93,-100.83,-111.93,-0.405876,-0.368308,0.649382,93.58,1
28534,0,50548,51884,50608.71,51911.87,-60.71,-27.87,-0.405873,-0.368307,0.649139,93.58,1
28575,0,50583,51949,50608.66,51911.95,-25.66,37.05,-0.405872,-0.368309,0.648897,93.59,1
28615,0,50621,52003,50608.68,51912.13,12.32,90.87,-0.405873,-0.368312,0.648656,93.59,1
28654,0,50645,52046,50608.76,51912.40,36.24,133.60,-0.405874,-0.368318,0.648414,93.60,1
28694,0,50663,52088,50608.87,51912.75,54.13,175.25,-0.405877,-0.368324,0.648171,93.61,1
28734,0,50680,52127,50609.01,51913.18,70.99,213.82,-0.405879,-0.368333,0.647928,93.61,1
28774,0,50703,52180,50609.20,51913.71,93.80,266.29,-0.405883,-0.368343,0.647682,93.62,1
28815,0,50725,52155,50609.43,51914.20,115.57,240.80,-0.405888,-0.368352,0.647437,93.62,1
28875,0,50630,51809,50609.48,51913.99,20.52,-104.99,-0.405889,-0.368348,0.647191,93.63,1
28896,0,50443,51501,50609.14,51913.16,-166.14,-412.16,-0.405882,-0.368332,0.646941,93.64,1
28936,0,50373,51457,50608.67,51912.25,-235.67,-455.25,-0.405873,-0.368315,0.646690,93.64,1
28976,0,50379,51493,50608.21,51911.42,-229.21,-418.42,-0.405864,-0.368299,0.646440,93.65,1
29015,0,50382,51498,50607.77,51910.59,-225.77,-412.59,-0.405855,-0.368283,0.646191,93.65,1
29056,0,50389,51553,50607.33,51909.88,-218.33,-356.88,-0.405846,-0.368269,0.645944,93.66,1
29096,0,50427,51616,50606.97,51909.29,-179.97,-293.29,-0.405839,-0.368258,0.645699,93.66,1
29137,0,50441,51630,50606.64,51908.73,-165.64,-278.73,-0.405832,-0.368247,0.645456,93.67,1
29175,0,50447,51646,50606.32,51908.21,-159.32,-262.21,-0.405826,-0.368237,0.645215,93.68,1
29216,0,50463,51705,50606.04,51907.80,-143.04,-202.80,-0.405821,-0.368229,0.644976,93.68,1
29255,0,50507,51786,50605.84,51907.56,-98.84,-121.56,-0.405817,-0.368224,0.644739,93.69,1
29297,0,50546,51859,50605.72,51907.46,-59.72,-48.46,-0.405814,-0.368223,0.644503,93.69,1
29335,0,50578,51916,50605.67,51907.48,-27.67,8.52,-0.405813,-0.368223,0.644268,93.70,1
29375,0,50601,51967,50605.66,51907.61,-4.66,59.39,-0.405813,-0.368225,0.644034,93.71,1
29415,0,50628,52014,50605.71,51907.82,22.29,106.18,-0.405814,-0.368229,0.643799,93.71,1
29456,0,50641,52055,50605.78,51908.12,35.22,146.88,-0.405815,-0.368235,0.643564,93.72,1
29497,0,50664,52101,50605.89,51908.50,58.11,192.50,-0.405818,-0.368243,0.643328,93.72,1
29537,0,50690,52155,50606.06,51909.00,83.94,246.00,-0.405821,-0.368252,0.643090,93.73,1
29575,0,50711,52191,50606.27,51909.57,104.73,281.43,-0.405825,-0.368263,0.642850,93.74,1
29615,0,50675,51926,50606.41,51909.60,68.59,16.40,-0.405828,-0.368264,0.642612,93.74,1
29656,0,50485,51526,50606.17,51908.84,-121.17,-382.84,-0.405823,-0.368249,0.642367,93.75,1
29696,0,50347,51379,50605.66,51907.78,-258.66,-528.78,-0.405813,-0.368229,0.642120,93.75,1
29737,0,50336,51386,50605.12,51906.73,-269.12,-520.73,-0.405802,-0.368208,0.641871,93.76,1
29777,0,50336,51383,50604.58,51905.69,-268.58,-522.69,-0.405792,-0.368188,0.641620,93.77,1
29816,0,50323,51384,50604.02,51904.64,-281.02,-520.64,-0.405781,-0.368168,0.641370,93.77,1
29857,0,50356,51462,50603.52,51903.76,-247.52,-441.76,-0.405771,-0.368151,0.641122,93.78,1
29896,0,50392,51514,50603.10,51902.98,-211.10,-388.98,-0.405763,-0.368136,0.640874,93.78,1
29937,0,50401,51530,50602.70,51902.24,-201.70,-372.24,-0.405755,-0.368122,0.640627,93.79,1
29976,0,50410,51560,50602.32,51901.55,-192.32,-341.55,-0.405747,-0.368109,0.640382,93.80,1
30017,0,50433,51628,50601.98,51901.01,-168.98,-273.01,-0.405740,-0.368098,0.640138,93.80,1
30056,0,50471,51709,50601.72,51900.62,-130.72,-191.62,-0.405735,-0.368091,0.639897,93.81,1
30097,0,50505,51774,50601.53,51900.37,-96.53,-126.37,-0.405731,-0.368086,0.639657,93.81,1
30138,0,50530,51827,50601.39,51900.23,-71.39,-73.23,-0.405729,-0.368083,0.639419,93.82,1
30174,0,50553,51878,50601.29,51900.19,-48.29,-22.19,-0.405727,-0.368082,0.639182,93.83,1
30218,0,50581,51929,50601.25,51900.25,-20.25,28.75,-0.405726,-0.368083,0.638945,93.83,1
30258,0,50598,51985,50601.25,51900.42,-3.25,84.58,-0.405726,-0.368087,0.638709,93.84,1
30298,0,50620,52041,50601.29,51900.70,18.71,140.30,-0.405727,-0.368092,0.638473,93.84,1
30337,0,50659,52112,50601.41,51901.12,57.59,210.87,-0.405729,-0.368100,0.638234,93.85,1
30377,0,50685,52126,50601.57,51901.57,83.43,224.43,-0.405732,-0.368109,0.637995,93.86,1
30416,0,50621,51807,50601.61,51901.39,19.39,-94.39,-0.405733,-0.368105,0.637756,93.86,1
30457,0,50432,51434,50601.27,51900.45,-169.27,-466.45,-0.405726,-0.368087,0.637508,93.87,1
30497,0,50319,51325,50600.71,51899.30,-281.71,-574.30,-0.405715,-0.368065,0.637258,93.87,1
30538,0,50314,51340,50600.14,51898.19,-286.14,-558.19,-0.405704,-0.368044,0.637006,93.88,1
30579,0,50315,51325,50599.57,51897.04,-284.57,-572.04,-0.405693,-0.368022,0.636751,93.89,1
30617,0,50305,51339,50598.98,51895.93,-293.98,-556.93,-0.405681,-0.368000,0.636496,93.89,1
30658,0,50332,51416,50598.45,51894.97,-266.45,-478.97,-0.405671,-0.367982,0.636243,93.90,1
30696,0,50362,51448,50597.98,51894.08,-235.98,-446.08,-0.405661,-0.367965,0.635991,93.90,1
30739,0,50363,51443,50597.51,51893.18,-234.51,-450.18,-0.405652,-0.367947,0.635738,93.91,1
30779,0,50362,51477,50597.04,51892.34,-235.04,-415.34,-0.405643,-0.367931,0.635487,93.92,1
30819,0,50389,51550,50596.63,51891.66,-207.63,-341.66,-0.405635,-0.367918,0.635239,93.92,1
30859,0,50430,51634,50596.30,51891.14,-166.30,-257.14,-0.405628,-0.367908,0.634994,93.93,1
30898,0,50463,51702,50596.03,51890.77,-133.03,-188.77,-0.405623,-0.367901,0.634751,93.93,1
30938,0,50491,51752,50595.82,51890.49,-104.82,-138.49,-0.405619,-0.367895,0.634510,93.94,1
30977,0,50519,51810,50595.67,51890.33,-76.67,-80.33,-0.405616,-0.367892,0.634271,93.95,1
31017,0,50543,51864,50595.57,51890.28,-52.57,-26.28,-0.405614,-0.367891,0.634032,93.95,1
31059,0,50570,51912,50595.52,51890.32,-25.52,21.68,-0.405613,-0.367892,0.633795,93.96,1
31098,0,50594,51963,50595.52,51890.47,-1.52,72.53,-0.405613,-0.367895,0.633558,93.97,1
31139,0,50626,52027,50595.58,51890.75,30.42,136.25,-0.405614,-0.367900,0.633321,93.97,1
31178,0,50644,51952,50595.68,51890.87,48.32,61.13,-0.405616,-0.367903,0.633085,93.98,1
31219,0,50518,51571,50595.52,51890.23,-77.52,-319.23,-0.405613,-0.367891,0.632844,93.98,1
31258,0,50347,51312,50595.03,51889.08,-248.03,-577.08,-0.405603,-0.367868,0.632595,93.99,1
31299,0,50288,51298,50594.41,51887.90,-306.41,-589.90,-0.405591,-0.367845,0.632345,94.00,1
31337,0,50302,51337,50593.83,51886.80,-291.83,-549.80,-0.405579,-0.367824,0.632096,94.00,1
31379,0,50310,51348,50593.27,51885.72,-283.27,-537.72,-0.405568,-0.367803,0.631847,94.01,1
31419,0,50324,51412,50592.73,51884.77,-268.73,-472.77,-0.405558,-0.367785,0.631600,94.01,1
31460,0,50360,51466,50592.26,51883.94,-232.26,-417.94,-0.405548,-0.367769,0.631355,94.02,1
31500,0,50364,51467,50591.80,51883.11,-227.80,-416.11,-0.405539,-0.367753,0.631111,94.03,1
31540,0,50362,51485,50591.35,51882.31,-229.35,-397.31,-0.405530,-0.367738,0.630870,94.03,1
31579,0,50386,51549,50590.94,51881.65,-204.94,-332.65,-0.405522,-0.367725,0.630631,94.04,1
31620,0,50429,51641,50590.61,51881.17,-161.61,-240.17,-0.405516,-0.367716,0.630396,94.04,1
31661,0,50464,51718,50590.36,51880.84,-126.36,-162.84,-0.405511,-0.367710,0.630163,94.05,1
31701,0,50498,51780,50590.18,51880.64,-92.18,-100.64,-0.405507,-0.367706,0.629932,94.06,1
31739,0,50529,51824,50590.06,51880.53,-61.06,-56.53,-0.405505,-0.367704,0.629702,94.06,1
31781,0,50548,51872,50589.98,51880.52,-41.98,-8.52,-0.405503,-0.367703,0.629473,94.07,1
31820,0,50572,51921,50589.94,51880.60,-17.94,40.40,-0.405502,-0.367705,0.629245,94.07,1
31859,0,50593,51972,50589.95,51880.78,3.05,91.22,-0.405503,-0.367708,0.629017,94.08,1
31898,0,50624,52029,50590.02,51881.08,33.98,147.92,-0.405504,-0.367714,0.628789,94.09,1
31938,0,50624,51888,50590.09,51881.09,33.91,6.91,-0.405505,-0.367714,0.628561,94.09,1
31979,0,50472,51498,50589.86,51880.33,-117.86,-382.33,-0.405501,-0.367700,0.628327,94.10,1
32022,0,50312,51287,50589.30,51879.14,-277.30,-592.14,-0.405490,-0.367677,0.628088,94.10,1
32060,0,50279,51288,50588.68,51877.96,-309.68,-589.96,-0.405477,-0.367654,0.627849,94.11,1
32099,0,50290,51315,50588.08,51876.84,-298.08,-561.84,-0.405466,-0.367632,0.627611,94.12,1
32140,0,50284,51324,50587.48,51875.73,-303.48,-551.73,-0.405454,-0.367611,0.627374,94.12,1
32181,0,50309,51397,50586.92,51874.78,-277.92,-477.78,-0.405443,-0.367593,0.627141,94.13,1
32220,0,50347,51449,50586.44,51873.93,-239.44,-424.93,-0.405433,-0.367576,0.626909,94.13,1
32261,0,50351,51458,50585.97,51873.09,-234.97,-415.09,-0.405424,-0.367560,0.626680,94.14,1
32301,0,50360,51489,50585.52,51872.33,-225.52,-383.33,-0.405415,-0.367545,0.626453,94.15,1
32341,0,50390,51561,50585.13,51871.71,-195.13,-310.71,-0.405407,-0.367533,0.626229,94.15,1
32381,0,50436,51638,50584.84,51871.24,-148.84,-233.24,-0.405402,-0.367524,0.626007,94.16,1
32421,0,50468,51710,50584.61,51870.92,-116.61,-160.92,-0.405397,-0.367518,0.625787,94.16,1
32461,0,50498,51770,50584.43,51870.72,-86.43,-100.72,-0.405394,-0.367514,0.625569,94.17,1
32501,0,50530,51817,50584.32,51870.62,-54.32,-53.62,-0.405391,-0.367512,0.625351,94.18,1
32540,0,50547,51869,50584.25,51870.62,-37.25,-1.62,-0.405390,-0.367512,0.625135,94.18,1
32581,0,50569,51914,50584.22,51870.71,-15.22,43.29,-0.405389,-0.367514,0.624920,94.19,1
32622,0,50592,51960,50584.24,51870.89,7.76,89.11,-0.405390,-0.367518,0.624704,94.19,1
32663,0,50617,52023,50584.30,51871.19,32.70,151.81,-0.405391,-0.367523,0.624488,94.20,1
32701,0,50641,52015,50584.42,51871.48,56.58,143.52,-0.405393,-0.367529,0.624272,94.20,1
32741,0,50553,51667,50584.36,51871.07,-31.36,-204.07,-0.405392,-0.367521,0.624054,94.21,1
32778,0,50357,51313,50583.90,51869.96,-226.90,-556.96,-0.405383,-0.367500,0.623827,94.22,1
32822,0,50262,51230,50583.26,51868.68,-321.26,-638.68,-0.405370,-0.367475,0.623598,94.22,1
32861,0,50258,51238,50582.61,51867.42,-324.61,-629.42,-0.405358,-0.367451,0.623368,94.23,1
32898,0,50256,51232,50581.96,51866.15,-325.96,-634.15,-0.405345,-0.367426,0.623137,94.23,1
32942,0,50253,51265,50581.30,51864.95,-328.30,-599.95,-0.405332,-0.367403,0.622907,94.24,1
32982,0,50293,51353,50580.73,51863.93,-287.73,-510.93,-0.405320,-0.367383,0.622680,94.25,1
33020,0,50331,51393,50580.23,51862.99,-249.23,-469.99,-0.405311,-0.367365,0.622454,94.25,1
33061,0,50339,51414,50579.75,51862.09,-240.75,-448.09,-0.405301,-0.367348,0.622228,94.26,1
33100,0,50355,51463,50579.30,51861.29,-224.30,-398.29,-0.405292,-0.367333,0.622004,94.26,1
33141,0,50390,51548,50578.92,51860.67,-188.92,-312.67,-0.405285,-0.367321,0.621783,94.27,1
33180,0,50433,51637,50578.63,51860.22,-145.63,-223.22,-0.405279,-0.367312,0.621563,94.27,1
33220,0,50470,51702,50578.42,51859.91,-108.42,-157.91,-0.405275,-0.367306,0.621346,94.28,1
33261,0,50497,51763,50578.26,51859.71,-81.26,-96.71,-0.405272,-0.367302,0.621130,94.29,1
33301,0,50525,51823,50578.15,51859.64,-53.15,-36.64,-0.405269,-0.367301,0.620915,94.29,1
33341,0,50549,51878,50578.09,51859.68,-29.09,18.32,-0.405268,-0.367302,0.620701,94.30,1
33380,0,50572,51945,50578.08,51859.86,-6.08,85.14,-0.405268,-0.367305,0.620487,94.30,1
33421,0,50607,52005,50578.14,51860.15,28.86,144.85,-0.405269,-0.367311,0.620272,94.31,1
33461,0,50644,52081,50578.27,51860.59,65.73,220.41,-0.405272,-0.367319,0.620056,94.31,1
33501,0,50673,52112,50578.46,51861.09,94.54,250.91,-0.405276,-0.367329,0.619839,94.32,1
33541,0,50617,51813,50578.54,51861.00,38.46,-48.00,-0.405277,-0.367327,0.619622,94.33,1
33581,0,50431,51442,50578.25,51860.16,-147.25,-418.16,-0.405271,-0.367311,0.619400,94.33,1
33622,0,50328,51339,50577.75,51859.12,-249.75,-520.12,-0.405261,-0.367291,0.619174,94.34,1
33662,0,50324,51345,50577.24,51858.10,-253.24,-513.10,-0.405251,-0.367271,0.618947,94.34,1
33702,0,50322,51340,50576.73,51857.06,-254.73,-517.06,-0.405241,-0.367251,0.618719,94.35,1
33741,0,50316,51357,50576.21,51856.06,-260.21,-499.06,-0.405231,-0.367232,0.618491,94.35,1
33782,0,50346,51442,50575.75,51855.23,-229.75,-413.23,-0.405222,-0.367216,0.618264,94.36,1
33822,0,50381,51510,50575.37,51854.55,-194.37,-344.55,-0.405214,-0.367203,0.618039,94.37,1
33861,0,50399,51531,50575.02,51853.90,-176.02,-322.90,-0.405207,-0.367190,0.617815,94.37,1
33902,0,50413,51571,50574.69,51853.34,-161.69,-282.34,-0.405201,-0.367179,0.617593,94.38,1
33943,0,50439,51654,50574.42,51852.94,-135.42,-198.94,-0.405196,-0.367171,0.617373,94.38,1
33982,0,50485,51743,50574.25,51852.72,-89.25,-109.72,-0.405192,-0.367167,0.617155,94.39,1
34022,0,50521,51822,50574.14,51852.66,-53.14,-30.66,-0.405190,-0.367166,0.616938,94.39,1
34062,0,50549,51883,50574.09,51852.72,-25.09,30.28,-0.405189,-0.367167,0.616721,94.40,1
34102,0,50580,51942,50574.10,51852.90,5.90,89.10,-0.405189,-0.367171,0.616505,94.41,1
34143,0,50612,52008,50574.18,51853.21,37.82,154.79,-0.405191,-0.367177,0.616288,94.41,1
34182,0,50641,52073,50574.32,51853.66,66.68,219.34,-0.405194,-0.367185,0.616070,94.42,1
34222,0,50671,52127,50574.51,51854.20,96.49,272.80,-0.405197,-0.367196,0.615849,94.42,1
34264,0,50710,52194,50574.79,51854.88,135.21,339.12,-0.405203,-0.367209,0.615626,94.43,1
34302,0,50742,52268,50575.12,51855.71,166.88,412.29,-0.405209,-0.367225,0.615399,94.43,1
34342,0,50752,52152,50575.48,51856.30,176.52,295.70,-0.405216,-0.367236,0.615174,94.44,1
34382,0,50617,51771,50575.56,51856.14,41.44,-85.14,-0.405218,-0.367233,0.614950,94.44,1
34422,0,50457,51552,50575.33,51855.53,-118.33,-303.53,-0.405214,-0.367222,0.614724,94.45,1
34462,0,50422,51559,50575.02,51854.94,-153.02,-295.94,-0.405208,-0.367210,0.614498,94.46,1
34503,0,50439,51587,50574.75,51854.41,-135.75,-267.41,-0.405202,-0.367200,0.614272,94.46,1
34544,0,50439,51594,50574.48,51853.89,-135.48,-259.89,-0.405197,-0.367190,0.614047,94.47,1
34583,0,50456,51660,50574.25,51853.50,-118.25,-193.50,-0.405192,-0.367182,0.613824,94.47,1
34623,0,50491,51720,50574.09,51853.23,-83.09,-133.23,-0.405189,-0.367177,0.613601,94.48,1
34664,0,50500,51737,50573.94,51853.00,-73.94,-116.00,-0.405186,-0.367173,0.613380,94.48,1
34703,0,50507,51754,50573.80,51852.81,-66.80,-98.81,-0.405183,-0.367169,0.613160,94.49,1
34745,0,50528,51832,50573.71,51852.77,-45.71,-20.77,-0.405182,-0.367168,0.612941,94.50,1
34782,0,50570,51926,50573.71,51852.92,-3.71,73.08,-0.405181,-0.367171,0.612723,94.50,1
34823,0,50613,52007,50573.79,51853.23,39.21,153.77,-0.405183,-0.367177,0.612503,94.51,1
34863,0,50647,52064,50573.93,51853.65,73.07,210.35,-0.405186,-0.367185,0.612283,94.51,1
34903,0,50680,52117,50574.15,51854.18,105.85,262.82,-0.405190,-0.367195,0.612061,94.52,1
34943,0,50704,52174,50574.41,51854.82,129.59,319.18,-0.405195,-0.367208,0.611837,94.52,1
34983,0,50723,52223,50574.71,51855.55,148.29,367.45,-0.405201,-0.367222,0.611610,94.53,1
35024,0,50751,52272,50575.06,51856.39,175.94,415.61,-0.405208,-0.367238,0.611378,94.53,1
35064,0,50776,52330,50575.46,51857.34,200.54,472.66,-0.405216,-0.367256,0.611143,94.54,1
35103,0,50804,52386,50575.92,51858.40,228.08,527.60,-0.405225,-0.367277,0.610901,94.55,1
35144,0,50784,52177,50576.34,51859.04,207.66,317.96,-0.405234,-0.367289,0.610665,94.55,1
35184,0,50629,51813,50576.45,51858.95,52.55,-45.95,-0.405236,-0.367287,0.610430,94.56,1
35225,0,50502,51677,50576.30,51858.58,-74.30,-181.58,-0.405233,-0.367280,0.610195,94.56,1
35264,0,50486,51703,50576.12,51858.27,-90.12,-155.27,-0.405229,-0.367274,0.609961,94.57,1
35304,0,50504,51714,50575.97,51857.98,-71.97,-143.98,-0.405226,-0.367269,0.609727,94.57,1
35344,0,50502,51747,50575.82,51857.77,-73.82,-110.77,-0.405223,-0.367265,0.609495,94.58,1
35384,0,50531,51827,50575.73,51857.71,-44.73,-30.71,-0.405222,-0.367263,0.609264,94.59,1
35424,0,50563,51867,50575.71,51857.73,-12.71,9.27,-0.405221,-0.367264,0.609034,94.59,1
35463,0,50575,51871,50575.71,51857.75,-0.71,13.25,-0.405221,-0.367264,0.608804,94.60,1
35504,0,50587,51914,50575.73,51857.87,11.27,56.13,-0.405222,-0.367267,0.608575,94.60,1
35544,0,50613,51998,50575.81,51858.15,37.19,139.85,-0.405223,-0.367272,0.608346,94.61,1
35583,0,50652,52079,50575.96,51858.59,76.04,220.41,-0.405226,-0.367280,0.608115,94.61,1
35624,0,50688,52148,50576.19,51859.17,111.81,288.83,-0.405231,-0.367292,0.607882,94.62,1
35664,0,50715,52197,50576.46,51859.85,138.54,337.15,-0.405236,-0.367305,0.607646,94.62,1
35705,0,50735,52251,50576.79,51860.63,158.21,390.37,-0.405242,-0.367320,0.607407,94.63,1
35745,0,50758,52305,50577.15,51861.52,180.85,443.48,-0.405250,-0.367337,0.607163,94.64,1
35786,0,50786,52351,50577.57,51862.50,208.43,488.50,-0.405258,-0.367356,0.606914,94.64,1
35825,0,50808,52402,50578.03,51863.59,229.97,538.41,-0.405267,-0.367377,0.606659,94.65,1
35866,0,50828,52468,50578.53,51864.80,249.47,603.20,-0.405277,-0.367400,0.606396,94.65,1
35905,0,50858,52523,50579.09,51866.11,278.91,656.89,-0.405288,-0.367426,0.606126,94.66,1
35946,0,50844,52311,50579.62,51867.00,264.38,444.00,-0.405298,-0.367443,0.605861,94.67,1
35985,0,50683,51928,50579.82,51867.13,103.18,60.87,-0.405302,-0.367445,0.605600,94.67,1
36023,0,50540,51756,50579.75,51866.91,-39.75,-110.91,-0.405301,-0.367441,0.605339,94.68,1
36063,0,50520,51765,50579.63,51866.70,-59.63,-101.70,-0.405299,-0.367437,0.605080,94.68,1
36105,0,50534,51774,50579.54,51866.52,-45.54,-92.52,-0.405297,-0.367433,0.604821,94.69,1
36145,0,50529,51767,50579.44,51866.32,-50.44,-99.32,-0.405295,-0.367430,0.604563,94.69,1
36185,0,50539,51835,50579.36,51866.26,-40.36,-31.26,-0.405293,-0.367428,0.604306,94.70,1
36225,0,50571,51892,50579.34,51866.31,-8.34,25.69,-0.405293,-0.367429,0.604049,94.71,1
36264,0,50589,51907,50579.36,51866.39,9.64,40.61,-0.405293,-0.367431,0.603794,94.71,1
36306,0,50595,51931,50579.39,51866.52,15.61,64.48,-0.405294,-0.367433,0.603539,94.72,1
36346,0,50610,51997,50579.46,51866.79,30.54,130.21,-0.405295,-0.367438,0.603283,94.72,1
36386,0,50653,52086,50579.61,51867.23,73.39,218.77,-0.405298,-0.367447,0.603027,94.73,1
36426,0,50688,52153,50579.82,51867.80,108.18,285.20,-0.405302,-0.367458,0.602768,94.74,1
36466,0,50718,52216,50580.10,51868.50,137.90,347.50,-0.405308,-0.367472,0.602507,94.74,1
36506,0,50742,52276,50580.43,51869.32,161.57,406.68,-0.405314,-0.367487,0.602242,94.75,1
36546,0,50764,52327,50580.79,51870.23,183.21,456.77,-0.405322,-0.367505,0.601973,94.75,1
36586,0,50789,52381,50581.21,51871.26,207.79,509.74,-0.405330,-0.367525,0.601698,94.76,1
36626,0,50819,52440,50581.69,51872.40,237.31,567.60,-0.405339,-0.367547,0.601417,94.77,1
36666,0,50838,52505,50582.20,51873.66,255.80,631.34,-0.405349,-0.367571,0.601128,94.77,1
36705,0,50873,52571,50582.79,51875.06,290.21,695.94,-0.405361,-0.367598,0.600830,94.78,1
36743,0,50888,52427,50583.40,51876.16,304.60,550.84,-0.405373,-0.367619,0.600539,94.79,1
36786,0,50745,52032,50583.72,51876.48,161.28,155.52,-0.405380,-0.367625,0.600255,94.79,1
36826,0,50581,51810,50583.72,51876.34,-2.72,-66.34,-0.405379,-0.367623,0.599971,94.80,1
36866,0,50543,51795,50583.64,51876.18,-40.64,-81.18,-0.405378,-0.367620,0.599687,94.80,1
36906,0,50548,51801,50583.57,51876.04,-35.57,-75.04,-0.405376,-0.367617,0.599405,94.81,1
36946,0,50540,51795,50583.48,51875.87,-43.48,-80.87,-0.405375,-0.367614,0.599123,94.82,1
36988,0,50547,51843,50583.41,51875.81,-36.41,-32.81,-0.405373,-0.367613,0.598843,94.82,1
37028,0,50576,51913,50583.40,51875.89,-7.40,37.11,-0.405373,-0.367614,0.598563,94.83,1
37067,0,50599,51933,50583.43,51876.00,15.57,57.00,-0.405374,-0.367616,0.598284,94.84,1
37107,0,50607,51957,50583.48,51876.17,23.52,80.83,-0.405375,-0.367619,0.598006,94.84,1
37147,0,50621,52014,50583.55,51876.45,37.45,137.55,-0.405376,-0.367625,0.597728,94.85,1
37187,0,50654,52102,50583.70,51876.90,70.30,225.10,-0.405379,-0.367633,0.597448,94.86,1
37227,0,50701,52183,50583.93,51877.51,117.07,305.49,-0.405384,-0.367645,0.597166,94.86,1
37267,0,50730,52252,50584.22,51878.26,145.78,373.74,-0.405389,-0.367660,0.596882,94.87,1
37307,0,50766,52312,50584.59,51879.13,181.41,432.87,-0.405397,-0.367676,0.596595,94.87,1
37347,0,50792,52362,50585.00,51880.10,207.00,481.90,-0.405405,-0.367695,0.596305,94.88,1
37385,0,50823,52409,50585.48,51881.16,237.52,527.84,-0.405414,-0.367716,0.596013,94.89,1
37427,0,50840,52457,50585.99,51882.31,254.01,574.69,-0.405424,-0.367738,0.595719,94.89,1
37468,0,50861,52509,50586.54,51883.56,274.46,625.44,-0.405435,-0.367762,0.595420,94.90,1
37507,0,50893,52575,50587.16,51884.95,305.84,690.05,-0.405447,-0.367789,0.595118,94.91,1
37546,0,50908,52471,50587.80,51886.12,320.20,584.88,-0.405460,-0.367811,0.594823,94.91,1
37587,0,50778,52102,50588.18,51886.55,189.82,215.45,-0.405468,-0.367819,0.594535,94.92,1
37646,0,50622,51869,50588.25,51886.52,33.75,-17.52,-0.405469,-0.367819,0.594248,94.93,1
37667,0,50574,51868,50588.23,51886.48,-14.23,-18.48,-0.405469,-0.367818,0.593962,94.93,1
37707,0,50593,51913,50588.24,51886.54,4.76,26.46,-0.405469,-0.367819,0.593677,94.94,1
37749,0,50604,51926,50588.27,51886.62,15.73,39.38,-0.405469,-0.367821,0.593393,94.95,1
37788,0,50609,51989,50588.31,51886.82,20.69,102.18,-0.405470,-0.367825,0.593109,94.95,1
37828,0,50641,52031,50588.42,51887.11,52.58,143.89,-0.405472,-0.367830,0.592826,94.96,1
37868,0,50661,52035,50588.56,51887.41,72.44,147.59,-0.405475,-0.367836,0.592543,94.97,1
37908,0,50653,52060,50588.69,51887.76,64.31,172.24,-0.405478,-0.367843,0.592260,94.97,1
37947,0,50673,52123,50588.86,51888.23,84.14,234.77,-0.405481,-0.367852,0.591977,94.98,1
37988,0,50714,52208,50589.11,51888.87,124.89,319.13,-0.405486,-0.367864,0.591692,94.99,1
38028,0,50759,52276,50589.45,51889.65,169.55,386.35,-0.405493,-0.367879,0.591406,95.00,1
38069,0,50789,52337,50589.86,51890.54,199.14,446.46,-0.405501,-0.367896,0.591118,95.00,1
38110,0,50809,52387,50590.30,51891.54,218.70,495.46,-0.405510,-0.367916,0.590830,95.01,1
38150,0,50830,52432,50590.78,51892.62,239.22,539.38,-0.405519,-0.367936,0.590539,95.02,1
38189,0,50856,52475,50591.31,51893.79,264.69,581.21,-0.405529,-0.367959,0.590246,95.02,1
38230,0,50875,52519,50591.88,51895.04,283.12,623.96,-0.405541,-0.367983,0.589952,95.03,1
38269,0,50893,52572,50592.48,51896.39,300.52,675.61,-0.405553,-0.368009,0.589656,95.04,1
38312,0,50915,52564,50593.13,51897.73,321.87,666.27,-0.405565,-0.368035,0.589360,95.04,1
38350,0,50846,52235,50593.64,51898.41,252.36,336.59,-0.405575,-0.368048,0.589075,95.05,1
38392,0,50664,51907,50593.78,51898.43,70.22,8.57,-0.405578,-0.368048,0.588792,95.06,1
38430,0,50573,51854,50593.74,51898.34,-20.74,-44.34,-0.405578,-0.368047,0.588510,95.06,1
38470,0,50580,51884,50593.71,51898.31,-13.71,-14.31,-0.405577,-0.368046,0.588229,95.07,1
38510,0,50593,51903,50593.71,51898.32,-0.71,4.68,-0.405577,-0.368046,0.587948,95.08,1
38550,0,50598,51944,50593.72,51898.42,4.28,45.58,-0.405577,-0.368048,0.587668,95.08,1
38590,0,50626,52005,50593.79,51898.63,32.21,106.37,-0.405578,-0.368052,0.587389,95.09,1
38630,0,50646,52032,50593.89,51898.90,52.11,133.10,-0.405581,-0.368058,0.587110,95.10,1
38670,0,50659,52033,50594.03,51899.17,64.97,133.83,-0.405583,-0.368063,0.586832,95.11,1
38713,0,50672,52092,50594.18,51899.56,77.82,192.44,-0.405586,-0.368070,0.586554,95.11,1
38749,0,50706,52183,50594.41,51900.12,111.59,282.87,-0.405591,-0.368081,0.586276,95.12,1
38791,0,50747,52261,50594.71,51900.85,152.29,360.15,-0.405597,-0.368095,0.585996,95.13,1
38831,0,50784,52318,50595.09,51901.68,188.91,416.32,-0.405604,-0.368111,0.585716,95.13,1
38872,0,50804,52371,50595.51,51902.62,208.49,468.37,-0.405613,-0.368129,0.585435,95.14,1
38909,0,50826,52421,50595.97,51903.66,230.03,517.34,-0.405622,-0.368149,0.585152,95.15,1
38950,0,50849,52463,50596.48,51904.79,252.52,558.21,-0.405632,-0.368171,0.584869,95.15,1
38990,0,50867,52505,50597.02,51905.99,269.98,599.01,-0.405642,-0.368194,0.584583,95.16,1
39028,0,50894,52558,50597.62,51907.29,296.38,650.71,-0.405654,-0.368219,0.584297,95.17,1
39067,0,50911,52616,50598.25,51908.71,312.75,707.29,-0.405667,-0.368247,0.584007,95.17,1
39110,0,50912,52467,50598.87,51909.83,313.12,557.17,-0.405679,-0.368268,0.583725,95.18,1
39147,0,50771,52053,50599.22,51910.12,171.78,142.88,-0.405686,-0.368274,0.583450,95.19,1
39189,0,50593,51810,50599.21,51909.92,-6.21,-99.92,-0.405686,-0.368270,0.583175,95.20,1
39232,0,50545,51795,50599.10,51909.69,-54.10,-114.69,-0.405684,-0.368265,0.582901,95.20,1
39272,0,50551,51786,50599.01,51909.45,-48.01,-123.45,-0.405682,-0.368261,0.582628,95.21,1
39311,0,50542,51763,50598.89,51909.15,-56.89,-146.15,-0.405679,-0.368255,0.582355,95.22,1
39352,0,50542,51818,50598.78,51908.97,-56.78,-90.97,-0.405677,-0.368252,0.582083,95.22,1
39391,0,50579,51882,50598.74,51908.92,-19.74,-26.92,-0.405676,-0.368251,0.581812,95.23,1
39433,0,50597,51896,50598.74,51908.90,-1.74,-12.90,-0.405676,-0.368250,0.581542,95.24,1
39471,0,50597,51909,50598.73,51908.90,-1.73,0.10,-0.405676,-0.368250,0.581272,95.24,1
39512,0,50607,51966,50598.75,51909.02,8.25,56.98,-0.405677,-0.368252,0.581003,95.25,1
39551,0,50645,52049,50598.85,51909.30,46.15,139.70,-0.405679,-0.368258,0.580735,95.26,1
39593,0,50679,52110,50599.01,51909.70,79.99,200.30,-0.405682,-0.368266,0.580466,95.27,1
39633,0,50705,52172,50599.22,51910.23,105.78,261.77,-0.405686,-0.368276,0.580197,95.27,1
39673,0,50728,52229,50599.48,51910.87,128.52,318.13,-0.405691,-0.368288,0.579927,95.28,1
39710,0,50753,52273,50599.79,51911.59,153.21,361.41,-0.405697,-0.368302,0.579656,95.29,1
39752,0,50777,52329,50600.14,51912.43,176.86,416.57,-0.405704,-0.368318,0.579384,95.29,1
39792,0,50799,52381,50600.54,51913.37,198.46,467.63,-0.405712,-0.368336,0.579110,95.30,1
39833,0,50824,52439,50600.99,51914.42,223.01,524.58,-0.405721,-0.368356,0.578833,95.31,1
39872,0,50855,52499,50601.50,51915.59,253.50,583.41,-0.405731,-0.368379,0.578554,95.31,1
39912,0,50880,52461,50602.06,51916.68,277.94,544.32,-0.405742,-0.368400,0.578279,95.32,1
39952,0,50785,52086,50602.43,51917.02,182.57,168.98,-0.405749,-0.368407,0.578011,95.33,1
39992,0,50581,51736,50602.38,51916.66,-21.38,-180.66,-0.405748,-0.368400,0.577742,95.33,1
40031,0,50490,51651,50602.16,51916.13,-112.16,-265.13,-0.405744,-0.368389,0.577473,95.34,1
40073,0,50479,51648,50601.91,51915.60,-122.91,-267.60,-0.405739,-0.368379,0.577205,95.35,1
40112,0,50467,51619,50601.64,51915.00,-134.64,-296.00,-0.405734,-0.368368,0.576937,95.35,1
40153,0,50454,51642,50601.35,51914.46,-147.35,-272.46,-0.405728,-0.368357,0.576671,95.36,1
40194,0,50481,51715,50601.11,51914.06,-120.11,-199.06,-0.405723,-0.368350,0.576408,95.37,1
40233,0,50510,51745,50600.93,51913.73,-90.93,-168.73,-0.405720,-0.368343,0.576146,95.38,1
40273,0,50511,51762,50600.75,51913.43,-89.75,-151.43,-0.405716,-0.368337,0.575885,95.38,1
40313,0,50526,51811,50600.61,51913.22,-74.61,-102.22,-0.405713,-0.368333,0.575626,95.39,1
40353,0,50558,51884,50600.52,51913.16,-42.52,-29.16,-0.405712,-0.368332,0.575368,95.40,1
40393,0,50597,51971,50600.52,51913.28,-3.52,57.72,-0.405712,-0.368335,0.575111,95.40,1
40433,0,50632,52040,50600.58,51913.54,31.42,126.46,-0.405713,-0.368340,0.574854,95.41,1
40473,0,50665,52095,50600.71,51913.90,64.29,181.10,-0.405715,-0.368346,0.574596,95.42,1
40513,0,50686,52142,50600.88,51914.36,85.12,227.64,-0.405719,-0.368355,0.574338,95.42,1
40554,0,50711,52190,50601.11,51914.91,109.89,275.09,-0.405723,-0.368366,0.574080,95.43,1
40593,0,50732,52241,50601.37,51915.56,130.63,325.44,-0.405728,-0.368378,0.573820,95.44,1
40634,0,50762,52294,50601.69,51916.32,160.31,377.68,-0.405735,-0.368393,0.573559,95.44,1
40674,0,50791,52353,50602.07,51917.19,188.93,435.81,-0.405742,-0.368410,0.573297,95.45,1
40714,0,50817,52398,50602.50,51918.16,214.50,479.84,-0.405751,-0.368428,0.573034,95.46,1
40754,0,50790,52149,50602.87,51918.62,187.12,230.38,-0.405758,-0.368437,0.572778,95.46,1
40794,0,50604,51743,50602.88,51918.27,1.12,-175.27,-0.405758,-0.368431,0.572522,95.47,1
40834,0,50461,51575,50602.60,51917.59,-141.60,-342.59,-0.405753,-0.368418,0.572264,95.48,1
40875,0,50442,51590,50602.28,51916.93,-160.28,-326.93,-0.405746,-0.368405,0.572007,95.48,1
40914,0,50437,51596,50601.95,51916.29,-164.95,-320.29,-0.405740,-0.368393,0.571752,95.49,1
40956,0,50435,51604,50601.62,51915.67,-166.62,-311.67,-0.405733,-0.368381,0.571500,95.50,1
40994,0,50460,51681,50601.34,51915.20,-141.34,-234.20,-0.405728,-0.368371,0.571251,95.50,1
41034,0,50493,51726,50601.12,51914.82,-108.12,-188.82,-0.405723,-0.368364,0.571003,95.51,1
41073,0,50501,51731,50600.92,51914.45,-99.92,-183.45,-0.405719,-0.368357,0.570757,95.52,1
41115,0,50513,51761,50600.75,51914.15,-87.75,-153.15,-0.405716,-0.368351,0.570513,95.52,1
41154,0,50541,51839,50600.63,51914.00,-59.63,-75.00,-0.405714,-0.368348,0.570269,95.53,1
41195,0,50584,51924,50600.60,51914.02,-16.60,9.98,-0.405713,-0.368349,0.570027,95.54,1
41234,0,50620,51991,50600.64,51914.18,19.36,76.82,-0.405714,-0.368352,0.569785,95.54,1
41276,0,50644,52042,50600.73,51914.43,43.27,127.57,-0.405716,-0.368357,0.569543,95.55,1
41315,0,50668,52090,50600.86,51914.79,67.14,175.21,-0.405718,-0.368363,0.569301,95.56,1
41353,0,50686,52125,50601.04,51915.21,84.96,209.79,-0.405722,-0.368372,0.569059,95.56,1
41394,0,50704,52170,50601.24,51915.72,102.76,254.28,-0.405726,-0.368382,0.568817,95.57,1
41434,0,50724,52219,50601.49,51916.33,122.51,302.67,-0.405731,-0.368393,0.568573,95.58,1
41474,0,50751,52272,50601.79,51917.04,149.21,354.96,-0.405737,-0.368407,0.568328,95.58,1
41514,0,50752,52154,50602.09,51917.52,149.91,236.48,-0.405743,-0.368416,0.568087,95.59,1
41553,0,50615,51771,50602.12,51917.22,12.88,-146.22,-0.405743,-0.368411,0.567846,95.60,1
41594,0,50456,51540,50601.83,51916.47,-145.83,-376.47,-0.405737,-0.368396,0.567601,95.60,1
41634,0,50413,51535,50601.45,51915.71,-188.45,-380.71,-0.405730,-0.368381,0.567359,95.61,1
41675,0,50420,51568,50601.09,51915.01,-181.09,-347.01,-0.405723,-0.368368,0.567118,95.61,1
41714,0,50426,51582,50600.74,51914.35,-174.74,-332.35,-0.405716,-0.368355,0.566881,95.62,1
41754,0,50452,51653,50600.45,51913.83,-148.45,-260.83,-0.405710,-0.368345,0.566646,95.63,1
41794,0,50481,51690,50600.21,51913.38,-119.21,-223.38,-0.405705,-0.368337,0.566412,95.63,1
41834,0,50491,51696,50599.99,51912.95,-108.99,-216.95,-0.405701,-0.368328,0.566180,95.64,1
41874,0,50491,51716,50599.77,51912.56,-108.77,-196.56,-0.405697,-0.368321,0.565949,95.65,1
41914,0,50518,51784,50599.61,51912.30,-81.61,-128.30,-0.405694,-0.368316,0.565720,95.65,1
41954,0,50557,51879,50599.53,51912.24,-42.53,-33.24,-0.405692,-0.368315,0.565493,95.66,1
42013,0,50592,51943,50599.51,51912.30,-7.51,30.70,-0.405692,-0.368316,0.565265,95.67,1
42034,0,50620,52000,50599.55,51912.48,20.45,87.52,-0.405692,-0.368319,0.565038,95.67,1
42075,0,50646,52050,50599.65,51912.75,46.35,137.25,-0.405694,-0.368324,0.564811,95.68,1
42115,0,50666,52100,50599.78,51913.13,66.22,186.87,-0.405697,-0.368332,0.564584,95.68,1
42156,0,50684,52152,50599.95,51913.61,84.05,238.39,-0.405700,-0.368341,0.564355,95.69,1
42195,0,50712,52199,50600.18,51914.18,111.82,284.82,-0.405705,-0.368352,0.564125,95.70,1
42236,0,50739,52258,50600.45,51914.87,138.55,343.13,-0.405710,-0.368365,0.563893,95.70,1
42274,0,50765,52300,50600.79,51915.64,164.21,384.36,-0.405717,-0.368380,0.563660,95.71,1
42315,0,50726,52024,50601.04,51915.86,124.96,108.14,-0.405722,-0.368384,0.563432,95.71,1
42355,0,50541,51610,50600.92,51915.25,-59.92,-305.25,-0.405719,-0.368372,0.563199,95.72,1
42395,0,50397,51442,50600.51,51914.30,-203.51,-472.30,-0.405711,-0.368354,0.562963,95.73,1
42435,0,50371,51446,50600.05,51913.37,-229.05,-467.37,-0.405702,-0.368336,0.562730,95.73,1
42476,0,50371,51439,50599.60,51912.42,-228.60,-473.42,-0.405693,-0.368318,0.562497,95.74,1
42515,0,50367,51433,50599.13,51911.46,-232.13,-478.46,-0.405684,-0.368300,0.562267,95.75,1
42555,0,50380,51508,50598.70,51910.66,-218.70,-402.66,-0.405676,-0.368284,0.562040,95.75,1
42595,0,50412,51561,50598.32,51909.96,-186.32,-348.96,-0.405668,-0.368271,0.561817,95.76,1
42636,0,50422,51578,50597.97,51909.30,-175.97,-331.30,-0.405661,-0.368258,0.561596,95.76,1
42676,0,50431,51609,50597.64,51908.70,-166.64,-299.70,-0.405655,-0.368246,0.561379,95.77,1
42716,0,50458,51686,50597.36,51908.25,-139.36,-222.25,-0.405649,-0.368238,0.561164,95.78,1
42756,0,50500,51777,50597.17,51907.99,-97.17,-130.99,-0.405645,-0.368233,0.560952,95.78,1
42796,0,50533,51852,50597.04,51907.88,-64.04,-55.88,-0.405643,-0.368231,0.560742,95.79,1
42837,0,50574,51915,50597.00,51907.90,-23.00,7.10,-0.405642,-0.368231,0.560532,95.79,1
42876,0,50593,51973,50596.99,51908.03,-3.99,64.97,-0.405642,-0.368233,0.560323,95.80,1
42916,0,50624,52036,50597.04,51908.29,26.96,127.71,-0.405643,-0.368238,0.560113,95.81,1
42957,0,50653,52082,50597.16,51908.64,55.84,173.36,-0.405645,-0.368245,0.559903,95.81,1
42997,0,50679,52136,50597.32,51909.09,81.68,226.91,-0.405648,-0.368254,0.559692,95.82,1
43035,0,50708,52199,50597.54,51909.68,110.46,289.32,-0.405653,-0.368265,0.559479,95.82,1
43076,0,50733,52269,50597.82,51910.39,135.18,358.61,-0.405658,-0.368279,0.559263,95.83,1
43116,0,50743,52138,50598.11,51910.85,144.89,227.15,-0.405664,-0.368288,0.559051,95.84,1
43155,0,50593,51696,50598.10,51910.42,-5.10,-214.42,-0.405664,-0.368279,0.558836,95.84,1
43196,0,50394,51399,50597.70,51909.40,-203.70,-510.40,-0.405656,-0.368260,0.558616,95.85,1
43236,0,50324,51358,50597.15,51908.30,-273.15,-550.30,-0.405645,-0.368239,0.558398,95.85,1
43276,0,50321,51362,50596.60,51907.21,-275.60,-545.21,-0.405634,-0.368218,0.558185,95.86,1
43317,0,50314,51337,50596.04,51906.07,-282.04,-569.07,-0.405623,-0.368196,0.557974,95.86,1
43354,0,50310,51391,50595.46,51905.04,-285.46,-514.04,-0.405612,-0.368176,0.557770,95.87,1
43398,0,50347,51477,50594.97,51904.18,-247.97,-427.18,-0.405602,-0.368159,0.557573,95.88,1
43438,0,50374,51501,50594.53,51903.38,-220.53,-402.38,-0.405593,-0.368144,0.557380,95.88,1
43478,0,50379,51523,50594.10,51902.62,-215.10,-379.62,-0.405585,-0.368129,0.557191,95.89,1
43518,0,50397,51585,50593.70,51901.99,-196.70,-316.99,-0.405577,-0.368117,0.557008,95.89,1
43559,0,50433,51678,50593.38,51901.54,-160.38,-223.54,-0.405570,-0.368108,0.556829,95.90,1
43600,0,50480,51768,50593.16,51901.28,-113.16,-133.28,-0.405566,-0.368103,0.556654,95.90,1
43637,0,50524,51835,50593.02,51901.14,-69.02,-66.14,-0.405563,-0.368101,0.556480,95.91,1
43678,0,50549,51891,50592.93,51901.12,-43.93,-10.13,-0.405562,-0.368100,0.556307,95.91,1
43717,0,50577,51954,50592.90,51901.23,-15.90,52.77,-0.405561,-0.368102,0.556135,95.92,1
43756,0,50605,52002,50592.93,51901.43,12.07,100.57,-0.405562,-0.368106,0.555962,95.93,1
43797,0,50634,52052,50593.01,51901.73,40.99,150.27,-0.405563,-0.368112,0.555789,95.93,1
43837,0,50651,52112,50593.13,51902.16,57.87,209.84,-0.405565,-0.368120,0.555614,95.94,1
43878,0,50684,52169,50593.31,51902.69,90.69,266.31,-0.405569,-0.368131,0.555437,95.94,1
43921,0,50709,52243,50593.55,51903.37,115.45,339.62,-0.405574,-0.368144,0.555257,95.95,1
43959,0,50721,52099,50593.80,51903.77,127.20,195.23,-0.405579,-0.368151,0.555079,95.95,1
44000,0,50567,51670,50593.75,51903.30,-26.75,-233.30,-0.405578,-0.368142,0.554897,95.96,1
44040,0,50375,51408,50593.32,51902.32,-218.32,-494.32,-0.405569,-0.368123,0.554713,95.96,1
44079,0,50321,51394,50592.77,51901.30,-271.77,-507.30,-0.405558,-0.368104,0.554535,95.97,1
44119,0,50343,51432,50592.27,51900.36,-249.27,-468.36,-0.405549,-0.368086,0.554360,95.97,1
44157,0,50346,51439,50591.78,51899.44,-245.78,-460.44,-0.405539,-0.368068,0.554189,95.98,1
44199,0,50359,51505,50591.32,51898.65,-232.32,-393.65,-0.405530,-0.368053,0.554024,95.98,1
44239,0,50394,51559,50590.92,51897.97,-196.92,-338.97,-0.405522,-0.368040,0.553863,95.99,1
44279,0,50413,51567,50590.57,51897.31,-177.57,-330.31,-0.405515,-0.368027,0.553704,95.99,1
44319,0,50409,51574,50590.20,51896.67,-181.20,-322.67,-0.405508,-0.368014,0.553548,96.00,1
44360,0,50422,51634,50589.87,51896.14,-167.87,-262.14,-0.405501,-0.368004,0.553396,96.00,1
44401,0,50462,51719,50589.61,51895.79,-127.61,-176.79,-0.405496,-0.367998,0.553247,96.01,1
44440,0,50505,51807,50589.45,51895.62,-84.45,-88.62,-0.405493,-0.367994,0.553100,96.01,1
44480,0,50539,51865,50589.35,51895.56,-50.35,-30.56,-0.405491,-0.367993,0.552954,96.02,1
44520,0,50557,51914,50589.29,51895.60,-32.29,18.40,-0.405490,-0.367994,0.552810,96.02,1
44560,0,50583,51961,50589.27,51895.73,-6.27,65.27,-0.405489,-0.367996,0.552665,96.03,1
44600,0,50602,52002,50589.30,51895.95,12.70,106.05,-0.405490,-0.368001,0.552520,96.03,1
44640,0,50620,52052,50589.36,51896.26,30.64,155.74,-0.405491,-0.368007,0.552373,96.04,1
44680,0,50642,52115,50589.47,51896.70,52.53,218.30,-0.405493,-0.368015,0.552224,96.04,1
44722,0,50673,52175,50589.64,51897.25,83.36,277.75,-0.405496,-0.368026,0.552072,96.05,1
44760,0,50681,52047,50589.82,51897.55,91.18,149.45,-0.405500,-0.368032,0.551922,96.05,1
44800,0,50529,51639,50589.70,51897.04,-60.70,-258.04,-0.405498,-0.368022,0.551768,96.06,1
44841,0,50353,51382,50589.23,51896.01,-236.23,-514.01,-0.405488,-0.368002,0.551612,96.06,1
44881,0,50305,51378,50588.66,51894.98,-283.66,-516.98,-0.405477,-0.367982,0.551462,96.07,1
44921,0,50324,51418,50588.13,51894.02,-264.13,-476.02,-0.405467,-0.367964,0.551317,96.07,1
44959,0,50341,51440,50587.64,51893.12,-246.64,-453.12,-0.405457,-0.367946,0.551176,96.07,1
45001,0,50356,51506,50587.18,51892.34,-231.18,-386.34,-0.405448,-0.367931,0.551041,96.08,1
45041,0,50385,51547,50586.78,51891.66,-201.78,-344.66,-0.405440,-0.367918,0.550910,96.08,1
45081,0,50394,51549,50586.39,51890.97,-192.39,-341.97,-0.405432,-0.367905,0.550781,96.09,1
45122,0,50393,51559,50586.01,51890.31,-193.01,-331.31,-0.405425,-0.367892,0.550657,96.09,1
45160,0,50410,51630,50585.66,51889.79,-175.66,-259.79,-0.405418,-0.367882,0.550537,96.10,1
45202,0,50448,51723,50585.38,51889.46,-137.38,-166.46,-0.405412,-0.367876,0.550421,96.10,1
45242,0,50490,51801,50585.19,51889.28,-95.19,-88.28,-0.405409,-0.367872,0.550307,96.11,1
45280,0,50525,51870,50585.07,51889.24,-60.07,-19.24,-0.405406,-0.367871,0.550195,96.11,1
45321,0,50545,51931,50585.00,51889.33,-40.00,41.67,-0.405405,-0.367873,0.550084,96.11,1
45360,0,50574,51987,50584.98,51889.52,-10.98,97.48,-0.405404,-0.367877,0.549972,96.12,1
45401,0,50601,52042,50585.01,51889.83,15.99,152.17,-0.405405,-0.367883,0.549859,96.12,1
45438,0,50627,52093,50585.10,51890.23,41.90,202.77,-0.405407,-0.367891,0.549743,96.13,1
45478,0,50652,52157,50585.23,51890.77,66.77,266.23,-0.405409,-0.367901,0.549624,96.13,1
45522,0,50684,52228,50585.43,51891.45,98.57,336.55,-0.405413,-0.367914,0.549499,96.13,1
45561,0,50719,52263,50585.70,51892.19,133.30,370.81,-0.405419,-0.367928,0.549369,96.14,1
45602,0,50667,51933,50585.87,51892.27,81.13,40.73,-0.405422,-0.367930,0.549242,96.14,1
45642,0,50455,51494,50585.61,51891.48,-130.61,-397.48,-0.405417,-0.367914,0.549108,96.15,1
45682,0,50298,51302,50585.03,51890.30,-287.03,-588.30,-0.405405,-0.367892,0.548974,96.15,1
45720,0,50269,51298,50584.40,51889.12,-315.40,-591.12,-0.405393,-0.367869,0.548845,96.15,1
45761,0,50272,51296,50583.78,51887.93,-311.78,-591.93,-0.405381,-0.367846,0.548720,96.16,1
45803,0,50262,51298,50583.14,51886.75,-321.14,-588.75,-0.405368,-0.367823,0.548601,96.16,1
45841,0,50274,51352,50582.52,51885.69,-308.52,-533.69,-0.405356,-0.367803,0.548489,96.16,1
45881,0,50305,51402,50581.96,51884.72,-276.96,-482.72,-0.405345,-0.367784,0.548383,96.17,1
45919,0,50315,51419,50581.43,51883.79,-266.43,-464.79,-0.405334,-0.367766,0.548282,96.17,1
45963,0,50315,51453,50580.90,51882.93,-265.90,-429.93,-0.405324,-0.367750,0.548188,96.18,1
46003,0,50346,51522,50580.43,51882.21,-234.43,-360.21,-0.405315,-0.367736,0.548100,96.18,1
46044,0,50390,51622,50580.05,51881.70,-190.05,-259.70,-0.405307,-0.367726,0.548018,96.18,1
46083,0,50428,51707,50579.75,51881.35,-151.75,-174.35,-0.405301,-0.367719,0.547940,96.19,1
46123,0,50469,51773,50579.53,51881.13,-110.53,-108.13,-0.405297,-0.367715,0.547865,96.19,1
46163,0,50500,51831,50579.37,51881.04,-79.37,-50.04,-0.405294,-0.367713,0.547792,96.19,1
46200,0,50530,51884,50579.28,51881.04,-49.28,2.96,-0.405292,-0.367713,0.547719,96.20,1
46258,0,50550,51939,50579.22,51881.16,-29.22,57.84,-0.405290,-0.367716,0.547647,96.20,1
46282,0,50574,51992,50579.21,51881.38,-5.21,110.62,-0.405290,-0.367720,0.547574,96.20,1
46320,0,50605,52057,50579.27,51881.73,25.73,175.27,-0.405291,-0.367727,0.547499,96.21,1
46362,0,50632,52128,50579.37,51882.23,52.63,245.77,-0.405293,-0.367736,0.547421,96.21,1
46402,0,50637,51964,50579.49,51882.39,57.51,81.61,-0.405296,-0.367739,0.547343,96.21,1
46443,0,50465,51509,50579.26,51881.64,-114.26,-372.64,-0.405291,-0.367725,0.547259,96.22,1
46482,0,50271,51232,50578.65,51880.35,-307.65,-648.35,-0.405279,-0.367700,0.547171,96.22,1
46523,0,50216,51207,50577.93,51879.00,-361.93,-672.00,-0.405265,-0.367674,0.547088,96.22,1
46559,0,50219,51230,50577.21,51877.71,-358.21,-647.71,-0.405251,-0.367649,0.547011,96.23,1
46603,0,50215,51225,50576.49,51876.40,-361.49,-651.40,-0.405237,-0.367624,0.546940,96.23,1
46645,0,50220,51273,50575.78,51875.20,-355.78,-602.20,-0.405222,-0.367601,0.546876,96.23,1
46683,0,50255,51343,50575.14,51874.13,-320.14,-531.13,-0.405210,-0.367580,0.546821,96.23,1
46723,0,50274,51365,50574.54,51873.12,-300.54,-508.12,-0.405198,-0.367561,0.546770,96.24,1
46763,0,50285,51377,50573.96,51872.12,-288.96,-495.12,-0.405186,-0.367541,0.546724,96.24,1
46804,0,50307,51439,50573.43,51871.26,-266.43,-432.26,-0.405176,-0.367525,0.546684,96.24,1
46844,0,50336,51529,50572.95,51870.58,-236.95,-341.58,-0.405167,-0.367512,0.546649,96.25,1
46883,0,50384,51618,50572.58,51870.07,-188.58,-252.07,-0.405159,-0.367502,0.546619,96.25,1
46923,0,50422,51686,50572.28,51869.71,-150.28,-183.71,-0.405153,-0.367495,0.546592,96.25,1
46963,0,50458,51747,50572.05,51869.46,-114.05,-122.46,-0.405149,-0.367490,0.546567,96.25,1
47003,0,50480,51794,50571.87,51869.32,-91.87,-75.32,-0.405145,-0.367487,0.546544,96.26,1
47045,0,50501,51842,50571.73,51869.26,-70.73,-27.26,-0.405142,-0.367486,0.546523,96.26,1
47084,0,50525,51896,50571.63,51869.32,-46.63,26.68,-0.405140,-0.367487,0.546502,96.26,1
47124,0,50550,51958,50571.59,51869.50,-21.59,88.50,-0.405140,-0.367491,0.546480,96.26,1
47164,0,50581,52010,50571.61,51869.78,9.39,140.22,-0.405140,-0.367496,0.546457,96.27,1
47205,0,50542,51736,50571.55,51869.51,-29.55,-133.51,-0.405139,-0.367491,0.546434,96.27,1
47244,0,50357,51350,50571.12,51868.47,-214.12,-518.47,-0.405130,-0.367471,0.546403,96.27,1
47284,0,50222,51207,50570.43,51867.15,-348.43,-660.15,-0.405117,-0.367446,0.546373,96.27,1
47325,0,50215,51248,50569.71,51865.91,-354.71,-617.91,-0.405103,-0.367422,0.546348,96.27,1
47365,0,50244,51286,50569.07,51864.75,-325.07,-578.75,-0.405090,-0.367399,0.546326,96.28,1
47405,0,50253,51318,50568.44,51863.66,-315.44,-545.66,-0.405077,-0.367378,0.546308,96.28,1
47445,0,50282,51381,50567.87,51862.70,-285.87,-481.70,-0.405066,-0.367360,0.546295,96.28,1
47485,0,50299,51399,50567.33,51861.77,-268.33,-462.77,-0.405055,-0.367342,0.546284,96.28,1
47524,0,50298,51396,50566.79,51860.84,-268.79,-464.84,-0.405045,-0.367324,0.546276,96.28,1
47564,0,50307,51433,50566.27,51859.98,-259.27,-426.98,-0.405035,-0.367307,0.546271,96.29,1
47604,0,50337,51507,50565.82,51859.28,-228.82,-352.28,-0.405026,-0.367294,0.546271,96.29,1
47645,0,50377,51596,50565.44,51858.76,-188.44,-262.76,-0.405018,-0.367284,0.546274,96.29,1
47685,0,50413,51667,50565.14,51858.37,-152.14,-191.37,-0.405012,-0.367276,0.546280,96.29,1
47727,0,50442,51720,50564.89,51858.10,-122.89,-138.10,-0.405007,-0.367271,0.546288,96.29,1
47767,0,50464,51777,50564.69,51857.94,-100.69,-80.94,-0.405003,-0.367268,0.546298,96.29,1
47806,0,50486,51830,50564.54,51857.88,-78.54,-27.88,-0.405000,-0.367267,0.546309,96.30,1
47847,0,50510,51875,50564.43,51857.92,-54.43,17.08,-0.404998,-0.367268,0.546321,96.30,1
47884,0,50535,51933,50564.37,51858.07,-29.37,74.93,-0.404997,-0.367270,0.546333,96.30,1
47924,0,50562,51998,50564.36,51858.35,-2.36,139.65,-0.404997,-0.367276,0.546343,96.30,1
47964,0,50544,51758,50564.32,51858.15,-20.32,-100.15,-0.404996,-0.367272,0.546353,96.30,1
48004,0,50364,51338,50563.93,51857.11,-199.93,-519.11,-0.404988,-0.367252,0.546354,96.30,1
48046,0,50208,51141,50563.21,51855.68,-355.21,-714.68,-0.404974,-0.367224,0.546350,96.30,1
48085,0,50176,51148,50562.44,51854.27,-386.44,-706.27,-0.404959,-0.367197,0.546348,96.30,1
48123,0,50184,51162,50561.69,51852.89,-377.69,-690.89,-0.404944,-0.367171,0.546348,96.31,1
48166,0,50188,51174,50560.94,51851.53,-372.94,-677.53,-0.404929,-0.367144,0.546350,96.31,1
48206,0,50207,51236,50560.23,51850.30,-353.23,-614.30,-0.404915,-0.367121,0.546355,96.31,1
48248,0,50237,51285,50559.59,51849.17,-322.59,-564.17,-0.404902,-0.367099,0.546363,96.31,1
48286,0,50247,51286,50558.96,51848.05,-311.96,-562.05,-0.404890,-0.367077,0.546373,96.31,1
48326,0,50244,51307,50558.34,51846.96,-314.34,-539.96,-0.404878,-0.367056,0.546385,96.31,1
48366,0,50268,51390,50557.76,51846.05,-289.76,-456.05,-0.404866,-0.367039,0.546402,96.31,1
48407,0,50313,51486,50557.27,51845.33,-244.27,-359.33,-0.404856,-0.367025,0.546424,96.31,1
48452,0,50349,51570,50556.86,51844.78,-207.86,-274.78,-0.404848,-0.367014,0.546450,96.31,1
48487,0,50393,51634,50556.53,51844.36,-163.53,-210.36,-0.404842,-0.367006,0.546478,96.31,1
48528,0,50419,51699,50556.25,51844.07,-137.25,-145.07,-0.404836,-0.367000,0.546509,96.31,1
48567,0,50448,51759,50556.04,51843.90,-108.04,-84.90,-0.404832,-0.366997,0.546541,96.31,1
48606,0,50476,51809,50555.88,51843.83,-79.88,-34.83,-0.404829,-0.366996,0.546575,96.32,1
48648,0,50505,51860,50555.78,51843.87,-50.78,16.13,-0.404827,-0.366997,0.546610,96.32,1
48686,0,50530,51921,50555.73,51844.02,-25.73,76.98,-0.404826,-0.367000,0.546643,96.32,1
48728,0,50568,51973,50555.75,51844.28,12.25,128.72,-0.404826,-0.367005,0.546676,96.32,1
48767,0,50517,51668,50555.68,51843.93,-38.68,-175.93,-0.404825,-0.366998,0.546707,96.32,1
48806,0,50318,51234,50555.20,51842.71,-237.20,-608.71,-0.404816,-0.366974,0.546727,96.32,1
48846,0,50159,51042,50554.41,51841.11,-395.41,-799.11,-0.404800,-0.366943,0.546741,96.32,1
48886,0,50123,51036,50553.55,51839.50,-430.55,-803.50,-0.404783,-0.366912,0.546754,96.32,1
48929,0,50125,51033,50552.69,51837.89,-427.69,-804.89,-0.404766,-0.366881,0.546767,96.32,1
48968,0,50112,51004,50551.81,51836.22,-439.81,-832.22,-0.404748,-0.366849,0.546778,96.32,1
49008,0,50121,51072,50550.95,51834.69,-429.95,-762.69,-0.404732,-0.366820,0.546792,96.32,1
49048,0,50153,51136,50550.16,51833.30,-397.16,-697.30,-0.404716,-0.366793,0.546810,96.32,1
49087,0,50165,51151,50549.39,51831.93,-384.39,-680.93,-0.404701,-0.366766,0.546829,96.32,1
49127,0,50175,51173,50548.64,51830.62,-373.64,-657.62,-0.404686,-0.366741,0.546851,96.32,1
49166,0,50198,51251,50547.95,51829.46,-349.95,-578.46,-0.404672,-0.366719,0.546876,96.32,1
49206,0,50239,51348,50547.33,51828.50,-308.33,-480.50,-0.404660,-0.366700,0.546906,96.32,1
49246,0,50286,51434,50546.81,51827.71,-260.81,-393.71,-0.404650,-0.366685,0.546940,96.32,1
49288,0,50329,51503,50546.37,51827.06,-217.37,-324.06,-0.404641,-0.366672,0.546977,96.32,1
49327,0,50359,51566,50546.00,51826.54,-187.00,-260.54,-0.404634,-0.366662,0.547015,96.32,1
49366,0,50385,51626,50545.68,51826.14,-160.68,-200.14,-0.404627,-0.366655,0.547056,96.32,1
49407,0,50412,51681,50545.41,51825.86,-133.41,-144.86,-0.404622,-0.366649,0.547099,96.32,1
49448,0,50441,51731,50545.21,51825.67,-104.21,-94.67,-0.404618,-0.366645,0.547143,96.32,1
49487,0,50459,51787,50545.04,51825.59,-86.04,-38.59,-0.404614,-0.366644,0.547188,96.32,1
49527,0,50488,51858,50544.92,51825.66,-56.92,32.34,-0.404612,-0.366645,0.547233,96.32,1
49568,0,50510,51797,50544.85,51825.61,-34.85,-28.61,-0.404611,-0.366644,0.547278,96.32,1
49608,0,50381,51358,50544.52,51824.67,-163.52,-466.67,-0.404604,-0.366626,0.547317,96.32,1
49648,0,50169,51005,50543.77,51823.04,-374.77,-818.04,-0.404589,-0.366595,0.547345,96.32,1
49687,0,50067,50938,50542.82,51821.27,-475.82,-883.27,-0.404571,-0.366560,0.547373,96.32,1
49728,0,50068,50932,50541.87,51819.49,-473.87,-887.49,-0.404552,-0.366526,0.547399,96.32,1
49768,0,50066,50895,50540.92,51817.64,-474.92,-922.64,-0.404533,-0.366491,0.547421,96.32,1
49808,0,50042,50901,50539.93,51815.81,-497.93,-914.81,-0.404513,-0.366455,0.547444,96.32,1
49848,0,50066,50976,50538.98,51814.13,-472.98,-838.13,-0.404495,-0.366423,0.547469,96.32,1
49888,0,50098,51007,50538.10,51812.52,-440.10,-805.52,-0.404477,-0.366392,0.547494,96.32,1
49929,0,50109,51019,50537.25,51810.93,-428.25,-791.93,-0.404460,-0.366361,0.547519,96.32,1
49969,0,50124,51061,50536.42,51809.43,-412.42,-748.43,-0.404444,-0.366332,0.547545,96.32,1
50009,0,50154,51138,50535.66,51808.09,-381.66,-670.09,-0.404429,-0.366306,0.547573,96.32,1
50049,0,50196,51242,50534.98,51806.96,-338.98,-564.96,-0.404416,-0.366284,0.547603,96.32,1
50089,0,50248,51319,50534.41,51805.99,-286.41,-486.99,-0.404404,-0.366266,0.547635,96.32,1
50128,0,50281,51383,50533.90,51805.14,-252.90,-422.14,-0.404394,-0.366249,0.547668,96.32,1
50169,0,50307,51450,50533.45,51804.44,-226.45,-354.44,-0.404385,-0.366236,0.547703,96.32,1
50211,0,50337,51506,50533.06,51803.84,-196.06,-297.84,-0.404377,-0.366224,0.547739,96.32,1
50251,0,50360,51557,50532.71,51803.35,-172.71,-246.35,-0.404371,-0.366215,0.547777,96.32,1
50288,0,50386,51633,50532.42,51803.01,-146.42,-170.01,-0.404365,-0.366208,0.547816,96.32,1
50328,0,50417,51695,50532.19,51802.80,-115.19,-107.80,-0.404360,-0.366204,0.547857,96.32,1
50369,0,50449,51770,50532.03,51802.73,-83.03,-32.73,-0.404357,-0.366203,0.547898,96.32,1
50410,0,50486,51814,50531.94,51802.76,-45.94,11.24,-0.404355,-0.366203,0.547940,96.32,1
50450,0,50437,51486,50531.75,51802.12,-94.75,-316.12,-0.404352,-0.366191,0.547978,96.32,1
50490,0,50222,51072,50531.13,51800.67,-309.13,-728.67,-0.404339,-0.366163,0.548008,96.31,1
50526,0,50087,50920,50530.25,51798.91,-443.25,-878.91,-0.404322,-0.366129,0.548033,96.31,1
50569,0,50069,50921,50529.32,51797.15,-460.32,-876.15,-0.404304,-0.366095,0.548056,96.31,1
50638,0,50074,50916,50528.41,51795.39,-454.41,-879.39,-0.404286,-0.366061,0.548077,96.31,1
50649,0,50069,50927,50527.50,51793.66,-458.50,-866.66,-0.404267,-0.366028,0.548096,96.31,1
50691,0,50088,50991,50526.62,51792.05,-438.62,-801.05,-0.404250,-0.365997,0.548115,96.31,1
50730,0,50122,51028,50525.81,51790.52,-403.81,-762.52,-0.404234,-0.365967,0.548134,96.31,1
50771,0,50132,51038,50525.02,51789.02,-393.02,-751.02,-0.404218,-0.365938,0.548151,96.31,1
50810,0,50139,51075,50524.25,51787.59,-385.25,-712.59,-0.404203,-0.365911,0.548168,96.31,1
50851,0,50164,51165,50523.54,51786.35,-359.54,-621.35,-0.404189,-0.365887,0.548187,96.31,1
50891,0,50211,51248,50522.91,51785.28,-311.91,-537.28,-0.404177,-0.365866,0.548208,96.31,1
50930,0,50254,51331,50522.37,51784.37,-268.37,-453.37,-0.404166,-0.365848,0.548229,96.31,1
50971,0,50281,51413,50521.89,51783.63,-240.89,-370.63,-0.404157,-0.365834,0.548253,96.31,1
51011,0,50320,51480,50521.49,51783.02,-201.49,-303.02,-0.404149,-0.365822,0.548279,96.31,1
51051,0,50347,51539,50521.14,51782.54,-174.14,-243.54,-0.404142,-0.365813,0.548305,96.31,1
51090,0,50376,51600,50520.86,51782.17,-144.86,-182.17,-0.404136,-0.365806,0.548333,96.31,1
51129,0,50406,51665,50520.63,51781.94,-114.63,-116.94,-0.404131,-0.365801,0.548362,96.31,1
51170,0,50442,51748,50520.47,51781.87,-78.47,-33.87,-0.404128,-0.365800,0.548392,96.31,1
51210,0,50491,51814,50520.41,51781.94,-29.41,32.06,-0.404127,-0.365801,0.548422,96.31,1
51251,0,50500,51691,50520.37,51781.76,-20.37,-90.76,-0.404126,-0.365798,0.548451,96.31,1
51291,0,50348,51269,50520.03,51780.73,-172.03,-511.73,-0.404120,-0.365778,0.548475,96.31,1
51331,0,50156,50973,50519.30,51779.12,-363.30,-806.12,-0.404105,-0.365747,0.548490,96.30,1
51371,0,50088,50938,50518.45,51777.44,-430.45,-839.44,-0.404088,-0.365714,0.548504,96.30,1
51411,0,50100,50984,50517.61,51775.86,-417.61,-791.86,-0.404072,-0.365684,0.548516,96.30,1
51450,0,50113,50998,50516.80,51774.30,-403.80,-776.30,-0.404056,-0.365654,0.548527,96.30,1
51492,0,50123,51059,50516.02,51772.87,-393.02,-713.87,-0.404040,-0.365626,0.548538,96.30,1
51532,0,50160,51104,50515.30,51771.54,-355.30,-667.54,-0.404026,-0.365600,0.548549,96.30,1
51571,0,50171,51111,50514.62,51770.21,-343.62,-659.21,-0.404012,-0.365575,0.548559,96.30,1
51611,0,50159,51128,50513.91,51768.93,-354.91,-640.93,-0.403998,-0.365550,0.548570,96.30,1
51651,0,50187,51199,50513.25,51767.80,-326.25,-568.80,-0.403986,-0.365528,0.548582,96.30,1
51692,0,50232,51294,50512.69,51766.85,-280.69,-472.85,-0.403974,-0.365510,0.548596,96.30,1
51732,0,50273,51384,50512.21,51766.09,-239.21,-382.09,-0.403965,-0.365495,0.548611,96.30,1
51772,0,50317,51457,50511.82,51765.47,-194.82,-308.47,-0.403957,-0.365483,0.548627,96.30,1
51812,0,50345,51517,50511.49,51764.97,-166.49,-247.97,-0.403951,-0.365474,0.548645,96.30,1
51852,0,50376,51580,50511.22,51764.61,-135.22,-184.61,-0.403945,-0.365467,0.548663,96.30,1
51893,0,50412,51640,50511.03,51764.36,-99.03,-124.36,-0.403941,-0.365462,0.548682,96.30,1
51932,0,50439,51706,50510.88,51764.24,-71.88,-58.24,-0.403939,-0.365460,0.548702,96.30,1
51971,0,50467,51767,50510.80,51764.25,-43.80,2.75,-0.403937,-0.365460,0.548721,96.30,1
52011,0,50495,51823,50510.77,51764.37,-15.77,58.63,-0.403936,-0.365462,0.548741,96.30,1
52050,0,50523,51895,50510.79,51764.63,12.21,130.37,-0.403937,-0.365467,0.548759,96.30,1
52091,0,50535,51766,50510.84,51764.63,24.16,1.37,-0.403938,-0.365467,0.548778,96.30,1
52130,0,50375,51325,50510.57,51763.75,-135.57,-438.75,-0.403932,-0.365450,0.548792,96.30,1
52172,0,50175,51031,50509.91,51762.29,-334.91,-731.29,-0.403919,-0.365422,0.548801,96.29,1
52213,0,50103,50966,50509.09,51760.70,-406.09,-794.70,-0.403903,-0.365391,0.548807,96.29,1
52253,0,50093,50962,50508.26,51759.10,-415.26,-797.10,-0.403887,-0.365360,0.548812,96.29,1
52292,0,50080,50930,50507.41,51757.45,-427.41,-827.45,-0.403870,-0.365328,0.548815,96.29,1
52333,0,50077,50957,50506.55,51755.85,-429.55,-798.85,-0.403853,-0.365297,0.548818,96.29,1
52372,0,50102,51038,50505.74,51754.41,-403.74,-716.41,-0.403837,-0.365270,0.548823,96.29,1
52414,0,50135,51077,50505.00,51753.06,-370.00,-676.06,-0.403822,-0.365243,0.548829,96.29,1
52452,0,50150,51083,50504.29,51751.72,-354.29,-668.72,-0.403808,-0.365218,0.548834,96.29,1
52493,0,50155,51140,50503.59,51750.50,-348.59,-610.50,-0.403794,-0.365194,0.548840,96.29,1
52533,0,50203,51241,50502.99,51749.48,-299.99,-508.48,-0.403782,-0.365174,0.548849,96.29,1
52573,0,50248,51346,50502.48,51748.68,-254.48,-402.68,-0.403772,-0.365159,0.548859,96.29,1
52611,0,50292,51420,50502.07,51748.02,-210.07,-328.02,-0.403764,-0.365146,0.548870,96.29,1
52652,0,50328,51482,50501.72,51747.49,-173.72,-265.49,-0.403757,-0.365136,0.548883,96.29,1
52691,0,50349,51536,50501.41,51747.07,-152.41,-211.07,-0.403751,-0.365128,0.548897,96.29,1
52732,0,50384,51604,50501.18,51746.78,-117.18,-142.78,-0.403746,-0.365122,0.548911,96.29,1
52773,0,50418,51654,50501.02,51746.60,-83.02,-92.60,-0.403743,-0.365119,0.548926,96.29,1
52813,0,50441,51716,50500.90,51746.54,-59.90,-30.54,-0.403741,-0.365117,0.548942,96.29,1
52853,0,50468,51798,50500.83,51746.64,-32.83,51.36,-0.403740,-0.365120,0.548957,96.29,1
52893,0,50514,51898,50500.86,51746.95,13.14,151.05,-0.403740,-0.365125,0.548972,96.29,1
52933,0,50561,51927,50500.98,51747.31,60.02,179.69,-0.403742,-0.365132,0.548986,96.29,1
52972,0,50489,51569,50500.96,51746.96,-11.96,-177.96,-0.403742,-0.365126,0.548998,96.29,1
53013,0,50281,51159,50500.52,51745.78,-219.52,-586.78,-0.403733,-0.365103,0.549005,96.29,1
53053,0,50145,50995,50499.81,51744.28,-354.81,-749.28,-0.403719,-0.365074,0.549007,96.29,1
53093,0,50122,50990,50499.05,51742.77,-377.05,-752.77,-0.403704,-0.365045,0.549006,96.29,1
53134,0,50122,50990,50498.30,51741.27,-376.30,-751.27,-0.403689,-0.365016,0.549003,96.29,1
53172,0,50118,51001,50497.54,51739.79,-379.54,-738.79,-0.403674,-0.364987,0.548999,96.29,1
53210,0,50146,51083,50496.84,51738.48,-350.84,-655.48,-0.403660,-0.364962,0.548994,96.28,1
53249,0,50185,51142,50496.22,51737.29,-311.22,-595.29,-0.403648,-0.364939,0.548989,96.28,1
53289,0,50205,51157,50495.64,51736.12,-290.64,-579.12,-0.403637,-0.364916,0.548983,96.28,1
53329,0,50215,51180,50495.08,51735.02,-280.08,-555.02,-0.403626,-0.364895,0.548976,96.28,1
53375,0,50232,51227,50494.55,51734.00,-262.55,-507.00,-0.403615,-0.364875,0.548968,96.28,1
53414,0,50258,51307,50494.08,51733.15,-236.08,-426.15,-0.403606,-0.364859,0.548961,96.28,1
53455,0,50297,51414,50493.69,51732.51,-196.69,-318.51,-0.403598,-0.364846,0.548955,96.28,1
53496,0,50331,51479,50493.36,51732.01,-162.36,-253.01,-0.403592,-0.364837,0.548950,96.28,1
53535,0,50355,51535,50493.09,51731.61,-138.09,-196.61,-0.403586,-0.364829,0.548946,96.28,1
53575,0,50390,51594,50492.88,51731.34,-102.88,-137.34,-0.403582,-0.364824,0.548942,96.28,1
53614,0,50414,51691,50492.73,51731.26,-78.73,-40.26,-0.403579,-0.364822,0.548939,96.28,1
53655,0,50470,51804,50492.68,51731.41,-22.68,72.59,-0.403578,-0.364825,0.548936,96.28,1
53695,0,50524,51913,50492.75,51731.77,31.25,181.23,-0.403579,-0.364832,0.548932,96.28,1
53734,0,50580,52037,50492.92,51732.39,87.08,304.61,-0.403583,-0.364844,0.548926,96.28,1
53775,0,50639,52174,50493.21,51733.27,145.79,440.73,-0.403589,-0.364861,0.548916,96.28,1
53815,0,50682,52098,50493.59,51734.00,188.41,364.00,-0.403596,-0.364875,0.548905,96.28,1
53853,0,50514,51641,50493.64,51733.82,20.36,-92.82,-0.403597,-0.364872,0.548894,96.28,1
