t_ms,phase,red_raw,ir_raw,red_dc,ir_dc,red_ac,ir_ac,OD_red,OD_ir,R,spo2,spo2_valid
140,0,47635,52786,47962.93,52864.58,-327.93,-78.58,-0.220021,-0.269380,2.589592,45.26,0
163,0,47636,52783,47962.28,52864.42,-326.28,-81.42,-0.220007,-0.269377,2.589592,45.26,0
195,0,47645,52790,47961.64,52864.27,-316.64,-74.27,-0.219994,-0.269374,2.589592,45.26,0
201,0,47640,52789,47961.00,52864.12,-321.00,-75.12,-0.219981,-0.269371,2.589592,45.26,0
208,0,47634,52789,47960.35,52863.98,-326.35,-74.98,-0.219967,-0.269368,2.589592,45.26,0
215,0,47636,52798,47959.70,52863.85,-323.70,-65.85,-0.219954,-0.269366,2.589592,45.26,0
221,0,47641,52797,47959.07,52863.71,-318.07,-66.71,-0.219940,-0.269363,2.589592,45.26,0
227,0,47637,52796,47958.42,52863.58,-321.42,-67.58,-0.219927,-0.269361,2.589592,45.26,0
231,0,47641,52799,47957.79,52863.45,-316.79,-64.45,-0.219914,-0.269358,2.589592,45.26,0
235,0,47638,52793,47957.15,52863.31,-319.15,-70.31,-0.219901,-0.269355,2.589592,45.26,0
237,0,47636,52788,47956.51,52863.16,-320.51,-75.16,-0.219887,-0.269353,2.589592,45.26,0
240,0,47630,52783,47955.86,52863.00,-325.86,-80.00,-0.219874,-0.269350,2.589592,45.26,0
242,0,47628,52779,47955.20,52862.84,-327.20,-83.84,-0.219860,-0.269346,2.589592,45.26,0
245,0,47626,52770,47954.55,52862.65,-328.55,-92.65,-0.219846,-0.269343,2.589592,45.26,0
247,0,47617,52778,47953.87,52862.48,-336.87,-84.48,-0.219832,-0.269340,2.589592,45.26,0
248,0,47623,52774,47953.21,52862.31,-330.21,-88.31,-0.219818,-0.269337,2.589592,45.26,0
250,0,47621,52783,47952.55,52862.15,-331.55,-79.15,-0.219805,-0.269334,2.589592,45.26,0
252,0,47616,52781,47951.87,52861.99,-335.87,-80.99,-0.219791,-0.269331,2.589592,45.26,0
253,0,47621,52777,47951.21,52861.82,-330.21,-84.82,-0.219777,-0.269327,2.589592,45.26,0
254,0,47616,52778,47950.55,52861.66,-334.55,-83.66,-0.219763,-0.269324,2.589592,45.26,0
255,0,47620,52776,47949.89,52861.48,-329.89,-85.48,-0.219749,-0.269321,2.589592,45.26,0
256,0,47611,52779,47949.21,52861.32,-338.21,-82.32,-0.219735,-0.269318,2.589592,45.26,0
257,0,47605,52773,47948.52,52861.14,-343.52,-88.14,-0.219721,-0.269314,2.589592,45.26,0
257,0,47605,52770,47947.84,52860.96,-342.84,-90.96,-0.219706,-0.269311,2.589592,45.26,0
258,0,47602,52771,47947.14,52860.79,-345.14,-89.79,-0.219692,-0.269308,2.589592,45.26,0
259,0,47605,52771,47946.46,52860.61,-341.46,-89.61,-0.219678,-0.269304,2.589592,45.26,0
263,0,47602,52769,47945.77,52860.42,-343.77,-91.42,-0.219663,-0.269301,2.589592,45.26,0
273,0,47596,52774,47945.07,52860.25,-349.07,-86.25,-0.219649,-0.269298,2.589592,45.26,0
283,0,47599,52775,47944.38,52860.08,-345.38,-85.08,-0.219634,-0.269294,2.589592,45.26,0
294,0,47601,52777,47943.70,52859.92,-342.70,-82.92,-0.219620,-0.269291,2.589592,45.26,0
305,0,47598,52780,47943.01,52859.76,-345.01,-79.76,-0.219606,-0.269288,2.589592,45.26,0
315,0,47593,52777,47942.31,52859.59,-349.31,-82.59,-0.219591,-0.269285,2.589592,45.26,0
325,0,47599,52776,47941.62,52859.43,-342.62,-83.43,-0.219577,-0.269282,2.589592,45.26,0
335,0,47594,52788,47940.93,52859.29,-346.93,-71.29,-0.219562,-0.269279,2.589592,45.26,0
346,0,47592,52787,47940.23,52859.14,-348.23,-72.14,-0.219548,-0.269277,2.589592,45.26,0
355,0,47591,52779,47939.54,52858.98,-348.54,-79.98,-0.219533,-0.269274,2.589592,45.26,0
365,0,47594,52779,47938.85,52858.82,-344.85,-79.82,-0.219519,-0.269271,2.589592,45.26,0
374,0,47589,52784,47938.15,52858.68,-349.15,-74.68,-0.219504,-0.269268,2.589592,45.26,0
386,0,47588,52783,47937.45,52858.53,-349.45,-75.53,-0.219490,-0.269265,2.589592,45.26,0
396,0,47583,52777,47936.74,52858.37,-353.74,-81.37,-0.219475,-0.269262,2.589592,45.26,0
406,0,47589,52771,47936.05,52858.20,-347.05,-87.20,-0.219460,-0.269259,2.589592,45.26,0
416,0,47584,52778,47935.34,52858.04,-351.34,-80.04,-0.219446,-0.269256,2.589592,45.26,0
426,0,47583,52775,47934.64,52857.87,-351.64,-82.87,-0.219431,-0.269253,2.589592,45.26,0
437,0,47578,52775,47933.93,52857.71,-355.93,-82.71,-0.219416,-0.269249,2.589592,45.26,0
445,0,47576,52770,47933.21,52857.53,-357.21,-87.53,-0.219401,-0.269246,2.589592,45.26,0
455,0,47577,52772,47932.50,52857.36,-355.50,-85.36,-0.219386,-0.269243,2.589592,45.26,0
466,0,47574,52771,47931.79,52857.19,-357.79,-86.19,-0.219372,-0.269240,2.589592,45.26,0
475,0,47564,52761,47931.05,52857.00,-367.05,-96.00,-0.219356,-0.269236,2.589592,45.26,0
486,0,47564,52754,47930.32,52856.80,-366.32,-102.80,-0.219341,-0.269232,2.589592,45.26,0
496,0,47558,52732,47929.58,52856.55,-371.58,-124.55,-0.219325,-0.269228,2.589592,45.26,0
506,0,47555,52726,47928.83,52856.29,-373.83,-130.29,-0.219310,-0.269223,2.589592,45.26,0
516,0,47558,52718,47928.09,52856.02,-370.09,-138.02,-0.219294,-0.269218,2.589592,45.26,0
526,0,47555,52718,47927.34,52855.74,-372.34,-137.74,-0.219279,-0.269212,2.589592,45.26,0
535,0,47547,52712,47926.59,52855.46,-379.59,-143.46,-0.219263,-0.269207,2.589592,45.26,0
546,0,47551,52719,47925.84,52855.18,-374.84,-136.18,-0.219247,-0.269202,2.589592,45.26,0
555,0,47547,52711,47925.08,52854.90,-378.08,-143.90,-0.219232,-0.269196,2.589592,45.26,0
566,0,47542,52717,47924.31,52854.62,-382.31,-137.62,-0.219216,-0.269191,2.589592,45.26,0
576,0,47547,52722,47923.56,52854.36,-376.56,-132.36,-0.219200,-0.269186,2.589592,45.26,0
585,0,47544,52719,47922.80,52854.09,-378.80,-135.09,-0.219184,-0.269181,2.589592,45.26,0
596,0,47544,52718,47922.04,52853.82,-378.04,-135.82,-0.219168,-0.269176,2.589592,45.26,0
606,0,47536,52715,47921.27,52853.54,-385.27,-138.54,-0.219152,-0.269171,2.589592,45.26,0
616,0,47542,52722,47920.52,52853.28,-378.52,-131.28,-0.219136,-0.269166,2.589592,45.26,0
627,0,47530,52718,47919.73,52853.01,-389.73,-135.01,-0.219120,-0.269161,2.589592,45.26,0
637,0,47543,52727,47918.98,52852.76,-375.98,-125.76,-0.219104,-0.269156,2.589592,45.26,0
646,0,47537,52718,47918.22,52852.49,-381.22,-134.49,-0.219088,-0.269151,2.589592,45.26,0
656,0,47534,52719,47917.45,52852.23,-383.45,-133.23,-0.219072,-0.269146,2.589592,45.26,0
667,0,47530,52721,47916.68,52851.96,-386.68,-130.96,-0.219056,-0.269141,2.589592,45.26,0
676,0,47527,52716,47915.90,52851.70,-388.90,-135.70,-0.219040,-0.269136,2.589592,45.26,0
686,0,47530,52713,47915.13,52851.42,-385.13,-138.42,-0.219024,-0.269131,2.589592,45.26,0
697,0,47529,52716,47914.36,52851.15,-385.36,-135.15,-0.219008,-0.269125,2.589592,45.26,0
707,0,47526,52720,47913.59,52850.89,-387.59,-130.89,-0.218992,-0.269120,2.589592,45.26,0
717,0,47526,52716,47912.81,52850.62,-386.81,-134.62,-0.218976,-0.269115,2.589592,45.26,0
726,0,47524,52715,47912.04,52850.35,-388.04,-135.35,-0.218959,-0.269110,2.589592,45.26,0
737,0,47522,52717,47911.26,52850.08,-389.26,-133.08,-0.218943,-0.269105,2.589592,45.26,0
746,0,47527,52718,47910.49,52849.82,-383.49,-131.82,-0.218927,-0.269100,2.589592,45.26,0
756,0,47526,52709,47909.72,52849.54,-383.72,-140.54,-0.218911,-0.269095,2.589592,45.26,0
766,0,47523,52704,47908.95,52849.25,-385.95,-145.25,-0.218895,-0.269089,2.589592,45.26,0
776,0,47524,52712,47908.18,52848.98,-384.18,-136.98,-0.218879,-0.269084,2.589592,45.26,0
786,0,47525,52709,47907.41,52848.70,-382.41,-139.70,-0.218863,-0.269079,2.589592,45.26,0
796,0,47522,52706,47906.64,52848.41,-384.64,-142.41,-0.218847,-0.269074,2.589592,45.26,0
806,0,47527,52711,47905.89,52848.14,-378.89,-137.14,-0.218831,-0.269069,2.589592,45.26,0
817,0,47527,52720,47905.13,52847.89,-378.13,-127.89,-0.218815,-0.269064,2.589592,45.26,0
826,0,47527,52730,47904.37,52847.65,-377.37,-117.65,-0.218799,-0.269059,2.589592,45.26,0
836,0,47527,52735,47903.62,52847.43,-376.62,-112.43,-0.218784,-0.269055,2.589592,45.26,0
847,0,47528,52731,47902.87,52847.20,-374.87,-116.20,-0.218768,-0.269051,2.589592,45.26,0
856,0,47534,52742,47902.13,52846.99,-368.13,-104.99,-0.218753,-0.269047,2.589592,45.26,0
866,0,47533,52736,47901.39,52846.77,-368.39,-110.77,-0.218737,-0.269043,2.589592,45.26,0
876,0,47531,52740,47900.66,52846.56,-369.66,-106.56,-0.218722,-0.269039,2.589592,45.26,0
886,0,47532,52742,47899.92,52846.35,-367.92,-104.35,-0.218706,-0.269035,2.589592,45.26,0
896,0,47530,52745,47899.18,52846.15,-369.18,-101.15,-0.218691,-0.269031,2.589592,45.26,0
906,0,47529,52745,47898.45,52845.95,-369.45,-100.95,-0.218676,-0.269027,2.589592,45.26,0
915,0,47529,52748,47897.71,52845.75,-368.71,-97.75,-0.218660,-0.269023,2.589592,45.26,0
926,0,47528,52757,47896.97,52845.58,-368.97,-88.58,-0.218645,-0.269020,2.589592,45.26,0
935,0,47529,52759,47896.23,52845.41,-367.23,-86.41,-0.218629,-0.269017,2.589592,45.26,0
946,0,47532,52764,47895.51,52845.25,-363.51,-81.25,-0.218614,-0.269014,2.589592,45.26,0
956,0,47532,52769,47894.78,52845.09,-362.78,-76.09,-0.218599,-0.269011,2.589592,45.26,0
966,0,47532,52769,47894.06,52844.94,-362.06,-75.94,-0.218584,-0.269008,2.589592,45.26,0
975,0,47539,52782,47893.35,52844.82,-354.35,-62.82,-0.218569,-0.269006,2.589592,45.26,0
984,0,47545,52779,47892.66,52844.69,-347.66,-65.69,-0.218555,-0.269003,2.589592,45.26,0
995,0,47544,52786,47891.96,52844.57,-347.96,-58.57,-0.218540,-0.269001,2.589592,45.26,0
1006,0,47547,52780,47891.27,52844.44,-344.27,-64.44,-0.218526,-0.268998,2.589592,45.26,0
1014,0,47548,52790,47890.59,52844.33,-342.59,-54.33,-0.218512,-0.268996,2.589592,45.26,0
1024,0,47550,52783,47889.91,52844.21,-339.91,-61.21,-0.218497,-0.268994,2.589592,45.26,0
1036,0,47545,52790,47889.22,52844.11,-344.22,-54.11,-0.218483,-0.268992,2.589592,45.26,0
1046,0,47546,52797,47888.54,52844.01,-342.54,-47.01,-0.218469,-0.268990,2.589592,45.26,0
1056,0,47550,52805,47887.86,52843.93,-337.86,-38.93,-0.218455,-0.268989,2.589592,45.26,0
1066,0,47550,52799,47887.19,52843.84,-337.19,-44.84,-0.218441,-0.268987,2.589592,45.26,0
1076,0,47556,52810,47886.53,52843.78,-330.53,-33.78,-0.218427,-0.268986,2.589592,45.26,0
1086,0,47558,52807,47885.87,52843.71,-327.87,-36.71,-0.218413,-0.268985,2.589592,45.26,0
1096,0,47560,52799,47885.22,52843.62,-325.22,-44.62,-0.218400,-0.268983,2.589592,45.26,0
1107,0,47552,52785,47884.55,52843.50,-332.55,-58.50,-0.218386,-0.268981,2.589592,45.26,0
1117,0,47547,52771,47883.88,52843.36,-336.88,-72.36,-0.218372,-0.268978,2.589592,45.26,0
1126,0,47556,52767,47883.22,52843.20,-327.22,-76.20,-0.218358,-0.268975,2.589592,45.26,0
1137,0,47551,52762,47882.56,52843.04,-331.56,-81.04,-0.218344,-0.268972,2.589592,45.26,0
1146,0,47544,52756,47881.88,52842.87,-337.88,-86.87,-0.218330,-0.268969,2.589592,45.26,0
1156,0,47548,52751,47881.21,52842.69,-333.21,-91.69,-0.218316,-0.268965,2.589592,45.26,0
1166,0,47548,52760,47880.55,52842.52,-332.55,-82.52,-0.218302,-0.268962,2.589592,45.26,0
1176,0,47548,52769,47879.89,52842.38,-331.89,-73.38,-0.218288,-0.268959,2.589592,45.26,0
1186,0,47546,52770,47879.22,52842.23,-333.22,-72.23,-0.218274,-0.268957,2.589592,45.26,0
1198,0,47546,52772,47878.55,52842.09,-332.55,-70.09,-0.218260,-0.268954,2.589592,45.26,0
1208,0,47551,52783,47877.90,52841.98,-326.90,-58.98,-0.218247,-0.268952,2.589592,45.26,0
1216,0,47552,52775,47877.25,52841.84,-325.25,-66.84,-0.218233,-0.268949,2.589592,45.26,0
1226,0,47549,52772,47876.59,52841.71,-327.59,-69.71,-0.218219,-0.268947,2.589592,45.26,0
1237,0,47557,52784,47875.96,52841.59,-318.96,-57.59,-0.218206,-0.268945,2.589592,45.26,0
1246,0,47551,52781,47875.31,52841.47,-324.31,-60.47,-0.218193,-0.268942,2.589592,45.26,0
1257,0,47548,52784,47874.66,52841.36,-326.66,-57.36,-0.218179,-0.268940,2.589592,45.26,0
1267,0,47552,52787,47874.01,52841.25,-322.01,-54.25,-0.218165,-0.268938,2.589592,45.26,0
1276,0,47553,52792,47873.37,52841.16,-320.37,-49.16,-0.218152,-0.268936,2.589592,45.26,0
1286,0,47553,52786,47872.73,52841.05,-319.73,-55.05,-0.218139,-0.268934,2.589592,45.26,0
1296,0,47550,52794,47872.09,52840.95,-322.09,-46.95,-0.218125,-0.268932,2.589592,45.26,0
1306,0,47554,52793,47871.45,52840.86,-317.45,-47.86,-0.218112,-0.268931,2.589592,45.26,0
1317,0,47551,52798,47870.81,52840.77,-319.81,-42.77,-0.218098,-0.268929,2.589592,45.26,0
1328,0,47549,52798,47870.17,52840.69,-321.17,-42.69,-0.218085,-0.268927,2.589592,45.26,0
1336,0,47550,52794,47869.53,52840.59,-319.53,-46.59,-0.218072,-0.268926,2.589592,45.26,0
1346,0,47544,52793,47868.88,52840.50,-324.88,-47.50,-0.218058,-0.268924,2.589592,45.26,0
1356,0,47548,52793,47868.24,52840.41,-320.24,-47.41,-0.218045,-0.268922,2.589592,45.26,0
1366,0,47547,52793,47867.60,52840.31,-320.60,-47.31,-0.218031,-0.268920,2.589592,45.26,0
1376,0,47543,52790,47866.95,52840.21,-323.95,-50.21,-0.218018,-0.268918,2.589592,45.26,0
1387,0,47539,52790,47866.29,52840.12,-327.29,-50.12,-0.218004,-0.268917,2.589592,45.26,0
1396,0,47549,52793,47865.66,52840.02,-316.66,-47.02,-0.217991,-0.268915,2.589592,45.26,0
1406,0,47542,52801,47865.02,52839.95,-323.02,-38.95,-0.217977,-0.268913,2.589592,45.26,0
1416,0,47549,52795,47864.39,52839.86,-315.39,-44.86,-0.217964,-0.268912,2.589592,45.26,0
1427,0,47546,52799,47863.75,52839.77,-317.75,-40.77,-0.217951,-0.268910,2.589592,45.26,0
1436,0,47547,52799,47863.12,52839.69,-316.12,-40.69,-0.217938,-0.268909,2.589592,45.26,0
1446,0,47548,52800,47862.49,52839.61,-314.49,-39.61,-0.217925,-0.268907,2.589592,45.26,0
1456,0,47548,52804,47861.86,52839.54,-313.86,-35.54,-0.217912,-0.268906,2.589592,45.26,0
1467,0,47545,52800,47861.23,52839.46,-316.23,-39.46,-0.217898,-0.268904,2.589592,45.26,0
1476,0,47545,52808,47860.59,52839.40,-315.59,-31.40,-0.217885,-0.268903,2.589592,45.26,0
1486,0,47543,52804,47859.96,52839.33,-316.96,-35.33,-0.217872,-0.268902,2.589592,45.26,0
1496,0,47537,52802,47859.32,52839.26,-322.32,-37.26,-0.217858,-0.268900,2.589592,45.26,0
1506,0,47543,52803,47858.68,52839.19,-315.68,-36.19,-0.217845,-0.268899,2.589592,45.26,0
1516,0,47542,52809,47858.05,52839.13,-316.05,-30.13,-0.217832,-0.268898,2.589592,45.26,0
1526,0,47540,52800,47857.41,52839.05,-317.41,-39.05,-0.217819,-0.268896,2.589592,45.26,0
1536,0,47537,52804,47856.77,52838.98,-319.77,-34.98,-0.217805,-0.268895,2.589592,45.26,0
1547,0,47544,52802,47856.15,52838.91,-312.15,-36.91,-0.217792,-0.268894,2.589592,45.26,0
1556,0,47534,52804,47855.50,52838.84,-321.50,-34.84,-0.217779,-0.268892,2.589592,45.26,0
1566,0,47537,52807,47854.87,52838.77,-317.87,-31.77,-0.217765,-0.268891,2.589592,45.26,0
1577,0,47535,52813,47854.23,52838.72,-319.23,-25.72,-0.217752,-0.268890,2.589592,45.26,0
1587,0,47531,52806,47853.59,52838.66,-322.59,-32.66,-0.217739,-0.268889,2.589592,45.26,0
1598,0,47526,52807,47852.93,52838.60,-326.93,-31.60,-0.217725,-0.268888,2.589592,45.26,0
1606,0,47529,52805,47852.29,52838.53,-323.29,-33.53,-0.217711,-0.268887,2.589592,45.26,0
1616,0,47530,52801,47851.64,52838.46,-321.64,-37.46,-0.217698,-0.268885,2.589592,45.26,0
1628,0,47526,52808,47850.99,52838.40,-324.99,-30.40,-0.217684,-0.268884,2.589592,45.26,0
1636,0,47527,52805,47850.34,52838.33,-323.34,-33.33,-0.217671,-0.268883,2.589592,45.26,0
1645,0,47522,52808,47849.69,52838.27,-327.69,-30.27,-0.217657,-0.268882,2.589592,45.26,0
1655,0,47527,52804,47849.04,52838.21,-322.04,-34.21,-0.217644,-0.268880,2.589592,45.26,0
1664,0,47525,52813,47848.39,52838.16,-323.39,-25.16,-0.217630,-0.268880,2.589592,45.26,0
1674,0,47524,52791,47847.75,52838.06,-323.75,-47.06,-0.217617,-0.268878,2.589592,45.26,0
1685,0,47517,52777,47847.09,52837.94,-330.09,-60.94,-0.217603,-0.268875,2.589592,45.26,0
1695,0,47508,52770,47846.41,52837.81,-338.41,-67.81,-0.217589,-0.268873,2.589592,45.26,0
1706,0,47511,52763,47845.74,52837.66,-334.74,-74.66,-0.217575,-0.268870,2.589592,45.26,0
1717,0,47505,52748,47845.06,52837.48,-340.06,-89.48,-0.217561,-0.268867,2.589592,45.26,0
1726,0,47508,52744,47844.39,52837.29,-336.39,-93.29,-0.217546,-0.268863,2.589592,45.26,0
1736,0,47502,52747,47843.71,52837.11,-341.71,-90.11,-0.217532,-0.268860,2.589592,45.26,0
1747,0,47503,52751,47843.03,52836.94,-340.03,-85.94,-0.217518,-0.268857,2.589592,45.26,0
1756,0,47500,52751,47842.34,52836.77,-342.34,-85.77,-0.217504,-0.268853,2.589592,45.26,0
1766,0,47501,52756,47841.66,52836.61,-340.66,-80.61,-0.217489,-0.268850,2.589592,45.26,0
1777,0,47499,52758,47840.98,52836.45,-341.98,-78.45,-0.217475,-0.268847,2.589592,45.26,0
1787,0,47503,52758,47840.30,52836.30,-337.30,-78.30,-0.217461,-0.268844,2.589592,45.26,0
1797,0,47498,52757,47839.62,52836.14,-341.62,-79.14,-0.217447,-0.268841,2.589592,45.26,0
1808,0,47503,52761,47838.95,52835.99,-335.95,-74.99,-0.217433,-0.268839,2.589592,45.26,0
1817,0,47497,52757,47838.27,52835.84,-341.27,-78.84,-0.217418,-0.268836,2.589592,45.26,0
1828,0,47495,52761,47837.58,52835.69,-342.58,-74.69,-0.217404,-0.268833,2.589592,45.26,0
1837,0,47501,52766,47836.91,52835.55,-335.91,-69.55,-0.217390,-0.268830,2.589592,45.26,0
1848,0,47495,52766,47836.23,52835.41,-341.23,-69.41,-0.217376,-0.268828,2.589592,45.26,0
1857,0,47493,52765,47835.54,52835.27,-342.54,-70.27,-0.217362,-0.268825,2.589592,45.26,0
1868,0,47490,52765,47834.85,52835.13,-344.85,-70.13,-0.217347,-0.268822,2.589592,45.26,0
1878,0,47493,52757,47834.17,52834.98,-341.17,-77.98,-0.217333,-0.268819,2.589592,45.26,0
1887,0,47491,52761,47833.48,52834.83,-342.48,-73.83,-0.217319,-0.268817,2.589592,45.26,0
1897,0,47495,52754,47832.81,52834.67,-337.81,-80.67,-0.217304,-0.268814,2.589592,45.26,0
1906,0,47491,52758,47832.12,52834.52,-341.12,-76.52,-0.217290,-0.268811,2.589592,45.26,0
1915,0,47489,52756,47831.44,52834.36,-342.44,-78.36,-0.217276,-0.268808,2.589592,45.26,0
1926,0,47483,52753,47830.75,52834.20,-347.75,-81.20,-0.217261,-0.268805,2.589592,45.26,0
1936,0,47485,52749,47830.05,52834.03,-345.05,-85.03,-0.217247,-0.268801,2.589592,45.26,0
1946,0,47477,52751,47829.35,52833.87,-352.35,-82.87,-0.217232,-0.268798,2.589592,45.26,0
1957,0,47477,52743,47828.65,52833.69,-351.65,-90.69,-0.217217,-0.268795,2.589592,45.26,0
1966,0,47470,52743,47827.93,52833.51,-357.93,-90.51,-0.217202,-0.268792,2.589592,45.26,0
1977,0,47471,52739,47827.22,52833.32,-356.22,-94.32,-0.217188,-0.268788,2.589592,45.26,0
1988,0,47472,52744,47826.51,52833.14,-354.51,-89.14,-0.217173,-0.268785,2.589592,45.26,0
1997,0,47464,52741,47825.79,52832.96,-361.79,-91.96,-0.217158,-0.268781,2.589592,45.26,0
2007,0,47470,52749,47825.08,52832.79,-355.08,-83.79,-0.217143,-0.268778,2.589592,45.26,0
2017,0,47466,52739,47824.36,52832.61,-358.36,-93.61,-0.217128,-0.268774,2.589592,45.26,0
2026,0,47461,52757,47823.63,52832.46,-362.63,-75.46,-0.217112,-0.268772,2.589592,45.26,0
2036,0,47465,52743,47822.92,52832.28,-357.92,-89.28,-0.217098,-0.268768,2.589592,45.26,0
2046,0,47460,52745,47822.20,52832.11,-362.20,-87.11,-0.217082,-0.268765,2.589592,45.26,0
2056,0,47454,52739,47821.46,52831.93,-367.46,-92.93,-0.217067,-0.268762,2.589592,45.26,0
2066,0,47448,52738,47820.71,52831.74,-372.71,-93.74,-0.217052,-0.268758,2.589592,45.26,0
2076,0,47443,52730,47819.96,52831.54,-376.96,-101.54,-0.217036,-0.268754,2.589592,45.26,0
2086,0,47441,52731,47819.20,52831.34,-378.20,-100.34,-0.217020,-0.268750,2.589592,45.26,0
2096,0,47437,52733,47818.44,52831.14,-381.44,-98.14,-0.217004,-0.268747,2.589592,45.26,0
2106,0,47432,52730,47817.67,52830.94,-385.67,-100.94,-0.216988,-0.268743,2.589592,45.26,0
2118,0,47434,52732,47816.90,52830.75,-382.90,-98.75,-0.216972,-0.268739,2.589592,45.26,0
2132,0,47437,52729,47816.14,52830.54,-379.14,-101.54,-0.216956,-0.268735,2.589592,45.26,0
2138,0,47434,52728,47815.38,52830.34,-381.38,-102.34,-0.216940,-0.268732,2.589592,45.26,0
2145,0,47428,52726,47814.61,52830.13,-386.61,-104.13,-0.216924,-0.268728,2.589592,45.26,0
2156,0,47424,52716,47813.83,52829.91,-389.83,-113.91,-0.216908,-0.268723,2.589592,45.26,0
2166,0,47424,52711,47813.05,52829.67,-389.05,-118.67,-0.216891,-0.268719,2.589592,45.26,0
2177,0,47419,52706,47812.27,52829.42,-393.27,-123.42,-0.216875,-0.268714,2.589592,45.26,0
2187,0,47418,52708,47811.48,52829.18,-393.48,-121.18,-0.216858,-0.268710,2.589592,45.26,0
2198,0,47412,52696,47810.68,52828.91,-398.68,-132.91,-0.216842,-0.268705,2.589592,45.26,0
2206,0,47416,52697,47809.89,52828.65,-393.89,-131.65,-0.216825,-0.268700,2.589592,45.26,0
2216,0,47404,52692,47809.08,52828.38,-405.08,-136.38,-0.216808,-0.268694,2.589592,45.26,0
2226,0,47408,52693,47808.28,52828.11,-400.28,-135.11,-0.216791,-0.268689,2.589592,45.26,0
2236,0,47404,52688,47807.47,52827.83,-403.47,-139.83,-0.216775,-0.268684,2.589592,45.26,0
2247,0,47404,52673,47806.67,52827.52,-402.67,-154.52,-0.216758,-0.268678,2.589592,45.26,0
2264,0,47393,52651,47805.84,52827.17,-412.84,-176.17,-0.216741,-0.268672,2.589592,45.26,0
2295,0,47388,52639,47805.01,52826.80,-417.01,-187.80,-0.216723,-0.268665,2.589592,45.26,0
2380,0,47379,52630,47804.16,52826.41,-425.16,-196.41,-0.216705,-0.268657,2.589592,45.26,0
2404,0,47377,52621,47803.30,52826.00,-426.30,-205.00,-0.216687,-0.268649,2.589592,45.26,0
2412,0,47374,52619,47802.45,52825.58,-428.45,-206.58,-0.216669,-0.268641,2.589592,45.26,0
2420,0,47368,52617,47801.58,52825.17,-433.58,-208.17,-0.216651,-0.268634,2.589592,45.26,0
2426,0,47369,52611,47800.72,52824.74,-431.72,-213.74,-0.216633,-0.268626,2.589592,45.26,0
2430,0,47366,52614,47799.85,52824.32,-433.85,-210.32,-0.216615,-0.268618,2.589592,45.26,0
2434,0,47368,52621,47798.99,52823.91,-430.99,-202.91,-0.216597,-0.268610,2.589592,45.26,0
2436,0,47367,52626,47798.12,52823.52,-431.12,-197.52,-0.216579,-0.268602,2.589592,45.26,0
2438,0,47368,52637,47797.27,52823.15,-429.27,-186.15,-0.216561,-0.268595,2.589592,45.26,0
2440,0,47372,52639,47796.42,52822.78,-424.42,-183.78,-0.216543,-0.268589,2.589592,45.26,0
2442,0,47374,52639,47795.57,52822.41,-421.57,-183.41,-0.216526,-0.268582,2.589592,45.26,0
2444,0,47365,52634,47794.71,52822.04,-429.71,-188.04,-0.216508,-0.268574,2.589592,45.26,0
2445,0,47369,52629,47793.86,52821.66,-424.86,-192.66,-0.216490,-0.268567,2.589592,45.26,0
2446,0,47357,52633,47792.99,52821.28,-435.99,-188.28,-0.216472,-0.268560,2.589592,45.26,0
2448,0,47362,52615,47792.13,52820.87,-430.13,-205.87,-0.216454,-0.268552,2.589592,45.26,0
2449,0,47358,52620,47791.27,52820.47,-433.27,-200.47,-0.216435,-0.268545,2.589592,45.26,0
2450,0,47355,52616,47790.39,52820.07,-435.39,-204.07,-0.216417,-0.268537,2.589592,45.26,0
2451,0,47349,52618,47789.51,52819.66,-440.51,-201.66,-0.216399,-0.268529,2.589592,45.26,0
2455,0,47355,52616,47788.64,52819.26,-433.64,-203.26,-0.216381,-0.268522,2.589592,45.26,0
2465,0,47350,52629,47787.77,52818.88,-437.77,-189.88,-0.216362,-0.268515,2.589592,45.26,0
2475,0,47356,52623,47786.91,52818.49,-430.91,-195.49,-0.216344,-0.268507,2.589592,45.26,0
2485,0,47354,52622,47786.04,52818.10,-432.04,-196.10,-0.216326,-0.268500,2.589592,45.26,0
2495,0,47349,52616,47785.17,52817.70,-436.17,-201.70,-0.216308,-0.268492,2.589592,45.26,0
2506,0,47348,52613,47784.30,52817.29,-436.30,-204.29,-0.216290,-0.268485,2.589592,45.26,0
2517,0,47346,52607,47783.42,52816.87,-437.42,-209.87,-0.216271,-0.268477,2.589592,45.26,0
2527,0,47341,52607,47782.54,52816.45,-441.54,-209.45,-0.216253,-0.268469,2.589592,45.26,0
2537,0,47343,52593,47781.66,52816.01,-438.66,-223.01,-0.216235,-0.268460,2.589592,45.26,0
2548,0,47334,52594,47780.77,52815.57,-446.77,-221.57,-0.216216,-0.268452,2.589592,45.26,0
2559,0,47331,52591,47779.87,52815.12,-448.87,-224.12,-0.216197,-0.268443,2.589592,45.26,0
2568,0,47334,52587,47778.98,52814.66,-444.98,-227.66,-0.216178,-0.268435,2.589592,45.26,0
2581,0,47333,52589,47778.09,52814.21,-445.09,-225.21,-0.216160,-0.268426,2.589592,45.26,0
2589,0,47333,52592,47777.20,52813.77,-444.20,-221.77,-0.216141,-0.268418,2.589592,45.26,0
2598,0,47334,52593,47776.31,52813.33,-442.31,-220.33,-0.216123,-0.268410,2.589592,45.26,0
2608,0,47335,52604,47775.43,52812.91,-440.43,-208.91,-0.216104,-0.268402,2.589592,45.26,0
2617,0,47338,52605,47774.55,52812.50,-436.55,-207.50,-0.216086,-0.268394,2.589592,45.26,0
2627,0,47337,52602,47773.68,52812.08,-436.68,-210.08,-0.216067,-0.268386,2.589592,45.26,0
2639,0,47339,52610,47772.81,52811.68,-433.81,-201.68,-0.216049,-0.268378,2.589592,45.26,0
2648,0,47345,52611,47771.95,52811.28,-426.95,-200.28,-0.216031,-0.268371,2.589592,45.26,0
2660,0,47346,52623,47771.10,52810.91,-425.10,-187.91,-0.216014,-0.268364,2.589592,45.26,0
2668,0,47348,52627,47770.26,52810.54,-422.26,-183.54,-0.215996,-0.268357,2.589592,45.26,0
2676,0,47347,52620,47769.41,52810.16,-422.41,-190.16,-0.215978,-0.268350,2.589592,45.26,0
2687,0,47341,52625,47768.56,52809.79,-427.56,-184.79,-0.215960,-0.268343,2.589592,45.26,0
2697,0,47338,52634,47767.70,52809.44,-429.70,-175.44,-0.215942,-0.268336,2.589592,45.26,0
2707,0,47341,52628,47766.85,52809.08,-425.85,-181.08,-0.215924,-0.268329,2.589592,45.26,0
2719,0,47348,52648,47766.01,52808.76,-418.01,-160.76,-0.215907,-0.268323,2.589592,45.26,0
2729,0,47349,52647,47765.18,52808.44,-416.18,-161.44,-0.215889,-0.268317,2.589592,45.26,0
2739,0,47352,52644,47764.36,52808.11,-412.36,-164.11,-0.215872,-0.268311,2.589592,45.26,0
2749,0,47352,52648,47763.53,52807.79,-411.53,-159.79,-0.215855,-0.268305,2.589592,45.26,0
2756,0,47349,52655,47762.70,52807.48,-413.70,-152.48,-0.215838,-0.268299,2.589592,45.26,0
2767,0,47339,52643,47761.86,52807.16,-422.86,-164.16,-0.215820,-0.268293,2.589592,45.26,0
2778,0,47344,52643,47761.02,52806.83,-417.02,-163.83,-0.215802,-0.268286,2.589592,45.26,0
2787,0,47337,52644,47760.17,52806.50,-423.17,-162.50,-0.215785,-0.268280,2.589592,45.26,0
2798,0,47339,52647,47759.33,52806.19,-420.33,-159.19,-0.215767,-0.268274,2.589592,45.26,0
2807,0,47332,52633,47758.48,52805.84,-426.48,-172.84,-0.215749,-0.268268,2.589592,45.26,0
2816,0,47334,52639,47757.63,52805.51,-423.63,-166.51,-0.215731,-0.268262,2.589592,45.26,0
2826,0,47337,52625,47756.79,52805.15,-419.79,-180.15,-0.215714,-0.268255,2.589592,45.26,0
2835,0,47337,52625,47755.95,52804.79,-418.95,-179.79,-0.215696,-0.268248,2.589592,45.26,0
2847,0,47341,52619,47755.12,52804.42,-414.12,-185.42,-0.215679,-0.268241,2.589592,45.26,0
2858,0,47342,52625,47754.30,52804.06,-412.30,-179.06,-0.215662,-0.268234,2.589592,45.26,0
2868,0,47347,52632,47753.49,52803.72,-406.49,-171.72,-0.215645,-0.268228,2.589592,45.26,0
2878,0,47356,52641,47752.70,52803.39,-396.70,-162.39,-0.215628,-0.268221,2.589592,45.26,0
2889,0,47352,52646,47751.89,52803.08,-399.89,-157.08,-0.215611,-0.268215,2.589592,45.26,0
2898,0,47359,52652,47751.11,52802.78,-392.11,-150.78,-0.215595,-0.268210,2.589592,45.26,0
2907,0,47367,52662,47750.34,52802.50,-383.34,-140.50,-0.215579,-0.268204,2.589592,45.26,0
2916,0,47367,52674,47749.58,52802.25,-382.58,-128.25,-0.215563,-0.268200,2.589592,45.26,0
2927,0,47372,52678,47748.82,52802.00,-376.82,-124.00,-0.215547,-0.268195,2.589592,45.26,0
2938,0,47372,52689,47748.07,52801.77,-376.07,-112.77,-0.215531,-0.268191,2.589592,45.26,0
2947,0,47381,52684,47747.34,52801.54,-366.34,-117.54,-0.215516,-0.268186,2.589592,45.26,0
2958,0,47375,52683,47746.59,52801.30,-371.59,-118.30,-0.215500,-0.268182,2.589592,45.26,0
2968,0,47378,52691,47745.86,52801.09,-367.86,-110.09,-0.215485,-0.268178,2.589592,45.26,0
2978,0,47376,52691,47745.12,52800.87,-369.12,-109.87,-0.215470,-0.268174,2.589592,45.26,0
2988,0,47372,52691,47744.37,52800.65,-372.37,-109.65,-0.215454,-0.268169,2.589592,45.26,0
2999,0,47370,52701,47743.63,52800.45,-373.63,-99.45,-0.215438,-0.268166,2.589592,45.26,0
3013,0,47373,52701,47742.89,52800.25,-369.89,-99.25,-0.215423,-0.268162,2.589592,45.26,0
3018,0,47377,52707,47742.16,52800.07,-365.16,-93.07,-0.215407,-0.268158,2.589592,45.26,0
3028,0,47382,52705,47741.44,52799.88,-359.44,-94.88,-0.215392,-0.268155,2.589592,45.26,0
3038,0,47382,52712,47740.72,52799.70,-358.72,-87.70,-0.215377,-0.268151,2.589592,45.26,0
3048,0,47379,52715,47740.00,52799.54,-361.00,-84.54,-0.215362,-0.268148,2.589592,45.26,0
3058,0,47377,52712,47739.27,52799.36,-362.27,-87.36,-0.215347,-0.268145,2.589592,45.26,0
3069,0,47371,52715,47738.54,52799.20,-367.54,-84.20,-0.215332,-0.268142,2.589592,45.26,0
3078,0,47378,52715,47737.82,52799.03,-359.82,-84.03,-0.215317,-0.268139,2.589592,45.26,0
3089,0,47372,52706,47737.09,52798.84,-365.09,-92.84,-0.215301,-0.268135,2.589592,45.26,0
3098,0,47372,52711,47736.36,52798.67,-364.36,-87.67,-0.215286,-0.268132,2.589592,45.26,0
3109,0,47374,52705,47735.64,52798.48,-361.64,-93.48,-0.215271,-0.268128,2.589592,45.26,0
3118,0,47367,52703,47734.90,52798.29,-367.90,-95.29,-0.215255,-0.268125,2.589592,45.26,0
3129,0,47363,52701,47734.16,52798.10,-371.16,-97.10,-0.215240,-0.268121,2.589592,45.26,0
3139,0,47362,52706,47733.42,52797.91,-371.42,-91.91,-0.215224,-0.268118,2.589592,45.26,0
3149,0,47354,52701,47732.66,52797.72,-378.66,-96.72,-0.215208,-0.268114,2.589592,45.26,0
3158,0,47352,52699,47731.90,52797.53,-379.90,-98.53,-0.215193,-0.268110,2.589592,45.26,0
3168,0,47349,52692,47731.13,52797.32,-382.13,-105.32,-0.215176,-0.268106,2.589592,45.26,0
3178,0,47346,52699,47730.36,52797.12,-384.36,-98.12,-0.215160,-0.268103,2.589592,45.26,0
3188,0,47339,52693,47729.58,52796.91,-390.58,-103.91,-0.215144,-0.268099,2.589592,45.26,0
3198,0,47338,52684,47728.80,52796.69,-390.80,-112.69,-0.215128,-0.268094,2.589592,45.26,0
3207,0,47327,52678,47728.00,52796.46,-401.00,-118.46,-0.215111,-0.268090,2.589592,45.26,0
3217,0,47329,52670,47727.20,52796.21,-398.20,-126.21,-0.215094,-0.268085,2.589592,45.26,0
3228,0,47326,52671,47726.40,52795.96,-400.40,-124.96,-0.215077,-0.268081,2.589592,45.26,0
3238,0,47322,52667,47725.59,52795.70,-403.59,-128.70,-0.215060,-0.268076,2.589592,45.26,0
3248,0,47316,52671,47724.78,52795.45,-408.78,-124.45,-0.215043,-0.268071,2.589592,45.26,0
3258,0,47307,52663,47723.94,52795.19,-416.94,-132.19,-0.215026,-0.268066,2.589592,45.26,0
3268,0,47313,52663,47723.12,52794.93,-410.12,-131.93,-0.215009,-0.268061,2.589592,45.26,0
3279,0,47309,52658,47722.29,52794.66,-413.29,-136.66,-0.214991,-0.268056,2.589592,45.26,0
3289,0,47305,52660,47721.46,52794.39,-416.46,-134.39,-0.214974,-0.268051,2.589592,45.26,0
3298,0,47299,52650,47720.62,52794.10,-421.62,-144.10,-0.214956,-0.268045,2.589592,45.26,0
3309,0,47295,52642,47719.77,52793.79,-424.77,-151.79,-0.214938,-0.268040,2.589592,45.26,0
3318,0,47290,52641,47718.91,52793.49,-428.91,-152.49,-0.214920,-0.268034,2.589592,45.26,0
3328,0,47283,52627,47718.04,52793.16,-435.04,-166.16,-0.214902,-0.268027,2.589592,45.26,0
3339,0,47273,52614,47717.14,52792.80,-444.14,-178.80,-0.214883,-0.268021,2.589592,45.26,0
3348,0,47265,52602,47716.24,52792.42,-451.24,-190.42,-0.214864,-0.268014,2.589592,45.26,0
3358,0,47248,52584,47715.31,52792.01,-467.31,-208.01,-0.214845,-0.268006,2.589592,45.26,0
3368,0,47232,52561,47714.34,52791.55,-482.34,-230.55,-0.214825,-0.267997,2.589592,45.26,0
3378,0,47214,52532,47713.34,52791.03,-499.34,-259.03,-0.214804,-0.267987,2.589592,45.26,0
3388,0,47196,52499,47712.31,52790.45,-516.31,-291.45,-0.214782,-0.267976,2.589592,45.26,0
3399,0,47171,52463,47711.23,52789.79,-540.23,-326.79,-0.214759,-0.267964,2.589592,45.26,0
3408,0,47154,52429,47710.11,52789.07,-556.11,-360.07,-0.214736,-0.267950,2.589592,45.26,0
3419,0,47135,52412,47708.96,52788.32,-573.96,-376.32,-0.214712,-0.267936,2.589592,45.26,0
3428,0,47123,52386,47707.79,52787.52,-584.79,-401.52,-0.214687,-0.267921,2.589592,45.26,0
3438,0,47114,52371,47706.61,52786.68,-592.61,-415.68,-0.214662,-0.267905,2.589592,45.26,0
3448,0,47107,52362,47705.41,52785.84,-598.41,-423.84,-0.214637,-0.267889,2.589592,45.26,0
3457,0,47092,52356,47704.18,52784.98,-612.18,-428.98,-0.214612,-0.267873,2.589592,45.26,0
3468,0,47091,52344,47702.95,52784.10,-611.95,-440.10,-0.214586,-0.267856,2.574283,45.64,1
3476,0,47084,52344,47701.71,52783.22,-617.71,-439.22,-0.214560,-0.267839,2.525784,46.86,1
3486,0,47089,52341,47700.49,52782.34,-611.49,-441.34,-0.214534,-0.267823,2.480236,47.99,1
3497,0,47083,52349,47699.26,52781.47,-616.26,-432.47,-0.214508,-0.267806,2.441491,48.96,1
3508,0,47080,52350,47698.02,52780.61,-618.02,-430.61,-0.214482,-0.267790,2.406368,49.84,1
3518,0,47086,52348,47696.80,52779.74,-610.80,-431.74,-0.214457,-0.267773,2.372914,50.68,1
3528,0,47082,52346,47695.57,52778.87,-613.57,-432.87,-0.214431,-0.267757,2.341742,51.46,1
3538,0,47087,52348,47694.36,52778.02,-607.36,-430.02,-0.214406,-0.267741,2.312891,52.18,1
3548,0,47084,52352,47693.14,52777.16,-609.14,-425.16,-0.214380,-0.267725,2.287134,52.82,1
3558,0,47085,52354,47691.92,52776.32,-606.92,-422.32,-0.214355,-0.267709,2.263402,53.41,1
3568,0,47089,52366,47690.72,52775.50,-601.72,-409.50,-0.214329,-0.267693,2.243290,53.92,1
3579,0,47097,52372,47689.53,52774.70,-592.53,-402.70,-0.214304,-0.267678,2.224916,54.38,1
3588,0,47101,52384,47688.36,52773.91,-587.36,-389.91,-0.214280,-0.267663,2.209437,54.76,1
3597,0,47110,52392,47687.20,52773.15,-577.20,-381.15,-0.214256,-0.267649,2.195505,55.11,1
3607,0,47110,52400,47686.05,52772.41,-576.05,-372.41,-0.214231,-0.267634,2.183531,55.41,1
3617,0,47118,52400,47684.91,52771.66,-566.91,-371.66,-0.214208,-0.267620,2.171569,55.71,1
3628,0,47128,52407,47683.80,52770.94,-555.80,-363.94,-0.214184,-0.267607,2.160572,55.99,1
3639,0,47137,52422,47682.70,52770.24,-545.70,-348.24,-0.214161,-0.267593,2.151663,56.21,1
3650,0,47139,52435,47681.62,52769.57,-542.62,-334.57,-0.214139,-0.267581,2.144747,56.38,1
3658,0,47149,52445,47680.55,52768.93,-531.55,-323.93,-0.214116,-0.267568,2.138798,56.53,1
3668,0,47155,52456,47679.50,52768.30,-524.50,-312.30,-0.214094,-0.267557,2.134074,56.65,1
3678,0,47165,52470,47678.48,52767.71,-513.48,-297.71,-0.214073,-0.267545,2.130605,56.73,1
3687,0,47172,52482,47677.46,52767.14,-505.46,-285.14,-0.214051,-0.267535,2.128207,56.79,1
3697,0,47178,52493,47676.47,52766.59,-498.47,-273.59,-0.214031,-0.267524,2.126740,56.83,1
3707,0,47185,52508,47675.49,52766.07,-490.49,-258.07,-0.214010,-0.267514,2.126481,56.84,1
3718,0,47196,52526,47674.53,52765.59,-478.53,-239.59,-0.213990,-0.267505,2.127402,56.81,1
3730,0,47203,52547,47673.59,52765.16,-470.59,-218.16,-0.213970,-0.267497,2.129824,56.75,1
3739,0,47213,52547,47672.67,52764.72,-459.67,-217.72,-0.213951,-0.267489,2.131728,56.71,1
3749,0,47222,52560,47671.77,52764.32,-449.77,-204.32,-0.213932,-0.267481,2.134250,56.64,1
3760,0,47220,52558,47670.87,52763.91,-450.87,-205.91,-0.213913,-0.267473,2.136679,56.58,1
3769,0,47221,52562,47669.97,52763.50,-448.97,-201.50,-0.213894,-0.267466,2.139355,56.52,1
3779,0,47215,52565,47669.06,52763.11,-454.06,-198.11,-0.213875,-0.267458,2.142528,56.44,1
3789,0,47217,52567,47668.16,52762.72,-451.16,-195.72,-0.213856,-0.267451,2.145729,56.36,1
3799,0,47214,52554,47667.25,52762.30,-453.25,-208.30,-0.213837,-0.267443,2.147998,56.30,1
3808,0,47211,52563,47666.34,52761.90,-455.34,-198.90,-0.213818,-0.267435,2.151118,56.22,1
3817,0,47208,52557,47665.43,52761.49,-457.43,-204.49,-0.213799,-0.267428,2.153866,56.15,1
3831,0,47205,52561,47664.51,52761.09,-459.51,-200.09,-0.213780,-0.267420,2.157057,56.07,1
3839,0,47208,52558,47663.60,52760.69,-455.60,-202.69,-0.213761,-0.267412,2.159825,56.00,1
3848,0,47198,52548,47662.67,52760.26,-464.67,-212.26,-0.213741,-0.267404,2.162213,55.94,1
3858,0,47195,52543,47661.73,52759.83,-466.73,-216.83,-0.213721,-0.267396,2.164285,55.89,1
3867,0,47188,52533,47660.79,52759.37,-472.79,-226.37,-0.213702,-0.267387,2.165780,55.86,1
3878,0,47179,52521,47659.83,52758.90,-480.83,-237.90,-0.213681,-0.267378,2.166577,55.84,1
3888,0,47170,52513,47658.85,52758.41,-488.85,-245.41,-0.213661,-0.267369,2.167041,55.82,1
3898,0,47159,52502,47657.85,52757.89,-498.85,-255.89,-0.213640,-0.267359,2.166955,55.83,1
3908,0,47153,52491,47656.84,52757.36,-503.84,-266.36,-0.213619,-0.267349,2.166029,55.85,1
3920,0,47140,52479,47655.81,52756.81,-515.81,-277.81,-0.213597,-0.267339,2.164507,55.89,1
3927,0,47136,52461,47654.77,52756.22,-518.77,-295.22,-0.213575,-0.267328,2.161179,55.97,1
3938,0,47124,52444,47653.71,52755.59,-529.71,-311.59,-0.213553,-0.267316,2.156552,56.09,1
3948,0,47108,52423,47652.62,52754.93,-544.62,-331.93,-0.213530,-0.267303,2.150305,56.24,1
3958,0,47097,52391,47651.52,52754.20,-554.52,-363.20,-0.213507,-0.267289,2.140608,56.48,1
3968,0,47082,52366,47650.38,52753.43,-568.38,-387.43,-0.213483,-0.267275,2.128603,56.78,1
3978,0,47073,52340,47649.23,52752.61,-576.23,-412.61,-0.213459,-0.267259,2.113807,57.15,1
3988,0,47055,52323,47648.04,52751.75,-593.04,-428.75,-0.213434,-0.267243,2.098183,57.55,1
3999,0,47047,52325,47646.84,52750.89,-599.84,-425.89,-0.213409,-0.267227,2.084064,57.90,1
4008,0,47053,52321,47645.65,52750.04,-592.65,-429.04,-0.213384,-0.267210,2.069685,58.26,1
4017,0,47049,52324,47644.46,52749.18,-595.46,-425.18,-0.213359,-0.267194,2.056610,58.58,1
4028,0,47052,52326,47643.28,52748.34,-591.28,-422.34,-0.213334,-0.267178,2.044218,58.89,1
4037,0,47056,52331,47642.11,52747.51,-586.11,-416.51,-0.213310,-0.267162,2.032795,59.18,1
4050,0,47050,52347,47640.92,52746.71,-590.92,-399.71,-0.213285,-0.267147,2.024155,59.40,1
4056,0,47060,52344,47639.76,52745.90,-579.76,-401.90,-0.213260,-0.267132,2.014949,59.63,1
4067,0,47061,52353,47638.61,52745.12,-577.61,-392.12,-0.213236,-0.267117,2.007086,59.82,1
4078,0,47064,52355,47637.46,52744.34,-573.46,-389.34,-0.213212,-0.267102,1.999571,60.01,1
4088,0,47068,52369,47636.32,52743.59,-568.32,-374.59,-0.213188,-0.267088,1.993638,60.16,1
4098,0,47072,52369,47635.19,52742.84,-563.19,-373.84,-0.213164,-0.267074,1.987692,60.31,1
4108,0,47069,52374,47634.06,52742.11,-565.06,-368.11,-0.213141,-0.267060,1.982592,60.44,1
4119,0,47082,52386,47632.96,52741.40,-550.96,-355.40,-0.213117,-0.267047,1.978213,60.54,1
4129,0,47081,52393,47631.86,52740.70,-550.86,-347.70,-0.213094,-0.267033,1.974674,60.63,1
4138,0,47086,52394,47630.77,52740.01,-544.77,-346.01,-0.213071,-0.267020,1.971084,60.72,1
4146,0,47086,52407,47629.68,52739.35,-543.68,-332.35,-0.213049,-0.267008,1.968775,60.78,1
4158,0,47090,52419,47628.60,52738.71,-538.60,-319.71,-0.213026,-0.266996,1.967387,60.82,1
4168,0,47099,52423,47627.54,52738.08,-528.54,-315.08,-0.213004,-0.266984,1.965959,60.85,1
4177,0,47095,52426,47626.48,52737.46,-531.48,-311.46,-0.212981,-0.266972,1.964990,60.88,1
4188,0,47104,52433,47625.43,52736.85,-521.43,-303.85,-0.212960,-0.266960,1.964213,60.89,1
4197,0,47107,52443,47624.40,52736.26,-517.40,-293.26,-0.212938,-0.266949,1.964111,60.90,1
4208,0,47108,52448,47623.37,52735.69,-515.37,-287.69,-0.212916,-0.266938,1.964352,60.89,1
4218,0,47111,52456,47622.34,52735.13,-511.34,-279.13,-0.212895,-0.266928,1.965062,60.87,1
4228,0,47114,52453,47621.33,52734.57,-507.33,-281.57,-0.212873,-0.266917,1.965408,60.86,1
4237,0,47112,52462,47620.31,52734.02,-508.31,-272.02,-0.212852,-0.266907,1.966496,60.84,1
4248,0,47118,52468,47619.31,52733.49,-501.31,-265.49,-0.212831,-0.266897,1.967741,60.81,1
4258,0,47110,52464,47618.29,52732.95,-508.29,-268.95,-0.212810,-0.266887,1.969025,60.77,1
4268,0,47113,52467,47617.29,52732.42,-504.29,-265.42,-0.212788,-0.266876,1.970376,60.74,1
4278,0,47111,52465,47616.27,52731.89,-505.27,-266.89,-0.212767,-0.266866,1.971653,60.71,1
4288,0,47105,52464,47615.25,52731.35,-510.25,-267.35,-0.212746,-0.266856,1.973098,60.67,1
4298,0,47110,52468,47614.25,52730.83,-504.25,-262.83,-0.212725,-0.266846,1.974592,60.64,1
4308,0,47110,52474,47613.24,52730.32,-503.24,-256.32,-0.212703,-0.266836,1.976483,60.59,1
4318,0,47115,52491,47612.24,52729.84,-497.24,-238.84,-0.212683,-0.266827,1.979269,60.52,1
4328,0,47116,52488,47611.25,52729.36,-495.25,-241.36,-0.212662,-0.266818,1.981790,60.46,1
4338,0,47118,52490,47610.27,52728.88,-492.27,-238.88,-0.212641,-0.266809,1.984329,60.39,1
4348,0,47121,52497,47609.29,52728.42,-488.29,-231.42,-0.212620,-0.266801,1.987163,60.32,1
4358,0,47118,52499,47608.31,52727.96,-490.31,-228.96,-0.212600,-0.266792,1.990219,60.24,1
4368,0,47117,52506,47607.33,52727.52,-490.33,-221.52,-0.212579,-0.266784,1.993718,60.16,1
4378,0,47114,52500,47606.34,52727.07,-492.34,-227.07,-0.212559,-0.266775,1.996940,60.08,1
4388,0,47115,52502,47605.36,52726.62,-490.36,-224.62,-0.212538,-0.266766,2.000214,59.99,1
4400,0,47118,52498,47604.39,52726.16,-486.39,-228.16,-0.212518,-0.266758,2.003080,59.92,1
4408,0,47117,52501,47603.42,52725.71,-486.42,-224.71,-0.212497,-0.266749,2.006150,59.85,1
4418,0,47119,52501,47602.45,52725.27,-483.45,-224.27,-0.212477,-0.266741,2.009108,59.77,1
4428,0,47112,52509,47601.47,52724.84,-489.47,-215.84,-0.212456,-0.266733,2.012825,59.68,1
4438,0,47118,52504,47600.50,52724.39,-482.50,-220.39,-0.212436,-0.266724,2.015950,59.60,1
4447,0,47117,52499,47599.54,52723.95,-482.54,-224.95,-0.212416,-0.266716,2.018772,59.53,1
4458,0,47118,52509,47598.58,52723.52,-480.58,-214.52,-0.212396,-0.266707,2.022154,59.45,1
4467,0,47114,52504,47597.61,52723.08,-483.61,-219.08,-0.212375,-0.266699,2.025361,59.37,1
4478,0,47110,52501,47596.64,52722.64,-486.64,-221.64,-0.212355,-0.266691,2.028516,59.29,1
4488,0,47108,52502,47595.66,52722.20,-487.66,-220.20,-0.212334,-0.266682,2.031788,59.21,1
4498,0,47106,52504,47594.68,52721.76,-488.68,-217.76,-0.212314,-0.266674,2.035242,59.12,1
4508,0,47110,52506,47593.71,52721.33,-483.71,-215.33,-0.212293,-0.266666,2.038623,59.03,1
4518,0,47105,52496,47592.74,52720.88,-487.74,-224.88,-0.212273,-0.266658,2.041538,58.96,1
4528,0,47098,52495,47591.75,52720.43,-493.75,-225.43,-0.212252,-0.266649,2.044654,58.88,1
4538,0,47100,52481,47590.77,52719.96,-490.77,-238.96,-0.212231,-0.266640,2.046691,58.83,1
4547,0,47093,52466,47589.77,52719.45,-496.77,-253.45,-0.212210,-0.266630,2.047910,58.80,1
4559,0,47088,52456,47588.77,52718.92,-500.77,-262.92,-0.212189,-0.266620,2.048563,58.79,1
4568,0,47087,52455,47587.77,52718.39,-500.77,-263.39,-0.212168,-0.266610,2.049173,58.77,1
4578,0,47090,52448,47586.77,52717.86,-496.77,-269.86,-0.212147,-0.266600,2.049092,58.77,1
4589,0,47079,52454,47585.75,52717.33,-506.75,-263.33,-0.212126,-0.266590,2.049964,58.75,1
4599,0,47083,52460,47584.75,52716.82,-501.75,-256.82,-0.212105,-0.266580,2.051112,58.72,1
4608,0,47088,52457,47583.76,52716.30,-495.76,-259.30,-0.212084,-0.266571,2.051798,58.71,1
4618,0,47086,52457,47582.76,52715.78,-496.76,-258.78,-0.212063,-0.266561,2.052562,58.69,1
4627,0,47080,52460,47581.76,52715.27,-501.76,-255.27,-0.212042,-0.266551,2.053803,58.65,1
4638,0,47084,52456,47580.76,52714.75,-496.76,-258.75,-0.212021,-0.266541,2.054549,58.64,1
4648,0,47071,52465,47579.74,52714.25,-508.74,-249.25,-0.212000,-0.266532,2.056533,58.59,1
4658,0,47083,52455,47578.75,52713.74,-495.75,-258.74,-0.211979,-0.266522,2.057211,58.57,1
4668,0,47076,52465,47577.75,52713.24,-501.75,-248.24,-0.211958,-0.266513,2.058939,58.53,1
4678,0,47074,52458,47576.74,52712.73,-502.74,-254.73,-0.211937,-0.266503,2.060206,58.49,1
4689,0,47064,52447,47575.71,52712.20,-511.71,-265.20,-0.211915,-0.266493,2.061039,58.47,1
4698,0,47060,52456,47574.68,52711.69,-514.68,-255.69,-0.211893,-0.266483,2.062740,58.43,1
4708,0,47061,52450,47573.66,52711.17,-512.66,-261.17,-0.211872,-0.266473,2.063907,58.40,1
4719,0,47061,52455,47572.63,52710.66,-511.63,-255.66,-0.211850,-0.266464,2.065447,58.36,1
4729,0,47071,52448,47571.63,52710.13,-500.63,-262.13,-0.211829,-0.266454,2.065983,58.35,1
4739,0,47063,52449,47570.61,52709.61,-507.61,-260.61,-0.211808,-0.266444,2.066939,58.33,1
4750,0,47061,52447,47569.59,52709.09,-508.59,-262.09,-0.211786,-0.266434,2.067813,58.30,1
4760,0,47053,52444,47568.56,52708.56,-515.56,-264.56,-0.211765,-0.266424,2.068790,58.28,1
4771,0,47047,52432,47567.52,52708.01,-520.52,-276.01,-0.211743,-0.266413,2.069046,58.27,1
4779,0,47048,52431,47566.48,52707.46,-518.48,-276.46,-0.211721,-0.266403,2.069170,58.27,1
4790,0,47043,52427,47565.43,52706.90,-522.43,-279.90,-0.211699,-0.266392,2.069183,58.27,1
4801,0,47038,52426,47564.38,52706.34,-526.38,-280.34,-0.211677,-0.266382,2.069337,58.27,1
4813,0,47028,52422,47563.31,52705.78,-535.31,-283.78,-0.211654,-0.266371,2.069607,58.26,1
4820,0,47026,52422,47562.23,52705.21,-536.23,-283.21,-0.211632,-0.266360,2.069964,58.25,1
4830,0,47036,52420,47561.18,52704.64,-525.18,-284.64,-0.211610,-0.266349,2.069693,58.26,1
4841,0,47026,52424,47560.11,52704.08,-534.11,-280.08,-0.211587,-0.266339,2.070214,58.24,1
4849,0,47034,52422,47559.06,52703.52,-525.06,-281.52,-0.211565,-0.266328,2.070199,58.25,1
4861,0,47022,52422,47557.99,52702.96,-535.99,-280.96,-0.211542,-0.266318,2.070727,58.23,1
4871,0,47024,52424,47556.92,52702.40,-532.92,-278.40,-0.211520,-0.266307,2.071320,58.22,1
4880,0,47029,52424,47555.87,52701.85,-526.87,-277.85,-0.211498,-0.266296,2.071680,58.21,1
4890,0,47019,52420,47554.79,52701.29,-535.79,-281.29,-0.211475,-0.266286,2.072153,58.20,1
4901,0,47024,52420,47553.73,52700.72,-529.73,-280.72,-0.211453,-0.266275,2.072393,58.19,1
4910,0,47020,52421,47552.67,52700.16,-532.67,-279.16,-0.211430,-0.266264,2.072892,58.18,1
4920,0,47014,52430,47551.59,52699.62,-537.59,-269.62,-0.211408,-0.266254,2.074384,58.14,1
4929,0,47023,52430,47550.54,52699.09,-527.54,-269.09,-0.211386,-0.266244,2.075448,58.11,1
4940,0,47023,52439,47549.48,52698.57,-526.48,-259.57,-0.211364,-0.266234,2.077201,58.07,1
4951,0,47022,52440,47548.43,52698.05,-526.43,-258.05,-0.211341,-0.266224,2.079050,58.02,1
4961,0,47019,52449,47547.37,52697.55,-528.37,-248.55,-0.211319,-0.266215,2.081684,57.96,1
4971,0,47027,52445,47546.33,52697.05,-519.33,-252.05,-0.211297,-0.266205,2.083634,57.91,1
4980,0,47027,52462,47545.29,52696.58,-518.29,-234.58,-0.211275,-0.266197,2.086793,57.83,1
4990,0,47025,52457,47544.25,52696.11,-519.25,-239.11,-0.211253,-0.266187,2.089649,57.76,1
5000,0,47035,52471,47543.24,52695.66,-508.24,-224.66,-0.211232,-0.266179,2.093014,57.67,1
5009,0,47037,52467,47542.23,52695.20,-505.23,-228.20,-0.211211,-0.266170,2.095987,57.60,1
5018,0,47030,52471,47541.20,52694.75,-511.20,-223.75,-0.211189,-0.266162,2.099505,57.51,1
5029,0,47033,52463,47540.19,52694.29,-507.19,-231.29,-0.211168,-0.266153,2.102302,57.44,1
5039,0,47027,52467,47539.16,52693.84,-512.16,-226.84,-0.211146,-0.266145,2.105610,57.36,1
5049,0,47028,52466,47538.14,52693.39,-510.14,-227.39,-0.211125,-0.266136,2.108770,57.28,1
5059,0,47028,52469,47537.12,52692.94,-509.12,-223.94,-0.211104,-0.266127,2.112106,57.20,1
5070,0,47021,52470,47536.09,52692.49,-515.09,-222.49,-0.211082,-0.266119,2.115782,57.11,1
5079,0,47023,52459,47535.07,52692.03,-512.07,-233.03,-0.211060,-0.266110,2.118555,57.04,1
5089,0,47013,52457,47534.03,52691.56,-521.03,-234.56,-0.211038,-0.266101,2.121592,56.96,1
5100,0,47016,52452,47532.99,52691.08,-516.99,-239.08,-0.211017,-0.266092,2.124090,56.90,1
5109,0,47013,52445,47531.95,52690.59,-518.95,-245.59,-0.210995,-0.266083,2.126160,56.85,1
5119,0,47001,52431,47530.89,52690.07,-529.89,-259.07,-0.210972,-0.266073,2.127631,56.81,1
5129,0,46993,52415,47529.82,52689.52,-536.82,-274.52,-0.210950,-0.266063,2.128107,56.80,1
5139,0,46995,52406,47528.75,52688.96,-533.75,-282.96,-0.210927,-0.266052,2.127699,56.81,1
5150,0,46989,52389,47527.67,52688.36,-538.67,-299.36,-0.210905,-0.266040,2.126029,56.85,1
5159,0,46986,52387,47526.59,52687.76,-540.59,-300.76,-0.210882,-0.266029,2.124342,56.89,1
5169,0,46990,52384,47525.52,52687.15,-535.52,-303.15,-0.210859,-0.266018,2.122227,56.94,1
5181,0,46979,52391,47524.42,52686.56,-545.42,-295.56,-0.210836,-0.266006,2.121298,56.97,1
5191,0,46979,52381,47523.33,52685.95,-544.33,-304.95,-0.210813,-0.265995,2.119467,57.01,1
5200,0,46970,52374,47522.23,52685.33,-552.23,-311.33,-0.210790,-0.265983,2.117427,57.06,1
5210,0,46971,52369,47521.12,52684.70,-550.12,-315.70,-0.210767,-0.265971,2.114909,57.13,1
5218,0,46961,52371,47520.01,52684.07,-559.01,-313.07,-0.210743,-0.265959,2.113095,57.17,1
5229,0,46957,52368,47518.88,52683.45,-561.88,-315.45,-0.210720,-0.265947,2.111223,57.22,1
5240,0,46960,52378,47517.77,52682.84,-557.77,-304.84,-0.210696,-0.265936,2.110178,57.25,1
5250,0,46963,52383,47516.66,52682.24,-553.66,-299.24,-0.210673,-0.265924,2.109468,57.26,1
5260,0,46963,52375,47515.55,52681.62,-552.55,-306.62,-0.210650,-0.265913,2.108050,57.30,1
5270,0,46964,52374,47514.45,52681.01,-550.45,-307.01,-0.210626,-0.265901,2.106526,57.34,1
5279,0,46961,52383,47513.34,52680.42,-552.34,-297.42,-0.210603,-0.265890,2.105968,57.35,1
5289,0,46961,52387,47512.24,52679.83,-551.24,-292.83,-0.210580,-0.265879,2.105769,57.36,1
5299,0,46958,52386,47511.14,52679.25,-553.14,-293.25,-0.210557,-0.265868,2.105623,57.36,1
5310,0,46959,52394,47510.04,52678.68,-551.04,-284.68,-0.210534,-0.265857,2.106112,57.35,1
5322,0,46961,52386,47508.94,52678.09,-547.94,-292.09,-0.210510,-0.265846,2.105829,57.35,1
5330,0,46960,52384,47507.84,52677.50,-547.84,-293.50,-0.210487,-0.265834,2.105424,57.36,1
5341,0,46958,52385,47506.74,52676.92,-548.74,-291.92,-0.210464,-0.265823,2.105201,57.37,1
5351,0,46952,52389,47505.63,52676.35,-553.63,-287.35,-0.210441,-0.265813,2.105587,57.36,1
5360,0,46953,52384,47504.53,52675.77,-551.53,-291.77,-0.210418,-0.265801,2.105500,57.36,1
5370,0,46950,52381,47503.42,52675.18,-553.42,-294.18,-0.210394,-0.265790,2.105294,57.37,1
5380,0,46953,52374,47502.32,52674.57,-549.32,-300.57,-0.210371,-0.265779,2.104357,57.39,1
5388,0,46944,52370,47501.20,52673.96,-557.20,-303.96,-0.210348,-0.265767,2.103489,57.41,1
5401,0,46939,52369,47500.08,52673.36,-561.08,-304.36,-0.210324,-0.265756,2.102773,57.43,1
5410,0,46935,52369,47498.95,52672.75,-563.95,-303.75,-0.210300,-0.265744,2.102250,57.44,1
5420,0,46936,52365,47497.82,52672.14,-561.82,-307.14,-0.210277,-0.265733,2.101344,57.47,1
5429,0,46936,52363,47496.70,52671.52,-560.70,-308.52,-0.210253,-0.265721,2.100280,57.49,1
5439,0,46936,52365,47495.58,52670.91,-559.58,-305.91,-0.210229,-0.265709,2.099411,57.51,1
5449,0,46933,52356,47494.46,52670.28,-561.46,-314.28,-0.210206,-0.265697,2.097903,57.55,1
5459,0,46928,52362,47493.32,52669.66,-565.32,-307.66,-0.210182,-0.265686,2.097173,57.57,1
5469,0,46924,52350,47492.19,52669.03,-568.19,-319.03,-0.210158,-0.265673,2.095579,57.61,1
5479,0,46921,52355,47491.05,52668.40,-570.05,-313.40,-0.210134,-0.265662,2.094594,57.64,1
5489,0,46922,52354,47489.91,52667.77,-567.91,-313.77,-0.210110,-0.265650,2.093496,57.66,1
5500,0,46921,52348,47488.77,52667.14,-567.77,-319.14,-0.210086,-0.265638,2.091938,57.70,1
5509,0,46920,52351,47487.64,52666.50,-567.64,-315.50,-0.210062,-0.265626,2.090719,57.73,1
5519,0,46914,52340,47486.49,52665.85,-572.49,-325.85,-0.210038,-0.265613,2.088820,57.78,1
5529,0,46912,52341,47485.34,52665.20,-573.34,-324.20,-0.210014,-0.265601,2.087137,57.82,1
5539,0,46912,52341,47484.20,52664.55,-572.20,-323.55,-0.209990,-0.265589,2.085490,57.86,1
5549,0,46911,52335,47483.05,52663.90,-572.05,-328.90,-0.209966,-0.265576,2.083391,57.92,1
5560,0,46907,52333,47481.90,52663.24,-574.90,-330.24,-0.209941,-0.265564,2.081335,57.97,1
5569,0,46911,52336,47480.76,52662.59,-569.76,-326.59,-0.209917,-0.265551,2.079411,58.01,1
5579,0,46916,52340,47479.63,52661.94,-563.63,-321.94,-0.209893,-0.265539,2.077657,58.06,1
5589,0,46910,52334,47478.50,52661.29,-568.50,-327.29,-0.209869,-0.265527,2.075679,58.11,1
5599,0,46902,52337,47477.34,52660.64,-575.34,-323.64,-0.209845,-0.265514,2.074346,58.14,1
5609,0,46906,52328,47476.20,52659.97,-570.20,-331.97,-0.209821,-0.265502,2.072090,58.20,1
5619,0,46902,52328,47475.05,52659.31,-573.05,-331.31,-0.209797,-0.265489,2.070054,58.25,1
5629,0,46894,52324,47473.89,52658.64,-579.89,-334.64,-0.209773,-0.265476,2.068059,58.30,1
5639,0,46890,52321,47472.73,52657.96,-582.73,-336.96,-0.209748,-0.265463,2.066019,58.35,1
5649,0,46893,52316,47471.57,52657.28,-578.57,-341.28,-0.209724,-0.265450,2.063456,58.41,1
5659,0,46885,52310,47470.39,52656.59,-585.39,-346.59,-0.209699,-0.265437,2.060767,58.48,1
5669,0,46883,52304,47469.22,52655.89,-586.22,-351.89,-0.209674,-0.265424,2.057691,58.56,1
5681,0,46879,52305,47468.04,52655.19,-589.04,-350.19,-0.209649,-0.265411,2.054948,58.63,1
5690,0,46879,52301,47466.87,52654.48,-587.87,-353.48,-0.209625,-0.265397,2.051914,58.70,1
5698,0,46866,52291,47465.67,52653.75,-599.67,-362.75,-0.209599,-0.265383,2.048623,58.78,1
5707,0,46864,52269,47464.46,52652.98,-600.46,-383.98,-0.209574,-0.265369,2.043471,58.91,1
5719,0,46862,52254,47463.26,52652.19,-601.26,-398.19,-0.209549,-0.265354,2.037115,59.07,1
5730,0,46854,52237,47462.04,52651.36,-608.04,-414.36,-0.209523,-0.265338,2.029627,59.26,1
5739,0,46857,52232,47460.84,52650.52,-603.84,-418.52,-0.209497,-0.265322,2.021748,59.46,1
5749,0,46844,52229,47459.60,52649.68,-615.60,-420.68,-0.209471,-0.265306,2.014379,59.64,1
5759,0,46850,52225,47458.38,52648.84,-608.38,-423.84,-0.209446,-0.265290,2.006593,59.84,1
5769,0,46841,52216,47457.15,52647.97,-616.15,-431.97,-0.209420,-0.265274,1.998561,60.04,1
5779,0,46837,52220,47455.91,52647.12,-618.91,-427.12,-0.209394,-0.265257,1.991340,60.22,1
5788,0,46834,52219,47454.67,52646.26,-620.67,-427.26,-0.209367,-0.265241,1.984378,60.39,1
5799,0,46834,52217,47453.43,52645.41,-619.43,-428.41,-0.209341,-0.265225,1.977444,60.56,1
5810,0,46834,52226,47452.19,52644.57,-618.19,-418.57,-0.209315,-0.265209,1.971539,60.71,1
5819,0,46830,52223,47450.95,52643.73,-620.95,-420.73,-0.209289,-0.265193,1.965705,60.86,1
5831,0,46830,52229,47449.71,52642.90,-619.71,-413.90,-0.209263,-0.265177,1.960564,60.99,1
5840,0,46831,52226,47448.47,52642.07,-617.47,-416.07,-0.209237,-0.265162,1.955267,61.12,1
5850,0,46835,52227,47447.25,52641.24,-612.25,-414.24,-0.209211,-0.265146,1.950040,61.25,1
5859,0,46826,52221,47446.00,52640.40,-620.00,-419.40,-0.209185,-0.265130,1.944813,61.38,1
5869,0,46829,52217,47444.77,52639.56,-615.77,-422.56,-0.209159,-0.265114,1.939273,61.52,1
5877,0,46836,52216,47443.55,52638.71,-607.55,-422.71,-0.209133,-0.265098,1.933524,61.66,1
5890,0,46833,52218,47442.34,52637.87,-609.34,-419.87,-0.209108,-0.265082,1.928217,61.79,1
5899,0,46822,52222,47441.10,52637.04,-619.10,-415.04,-0.209082,-0.265066,1.923813,61.90,1
5909,0,46830,52220,47439.87,52636.21,-609.87,-416.21,-0.209056,-0.265050,1.919050,62.02,1
5919,0,46824,52220,47438.64,52635.37,-614.64,-415.37,-0.209030,-0.265034,1.914645,62.13,1
5930,0,46826,52211,47437.42,52634.53,-611.42,-423.53,-0.209004,-0.265018,1.909566,62.26,1
5940,0,46821,52214,47436.19,52633.69,-615.19,-419.69,-0.208978,-0.265002,1.905051,62.37,1
5951,0,46821,52211,47434.96,52632.84,-613.96,-421.84,-0.208952,-0.264986,1.900421,62.49,1
5959,0,46819,52204,47433.73,52631.99,-614.73,-427.99,-0.208926,-0.264970,1.895445,62.61,1
5971,0,46816,52204,47432.50,52631.13,-616.50,-427.13,-0.208900,-0.264954,1.890715,62.73,1
5980,0,46817,52195,47431.27,52630.26,-614.27,-435.26,-0.208874,-0.264937,1.885377,62.87,1
5989,0,46806,52194,47430.02,52629.39,-624.02,-435.39,-0.208848,-0.264921,1.880527,62.99,1
6000,0,46808,52192,47428.77,52628.52,-620.77,-436.52,-0.208822,-0.264904,1.875578,63.11,1
6009,0,46809,52197,47427.54,52627.65,-618.54,-430.65,-0.208796,-0.264888,1.871100,63.22,1
6019,0,46802,52194,47426.29,52626.79,-624.29,-432.79,-0.208769,-0.264871,1.866780,63.33,1
6029,0,46802,52195,47425.04,52625.92,-623.04,-430.92,-0.208743,-0.264855,1.862646,63.43,1
6039,0,46805,52195,47423.80,52625.06,-618.80,-430.06,-0.208717,-0.264838,1.858505,63.54,1
6049,0,46799,52192,47422.55,52624.20,-623.55,-432.20,-0.208690,-0.264822,1.854476,63.64,1
6061,0,46801,52197,47421.31,52623.35,-620.31,-426.35,-0.208664,-0.264806,1.850831,63.73,1
6070,0,46796,52188,47420.06,52622.48,-624.06,-434.48,-0.208638,-0.264789,1.846823,63.83,1
6080,0,46803,52186,47418.82,52621.61,-615.82,-435.61,-0.208612,-0.264773,1.842519,63.94,1
6090,0,46795,52188,47417.58,52620.74,-622.58,-432.74,-0.208586,-0.264756,1.838754,64.03,1
6102,0,46790,52186,47416.32,52619.87,-626.32,-433.87,-0.208559,-0.264740,1.835126,64.12,1
6110,0,46794,52186,47415.08,52619.00,-621.08,-433.00,-0.208533,-0.264723,1.831443,64.21,1
6120,0,46793,52192,47413.84,52618.15,-620.84,-426.15,-0.208507,-0.264707,1.828291,64.29,1
6129,0,46788,52185,47412.59,52617.29,-624.59,-432.29,-0.208480,-0.264691,1.824924,64.38,1
6140,0,46783,52185,47411.33,52616.43,-628.33,-431.43,-0.208454,-0.264674,1.821818,64.45,1
6151,0,46784,52180,47410.08,52615.55,-626.08,-435.55,-0.208427,-0.264658,1.818417,64.54,1
6162,0,46780,52179,47408.82,52614.68,-628.82,-435.68,-0.208401,-0.264641,1.815174,64.62,1
6169,0,46778,52179,47407.56,52613.81,-629.56,-434.81,-0.208374,-0.264625,1.812082,64.70,1
6179,0,46774,52173,47406.29,52612.93,-632.29,-439.93,-0.208348,-0.264608,1.808812,64.78,1
6189,0,46774,52173,47405.03,52612.05,-631.03,-439.05,-0.208321,-0.264591,1.805620,64.86,1
6199,0,46768,52173,47403.76,52611.18,-635.76,-438.18,-0.208294,-0.264575,1.802719,64.93,1
6210,0,46771,52166,47402.49,52610.29,-631.49,-444.29,-0.208267,-0.264558,1.799327,65.02,1
6220,0,46766,52164,47401.22,52609.40,-635.22,-445.40,-0.208241,-0.264541,1.796065,65.10,1
6228,0,46765,52167,47399.95,52608.52,-634.95,-441.52,-0.208214,-0.264524,1.793108,65.17,1
6239,0,46760,52164,47398.67,52607.63,-638.67,-443.63,-0.208187,-0.264507,1.790207,65.24,1
6252,0,46749,52158,47397.37,52606.73,-648.37,-448.73,-0.208159,-0.264490,1.787383,65.32,1
6261,0,46747,52151,47396.07,52605.82,-649.07,-454.82,-0.208132,-0.264473,1.784253,65.39,1
6271,0,46745,52142,47394.77,52604.89,-649.77,-462.89,-0.208105,-0.264455,1.780693,65.48,1
6280,0,46739,52128,47393.46,52603.94,-654.46,-475.94,-0.208077,-0.264437,1.776525,65.59,1
6291,0,46738,52113,47392.16,52602.96,-654.16,-489.96,-0.208049,-0.264418,1.771512,65.71,1
6300,0,46726,52094,47390.82,52601.95,-664.82,-507.95,-0.208021,-0.264399,1.765781,65.86,1
6309,0,46726,52090,47389.50,52600.92,-663.50,-510.92,-0.207993,-0.264380,1.759950,66.00,1
6320,0,46722,52077,47388.16,52599.87,-666.16,-522.87,-0.207965,-0.264360,1.753551,66.16,1
6332,0,46719,52076,47386.83,52598.83,-667.83,-522.83,-0.207937,-0.264340,1.747388,66.32,1
6341,0,46723,52071,47385.50,52597.77,-662.50,-526.77,-0.207909,-0.264320,1.740941,66.48,1
6351,0,46719,52067,47384.17,52596.71,-665.17,-529.71,-0.207881,-0.264300,1.734563,66.64,1
6361,0,46708,52073,47382.82,52595.67,-674.82,-522.67,-0.207852,-0.264280,1.729152,66.77,1
6371,0,46718,52076,47381.49,52594.63,-663.49,-518.63,-0.207824,-0.264260,1.723754,66.91,1
6381,0,46715,52081,47380.16,52593.60,-665.16,-512.60,-0.207796,-0.264240,1.718927,67.03,1
6391,0,46711,52081,47378.82,52592.58,-667.82,-511.58,-0.207768,-0.264221,1.714370,67.14,1
6400,0,46718,52091,47377.50,52591.58,-659.50,-500.58,-0.207740,-0.264202,1.710307,67.24,1
6412,0,46719,52087,47376.18,52590.57,-657.18,-503.57,-0.207712,-0.264183,1.706083,67.35,1
6420,0,46727,52091,47374.89,52589.57,-647.89,-498.57,-0.207685,-0.264164,1.701944,67.45,1
6433,0,46716,52093,47373.57,52588.58,-657.57,-495.58,-0.207657,-0.264145,1.698380,67.54,1
6441,0,46716,52093,47372.26,52587.59,-656.26,-494.59,-0.207629,-0.264126,1.694907,67.63,1
6450,0,46713,52095,47370.94,52586.61,-657.94,-491.61,-0.207602,-0.264107,1.691728,67.71,1
6460,0,46721,52100,47369.64,52585.64,-648.64,-485.64,-0.207574,-0.264089,1.688647,67.78,1
6472,0,46718,52100,47368.34,52584.67,-650.34,-484.67,-0.207547,-0.264071,1.685734,67.86,1
6482,0,46721,52103,47367.05,52583.71,-646.05,-480.71,-0.207519,-0.264052,1.682956,67.93,1
6493,0,46715,52108,47365.75,52582.76,-650.75,-474.76,-0.207492,-0.264034,1.680692,67.98,1
6501,0,46716,52103,47364.45,52581.80,-648.45,-478.80,-0.207465,-0.264016,1.678186,68.05,1
6511,0,46713,52106,47363.15,52580.85,-650.15,-474.85,-0.207437,-0.263998,1.675985,68.10,1
6520,0,46713,52097,47361.85,52579.89,-648.85,-482.89,-0.207410,-0.263980,1.673365,68.17,1
6532,0,46711,52098,47360.55,52578.93,-649.55,-480.93,-0.207382,-0.263961,1.670918,68.23,1
6542,0,46701,52091,47359.23,52577.95,-658.23,-486.95,-0.207354,-0.263943,1.668473,68.29,1
6550,0,46703,52097,47357.92,52576.99,-654.92,-479.99,-0.207327,-0.263925,1.666331,68.34,1
6560,0,46698,52092,47356.60,52576.02,-658.60,-484.02,-0.207299,-0.263906,1.664135,68.40,1
6570,0,46699,52087,47355.29,52575.05,-656.29,-488.05,-0.207271,-0.263888,1.661703,68.46,1
6579,0,46696,52085,47353.97,52574.07,-657.97,-489.07,-0.207243,-0.263869,1.659316,68.52,1
6589,0,46695,52077,47352.65,52573.07,-657.65,-496.07,-0.207215,-0.263850,1.656605,68.58,1
6599,0,46693,52077,47351.34,52572.08,-658.34,-495.08,-0.207188,-0.263831,1.654018,68.65,1
6611,0,46689,52080,47350.01,52571.10,-661.01,-491.10,-0.207160,-0.263812,1.651763,68.71,1
6627,0,46688,52079,47348.69,52570.11,-660.69,-491.11,-0.207132,-0.263794,1.649539,68.76,1
6643,0,46685,52076,47347.36,52569.12,-662.36,-493.12,-0.207104,-0.263775,1.647307,68.82,1
6696,0,46687,52080,47346.04,52568.15,-659.04,-488.15,-0.207076,-0.263756,1.645261,68.87,1
6742,0,46682,52077,47344.71,52567.17,-662.71,-490.17,-0.207048,-0.263738,1.643264,68.92,1
6753,0,46688,52074,47343.40,52566.18,-655.40,-492.18,-0.207020,-0.263719,1.640985,68.98,1
6762,0,46689,52079,47342.09,52565.21,-653.09,-486.21,-0.206992,-0.263700,1.638967,69.03,1
6775,0,46683,52079,47340.78,52564.24,-657.78,-485.24,-0.206965,-0.263682,1.637169,69.07,1
6785,0,46679,52074,47339.45,52563.26,-660.45,-489.26,-0.206937,-0.263663,1.635291,69.12,1
6794,0,46677,52079,47338.13,52562.29,-661.13,-483.29,-0.206909,-0.263645,1.633747,69.16,1
6804,0,46675,52079,47336.80,52561.32,-661.80,-482.32,-0.206881,-0.263626,1.632295,69.19,1
6812,0,46674,52081,47335.48,52560.36,-661.48,-479.36,-0.206853,-0.263608,1.630995,69.23,1
6822,0,46678,52078,47334.17,52559.40,-656.17,-481.40,-0.206825,-0.263590,1.629466,69.26,1
6829,0,46669,52076,47332.84,52558.43,-663.84,-482.43,-0.206797,-0.263572,1.628140,69.30,1
6835,0,46671,52079,47331.52,52557.48,-660.52,-478.48,-0.206769,-0.263553,1.626919,69.33,1
6840,0,46674,52075,47330.20,52556.51,-656.20,-481.51,-0.206741,-0.263535,1.625454,69.36,1
6844,0,46670,52083,47328.88,52555.57,-658.88,-472.57,-0.206713,-0.263517,1.624493,69.39,1
6847,0,46673,52079,47327.57,52554.61,-654.57,-475.61,-0.206686,-0.263499,1.623286,69.42,1
6850,0,46671,52081,47326.26,52553.67,-655.26,-472.67,-0.206658,-0.263481,1.622249,69.44,1
6852,0,46668,52077,47324.95,52552.71,-656.95,-475.71,-0.206630,-0.263463,1.621142,69.47,1
6853,0,46667,52078,47323.63,52551.77,-656.63,-473.77,-0.206602,-0.263445,1.620128,69.50,1
6856,0,46666,52076,47322.32,52550.82,-656.32,-474.82,-0.206575,-0.263427,1.619075,69.52,1
6859,0,46659,52081,47320.99,52549.88,-661.99,-468.88,-0.206547,-0.263409,1.618460,69.54,1
6863,0,46660,52071,47319.67,52548.92,-659.67,-477.92,-0.206519,-0.263391,1.617393,69.57,1
6865,0,46662,52070,47318.36,52547.96,-656.36,-477.96,-0.206491,-0.263372,1.616246,69.59,1
6869,0,46655,52068,47317.04,52547.01,-662.04,-479.01,-0.206463,-0.263354,1.615233,69.62,1
6872,0,46654,52042,47315.71,52546.00,-661.71,-504.00,-0.206435,-0.263335,1.613109,69.67,1
6878,0,46651,52040,47314.38,52544.99,-663.38,-504.99,-0.206407,-0.263316,1.611024,69.72,1
6888,0,46649,52023,47313.05,52543.95,-664.05,-520.95,-0.206379,-0.263296,1.608260,69.79,1
6898,0,46648,52019,47311.73,52542.90,-663.73,-523.90,-0.206351,-0.263276,1.605400,69.86,1
6909,0,46643,52013,47310.39,52541.84,-667.39,-528.84,-0.206323,-0.263256,1.602467,69.94,1
6919,0,46639,52012,47309.05,52540.78,-670.05,-528.78,-0.206294,-0.263236,1.599668,70.01,1
6930,0,46638,52012,47307.71,52539.73,-669.71,-527.73,-0.206266,-0.263215,1.596961,70.08,1
6940,0,46641,52009,47306.38,52538.67,-665.38,-529.67,-0.206238,-0.263195,1.594094,70.15,1
6951,0,46643,52016,47305.05,52537.62,-662.05,-521.62,-0.206210,-0.263176,1.591551,70.21,1
6960,0,46644,52012,47303.73,52536.57,-659.73,-524.57,-0.206182,-0.263156,1.588858,70.28,1
6969,0,46648,52020,47302.43,52535.54,-654.43,-515.54,-0.206154,-0.263136,1.586467,70.34,1
6980,0,46650,52024,47301.12,52534.52,-651.12,-510.52,-0.206127,-0.263116,1.584244,70.39,1
6990,0,46648,52017,47299.82,52533.48,-651.82,-516.48,-0.206099,-0.263097,1.581819,70.45,1
7003,0,46640,52022,47298.50,52532.46,-658.50,-510.46,-0.206071,-0.263077,1.579874,70.50,1
7011,0,46645,52019,47297.19,52531.43,-652.19,-512.43,-0.206044,-0.263058,1.577707,70.56,1
7022,0,46634,52018,47295.87,52530.41,-661.87,-512.41,-0.206016,-0.263038,1.575837,70.60,1
7032,0,46642,52016,47294.56,52529.38,-652.56,-513.38,-0.205988,-0.263019,1.573707,70.66,1
7041,0,46638,52017,47293.25,52528.36,-655.25,-511.36,-0.205960,-0.262999,1.571768,70.71,1
7053,0,46643,52019,47291.95,52527.34,-648.95,-508.34,-0.205933,-0.262980,1.569817,70.75,1
7060,0,46638,52022,47290.64,52526.33,-652.64,-504.33,-0.205905,-0.262961,1.568160,70.80,1
7071,0,46646,52016,47289.35,52525.31,-643.35,-509.31,-0.205878,-0.262941,1.566079,70.85,1
7082,0,46640,52020,47288.05,52524.30,-648.05,-504.30,-0.205850,-0.262922,1.564359,70.89,1
7092,0,46639,52009,47286.76,52523.28,-647.76,-514.28,-0.205823,-0.262902,1.562249,70.94,1
7102,0,46627,52009,47285.44,52522.25,-658.44,-513.25,-0.205795,-0.262883,1.560496,70.99,1
7113,0,46628,52005,47284.13,52521.22,-656.13,-516.22,-0.205767,-0.262863,1.558589,71.04,1
7121,0,46620,52000,47282.80,52520.18,-662.80,-520.18,-0.205739,-0.262843,1.556727,71.08,1
7131,0,46618,51990,47281.47,52519.12,-663.47,-529.12,-0.205711,-0.262823,1.554545,71.14,1
7140,0,46616,51990,47280.14,52518.06,-664.14,-528.06,-0.205683,-0.262803,1.552461,71.19,1
7149,0,46617,51991,47278.82,52517.00,-661.82,-526.00,-0.205655,-0.262783,1.550435,71.24,1
7161,0,46619,51992,47277.50,52515.96,-658.50,-523.96,-0.205627,-0.262763,1.548438,71.29,1
7170,0,46610,51987,47276.17,52514.90,-666.17,-527.90,-0.205599,-0.262743,1.546515,71.34,1
7181,0,46612,51986,47274.84,52513.85,-662.84,-527.85,-0.205571,-0.262723,1.544539,71.39,1
7192,0,46607,51991,47273.50,52512.80,-666.50,-521.80,-0.205543,-0.262703,1.542932,71.43,1
7200,0,46616,51994,47272.19,52511.77,-656.19,-517.77,-0.205515,-0.262683,1.541241,71.47,1
7209,0,46605,51992,47270.86,52510.73,-665.86,-518.73,-0.205487,-0.262663,1.539790,71.51,1
7220,0,46610,51998,47269.54,52509.71,-659.54,-511.71,-0.205459,-0.262644,1.538469,71.54,1
7230,0,46612,51998,47268.23,52508.68,-656.23,-510.68,-0.205431,-0.262625,1.537122,71.57,1
7241,0,46608,51997,47266.91,52507.66,-658.91,-510.66,-0.205403,-0.262605,1.535864,71.60,1
7251,0,46603,51994,47265.58,52506.63,-662.58,-512.63,-0.205375,-0.262585,1.534644,71.63,1
7261,0,46605,51993,47264.26,52505.61,-659.26,-512.61,-0.205347,-0.262566,1.533358,71.67,1
7271,0,46603,51999,47262.94,52504.59,-659.94,-505.59,-0.205319,-0.262547,1.532372,71.69,1
7281,0,46610,51998,47261.63,52503.58,-651.63,-505.58,-0.205291,-0.262527,1.531189,71.72,1
7292,0,46600,52000,47260.31,52502.58,-660.31,-502.58,-0.205263,-0.262508,1.530354,71.74,1
7302,0,46597,51991,47258.99,52501.55,-661.99,-510.55,-0.205236,-0.262489,1.529278,71.77,1
7311,0,46603,51999,47257.68,52500.55,-654.68,-501.55,-0.205208,-0.262470,1.528364,71.79,1
7321,0,46593,51995,47256.35,52499.54,-663.35,-504.54,-0.205180,-0.262450,1.527574,71.81,1
7332,0,46596,51998,47255.03,52498.54,-659.03,-500.54,-0.205152,-0.262431,1.526830,71.83,1
7339,0,46598,51994,47253.71,52497.54,-655.71,-503.54,-0.205124,-0.262412,1.525904,71.85,1
7350,0,46595,51996,47252.40,52496.54,-657.40,-500.54,-0.205096,-0.262393,1.525142,71.87,1
7360,0,46599,51998,47251.09,52495.54,-652.09,-497.54,-0.205068,-0.262374,1.524365,71.89,1
7371,0,46597,52003,47249.79,52494.55,-652.79,-491.55,-0.205041,-0.262355,1.523828,71.90,1
7381,0,46603,51999,47248.49,52493.57,-645.49,-494.57,-0.205013,-0.262337,1.523010,71.92,1
7390,0,46598,52002,47247.19,52492.59,-649.19,-490.59,-0.204986,-0.262318,1.522435,71.94,1
7400,0,46600,51992,47245.90,52491.59,-645.90,-499.59,-0.204958,-0.262299,1.521467,71.96,1
7410,0,46595,52002,47244.60,52490.61,-649.60,-488.61,-0.204931,-0.262280,1.520990,71.98,1
7421,0,46596,52000,47243.30,52489.63,-647.30,-489.63,-0.204903,-0.262262,1.520427,71.99,1
7431,0,46599,51998,47242.01,52488.65,-643.01,-490.65,-0.204876,-0.262243,1.519729,72.01,1
7440,0,46591,51996,47240.71,52487.66,-649.71,-491.66,-0.204849,-0.262224,1.519170,72.02,1
7452,0,46591,51993,47239.41,52486.68,-648.41,-493.68,-0.204821,-0.262205,1.518515,72.04,1
7461,0,46589,51989,47238.11,52485.68,-649.11,-496.68,-0.204794,-0.262186,1.517780,72.06,1
7469,0,46577,51968,47236.79,52484.65,-659.79,-516.65,-0.204766,-0.262167,1.516604,72.08,1
7480,0,46579,51954,47235.48,52483.59,-656.48,-529.59,-0.204738,-0.262147,1.514886,72.13,1
7490,0,46579,51946,47234.17,52482.52,-655.17,-536.52,-0.204710,-0.262126,1.512902,72.18,1
7499,0,46579,51933,47232.86,52481.42,-653.86,-548.42,-0.204682,-0.262105,1.510466,72.24,1
7510,0,46571,51926,47231.54,52480.31,-660.54,-554.31,-0.204654,-0.262084,1.508010,72.30,1
7520,0,46562,51922,47230.20,52479.19,-668.20,-557.19,-0.204626,-0.262063,1.505674,72.36,1
7529,0,46556,51924,47228.85,52478.08,-672.85,-554.08,-0.204598,-0.262042,1.503614,72.41,1
7540,0,46561,51921,47227.52,52476.97,-666.52,-555.97,-0.204569,-0.262020,1.501358,72.47,1
7551,0,46559,51925,47226.18,52475.87,-667.18,-550.87,-0.204541,-0.261999,1.499347,72.52,1
7560,0,46550,51929,47224.83,52474.77,-674.83,-545.77,-0.204512,-0.261978,1.497748,72.56,1
7570,0,46561,51930,47223.50,52473.68,-662.50,-543.68,-0.204484,-0.261958,1.495944,72.60,1
7580,0,46558,51930,47222.17,52472.60,-664.17,-542.60,-0.204456,-0.261937,1.494249,72.64,1
7588,0,46557,51928,47220.84,52471.51,-663.84,-543.51,-0.204428,-0.261916,1.492538,72.69,1
7601,0,46562,51930,47219.53,52470.43,-657.53,-540.43,-0.204400,-0.261896,1.490811,72.73,1
7610,0,46549,51932,47218.19,52469.36,-669.19,-537.36,-0.204372,-0.261875,1.489503,72.76,1
7620,0,46548,51928,47216.85,52468.27,-668.85,-540.27,-0.204343,-0.261855,1.488102,72.80,1
7633,0,46551,51933,47215.52,52467.20,-664.52,-534.20,-0.204315,-0.261834,1.486831,72.83,1
7642,0,46549,51929,47214.18,52466.13,-665.18,-537.13,-0.204287,-0.261814,1.485491,72.86,1
7650,0,46552,51932,47212.86,52465.06,-660.86,-533.06,-0.204259,-0.261793,1.484208,72.89,1
7662,0,46548,51933,47211.53,52464.00,-663.53,-531.00,-0.204231,-0.261773,1.483079,72.92,1
7671,0,46556,51932,47210.22,52462.94,-654.22,-530.94,-0.204203,-0.261753,1.481744,72.96,1
7682,0,46558,51928,47208.92,52461.87,-650.92,-533.87,-0.204175,-0.261732,1.480249,72.99,1
7694,0,46554,51931,47207.61,52460.81,-653.61,-529.81,-0.204148,-0.261712,1.478976,73.03,1
7701,0,46550,51930,47206.30,52459.75,-656.30,-529.75,-0.204120,-0.261692,1.477787,73.06,1
7711,0,46546,51928,47204.98,52458.69,-658.98,-530.69,-0.204092,-0.261672,1.476647,73.08,1
7721,0,46552,51929,47203.67,52457.63,-651.67,-528.63,-0.204064,-0.261652,1.475418,73.11,1
7731,0,46547,51918,47202.36,52456.55,-655.36,-538.55,-0.204037,-0.261631,1.473956,73.15,1
7741,0,46541,51925,47201.04,52455.49,-660.04,-530.49,-0.204009,-0.261611,1.472899,73.18,1
7750,0,46542,51923,47199.72,52454.43,-657.72,-531.43,-0.203981,-0.261591,1.471769,73.21,1
7762,0,46539,51920,47198.40,52453.36,-659.40,-533.36,-0.203953,-0.261570,1.470630,73.23,1
7773,0,46538,51920,47197.08,52452.29,-659.08,-532.29,-0.203925,-0.261550,1.469535,73.26,1
7783,0,46534,51918,47195.76,52451.23,-661.76,-533.23,-0.203897,-0.261530,1.468486,73.29,1
7792,0,46534,51919,47194.43,52450.16,-660.43,-531.16,-0.203869,-0.261509,1.467489,73.31,1
7803,0,46536,51917,47193.12,52449.10,-657.12,-532.10,-0.203841,-0.261489,1.466397,73.34,1
7813,0,46529,51917,47191.79,52448.04,-662.79,-531.04,-0.203813,-0.261469,1.465488,73.36,1
7822,0,46528,51917,47190.46,52446.97,-662.46,-529.97,-0.203784,-0.261449,1.464618,73.38,1
7832,0,46521,51915,47189.12,52445.91,-668.12,-530.91,-0.203756,-0.261428,1.463863,73.40,1
7844,0,46526,51911,47187.80,52444.84,-661.80,-533.84,-0.203728,-0.261408,1.462872,73.43,1
7854,0,46523,51920,47186.47,52443.79,-663.47,-523.79,-0.203700,-0.261388,1.462261,73.44,1
7861,0,46526,51921,47185.15,52442.75,-659.15,-521.75,-0.203672,-0.261368,1.461622,73.46,1
7871,0,46527,51920,47183.84,52441.71,-656.84,-521.71,-0.203644,-0.261348,1.460938,73.48,1
7881,0,46521,51922,47182.51,52440.67,-661.51,-518.67,-0.203616,-0.261328,1.460469,73.49,1
7892,0,46521,51919,47181.19,52439.62,-660.19,-520.62,-0.203588,-0.261308,1.459913,73.50,1
7900,0,46521,51921,47179.87,52438.59,-658.87,-517.59,-0.203560,-0.261289,1.459428,73.51,1
7912,0,46513,51921,47178.54,52437.55,-665.54,-516.55,-0.203532,-0.261269,1.459139,73.52,1
7922,0,46518,51922,47177.22,52436.52,-659.22,-514.52,-0.203504,-0.261249,1.458769,73.53,1
7932,0,46521,51927,47175.91,52435.50,-654.91,-508.50,-0.203476,-0.261230,1.458490,73.54,1
7942,0,46515,51927,47174.59,52434.49,-659.59,-507.49,-0.203448,-0.261211,1.458355,73.54,1
7951,0,46513,51922,47173.27,52433.46,-660.27,-511.46,-0.203420,-0.261191,1.458114,73.55,1
7961,0,46519,51930,47171.96,52432.46,-652.96,-502.46,-0.203392,-0.261172,1.457984,73.55,1
7971,0,46521,51935,47170.66,52431.47,-649.66,-496.47,-0.203365,-0.261153,1.457961,73.55,1
7982,0,46520,51929,47169.36,52430.46,-649.36,-501.46,-0.203337,-0.261134,1.457780,73.56,1
7991,0,46518,51930,47168.05,52429.46,-650.05,-499.46,-0.203309,-0.261115,1.457678,73.56,1
8001,0,46516,51935,47166.75,52428.48,-650.75,-493.48,-0.203282,-0.261096,1.457773,73.56,1
8012,0,46513,51932,47165.45,52427.48,-652.45,-495.48,-0.203254,-0.261077,1.457846,73.55,1
8021,0,46511,51934,47164.14,52426.50,-653.14,-492.50,-0.203226,-0.261058,1.458023,73.55,1
8031,0,46518,51938,47162.84,52425.52,-644.84,-487.52,-0.203199,-0.261039,1.458157,73.55,1
8040,0,46508,51939,47161.54,52424.55,-653.54,-485.55,-0.203171,-0.261021,1.458547,73.54,1
8050,0,46514,51933,47160.24,52423.57,-646.24,-490.57,-0.203144,-0.261002,1.458618,73.53,1
8062,0,46508,51932,47158.94,52422.59,-650.94,-490.59,-0.203116,-0.260984,1.458795,73.53,1
8070,0,46508,51926,47157.64,52421.60,-649.64,-495.60,-0.203089,-0.260965,1.458790,73.53,1
8082,0,46506,51909,47156.34,52420.57,-650.34,-511.57,-0.203061,-0.260945,1.458315,73.54,1
8092,0,46509,51893,47155.04,52419.52,-646.04,-526.52,-0.203034,-0.260925,1.457278,73.57,1
8101,0,46499,51892,47153.73,52418.46,-654.73,-526.46,-0.203006,-0.260905,1.456455,73.59,1
8112,0,46499,51890,47152.42,52417.41,-653.42,-527.41,-0.202978,-0.260885,1.455581,73.61,1
8122,0,46492,51878,47151.10,52416.33,-659.10,-538.33,-0.202950,-0.260864,1.454500,73.64,1
8132,0,46497,51875,47149.79,52415.25,-652.79,-540.25,-0.202922,-0.260844,1.453227,73.67,1
8142,0,46497,51876,47148.49,52414.17,-651.49,-538.17,-0.202895,-0.260823,1.452007,73.70,1
8152,0,46494,51884,47147.18,52413.11,-653.18,-529.11,-0.202867,-0.260803,1.451130,73.72,1
8163,0,46499,51882,47145.88,52412.05,-646.88,-530.05,-0.202839,-0.260782,1.450091,73.75,1
8172,0,46493,51892,47144.58,52411.01,-651.58,-519.01,-0.202812,-0.260763,1.449515,73.76,1
8183,0,46496,51896,47143.28,52409.98,-647.28,-513.98,-0.202784,-0.260743,1.449001,73.77,1
8193,0,46504,51897,47142.00,52408.96,-638.00,-511.96,-0.202757,-0.260724,1.448347,73.79,1
8202,0,46496,51904,47140.71,52407.95,-644.71,-503.95,-0.202730,-0.260704,1.448091,73.80,1
8211,0,46501,51903,47139.44,52406.95,-638.44,-503.95,-0.202703,-0.260685,1.447698,73.81,1
8222,0,46496,51905,47138.15,52405.94,-642.15,-500.94,-0.202675,-0.260666,1.447480,73.81,1
8230,0,46498,51911,47136.87,52404.95,-638.87,-493.95,-0.202648,-0.260647,1.447398,73.82,1
8240,0,46496,51913,47135.59,52403.97,-639.59,-490.97,-0.202621,-0.260628,1.447419,73.81,1
8250,0,46503,51905,47134.33,52402.97,-631.33,-497.97,-0.202594,-0.260609,1.447052,73.82,1
8260,0,46499,51912,47133.06,52401.99,-634.06,-489.99,-0.202567,-0.260591,1.446982,73.83,1
8270,0,46501,51917,47131.80,52401.02,-630.80,-484.02,-0.202540,-0.260572,1.447013,73.82,1
8280,0,46500,51916,47130.54,52400.05,-630.54,-484.05,-0.202514,-0.260554,1.447036,73.82,1
8291,0,46501,51919,47129.28,52399.09,-628.28,-480.09,-0.202487,-0.260535,1.447123,73.82,1
8303,0,46502,51919,47128.02,52398.14,-626.02,-479.14,-0.202460,-0.260517,1.447188,73.82,1
8311,0,46499,51920,47126.77,52397.18,-627.77,-477.18,-0.202434,-0.260499,1.447345,73.82,1
8322,0,46506,51919,47125.52,52396.23,-619.52,-477.23,-0.202407,-0.260481,1.447319,73.82,1
8332,0,46498,51915,47124.27,52395.27,-626.27,-480.27,-0.202381,-0.260462,1.447355,73.82,1
8342,0,46497,51913,47123.02,52394.30,-626.02,-481.30,-0.202354,-0.260444,1.447356,73.82,1
8352,0,46497,51913,47121.77,52393.34,-624.77,-480.34,-0.202328,-0.260425,1.447356,73.82,1
8360,0,46496,51912,47120.52,52392.38,-624.52,-480.38,-0.202301,-0.260407,1.447350,73.82,1
8371,0,46504,51914,47119.29,52391.43,-615.29,-477.43,-0.202275,-0.260389,1.447227,73.82,1
8379,0,46498,51917,47118.04,52390.48,-620.04,-473.48,-0.202249,-0.260371,1.447321,73.82,1
8391,0,46502,51918,47116.81,52389.53,-614.81,-471.53,-0.202223,-0.260353,1.447355,73.82,1
8401,0,46494,51916,47115.57,52388.59,-621.57,-472.59,-0.202196,-0.260335,1.447507,73.81,1
8411,0,46498,51920,47114.33,52387.65,-616.33,-467.65,-0.202170,-0.260317,1.447681,73.81,1
8421,0,46495,51920,47113.09,52386.71,-618.09,-466.71,-0.202144,-0.260299,1.447919,73.80,1
8431,0,46495,51920,47111.86,52385.78,-616.86,-465.78,-0.202117,-0.260281,1.448153,73.80,1
8441,0,46501,51917,47110.64,52384.84,-609.64,-467.84,-0.202092,-0.260263,1.448172,73.80,1
8451,0,46495,51921,47109.41,52383.92,-614.41,-462.92,-0.202065,-0.260246,1.448432,73.79,1
8461,0,46497,51935,47108.19,52383.02,-611.19,-448.02,-0.202039,-0.260228,1.449028,73.77,1
8471,0,46497,51926,47106.96,52382.11,-609.96,-456.11,-0.202013,-0.260211,1.449372,73.77,1
8483,0,46504,51932,47105.76,52381.21,-601.76,-449.21,-0.201988,-0.260194,1.449726,73.76,1
8491,0,46496,51922,47104.54,52380.29,-608.54,-458.29,-0.201962,-0.260176,1.449975,73.75,1
8502,0,46497,51929,47103.33,52379.39,-606.33,-450.39,-0.201936,-0.260159,1.450391,73.74,1
8511,0,46499,51930,47102.12,52378.49,-603.12,-448.49,-0.201911,-0.260142,1.450787,73.73,1
8521,0,46499,51929,47100.92,52377.59,-601.92,-448.59,-0.201885,-0.260125,1.451151,73.72,1
8531,0,46494,51932,47099.71,52376.70,-605.71,-444.70,-0.201859,-0.260108,1.451701,73.71,1
8541,0,46494,51932,47098.50,52375.82,-604.50,-443.82,-0.201834,-0.260091,1.452245,73.69,1
8551,0,46493,51931,47097.29,52374.93,-604.29,-443.93,-0.201808,-0.260074,1.452777,73.68,1
8561,0,46496,51929,47096.08,52374.04,-600.08,-445.04,-0.201782,-0.260057,1.453185,73.67,1
8571,0,46495,51933,47094.88,52373.16,-599.88,-440.16,-0.201757,-0.260040,1.453718,73.66,1
8581,0,46496,51932,47093.69,52372.28,-597.69,-440.28,-0.201732,-0.260023,1.454198,73.65,1
8591,0,46502,51940,47092.50,52371.41,-590.50,-431.41,-0.201706,-0.260007,1.454758,73.63,1
8601,0,46491,51942,47091.30,52370.55,-600.30,-428.55,-0.201681,-0.259990,1.455602,73.61,1
8612,0,46494,51944,47090.11,52369.70,-596.11,-425.70,-0.201655,-0.259974,1.456426,73.59,1
8621,0,46492,51942,47088.91,52368.85,-596.91,-426.85,-0.201630,-0.259958,1.457232,73.57,1
8632,0,46492,51941,47087.72,52367.99,-595.72,-426.99,-0.201605,-0.259942,1.458003,73.55,1
8641,0,46491,51941,47086.53,52367.14,-595.53,-426.14,-0.201579,-0.259925,1.458788,73.53,1
8652,0,46489,51947,47085.33,52366.30,-596.33,-419.30,-0.201554,-0.259909,1.459768,73.51,1
8662,0,46487,51943,47084.14,52365.46,-597.14,-422.46,-0.201529,-0.259893,1.460676,73.48,1
8672,0,46486,51946,47082.94,52364.62,-596.94,-418.62,-0.201503,-0.259877,1.461676,73.46,1
8681,0,46490,51947,47081.76,52363.79,-591.76,-416.79,-0.201478,-0.259861,1.462606,73.43,1
8690,0,46489,51945,47080.57,52362.95,-591.57,-417.95,-0.201453,-0.259845,1.463496,73.41,1
8701,0,46490,51939,47079.39,52362.11,-589.39,-423.11,-0.201428,-0.259829,1.464196,73.40,1
8711,0,46482,51920,47078.20,52361.22,-596.20,-441.22,-0.201403,-0.259812,1.464540,73.39,1
8721,0,46478,51922,47077.00,52360.34,-599.00,-438.34,-0.201377,-0.259795,1.465025,73.37,1
8732,0,46482,51906,47075.81,52359.44,-593.81,-453.44,-0.201352,-0.259778,1.464960,73.38,1
8741,0,46475,51907,47074.61,52358.54,-599.61,-451.54,-0.201326,-0.259761,1.465080,73.37,1
8751,0,46474,51894,47073.41,52357.61,-599.41,-463.61,-0.201301,-0.259743,1.464840,73.38,1
8761,0,46479,51899,47072.23,52356.70,-593.23,-457.70,-0.201276,-0.259726,1.464640,73.38,1
8771,0,46470,51893,47071.02,52355.77,-601.02,-462.77,-0.201250,-0.259708,1.464465,73.39,1
8780,0,46466,51898,47069.82,52354.86,-603.82,-456.86,-0.201225,-0.259691,1.464528,73.39,1
8801,0,46477,51905,47068.63,52353.96,-591.63,-448.96,-0.201199,-0.259673,1.464551,73.39,1
8817,0,46479,51910,47067.45,52353.07,-588.45,-443.07,-0.201174,-0.259657,1.464673,73.38,1
8832,0,46474,51914,47066.27,52352.20,-592.27,-438.20,-0.201149,-0.259640,1.465016,73.37,1
8849,0,46481,51916,47065.10,52351.32,-584.10,-435.32,-0.201124,-0.259623,1.465259,73.37,1
8856,0,46481,51909,47063.93,52350.44,-582.93,-441.44,-0.201099,-0.259606,1.465302,73.37,1
8882,0,46477,51913,47062.76,52349.57,-585.76,-436.57,-0.201075,-0.259590,1.465544,73.36,1
8920,0,46480,51913,47061.59,52348.70,-581.59,-435.70,-0.201050,-0.259573,1.465719,73.36,1
8925,0,46482,51922,47060.44,52347.84,-578.44,-425.84,-0.201025,-0.259557,1.466101,73.35,1
8930,0,46474,51917,47059.27,52346.98,-585.27,-429.98,-0.201000,-0.259540,1.466513,73.34,1
8937,0,46485,51925,47058.12,52346.14,-573.12,-421.14,-0.200976,-0.259524,1.466905,73.33,1
8945,0,46481,51923,47056.96,52345.30,-575.96,-422.30,-0.200951,-0.259508,1.467323,73.32,1
8952,0,46485,51934,47055.82,52344.48,-570.82,-410.48,-0.200927,-0.259492,1.467952,73.30,1
8957,0,46485,51933,47054.68,52343.66,-569.68,-410.66,-0.200903,-0.259477,1.468547,73.29,1
8961,0,46480,51930,47053.53,52342.83,-573.53,-412.83,-0.200879,-0.259461,1.469164,73.27,1
8964,0,46482,51935,47052.39,52342.02,-570.39,-407.02,-0.200854,-0.259445,1.469867,73.25,1
8966,0,46477,51936,47051.24,52341.21,-574.24,-405.21,-0.200830,-0.259430,1.470699,73.23,1
8969,0,46482,51932,47050.11,52340.39,-568.11,-408.39,-0.200806,-0.259414,1.471306,73.22,1
8972,0,46479,51932,47048.96,52339.57,-569.96,-407.57,-0.200781,-0.259399,1.471973,73.20,1
8975,0,46475,51927,47047.82,52338.75,-572.82,-411.75,-0.200757,-0.259383,1.472584,73.19,1
8979,0,46478,51923,47046.68,52337.92,-568.68,-414.92,-0.200733,-0.259367,1.473013,73.17,1
8990,0,46476,51924,47045.54,52337.09,-569.54,-413.09,-0.200709,-0.259351,1.473509,73.16,1
9000,0,46481,51925,47044.41,52336.27,-563.41,-411.27,-0.200685,-0.259335,1.473919,73.15,1
9010,0,46476,51923,47043.27,52335.44,-567.27,-412.44,-0.200660,-0.259320,1.474378,73.14,1
9021,0,46469,51931,47042.12,52334.63,-573.12,-403.63,-0.200636,-0.259304,1.475209,73.12,1
9030,0,46468,51927,47040.98,52333.82,-572.98,-406.82,-0.200612,-0.259289,1.475943,73.10,1
9040,0,46466,51924,47039.83,52333.00,-573.83,-409.00,-0.200587,-0.259273,1.476632,73.08,1
9050,0,46469,51935,47038.69,52332.21,-569.69,-397.21,-0.200563,-0.259258,1.477550,73.06,1
9061,0,46471,51930,47037.55,52331.41,-566.55,-401.41,-0.200539,-0.259243,1.478279,73.04,1
9071,0,46474,51932,47036.43,52330.61,-562.43,-398.61,-0.200515,-0.259227,1.478990,73.03,1
9080,0,46470,51931,47035.30,52329.81,-565.30,-398.81,-0.200491,-0.259212,1.479755,73.01,1
9091,0,46466,51942,47034.16,52329.04,-568.16,-387.04,-0.200467,-0.259197,1.480902,72.98,1
9101,0,46467,51939,47033.03,52328.26,-566.03,-389.26,-0.200443,-0.259183,1.481935,72.95,1
9112,0,46468,51933,47031.90,52327.47,-563.90,-394.47,-0.200419,-0.259167,1.482772,72.93,1
9120,0,46460,51937,47030.75,52326.69,-570.75,-389.69,-0.200394,-0.259153,1.483891,72.90,1
9132,0,46458,51935,47029.61,52325.91,-571.61,-390.91,-0.200370,-0.259138,1.484990,72.88,1
9141,0,46460,51934,47028.47,52325.13,-568.47,-391.13,-0.200346,-0.259123,1.486007,72.85,1
9150,0,46463,51940,47027.34,52324.36,-564.34,-384.36,-0.200322,-0.259108,1.487111,72.82,1
9161,0,46466,51936,47026.22,52323.59,-560.22,-387.59,-0.200298,-0.259093,1.488029,72.80,1
9171,0,46461,51944,47025.09,52322.83,-564.09,-378.83,-0.200274,-0.259079,1.489270,72.77,1
9182,0,46461,51937,47023.96,52322.06,-562.96,-385.06,-0.200250,-0.259064,1.490309,72.74,1
9192,0,46455,51942,47022.83,52321.30,-567.83,-379.30,-0.200226,-0.259049,1.491612,72.71,1
9201,0,46460,51939,47021.70,52320.54,-561.70,-381.54,-0.200202,-0.259035,1.492707,72.68,1
9210,0,46455,51942,47020.57,52319.79,-565.57,-377.79,-0.200178,-0.259021,1.493989,72.65,1
9221,0,46451,51941,47019.43,52319.03,-568.43,-378.03,-0.200154,-0.259006,1.495324,72.62,1
9231,0,46445,51940,47018.29,52318.27,-573.29,-378.27,-0.200129,-0.258992,1.496758,72.58,1
9244,0,46447,51941,47017.14,52317.52,-570.14,-376.52,-0.200105,-0.258977,1.498161,72.55,1
9252,0,46446,51939,47016.00,52316.76,-570.00,-377.76,-0.200081,-0.258963,1.499520,72.51,1
9262,0,46448,51942,47014.87,52316.01,-566.87,-374.01,-0.200057,-0.258948,1.500903,72.48,1
9272,0,46450,51938,47013.74,52315.26,-563.74,-377.26,-0.200033,-0.258934,1.502117,72.45,1
9283,0,46448,51941,47012.61,52314.51,-564.61,-373.51,-0.200008,-0.258920,1.503451,72.41,1
9293,0,46450,51947,47011.48,52313.78,-561.48,-366.78,-0.199984,-0.258906,1.504893,72.38,1
9304,0,46450,51944,47010.36,52313.04,-560.36,-369.04,-0.199961,-0.258892,1.506240,72.34,1
9312,0,46442,51954,47009.23,52312.32,-567.23,-358.32,-0.199936,-0.258878,1.508036,72.30,1
9322,0,46441,51940,47008.09,52311.58,-567.09,-371.58,-0.199912,-0.258864,1.509454,72.26,1
9332,0,46445,51928,47006.96,52310.82,-561.96,-382.82,-0.199888,-0.258849,1.510421,72.24,1
9341,0,46441,51926,47005.84,52310.05,-564.84,-384.05,-0.199864,-0.258834,1.511415,72.21,1
9352,0,46431,51916,47004.69,52309.26,-573.69,-393.26,-0.199840,-0.258819,1.512338,72.19,1
9362,0,46439,51905,47003.56,52308.45,-564.56,-403.45,-0.199816,-0.258804,1.512727,72.18,1
9372,0,46434,51906,47002.42,52307.65,-568.42,-401.65,-0.199792,-0.258789,1.513260,72.17,1
9381,0,46437,51901,47001.29,52306.84,-564.29,-405.84,-0.199768,-0.258773,1.513563,72.16,1
9391,0,46433,51911,47000.16,52306.05,-567.16,-395.05,-0.199744,-0.258758,1.514264,72.14,1
9401,0,46429,51913,46999.02,52305.26,-570.02,-392.26,-0.199719,-0.258743,1.515115,72.12,1
9411,0,46430,51914,46997.88,52304.48,-567.88,-390.48,-0.199695,-0.258728,1.515964,72.10,1
9423,0,46437,51925,46996.76,52303.72,-559.76,-378.72,-0.199671,-0.258714,1.516967,72.08,1
9434,0,46431,51929,46995.63,52302.97,-564.63,-373.97,-0.199647,-0.258699,1.518221,72.04,1
9445,0,46434,51936,46994.51,52302.24,-560.51,-366.24,-0.199623,-0.258685,1.519596,72.01,1
9453,0,46437,51930,46993.39,52301.50,-556.39,-371.50,-0.199600,-0.258671,1.520713,71.98,1
9463,0,46435,51937,46992.28,52300.77,-557.28,-363.77,-0.199576,-0.258657,1.522072,71.95,1
9473,0,46440,51948,46991.18,52300.07,-551.18,-352.07,-0.199552,-0.258644,1.523613,71.91,1
9482,0,46433,51943,46990.06,52299.36,-557.06,-356.36,-0.199529,-0.258630,1.525166,71.87,1
9493,0,46441,51943,46988.96,52298.64,-547.96,-355.64,-0.199505,-0.258616,1.526519,71.84,1
9504,0,46438,51948,46987.86,52297.95,-549.86,-349.95,-0.199482,-0.258603,1.528072,71.80,1
9512,0,46447,51949,46986.78,52297.25,-539.78,-348.25,-0.199459,-0.258590,1.529432,71.76,1
9523,0,46440,51947,46985.69,52296.55,-545.69,-349.55,-0.199436,-0.258576,1.530887,71.73,1
9535,0,46441,51949,46984.60,52295.86,-543.60,-346.86,-0.199412,-0.258563,1.532365,71.69,1
9542,0,46445,51945,46983.52,52295.16,-538.52,-350.16,-0.199390,-0.258550,1.533624,71.66,1
9551,0,46440,51951,46982.43,52294.47,-542.43,-343.47,-0.199366,-0.258537,1.535161,71.62,1
9561,0,46442,51957,46981.36,52293.80,-539.36,-336.80,-0.199343,-0.258524,1.536808,71.58,1
9572,0,46439,51948,46980.27,52293.11,-541.27,-345.11,-0.199320,-0.258510,1.538259,71.54,1
9581,0,46440,51944,46979.20,52292.41,-539.20,-348.41,-0.199297,-0.258497,1.539560,71.51,1
9592,0,46434,51936,46978.11,52291.70,-544.11,-355.70,-0.199274,-0.258484,1.540757,71.48,1
9601,0,46431,51936,46977.01,52290.99,-546.01,-354.99,-0.199251,-0.258470,1.542015,71.45,1
9612,0,46433,51948,46975.93,52290.30,-542.93,-342.30,-0.199228,-0.258457,1.543568,71.41,1
9622,0,46432,51951,46974.84,52289.63,-542.84,-338.63,-0.199205,-0.258444,1.545220,71.37,1
9634,0,46437,51954,46973.77,52288.96,-536.77,-334.96,-0.199182,-0.258431,1.546826,71.33,1
9645,0,46436,51958,46972.69,52288.30,-536.69,-330.30,-0.199159,-0.258419,1.548558,71.29,1
9653,0,46435,51956,46971.62,52287.64,-536.62,-331.64,-0.199136,-0.258406,1.550245,71.24,1
9665,0,46440,51965,46970.55,52286.99,-530.55,-321.99,-0.199114,-0.258394,1.552055,71.20,1
9672,0,46433,51957,46969.48,52286.33,-536.48,-329.33,-0.199091,-0.258381,1.553793,71.16,1
9683,0,46438,51964,46968.42,52285.69,-530.42,-321.69,-0.199068,-0.258369,1.555599,71.11,1
9693,0,46434,51967,46967.35,52285.05,-533.35,-318.05,-0.199045,-0.258356,1.557573,71.06,1
9705,0,46434,51969,46966.29,52284.42,-532.29,-315.42,-0.199023,-0.258344,1.559590,71.01,1
9712,0,46431,51971,46965.21,52283.80,-534.21,-312.80,-0.199000,-0.258332,1.561722,70.96,1
9723,0,46434,51971,46964.15,52283.17,-530.15,-312.17,-0.198977,-0.258320,1.563768,70.91,1
9731,0,46428,51970,46963.08,52282.55,-535.08,-312.55,-0.198954,-0.258309,1.565918,70.85,1
9741,0,46433,51975,46962.02,52281.93,-529.02,-306.93,-0.198932,-0.258297,1.568073,70.80,1
9751,0,46430,51989,46960.96,52281.35,-530.96,-292.35,-0.198909,-0.258286,1.570670,70.73,1
9761,0,46442,51984,46959.93,52280.75,-517.93,-296.75,-0.198887,-0.258274,1.572828,70.68,1
9770,0,46431,51985,46958.87,52280.16,-527.87,-295.16,-0.198865,-0.258263,1.575267,70.62,1
9781,0,46435,51992,46957.82,52279.59,-522.82,-287.59,-0.198842,-0.258252,1.577785,70.56,1
9791,0,46435,51992,46956.78,52279.02,-521.78,-287.02,-0.198820,-0.258241,1.580289,70.49,1
9801,0,46438,51997,46955.75,52278.45,-517.75,-281.45,-0.198798,-0.258230,1.582842,70.43,1
9812,0,46436,51993,46954.71,52277.88,-518.71,-284.88,-0.198776,-0.258219,1.585322,70.37,1
9821,0,46432,51993,46953.66,52277.31,-521.66,-284.31,-0.198754,-0.258208,1.587888,70.30,1
9831,0,46434,52003,46952.62,52276.77,-518.62,-273.77,-0.198732,-0.258198,1.590660,70.23,1
9842,0,46436,52000,46951.59,52276.21,-515.59,-276.21,-0.198710,-0.258187,1.593289,70.17,1
9850,0,46433,52000,46950.56,52275.66,-517.56,-275.66,-0.198688,-0.258177,1.595980,70.10,1
9861,0,46441,52009,46949.54,52275.13,-508.54,-266.13,-0.198666,-0.258167,1.598701,70.03,1
9871,0,46438,52004,46948.52,52274.59,-510.52,-270.59,-0.198644,-0.258156,1.601351,69.97,1
9882,0,46437,52004,46947.49,52274.05,-510.49,-270.05,-0.198622,-0.258146,1.604013,69.90,1
9894,0,46434,52007,46946.46,52273.52,-512.46,-266.52,-0.198601,-0.258136,1.606817,69.83,1
9906,0,46443,52013,46945.46,52273.00,-502.46,-260.00,-0.198579,-0.258126,1.609547,69.76,1
9915,0,46434,52009,46944.44,52272.48,-510.44,-263.48,-0.198557,-0.258116,1.612381,69.69,1
9921,0,46440,52002,46943.43,52271.94,-503.43,-269.94,-0.198536,-0.258106,1.614862,69.63,1
9935,0,46439,51996,46942.42,52271.39,-503.42,-275.39,-0.198514,-0.258095,1.617186,69.57,1
9942,0,46437,51988,46941.41,52270.82,-504.41,-282.82,-0.198493,-0.258084,1.619316,69.52,1
9951,0,46438,51979,46940.41,52270.24,-502.41,-291.24,-0.198471,-0.258073,1.621139,69.47,1
9963,0,46426,51970,46939.38,52269.64,-513.38,-299.64,-0.198450,-0.258062,1.622973,69.43,1
9972,0,46436,51967,46938.38,52269.04,-502.38,-302.04,-0.198428,-0.258050,1.624447,69.39,1
9983,0,46437,51967,46937.38,52268.43,-500.38,-301.43,-0.198407,-0.258039,1.625886,69.35,1
9993,0,46434,51958,46936.37,52267.81,-502.37,-309.81,-0.198386,-0.258027,1.627098,69.32,1
10002,0,46432,51966,46935.37,52267.21,-503.37,-301.21,-0.198364,-0.258015,1.628613,69.28,1
10012,0,46430,51965,46934.36,52266.61,-504.36,-301.61,-0.198343,-0.258004,1.630136,69.25,1
10022,0,46432,51973,46933.36,52266.02,-501.36,-293.02,-0.198321,-0.257992,1.631855,69.20,1
10031,0,46432,51976,46932.36,52265.45,-500.36,-289.45,-0.198300,-0.257981,1.633659,69.16,1
10041,0,46441,51979,46931.37,52264.87,-490.37,-285.87,-0.198279,-0.257970,1.635320,69.12,1
10052,0,46441,51989,46930.39,52264.32,-489.39,-275.32,-0.198258,-0.257960,1.637280,69.07,1
10062,0,46440,51991,46929.41,52263.78,-489.41,-272.78,-0.198237,-0.257949,1.639315,69.02,1
10072,0,46433,51987,46928.42,52263.23,-495.42,-276.23,-0.198216,-0.257939,1.641395,68.97,1
10084,0,46428,51992,46927.42,52262.68,-499.42,-270.68,-0.198195,-0.257929,1.643745,68.91,1
10092,0,46425,51987,46926.42,52262.13,-501.42,-275.13,-0.198173,-0.257918,1.646006,68.85,1
10103,0,46436,51992,46925.44,52261.59,-489.44,-269.59,-0.198152,-0.257908,1.648126,68.80,1
10113,0,46433,51999,46924.45,52261.07,-491.45,-262.07,-0.198132,-0.257898,1.650524,68.74,1
10123,0,46435,52003,46923.48,52260.55,-488.48,-257.55,-0.198111,-0.257888,1.652979,68.68,1
10134,0,46436,51994,46922.50,52260.02,-486.50,-266.02,-0.198090,-0.257878,1.655123,68.62,1
10144,0,46432,52002,46921.52,52259.51,-489.52,-257.51,-0.198069,-0.257868,1.657605,68.56,1
10152,0,46429,52002,46920.54,52259.00,-491.54,-257.00,-0.198048,-0.257858,1.660152,68.50,1
10163,0,46428,51996,46919.55,52258.47,-491.55,-262.47,-0.198027,-0.257848,1.662529,68.44,1
10174,0,46431,51993,46918.58,52257.94,-487.58,-264.94,-0.198006,-0.257838,1.664720,68.38,1
10183,0,46427,51999,46917.60,52257.43,-490.60,-258.43,-0.197985,-0.257828,1.667193,68.32,1
10195,0,46425,51995,46916.61,52256.90,-491.61,-261.90,-0.197964,-0.257818,1.669581,68.26,1
10201,0,46425,52000,46915.63,52256.39,-490.63,-256.39,-0.197944,-0.257808,1.672114,68.20,1
10212,0,46423,52001,46914.65,52255.88,-491.65,-254.88,-0.197923,-0.257798,1.674718,68.13,1
10223,0,46425,51998,46913.67,52255.37,-488.67,-257.37,-0.197902,-0.257789,1.677162,68.07,1
10232,0,46430,51994,46912.71,52254.85,-482.71,-260.85,-0.197881,-0.257779,1.679332,68.02,1
10241,0,46426,51996,46911.73,52254.33,-485.73,-258.33,-0.197860,-0.257769,1.681662,67.96,1
10251,0,46425,52003,46910.76,52253.83,-485.76,-250.83,-0.197840,-0.257759,1.684230,67.89,1
10262,0,46429,52003,46909.80,52253.33,-480.80,-250.33,-0.197819,-0.257750,1.686679,67.83,1
10274,0,46426,52001,46908.84,52252.83,-482.84,-251.83,-0.197799,-0.257740,1.689132,67.77,1
10282,0,46425,52007,46907.87,52252.34,-482.87,-245.34,-0.197778,-0.257731,1.691791,67.71,1
10293,0,46422,52000,46906.90,52251.83,-484.90,-251.83,-0.197757,-0.257721,1.694295,67.64,1
10304,0,46426,52000,46905.94,52251.33,-479.94,-251.33,-0.197737,-0.257711,1.696677,67.58,1
10312,0,46419,52002,46904.97,52250.83,-485.97,-248.83,-0.197716,-0.257702,1.699304,67.52,1
10323,0,46427,52001,46904.02,52250.33,-477.02,-249.33,-0.197696,-0.257692,1.701667,67.46,1
10333,0,46418,52014,46903.04,52249.86,-485.04,-235.86,-0.197675,-0.257683,1.704682,67.38,1
10343,0,46420,52003,46902.08,52249.37,-482.08,-246.37,-0.197655,-0.257674,1.707275,67.32,1
10354,0,46423,52007,46901.12,52248.88,-478.12,-241.88,-0.197634,-0.257664,1.709904,67.25,1
10363,0,46418,52007,46900.16,52248.40,-482.16,-241.40,-0.197614,-0.257655,1.712658,67.18,1
10373,0,46422,52006,46899.20,52247.92,-477.20,-241.92,-0.197593,-0.257646,1.715255,67.12,1
10383,0,46416,52009,46898.23,52247.44,-482.23,-238.44,-0.197573,-0.257637,1.718106,67.05,1
10393,0,46417,52008,46897.27,52246.96,-480.27,-238.96,-0.197552,-0.257628,1.720883,66.98,1
10403,0,46425,52005,46896.33,52246.48,-471.33,-241.48,-0.197532,-0.257618,1.723323,66.92,1
10413,0,46419,52010,46895.38,52246.01,-476.38,-236.01,-0.197512,-0.257609,1.726087,66.85,1
10424,0,46414,52004,46894.42,52245.52,-480.42,-241.52,-0.197491,-0.257600,1.728776,66.78,1
10433,0,46412,52000,46893.45,52245.04,-481.45,-245.04,-0.197471,-0.257591,1.731369,66.72,1
10444,0,46417,52012,46892.50,52244.57,-475.50,-232.57,-0.197450,-0.257582,1.734217,66.64,1
10453,0,46407,52014,46891.53,52244.11,-484.53,-230.11,-0.197430,-0.257573,1.737405,66.56,1
10463,0,46403,52012,46890.55,52243.65,-487.55,-231.65,-0.197409,-0.257564,1.740627,66.48,1
10474,0,46408,52006,46889.59,52243.18,-481.59,-237.18,-0.197388,-0.257555,1.743483,66.41,1
10484,0,46407,52009,46888.62,52242.71,-481.62,-233.71,-0.197368,-0.257546,1.746457,66.34,1
10494,0,46403,52012,46887.66,52242.25,-484.66,-230.25,-0.197347,-0.257537,1.749637,66.26,1
10502,0,46410,52008,46886.70,52241.78,-476.70,-233.78,-0.197327,-0.257528,1.752460,66.19,1
10515,0,46397,52005,46885.73,52241.30,-488.73,-236.30,-0.197306,-0.257519,1.755543,66.11,1
10523,0,46398,51994,46884.75,52240.81,-486.75,-246.81,-0.197285,-0.257510,1.758178,66.05,1
10534,0,46396,51985,46883.78,52240.30,-487.78,-255.30,-0.197264,-0.257500,1.760512,65.99,1
10543,0,46396,51968,46882.80,52239.76,-486.80,-271.76,-0.197244,-0.257490,1.762144,65.95,1
10552,0,46392,51964,46881.82,52239.21,-489.82,-275.21,-0.197223,-0.257479,1.763716,65.91,1
10563,0,46392,51956,46880.85,52238.64,-488.85,-282.64,-0.197202,-0.257468,1.764930,65.88,1
10571,0,46388,51955,46879.86,52238.07,-491.86,-283.07,-0.197181,-0.257458,1.766212,65.84,1
10581,0,46386,51956,46878.87,52237.51,-492.87,-281.51,-0.197160,-0.257447,1.767587,65.81,1
10591,0,46384,51953,46877.89,52236.95,-493.89,-283.95,-0.197139,-0.257436,1.768879,65.78,1
10601,0,46382,51951,46876.89,52236.37,-494.89,-285.37,-0.197118,-0.257425,1.770132,65.75,1
10613,0,46385,51963,46875.91,52235.83,-490.91,-272.83,-0.197096,-0.257415,1.771808,65.70,1
10623,0,46384,51958,46874.93,52235.27,-490.93,-277.27,-0.197076,-0.257404,1.773284,65.67,1
10632,0,46383,51966,46873.94,52234.73,-490.94,-268.73,-0.197054,-0.257394,1.775125,65.62,1
10643,0,46386,51964,46872.96,52234.20,-486.96,-270.20,-0.197034,-0.257383,1.776773,65.58,1
10652,0,46383,51967,46871.98,52233.66,-488.98,-266.66,-0.197013,-0.257373,1.778630,65.53,1
10662,0,46379,51970,46871.00,52233.14,-492.00,-263.14,-0.196992,-0.257363,1.780723,65.48,1
10673,0,46385,51973,46870.03,52232.62,-485.03,-259.62,-0.196971,-0.257353,1.782742,65.43,1
10683,0,46382,51967,46869.05,52232.09,-487.05,-265.09,-0.196950,-0.257343,1.784583,65.39,1
10693,0,46382,51973,46868.08,52231.57,-486.08,-258.57,-0.196929,-0.257333,1.786667,65.33,1
10703,0,46384,51972,46867.11,52231.05,-483.11,-259.05,-0.196909,-0.257323,1.788631,65.28,1
10712,0,46386,51968,46866.15,52230.53,-480.15,-262.53,-0.196888,-0.257313,1.790347,65.24,1
10723,0,46382,51968,46865.18,52230.00,-483.18,-262.00,-0.196868,-0.257303,1.792173,65.20,1
10732,0,46380,51969,46864.21,52229.48,-484.21,-260.48,-0.196847,-0.257293,1.794091,65.15,1
10745,0,46380,51964,46863.24,52228.95,-483.24,-264.95,-0.196826,-0.257283,1.795775,65.11,1
10754,0,46372,51971,46862.26,52228.44,-490.26,-257.44,-0.196805,-0.257273,1.798004,65.05,1
10764,0,46372,51963,46861.28,52227.91,-489.28,-264.91,-0.196784,-0.257263,1.799864,65.00,1
10773,0,46371,51969,46860.30,52227.39,-489.30,-258.39,-0.196763,-0.257253,1.802007,64.95,1
10783,0,46374,51962,46859.33,52226.86,-485.33,-264.86,-0.196743,-0.257243,1.803726,64.91,1
10794,0,46368,51962,46858.35,52226.33,-490.35,-264.33,-0.196722,-0.257233,1.805622,64.86,1
10801,0,46371,51968,46857.37,52225.82,-486.37,-257.82,-0.196701,-0.257223,1.807677,64.81,1
10812,0,46371,51967,46856.40,52225.30,-485.40,-258.30,-0.196680,-0.257213,1.809671,64.76,1
10825,0,46365,51964,46855.42,52224.78,-490.42,-260.78,-0.196659,-0.257203,1.811706,64.71,1
10835,0,46363,51971,46854.44,52224.27,-491.44,-253.27,-0.196638,-0.257193,1.814104,64.65,1
10845,0,46362,51965,46853.45,52223.76,-491.45,-258.76,-0.196617,-0.257183,1.816247,64.59,1
10854,0,46356,51964,46852.46,52223.24,-496.46,-259.24,-0.196596,-0.257174,1.818524,64.54,1
10862,0,46365,51964,46851.49,52222.72,-486.49,-258.72,-0.196575,-0.257164,1.820488,64.49,1
10874,0,46356,51969,46850.50,52222.21,-494.50,-253.21,-0.196554,-0.257154,1.822958,64.43,1
10883,0,46360,51961,46849.52,52221.70,-489.52,-260.70,-0.196533,-0.257144,1.824910,64.38,1
10893,0,46357,51970,46848.54,52221.19,-491.54,-251.19,-0.196512,-0.257134,1.827358,64.32,1
10902,0,46361,51978,46847.56,52220.71,-486.56,-242.71,-0.196492,-0.257125,1.830013,64.25,1
10913,0,46359,51975,46846.59,52220.22,-487.59,-245.22,-0.196471,-0.257116,1.832582,64.19,1
10923,0,46362,51979,46845.62,52219.74,-483.62,-240.74,-0.196450,-0.257107,1.835211,64.12,1
10933,0,46358,51975,46844.64,52219.25,-486.64,-244.25,-0.196429,-0.257097,1.837775,64.06,1
10944,0,46355,51976,46843.67,52218.77,-488.67,-242.77,-0.196408,-0.257088,1.840465,63.99,1
10954,0,46351,51975,46842.68,52218.28,-491.68,-243.28,-0.196387,-0.257079,1.843224,63.92,1
10964,0,46354,51979,46841.71,52217.80,-487.71,-238.80,-0.196367,-0.257069,1.846043,63.85,1
11028,0,46358,51980,46840.74,52217.33,-482.74,-237.33,-0.196346,-0.257060,1.848754,63.78,1
11046,0,46356,51981,46839.77,52216.86,-483.77,-235.86,-0.196325,-0.257051,1.851557,63.71,1
11053,0,46357,51978,46838.81,52216.38,-481.81,-238.38,-0.196305,-0.257042,1.854173,63.65,1
11059,0,46353,51981,46837.84,52215.91,-484.84,-234.91,-0.196284,-0.257033,1.857040,63.57,1
11065,0,46354,51981,46836.87,52215.45,-482.87,-234.45,-0.196263,-0.257024,1.859854,63.50,1
11070,0,46356,51984,46835.91,52214.98,-479.91,-230.98,-0.196243,-0.257015,1.862717,63.43,1
11074,0,46354,51984,46834.95,52214.52,-480.95,-230.52,-0.196222,-0.257007,1.865628,63.36,1
11078,0,46357,51982,46834.00,52214.06,-477.00,-232.06,-0.196202,-0.256998,1.868329,63.29,1
11081,0,46352,51985,46833.04,52213.60,-481.04,-228.60,-0.196182,-0.256989,1.871316,63.22,1
11083,0,46353,51987,46832.08,52213.15,-479.08,-226.15,-0.196161,-0.256980,1.874340,63.14,1
11085,0,46350,51990,46831.12,52212.70,-481.12,-222.70,-0.196140,-0.256972,1.877581,63.06,1
11087,0,46348,51988,46830.15,52212.25,-482.15,-224.25,-0.196120,-0.256963,1.880780,62.98,1
11091,0,46353,51987,46829.20,52211.80,-476.20,-224.80,-0.196100,-0.256955,1.883743,62.91,1
11101,0,46349,51991,46828.24,52211.36,-479.24,-220.36,-0.196079,-0.256946,1.887005,62.82,1
11113,0,46346,51983,46827.27,52210.91,-481.27,-227.91,-0.196058,-0.256937,1.889982,62.75,1
11123,0,46348,51973,46826.32,52210.43,-478.32,-237.43,-0.196038,-0.256928,1.892393,62.69,1
11133,0,46349,51962,46825.36,52209.94,-476.36,-247.94,-0.196018,-0.256919,1.894200,62.65,1
11143,0,46334,51951,46824.38,52209.42,-490.38,-258.42,-0.195997,-0.256909,1.895935,62.60,1
11153,0,46340,51949,46823.41,52208.90,-483.41,-259.90,-0.195976,-0.256899,1.897336,62.57,1
11164,0,46337,51937,46822.44,52208.36,-485.44,-271.36,-0.195955,-0.256889,1.898164,62.55,1
11173,0,46332,51944,46821.46,52207.83,-489.46,-263.83,-0.195934,-0.256878,1.899550,62.51,1
11184,0,46334,51944,46820.49,52207.30,-486.49,-263.30,-0.195914,-0.256868,1.900852,62.48,1
11196,0,46334,51948,46819.52,52206.79,-485.52,-258.79,-0.195893,-0.256858,1.902361,62.44,1
11203,0,46339,51952,46818.55,52206.28,-479.55,-254.28,-0.195872,-0.256849,1.903898,62.40,1
11213,0,46339,51956,46817.60,52205.78,-478.60,-249.78,-0.195852,-0.256839,1.905634,62.36,1
11224,0,46339,51959,46816.64,52205.29,-477.64,-246.29,-0.195831,-0.256830,1.907513,62.31,1
11233,0,46340,51958,46815.69,52204.80,-475.69,-246.80,-0.195811,-0.256820,1.909290,62.27,1
11244,0,46339,51958,46814.73,52204.30,-475.73,-246.30,-0.195791,-0.256811,1.911086,62.22,1
11254,0,46333,51958,46813.77,52203.81,-480.77,-245.81,-0.195770,-0.256802,1.913077,62.17,1
11264,0,46329,51966,46812.80,52203.34,-483.80,-237.34,-0.195749,-0.256792,1.915611,62.11,1
11274,0,46336,51962,46811.85,52202.86,-475.85,-240.86,-0.195729,-0.256783,1.917670,62.06,1
11283,0,46341,51969,46810.91,52202.39,-469.91,-233.39,-0.195709,-0.256774,1.919900,62.00,1
11295,0,46333,51959,46809.96,52201.91,-476.96,-242.91,-0.195689,-0.256765,1.921870,61.95,1
11304,0,46336,51963,46809.01,52201.43,-473.01,-238.43,-0.195668,-0.256756,1.923931,61.90,1
11312,0,46339,51966,46808.07,52200.96,-469.07,-234.96,-0.195648,-0.256747,1.926027,61.85,1
11322,0,46341,51966,46807.14,52200.50,-466.14,-234.50,-0.195628,-0.256738,1.928037,61.80,1
11332,0,46340,51971,46806.21,52200.04,-466.21,-229.04,-0.195608,-0.256729,1.930327,61.74,1
11341,0,46331,51971,46805.26,52199.58,-474.26,-228.58,-0.195588,-0.256720,1.932917,61.68,1
11352,0,46334,51962,46804.32,52199.11,-470.32,-237.11,-0.195568,-0.256711,1.934908,61.63,1
11362,0,46331,51961,46803.37,52198.63,-472.37,-237.63,-0.195548,-0.256702,1.936934,61.58,1
11372,0,46327,51959,46802.42,52198.16,-475.42,-239.16,-0.195527,-0.256693,1.938980,61.53,1
11383,0,46334,51971,46801.48,52197.70,-467.48,-226.70,-0.195507,-0.256684,1.941398,61.47,1
11393,0,46333,51958,46800.54,52197.23,-467.54,-239.23,-0.195487,-0.256675,1.943136,61.42,1
11404,0,46335,51962,46799.61,52196.76,-464.61,-234.76,-0.195468,-0.256666,1.945008,61.37,1
11414,0,46324,51961,46798.66,52196.29,-474.66,-235.29,-0.195447,-0.256657,1.947205,61.32,1
11423,0,46328,51962,46797.72,52195.82,-469.72,-233.82,-0.195427,-0.256648,1.949294,61.27,1
11433,0,46332,51962,46796.79,52195.36,-464.79,-233.36,-0.195407,-0.256639,1.951223,61.22,1
11443,0,46332,51957,46795.86,52194.88,-463.86,-237.88,-0.195387,-0.256630,1.952859,61.18,1
11453,0,46331,51963,46794.93,52194.42,-463.93,-231.42,-0.195368,-0.256622,1.954850,61.13,1
11463,0,46325,51968,46794.00,52193.96,-469.00,-225.96,-0.195348,-0.256613,1.957313,61.07,1
11473,0,46326,51968,46793.06,52193.52,-467.06,-225.52,-0.195328,-0.256604,1.959721,61.01,1
11483,0,46324,51967,46792.12,52193.06,-468.12,-226.06,-0.195308,-0.256595,1.962129,60.95,1
11493,0,46320,51965,46791.18,52192.61,-471.18,-227.61,-0.195287,-0.256587,1.964556,60.89,1
11503,0,46317,51970,46790.24,52192.16,-473.24,-222.16,-0.195267,-0.256578,1.967348,60.82,1
11514,0,46322,51962,46789.30,52191.71,-467.30,-229.71,-0.195247,-0.256570,1.969493,60.76,1
11523,0,46323,51969,46788.37,52191.26,-465.37,-222.26,-0.195227,-0.256561,1.971972,60.70,1
11534,0,46321,51969,46787.44,52190.82,-466.44,-221.82,-0.195207,-0.256553,1.974506,60.64,1
11544,0,46318,51970,46786.50,52190.38,-468.50,-220.38,-0.195187,-0.256544,1.977187,60.57,1
11555,0,46320,51977,46785.57,52189.95,-465.57,-212.95,-0.195167,-0.256536,1.980151,60.50,1
11565,0,46318,51974,46784.64,52189.52,-466.64,-215.52,-0.195147,-0.256528,1.983008,60.42,1
11573,0,46315,51974,46783.70,52189.09,-468.70,-215.09,-0.195127,-0.256519,1.985956,60.35,1
11583,0,46312,51968,46782.76,52188.65,-470.76,-220.65,-0.195107,-0.256511,1.988665,60.28,1
11595,0,46314,51975,46781.82,52188.23,-467.82,-213.23,-0.195087,-0.256503,1.991664,60.21,1
11603,0,46311,51977,46780.88,52187.80,-469.88,-210.80,-0.195067,-0.256495,1.994864,60.13,1
11614,0,46313,51977,46779.95,52187.38,-466.95,-210.38,-0.195047,-0.256487,1.997966,60.05,1
11622,0,46312,51975,46779.01,52186.96,-467.01,-211.96,-0.195027,-0.256479,2.000974,59.98,1
11632,0,46307,51978,46778.07,52186.54,-471.07,-208.54,-0.195007,-0.256471,2.004316,59.89,1
11645,0,46313,51980,46777.14,52186.13,-464.14,-206.13,-0.194987,-0.256463,2.007516,59.81,1
11653,0,46305,51984,46776.20,52185.73,-471.20,-201.73,-0.194967,-0.256455,2.011214,59.72,1
11663,0,46306,51983,46775.26,52185.33,-469.26,-202.33,-0.194947,-0.256447,2.014797,59.63,1
11674,0,46304,51978,46774.32,52184.91,-470.32,-206.91,-0.194927,-0.256439,2.018159,59.55,1
11684,0,46307,51983,46773.39,52184.51,-466.39,-201.51,-0.194907,-0.256432,2.021658,59.46,1
11694,0,46308,51990,46772.46,52184.12,-464.46,-194.12,-0.194887,-0.256424,2.025471,59.36,1
11703,0,46308,51986,46771.53,52183.73,-463.53,-197.73,-0.194867,-0.256417,2.029047,59.27,1
11714,0,46310,51986,46770.61,52183.34,-460.61,-197.34,-0.194848,-0.256409,2.032525,59.19,1
11724,0,46311,51973,46769.69,52182.92,-458.69,-209.92,-0.194828,-0.256401,2.035213,59.12,1
11733,0,46305,51959,46768.76,52182.47,-463.76,-223.47,-0.194808,-0.256393,2.037272,59.07,1
11743,0,46301,51951,46767.83,52182.01,-466.83,-231.01,-0.194788,-0.256384,2.038963,59.03,1
11755,0,46301,51944,46766.89,52181.54,-465.89,-237.54,-0.194768,-0.256375,2.040181,59.00,1
11763,0,46299,51941,46765.96,52181.05,-466.96,-240.05,-0.194748,-0.256365,2.041264,58.97,1
11773,0,46300,51938,46765.03,52180.57,-465.03,-242.57,-0.194728,-0.256356,2.042096,58.95,1
11783,0,46303,51942,46764.11,52180.09,-461.11,-238.09,-0.194709,-0.256347,2.043072,58.92,1
11794,0,46296,51944,46763.18,52179.62,-467.18,-235.62,-0.194689,-0.256338,2.044445,58.89,1
11804,0,46299,51936,46762.25,52179.14,-463.25,-243.14,-0.194669,-0.256329,2.045146,58.87,1
11814,0,46291,51953,46761.31,52178.69,-470.31,-225.69,-0.194649,-0.256320,2.047282,58.82,1
11824,0,46295,51945,46760.38,52178.22,-465.38,-233.22,-0.194629,-0.256311,2.048720,58.78,1
11834,0,46298,51948,46759.46,52177.76,-461.46,-229.76,-0.194609,-0.256302,2.050224,58.74,1
11844,0,46291,51952,46758.52,52177.31,-467.52,-225.31,-0.194589,-0.256294,2.052250,58.69,1
11854,0,46294,51943,46757.59,52176.84,-463.59,-233.84,-0.194569,-0.256285,2.053545,58.66,1
11865,0,46289,51949,46756.65,52176.39,-467.65,-227.39,-0.194549,-0.256276,2.055425,58.61,1
11874,0,46287,51951,46755.71,52175.94,-468.71,-224.94,-0.194529,-0.256267,2.057498,58.56,1
11885,0,46283,51954,46754.77,52175.50,-471.77,-221.50,-0.194509,-0.256259,2.059907,58.50,1
11895,0,46288,51946,46753.84,52175.04,-465.84,-229.04,-0.194489,-0.256250,2.061568,58.46,1
11904,0,46289,51959,46752.91,52174.61,-463.91,-215.61,-0.194469,-0.256242,2.064020,58.40,1
11915,0,46287,51961,46751.98,52174.19,-464.98,-213.19,-0.194449,-0.256234,2.066658,58.33,1
11924,0,46283,51956,46751.04,52173.75,-468.04,-217.75,-0.194429,-0.256225,2.069115,58.27,1
11935,0,46287,51961,46750.11,52173.33,-463.11,-212.33,-0.194409,-0.256217,2.071711,58.21,1
11944,0,46291,51955,46749.20,52172.89,-458.20,-217.89,-0.194390,-0.256209,2.073740,58.16,1
11954,0,46282,51959,46748.26,52172.47,-466.26,-213.47,-0.194370,-0.256201,2.076372,58.09,1
11964,0,46282,51956,46747.33,52172.04,-465.33,-216.04,-0.194350,-0.256193,2.078788,58.03,1
11974,0,46282,51943,46746.40,52171.58,-464.40,-228.58,-0.194330,-0.256184,2.080309,57.99,1
11984,0,46275,51948,46745.46,52171.14,-470.46,-223.14,-0.194310,-0.256175,2.082443,57.94,1
11994,0,46265,51947,46744.50,52170.69,-479.50,-223.69,-0.194289,-0.256167,2.084904,57.88,1
12003,0,46271,51948,46743.55,52170.25,-472.55,-222.25,-0.194269,-0.256158,2.087159,57.82,1
12014,0,46269,51947,46742.61,52169.80,-473.61,-222.80,-0.194249,-0.256150,2.089408,57.76,1
12024,0,46265,51947,46741.65,52169.36,-476.65,-222.36,-0.194228,-0.256141,2.091802,57.70,1
12033,0,46269,51948,46740.71,52168.91,-471.71,-220.91,-0.194208,-0.256133,2.094075,57.65,1
12043,0,46273,51950,46739.77,52168.48,-466.77,-218.48,-0.194188,-0.256124,2.096298,57.59,1
12054,0,46271,51951,46738.84,52168.04,-467.84,-217.04,-0.194168,-0.256116,2.098651,57.53,1
12065,0,46274,51952,46737.91,52167.61,-463.91,-215.61,-0.194148,-0.256108,2.100927,57.48,1
12075,0,46278,51955,46736.99,52167.19,-458.99,-212.19,-0.194129,-0.256100,2.103221,57.42,1
12085,0,46269,51949,46736.05,52166.75,-467.05,-217.75,-0.194109,-0.256091,2.105458,57.36,1
12094,0,46268,51951,46735.12,52166.32,-467.12,-215.32,-0.194089,-0.256083,2.107854,57.30,1
12105,0,46262,51950,46734.18,52165.89,-472.18,-215.89,-0.194068,-0.256075,2.110411,57.24,1
12115,0,46262,51955,46733.23,52165.47,-471.23,-210.47,-0.194048,-0.256067,2.113285,57.17,1
12125,0,46260,51947,46732.29,52165.04,-472.29,-218.04,-0.194028,-0.256058,2.115668,57.11,1
12134,0,46264,51951,46731.36,52164.61,-467.36,-213.61,-0.194008,-0.256050,2.118139,57.05,1
12145,0,46266,51959,46730.43,52164.20,-464.43,-205.20,-0.193988,-0.256042,2.121047,56.97,1
12155,0,46259,51962,46729.48,52163.80,-470.48,-201.80,-0.193968,-0.256035,2.124424,56.89,1
12165,0,46264,51955,46728.55,52163.38,-464.55,-208.38,-0.193948,-0.256027,2.127093,56.82,1
12175,0,46262,51950,46727.62,52162.95,-465.62,-212.95,-0.193928,-0.256018,2.129478,56.76,1
12185,0,46255,51962,46726.68,52162.55,-471.68,-200.55,-0.193908,-0.256011,2.132958,56.68,1
12196,0,46258,51957,46725.74,52162.14,-467.74,-205.14,-0.193888,-0.256003,2.135945,56.60,1
12208,0,46247,51965,46724.78,52161.75,-477.78,-196.75,-0.193867,-0.255995,2.139916,56.50,1
12215,0,46252,51958,46723.84,52161.34,-471.84,-203.34,-0.193847,-0.255988,2.143170,56.42,1
12224,0,46253,51965,46722.89,52160.95,-469.89,-195.95,-0.193827,-0.255980,2.146825,56.33,1
12235,0,46256,51963,46721.96,52160.55,-465.96,-197.55,-0.193807,-0.255972,2.150190,56.25,1
12245,0,46252,51966,46721.02,52160.17,-469.02,-194.17,-0.193787,-0.255965,2.153901,56.15,1
12254,0,46253,51964,46720.09,52159.78,-467.09,-195.78,-0.193767,-0.255958,2.157407,56.06,1
12265,0,46249,51964,46719.15,52159.39,-470.15,-195.39,-0.193747,-0.255950,2.161058,55.97,1
12274,0,46244,51969,46718.20,52159.01,-474.20,-190.01,-0.193726,-0.255943,2.165234,55.87,1
12285,0,46245,51972,46717.25,52158.64,-472.25,-186.64,-0.193706,-0.255936,2.169532,55.76,1
12295,0,46245,51971,46716.31,52158.26,-471.31,-187.26,-0.193686,-0.255929,2.173734,55.66,1
12304,0,46247,51977,46715.37,52157.90,-468.37,-180.90,-0.193666,-0.255922,2.178210,55.54,1
12315,0,46242,51973,46714.43,52157.54,-472.43,-184.54,-0.193646,-0.255915,2.182615,55.43,1
12324,0,46241,51978,46713.48,52157.18,-472.48,-179.18,-0.193625,-0.255908,2.187359,55.32,1
12334,0,46242,51973,46712.54,52156.81,-470.54,-183.81,-0.193605,-0.255901,2.191699,55.21,1
12346,0,46242,51969,46711.60,52156.43,-469.60,-187.43,-0.193585,-0.255893,2.195740,55.11,1
12355,0,46240,51957,46710.66,52156.04,-470.66,-199.04,-0.193565,-0.255886,2.198992,55.03,1
12365,0,46236,51951,46709.71,52155.62,-473.71,-204.62,-0.193545,-0.255878,2.201950,54.95,1
12374,0,46234,51947,46708.76,52155.21,-474.76,-208.21,-0.193524,-0.255870,2.204667,54.88,1
12384,0,46237,51934,46707.82,52154.77,-470.82,-220.77,-0.193504,-0.255862,2.206193,54.85,1
12395,0,46234,51933,46706.87,52154.33,-472.87,-221.33,-0.193484,-0.255853,2.207756,54.81,1
12404,0,46234,51932,46705.93,52153.89,-471.93,-221.89,-0.193464,-0.255845,2.209218,54.77,1
12413,0,46230,51934,46704.98,52153.45,-474.98,-219.45,-0.193443,-0.255836,2.211009,54.72,1
12423,0,46231,51939,46704.04,52153.02,-473.04,-214.02,-0.193423,-0.255828,2.213139,54.67,1
12433,0,46242,51939,46703.11,52152.60,-461.11,-213.60,-0.193403,-0.255820,2.214758,54.63,1
12444,0,46239,51945,46702.19,52152.18,-463.19,-207.18,-0.193384,-0.255812,2.216968,54.58,1
12453,0,46238,51949,46701.26,52151.78,-463.26,-202.78,-0.193364,-0.255804,2.219509,54.51,1
12465,0,46244,51955,46700.35,52151.39,-456.35,-196.39,-0.193344,-0.255797,2.222218,54.44,1
12475,0,46244,51951,46699.44,52150.99,-455.44,-199.99,-0.193325,-0.255789,2.224603,54.38,1
12484,0,46242,51952,46698.52,52150.59,-456.52,-198.59,-0.193305,-0.255781,2.227130,54.32,1
12494,0,46234,51952,46697.59,52150.20,-463.59,-198.20,-0.193285,-0.255774,2.229992,54.25,1
12504,0,46239,51958,46696.68,52149.81,-457.68,-191.81,-0.193266,-0.255767,2.233057,54.17,1
12514,0,46245,51952,46695.78,52149.42,-450.78,-197.42,-0.193246,-0.255759,2.235380,54.12,1
12524,0,46243,51963,46694.87,52149.05,-451.87,-186.05,-0.193227,-0.255752,2.238593,54.04,1
12534,0,46239,51964,46693.96,52148.68,-454.96,-184.68,-0.193207,-0.255745,2.242032,53.95,1
12544,0,46243,51971,46693.06,52148.32,-450.06,-177.32,-0.193188,-0.255738,2.245768,53.86,1
12554,0,46243,51971,46692.16,52147.97,-449.16,-176.97,-0.193169,-0.255731,2.249480,53.76,1
12564,0,46243,51974,46691.26,52147.62,-448.26,-173.62,-0.193150,-0.255725,2.253376,53.67,1
12574,0,46238,51972,46690.36,52147.27,-452.36,-175.27,-0.193130,-0.255718,2.257330,53.57,1
12584,0,46236,51965,46689.45,52146.91,-453.45,-181.91,-0.193111,-0.255711,2.260841,53.48,1
12594,0,46233,51959,46688.54,52146.54,-455.54,-187.54,-0.193091,-0.255704,2.264012,53.40,1
12605,0,46238,51963,46687.64,52146.17,-449.64,-183.17,-0.193072,-0.255697,2.267236,53.32,1
12614,0,46230,51969,46686.73,52145.82,-456.73,-176.82,-0.193052,-0.255690,2.271240,53.22,1
12624,0,46232,51971,46685.82,52145.47,-453.82,-174.47,-0.193033,-0.255683,2.275270,53.12,1
12634,0,46231,51971,46684.91,52145.12,-453.91,-174.12,-0.193014,-0.255677,2.279319,53.02,1
12644,0,46240,51966,46684.02,52144.77,-444.02,-178.77,-0.192994,-0.255670,2.282566,52.94,1
12654,0,46238,51979,46683.13,52144.43,-445.13,-165.43,-0.192975,-0.255663,2.286821,52.83,1
12664,0,46234,51980,46682.23,52144.11,-448.23,-164.11,-0.192956,-0.255657,2.291302,52.72,1
12674,0,46240,51981,46681.35,52143.78,-441.35,-162.78,-0.192937,-0.255651,2.295556,52.61,1
12684,0,46233,51980,46680.45,52143.45,-447.45,-163.45,-0.192918,-0.255645,2.300032,52.50,1
12694,0,46234,51985,46679.56,52143.14,-445.56,-158.14,-0.192899,-0.255639,2.304785,52.38,1
12704,0,46241,51980,46678.69,52142.81,-437.69,-162.81,-0.192880,-0.255632,2.308845,52.28,1
12714,0,46233,51993,46677.80,52142.52,-444.80,-149.52,-0.192861,-0.255627,2.314138,52.15,1
12724,0,46242,51991,46676.93,52142.21,-434.93,-151.21,-0.192842,-0.255621,2.318864,52.03,1
12734,0,46233,51996,46676.04,52141.92,-443.04,-145.92,-0.192824,-0.255615,2.324309,51.89,1
12744,0,46237,52000,46675.16,52141.64,-438.16,-141.64,-0.192805,-0.255610,2.329805,51.75,1
12754,0,46243,51992,46674.30,52141.34,-431.30,-149.34,-0.192786,-0.255604,2.334479,51.64,1
12764,0,46242,51996,46673.44,52141.05,-431.44,-145.05,-0.192768,-0.255599,2.339445,51.51,1
12774,0,46243,51998,46672.58,52140.77,-429.58,-142.77,-0.192749,-0.255593,2.344478,51.39,1
12784,0,46241,52003,46671.71,52140.50,-430.71,-137.50,-0.192731,-0.255588,2.349908,51.25,1
12794,0,46236,52008,46670.84,52140.23,-434.84,-132.23,-0.192712,-0.255583,2.355862,51.10,1
12804,0,46240,51997,46669.98,52139.95,-429.98,-142.95,-0.192694,-0.255577,2.360895,50.98,1
12814,0,46242,52001,46669.13,52139.67,-427.13,-138.67,-0.192675,-0.255572,2.366085,50.85,1
12824,0,46238,52009,46668.27,52139.41,-430.27,-130.41,-0.192657,-0.255567,2.371956,50.70,1
12834,0,46241,52007,46667.42,52139.15,-426.42,-132.15,-0.192639,-0.255562,2.377542,50.56,1
12844,0,46241,52010,46666.57,52138.89,-425.57,-128.89,-0.192621,-0.255557,2.383301,50.42,1
12854,0,46241,52009,46665.71,52138.63,-424.71,-129.63,-0.192602,-0.255552,2.388978,50.28,1
12865,0,46246,52013,46664.87,52138.38,-418.87,-125.38,-0.192584,-0.255547,2.394661,50.13,1
12875,0,46244,52010,46664.04,52138.13,-420.04,-128.13,-0.192566,-0.255543,2.400228,49.99,1
12884,0,46241,52015,46663.19,52137.88,-422.19,-122.88,-0.192548,-0.255538,2.406235,49.84,1
12896,0,46237,52020,46662.34,52137.65,-425.34,-117.65,-0.192530,-0.255533,2.412722,49.68,1
12903,0,46245,52022,46661.51,52137.42,-416.51,-115.42,-0.192512,-0.255529,2.418940,49.53,1
12914,0,46246,52024,46660.68,52137.19,-414.68,-113.19,-0.192494,-0.255525,2.425218,49.37,1
12925,0,46245,52019,46659.85,52136.96,-414.85,-117.96,-0.192477,-0.255520,2.431224,49.22,1
12936,0,46241,52023,46659.01,52136.73,-418.01,-113.73,-0.192459,-0.255516,2.437649,49.06,1
12946,0,46245,52021,46658.18,52136.50,-413.18,-115.50,-0.192441,-0.255511,2.443749,48.91,1
12959,0,46242,52021,46657.35,52136.27,-415.35,-115.27,-0.192423,-0.255507,2.449975,48.75,1
12969,0,46241,52006,46656.52,52136.01,-415.52,-130.01,-0.192405,-0.255502,2.455223,48.62,1
12979,0,46234,51993,46655.68,52135.73,-421.68,-142.73,-0.192387,-0.255496,2.459804,48.50,1
12986,0,46237,51990,46654.84,52135.44,-417.84,-145.44,-0.192369,-0.255491,2.463978,48.40,1
12994,0,46241,51979,46654.01,52135.12,-413.01,-156.12,-0.192352,-0.255485,2.467008,48.32,1
13003,0,46231,51980,46653.17,52134.82,-422.17,-154.82,-0.192333,-0.255479,2.470589,48.24,1
13016,0,46228,51975,46652.32,52134.50,-424.32,-159.50,-0.192315,-0.255473,2.473849,48.15,1
13028,0,46222,51986,46651.46,52134.20,-429.46,-148.20,-0.192297,-0.255467,2.478349,48.04,1
13036,0,46225,51978,46650.61,52133.89,-425.61,-155.89,-0.192279,-0.255461,2.481975,47.95,1
13045,0,46238,51983,46649.79,52133.59,-411.79,-150.59,-0.192261,-0.255455,2.485384,47.87,1
13055,0,46221,51988,46648.93,52133.30,-427.93,-145.30,-0.192243,-0.255450,2.490040,47.75,1
13062,0,46229,51990,46648.09,52133.02,-419.09,-143.02,-0.192225,-0.255444,2.494439,47.64,1
13075,0,46229,52000,46647.25,52132.75,-418.25,-132.75,-0.192207,-0.255439,2.499629,47.51,1
13084,0,46225,52000,46646.41,52132.48,-421.41,-132.48,-0.192189,-0.255434,2.504996,47.38,1
13095,0,46227,52001,46645.57,52132.22,-418.57,-131.22,-0.192171,-0.255429,2.510318,47.24,1
13103,0,46231,51999,46644.75,52131.96,-413.75,-132.96,-0.192153,-0.255424,2.515259,47.12,1
13113,0,46224,51994,46643.91,52131.68,-419.91,-137.68,-0.192135,-0.255419,2.520116,47.00,1
13124,0,46224,51995,46643.07,52131.41,-419.07,-136.41,-0.192117,-0.255414,2.525032,46.87,1
13134,0,46230,51994,46642.24,52131.14,-412.24,-137.14,-0.192099,-0.255408,2.529539,46.76,1
13144,0,46225,51997,46641.41,52130.87,-416.41,-133.87,-0.192081,-0.255403,2.534527,46.64,1
13155,0,46227,51999,46640.58,52130.61,-413.58,-131.61,-0.192064,-0.255398,2.539558,46.51,1
13166,0,46225,52002,46639.75,52130.35,-414.75,-128.35,-0.192046,-0.255393,2.544914,46.38,1
13185,0,46228,51994,46638.93,52130.08,-410.93,-136.08,-0.192028,-0.255388,2.549421,46.26,1
13193,0,46225,51987,46638.10,52129.80,-413.10,-142.80,-0.192010,-0.255383,2.553432,46.16,1
13200,0,46227,52000,46637.28,52129.54,-410.28,-129.54,-0.191993,-0.255378,2.558461,46.04,1
13208,0,46223,52000,46636.45,52129.28,-413.45,-129.28,-0.191975,-0.255373,2.563673,45.91,1
13215,0,46224,51996,46635.63,52129.02,-411.63,-133.02,-0.191957,-0.255368,2.568465,45.79,1
13225,0,46216,51991,46634.79,52128.74,-418.79,-137.74,-0.191939,-0.255362,2.573201,45.67,1
13236,0,46220,51994,46633.96,52128.47,-413.96,-134.47,-0.191922,-0.255357,2.577975,45.55,1
13245,0,46219,51996,46633.13,52128.21,-414.13,-132.21,-0.191904,-0.255352,2.582954,45.43,1
13255,0,46216,51990,46632.30,52127.94,-416.30,-137.94,-0.191886,-0.255347,2.587519,45.31,1
13265,0,46213,51993,46631.46,52127.67,-418.46,-134.67,-0.191868,-0.255342,2.592495,45.19,1
13274,0,46213,51998,46630.63,52127.41,-417.63,-129.41,-0.191850,-0.255337,2.597896,45.05,1
13283,0,46223,51998,46629.82,52127.15,-406.82,-129.15,-0.191833,-0.255332,2.597896,45.05,0
13294,0,46220,52003,46629.00,52126.91,-409.00,-123.91,-0.191815,-0.255327,2.597896,45.05,0
13304,0,46215,52002,46628.17,52126.66,-413.17,-124.66,-0.191797,-0.255322,2.597896,45.05,0
13315,0,46213,52006,46627.34,52126.42,-414.34,-120.42,-0.191780,-0.255318,2.597896,45.05,0
