t_ms,trial_id,t_trial_ms,phase,red_raw,ir_raw,red_dc,ir_dc,red_ac,ir_ac,R,spo2,spo2_valid
1830,1,0,0,50648,52647,50742.86,52707.63,-94.86,-60.63,1.792423,65.29,1
1870,1,40,0,50622,52615,50742.62,52707.45,-120.62,-92.45,1.792468,65.29,1
1910,1,80,0,50622,52617,50742.38,52707.27,-120.38,-90.27,1.792449,65.29,1
1950,1,120,0,50631,52612,50742.16,52707.08,-111.16,-95.08,1.792341,65.28,1
1990,1,160,0,50635,52621,50741.95,52706.91,-106.95,-85.91,1.792177,65.28,1
2030,1,200,0,50642,52637,50741.75,52706.77,-99.75,-69.77,1.791992,65.28,1
2070,1,240,0,50651,52646,50741.57,52706.65,-90.57,-60.65,1.791795,65.28,1
2110,1,280,0,50659,52650,50741.40,52706.54,-82.40,-56.54,1.791588,65.27,1
2150,1,320,0,50666,52660,50741.25,52706.45,-75.25,-46.45,1.791379,65.27,1
2190,1,360,0,50677,52680,50741.12,52706.40,-64.12,-26.40,1.791184,65.27,1
2230,1,400,0,50690,52693,50741.02,52706.37,-51.02,-13.37,1.791002,65.27,1
2270,1,440,0,50703,52710,50740.95,52706.38,-37.95,3.62,1.790828,65.27,1
2310,1,480,0,50716,52730,50740.90,52706.43,-24.90,23.57,1.790650,65.27,1
2350,1,520,0,50719,52742,50740.86,52706.50,-21.86,35.50,1.790454,65.27,1
2390,1,560,0,50719,52753,50740.82,52706.59,-21.82,46.41,1.790226,65.27,1
2430,1,600,0,50733,52767,50740.80,52706.71,-7.80,60.29,1.789941,65.27,1
2470,1,640,0,50745,52785,50740.81,52706.87,4.19,78.13,1.789562,65.27,1
2510,1,680,0,50746,52765,50740.82,52706.99,5.18,58.01,1.789134,65.27,1
2550,1,720,0,50716,52664,50740.77,52706.90,-24.77,-42.90,1.788683,65.27,1
2590,1,760,0,50670,52597,50740.63,52706.68,-70.63,-109.68,1.788092,65.27,1
2630,1,800,0,50661,52592,50740.48,52706.46,-79.48,-114.46,1.787370,65.27,1
2671,1,841,0,50672,52588,50740.34,52706.22,-68.34,-118.22,1.786510,65.27,1
2711,1,881,0,50674,52590,50740.21,52705.99,-66.21,-115.99,1.785531,65.27,1
2751,1,921,0,50682,52607,50740.09,52705.80,-58.09,-98.80,1.784474,65.28,1
2791,1,961,0,50698,52628,50740.01,52705.64,-42.01,-77.64,1.783370,65.28,1
2831,1,1001,0,50709,52649,50739.95,52705.53,-30.95,-56.53,1.782245,65.29,1
2871,1,1041,0,50720,52661,50739.91,52705.45,-19.91,-44.45,1.781106,65.29,1
2911,1,1081,0,50736,52690,50739.90,52705.41,-3.90,-15.41,1.779969,65.30,1
2951,1,1121,0,50755,52717,50739.93,52705.44,15.07,11.56,1.778834,65.30,1
2991,1,1161,0,50763,52748,50739.98,52705.52,23.02,42.48,1.777689,65.31,1
3031,1,1201,0,50783,52779,50740.07,52705.67,42.93,73.33,1.776506,65.32,1
3071,1,1241,0,50799,52801,50740.19,52705.86,58.81,95.14,1.775262,65.33,1
3111,1,1281,0,50810,52826,50740.33,52706.11,69.67,119.89,1.773923,65.34,1
3151,1,1321,0,50823,52841,50740.50,52706.37,82.50,134.62,1.772478,65.35,1
3191,1,1361,0,50835,52863,50740.69,52706.69,94.31,156.31,1.770906,65.36,1
3231,1,1401,0,50851,52890,50740.91,52707.06,110.09,182.94,1.769184,65.37,1
3271,1,1441,0,50849,52871,50741.13,52707.39,107.87,163.61,1.767369,65.39,1
3311,1,1481,0,50823,52796,50741.29,52707.57,81.71,88.43,1.765547,65.40,1
3351,1,1521,0,50789,52743,50741.39,52707.64,47.61,35.36,1.763732,65.42,1
3391,1,1561,0,50786,52753,50741.48,52707.73,44.52,45.27,1.761921,65.43,1
3431,1,1601,0,50803,52756,50741.61,52707.83,61.39,48.17,1.760119,65.45,1
3471,1,1641,0,50801,52761,50741.73,52707.94,59.27,53.06,1.758323,65.47,1
3511,1,1681,0,50805,52780,50741.86,52708.08,63.14,71.92,1.756521,65.49,1
3551,1,1721,0,50821,52808,50742.02,52708.29,78.98,99.71,1.754700,65.50,1
3591,1,1761,0,50836,52843,50742.20,52708.55,93.80,134.45,1.752831,65.52,1
3632,1,1802,0,50849,52875,50742.42,52708.89,106.58,166.11,1.750886,65.55,1
3672,1,1842,0,50862,52904,50742.66,52709.28,119.34,194.72,1.748845,65.57,1
3712,1,1882,0,50876,52938,50742.93,52709.74,133.07,228.26,1.746684,65.59,1
3752,1,1922,0,50889,52968,50743.22,52710.26,145.78,257.74,1.744395,65.61,1
3792,1,1962,0,50899,53009,50743.54,52710.86,155.46,298.14,1.741958,65.64,1
3832,1,2002,0,50911,53043,50743.87,52711.52,167.13,331.48,1.739377,65.67,1
3872,1,2042,0,50926,53069,50744.24,52712.23,181.76,356.77,1.736671,65.69,1
3912,1,2082,0,50945,53101,50744.64,52713.01,200.36,387.99,1.733856,65.72,1
3952,1,2122,0,50951,53131,50745.05,52713.85,205.95,417.15,1.730939,65.75,1
3992,1,2162,0,50962,53168,50745.49,52714.76,216.51,453.24,1.727928,65.78,1
4032,1,2202,0,50978,53203,50745.95,52715.73,232.05,487.27,1.724834,65.82,1
4072,1,2242,0,50981,53173,50746.43,52716.65,234.57,456.35,1.721697,65.85,1
4112,1,2282,0,50956,53120,50746.85,52717.46,209.15,402.54,1.718538,65.89,1
4152,1,2322,0,50935,53094,50747.23,52718.21,187.77,375.79,1.715360,65.92,1
4192,1,2362,0,50938,53106,50747.61,52718.99,190.39,387.01,1.712163,65.96,1
4232,1,2402,0,50940,53108,50748.00,52719.77,192.00,388.23,1.708952,66.00,1
4272,1,2442,0,50938,53112,50748.38,52720.55,189.62,391.45,1.705727,66.04,1
4312,1,2482,0,50942,53140,50748.77,52721.39,193.23,418.61,1.702484,66.08,1
4352,1,2522,0,50949,53152,50749.17,52722.26,199.83,429.74,1.699224,66.13,1
4392,1,2562,0,50960,53169,50749.59,52723.15,210.41,445.85,1.695951,66.17,1
4432,1,2602,0,50966,53184,50750.02,52724.07,215.98,459.93,1.692665,66.22,1
4472,1,2642,0,50967,53189,50750.46,52725.00,216.54,464.00,1.689368,66.26,1
4512,1,2682,0,50967,53205,50750.89,52725.96,216.11,479.04,1.686058,66.31,1
4552,1,2722,0,50968,53217,50751.32,52726.95,216.68,490.05,1.682736,66.36,1
4592,1,2762,0,50972,53231,50751.77,52727.96,220.23,503.04,1.679402,66.41,1
4633,1,2803,0,50972,53239,50752.21,52728.98,219.79,510.02,1.676057,66.46,1
4673,1,2843,0,50971,53244,50752.64,52730.01,218.36,513.99,1.672702,66.51,1
4713,1,2883,0,50966,53249,50753.07,52731.05,212.93,517.95,1.669337,66.56,1
4753,1,2923,0,50962,53261,50753.49,52732.11,208.51,528.89,1.665959,66.62,1
4793,1,2963,0,50962,53277,50753.91,52733.20,208.09,543.80,1.662570,66.67,1
4833,1,3003,0,50958,53275,50754.32,52734.29,203.68,540.71,1.659169,66.73,1
4873,1,3043,0,50942,53214,50754.70,52735.25,187.30,478.75,1.655765,66.78,1
4913,1,3083,0,50908,53156,50755.00,52736.09,153.00,419.91,1.652360,66.84,1
4953,1,3123,0,50891,53153,50755.28,52736.93,135.72,416.07,1.648950,66.90,1
4993,1,3163,0,50885,53153,50755.54,52737.76,129.46,415.24,1.645537,66.96,1
5033,1,3203,0,50878,53142,50755.79,52738.57,122.21,403.43,1.642122,67.02,1
5073,1,3243,0,50872,53154,50756.02,52739.40,115.98,414.60,1.638701,67.08,1
5113,1,3283,0,50875,53158,50756.26,52740.24,118.74,417.76,1.635277,67.14,1
5153,1,3323,0,50871,53159,50756.49,52741.08,114.51,417.92,1.631849,67.20,1
5193,1,3363,0,50872,53160,50756.72,52741.92,115.28,418.08,1.628418,67.26,1
5233,1,3403,0,50871,53166,50756.95,52742.77,114.05,423.23,1.624984,67.33,1
5273,1,3443,0,50867,53182,50757.17,52743.65,109.83,438.35,1.621545,67.39,1
5313,1,3483,0,50868,53199,50757.39,52744.56,110.61,454.44,1.618100,67.46,1
5353,1,3523,0,50871,53209,50757.62,52745.49,113.37,463.51,1.614650,67.52,1
5393,1,3563,0,50871,53223,50757.85,52746.45,113.15,476.55,1.611193,67.59,1
5433,1,3603,0,50876,53231,50758.09,52747.41,117.91,483.59,1.607731,67.65,1
5473,1,3643,0,50871,53244,50758.32,52748.41,112.68,495.59,1.604263,67.72,1
5513,1,3683,0,50870,53252,50758.54,52749.42,111.46,502.58,1.600788,67.79,1
5553,1,3723,0,50867,53263,50758.76,52750.45,108.24,512.55,1.597307,67.86,1
5593,1,3763,0,50868,53259,50758.98,52751.46,109.02,507.54,1.593820,67.93,1
5634,1,3804,0,50845,53208,50759.15,52752.38,85.85,455.62,1.590330,68.00,1
5674,1,3844,0,50813,53163,50759.26,52753.20,53.74,409.80,1.586838,68.07,1
5714,1,3884,0,50800,53166,50759.34,52754.03,40.66,411.97,1.583344,68.14,1
5754,1,3924,0,50799,53168,50759.43,52754.86,39.57,413.14,1.579849,68.21,1
5794,1,3964,0,50787,53174,50759.48,52755.70,27.52,418.30,1.576351,68.28,1
5834,1,4004,0,50790,53185,50759.54,52756.56,30.46,428.44,1.572851,68.35,1
5874,1,4044,0,50788,53189,50759.60,52757.43,28.40,431.57,1.569348,68.42,1
5914,1,4084,0,50790,53197,50759.66,52758.30,30.34,438.70,1.565843,68.50,1
5954,1,4124,0,50784,53206,50759.71,52759.20,24.29,446.80,1.562335,68.57,1
5994,1,4164,0,50789,53225,50759.77,52760.14,29.23,464.86,1.558823,68.64,1
6034,1,4204,0,50795,53245,50759.84,52761.11,35.16,483.89,1.555308,68.72,1
6074,1,4244,0,50799,53260,50759.92,52762.11,39.08,497.89,1.551787,68.79,1
6114,1,4284,0,50806,53271,50760.02,52763.13,45.98,507.87,1.548263,68.87,1
6154,1,4324,0,50808,53283,50760.11,52764.17,47.89,518.83,1.544735,68.94,1
6194,1,4364,0,50808,53294,50760.21,52765.23,47.79,528.77,1.541201,69.02,1
6234,1,4404,0,50808,53305,50760.31,52766.32,47.69,538.68,1.537664,69.09,1
6274,1,4444,0,50807,53323,50760.40,52767.43,46.60,555.57,1.534121,69.17,1
6314,1,4484,0,50810,53324,50760.50,52768.54,49.50,555.46,1.530575,69.25,1
6354,1,4524,0,50795,53281,50760.57,52769.57,34.43,511.43,1.527026,69.33,1
6394,1,4564,0,50763,53223,50760.58,52770.48,2.42,452.52,1.523477,69.40,1
6434,1,4604,0,50740,53204,50760.54,52771.35,-20.54,432.65,1.519931,69.48,1
6474,1,4644,0,50735,53209,50760.49,52772.22,-25.49,436.78,1.516387,69.56,1
6514,1,4684,0,50729,53201,50760.43,52773.08,-31.43,427.92,1.512844,69.64,1
6554,1,4724,0,50721,53212,50760.35,52773.96,-39.35,438.04,1.509305,69.72,1
6595,1,4765,0,50723,53217,50760.28,52774.85,-37.28,442.15,1.505768,69.80,1
6635,1,4805,0,50722,53228,50760.20,52775.75,-38.20,452.25,1.502233,69.88,1
6675,1,4845,0,50724,53237,50760.13,52776.68,-36.13,460.32,1.498700,69.96,1
6715,1,4885,0,50722,53243,50760.06,52777.61,-38.06,465.39,1.495168,70.04,1
6755,1,4925,0,50715,53254,50759.97,52778.57,-44.97,475.43,1.491639,70.12,1
6795,1,4965,0,50717,53261,50759.88,52779.53,-42.88,481.47,1.488112,70.20,1
6835,1,5005,0,50716,53273,50759.80,52780.52,-43.80,492.48,1.484586,70.28,1
6875,1,5045,0,50726,53294,50759.73,52781.55,-33.73,512.45,1.481061,70.36,1
6915,1,5085,0,50731,53315,50759.68,52782.61,-28.68,532.39,1.477535,70.44,1
6955,1,5125,0,50736,53344,50759.63,52783.74,-23.63,560.26,1.474009,70.52,1
6995,1,5165,0,50742,53362,50759.59,52784.89,-17.59,577.11,1.470482,70.60,1
7035,1,5205,0,50749,53392,50759.57,52786.11,-10.57,605.89,1.466951,70.68,1
7075,1,5245,0,50760,53406,50759.58,52787.35,0.42,618.65,1.463419,70.77,1
7115,1,5285,0,50760,53377,50759.58,52788.53,0.42,588.47,1.459885,70.85,1
7155,1,5325,0,50730,53315,50759.52,52789.59,-29.52,525.41,1.456354,70.93,1
7195,1,5365,0,50700,53288,50759.41,52790.59,-59.41,497.41,1.452826,71.01,1
7235,1,5405,0,50695,53290,50759.28,52791.59,-64.28,498.41,1.449304,71.09,1
7275,1,5445,0,50690,53280,50759.14,52792.56,-69.14,487.44,1.445786,71.18,1
7315,1,5485,0,50685,53277,50758.99,52793.53,-73.99,483.47,1.442275,71.26,1
7355,1,5525,0,50689,53294,50758.86,52794.54,-69.86,499.46,1.438769,71.34,1
7395,1,5565,0,50693,53306,50758.73,52795.56,-65.73,510.44,1.435267,71.43,1
7435,1,5605,0,50691,53315,50758.59,52796.60,-67.59,518.40,1.431770,71.51,1
7475,1,5645,0,50691,53317,50758.46,52797.64,-67.46,519.36,1.428278,71.59,1
7515,1,5685,0,50696,53343,50758.34,52798.73,-62.34,544.27,1.424789,71.68,1
7556,1,5726,0,50702,53358,50758.22,52799.86,-56.22,558.14,1.421304,71.76,1
7596,1,5766,0,50711,53378,50758.13,52801.01,-47.13,576.99,1.417821,71.84,1
7636,1,5806,0,50714,53398,50758.04,52802.21,-44.04,595.79,1.414340,71.93,1
7676,1,5846,0,50719,53418,50757.96,52803.44,-38.96,614.56,1.410861,72.01,1
7716,1,5886,0,50724,53438,50757.90,52804.71,-33.90,633.29,1.407383,72.10,1
7756,1,5926,0,50733,53452,50757.85,52806.01,-24.85,645.99,1.403905,72.18,1
7796,1,5966,0,50732,53475,50757.80,52807.35,-25.80,667.65,1.400427,72.27,1
7836,1,6006,0,50741,53486,50757.77,52808.71,-16.77,677.29,1.396950,72.35,1
7876,1,6046,0,50751,53520,50757.76,52810.13,-6.76,709.87,1.393472,72.43,1
7916,1,6086,0,50754,53497,50757.75,52811.51,-3.75,685.49,1.389994,72.52,1
7956,1,6126,0,50721,53424,50757.68,52812.73,-36.68,611.27,1.386520,72.60,1
7996,1,6166,0,50690,53367,50757.55,52813.84,-67.55,553.16,1.383052,72.69,1
8036,1,6206,0,50670,53343,50757.37,52814.90,-87.37,528.10,1.379592,72.77,1
8076,1,6246,0,50667,53323,50757.20,52815.92,-90.20,507.08,1.376140,72.86,1
8116,1,6286,0,50656,53298,50757.00,52816.88,-101.00,481.12,1.372698,72.94,1
8156,1,6326,0,50647,53288,50756.78,52817.83,-109.78,470.17,1.369268,73.03,1
8196,1,6366,0,50649,53288,50756.56,52818.77,-107.56,469.23,1.365848,73.11,1
8236,1,6406,0,50642,53288,50756.34,52819.71,-114.34,468.29,1.362439,73.20,1
8276,1,6446,0,50642,53284,50756.11,52820.64,-114.11,463.36,1.359041,73.28,1
8316,1,6486,0,50639,53274,50755.87,52821.55,-116.87,452.45,1.355655,73.37,1
8356,1,6526,0,50636,53279,50755.64,52822.46,-119.64,456.54,1.352281,73.45,1
8396,1,6566,0,50638,53274,50755.40,52823.37,-117.40,450.63,1.348919,73.54,1
8436,1,6606,0,50632,53272,50755.16,52824.27,-123.16,447.73,1.345569,73.62,1
8476,1,6646,0,50624,53272,50754.89,52825.17,-130.89,446.83,1.342231,73.70,1
8516,1,6686,0,50619,53269,50754.62,52826.06,-135.62,442.94,1.338907,73.79,1
8557,1,6727,0,50612,53263,50754.34,52826.93,-142.34,436.07,1.335597,73.87,1
8597,1,6767,0,50609,53257,50754.05,52827.80,-145.05,429.20,1.332302,73.96,1
8637,1,6807,0,50597,53247,50753.74,52828.64,-156.74,418.36,1.329022,74.04,1
8677,1,6847,0,50582,53241,50753.39,52829.46,-171.39,411.54,1.325760,74.13,1
8717,1,6887,0,50572,53217,50753.03,52830.24,-181.03,386.76,1.322517,74.21,1
8757,1,6927,0,50551,53147,50752.63,52830.87,-201.63,316.12,1.319297,74.30,1
8797,1,6967,0,50503,53049,50752.13,52831.31,-249.13,217.69,1.316108,74.38,1
8837,1,7007,0,50462,53018,50751.55,52831.69,-289.55,186.31,1.312958,74.46,1
8877,1,7047,0,50457,53007,50750.97,52832.04,-293.97,174.96,1.309847,74.55,1
8917,1,7087,0,50447,52995,50750.36,52832.37,-303.36,162.63,1.306775,74.63,1
8957,1,7127,0,50439,52980,50749.74,52832.66,-310.74,147.34,1.303744,74.71,1
8997,1,7167,0,50438,52995,50749.12,52832.99,-311.12,162.01,1.300752,74.80,1
9037,1,7207,0,50445,52986,50748.52,52833.30,-303.52,152.70,1.297798,74.88,1
9077,1,7247,0,50441,52976,50747.90,52833.58,-306.90,142.42,1.294880,74.96,1
9117,1,7287,0,50438,52967,50747.29,52833.85,-309.29,133.15,1.292000,75.04,1
9157,1,7327,0,50432,52967,50746.66,52834.12,-314.66,132.88,1.289157,75.13,1
9197,1,7367,0,50428,52969,50746.02,52834.39,-318.02,134.61,1.286351,75.21,1
9237,1,7407,0,50425,52968,50745.38,52834.66,-320.38,133.34,1.283582,75.29,1
9277,1,7447,0,50417,52973,50744.72,52834.94,-327.72,138.06,1.280850,75.37,1
9317,1,7487,0,50427,52978,50744.09,52835.23,-317.09,142.77,1.278154,75.45,1
9357,1,7527,0,50421,52971,50743.45,52835.50,-322.45,135.50,1.275493,75.53,1
9397,1,7567,0,50415,52973,50742.79,52835.78,-327.79,137.22,1.272869,75.61,1
9437,1,7607,0,50410,52989,50742.12,52836.09,-332.12,152.91,1.270280,75.69,1
9477,1,7647,0,50417,52984,50741.48,52836.38,-324.48,147.62,1.267725,75.77,1
9517,1,7687,0,50401,52947,50740.80,52836.61,-339.80,110.39,1.265207,75.85,1
9558,1,7728,0,50374,52882,50740.07,52836.70,-366.07,45.30,1.262730,75.92,1
9598,1,7768,0,50334,52816,50739.25,52836.66,-405.25,-20.66,1.260301,76.00,1
9638,1,7808,0,50316,52799,50738.41,52836.59,-422.41,-37.59,1.257923,76.08,1
9678,1,7848,0,50303,52787,50737.54,52836.49,-434.54,-49.49,1.255596,76.15,1
9718,1,7888,0,50293,52778,50736.65,52836.37,-443.65,-58.37,1.253322,76.23,1
9758,1,7928,0,50299,52785,50735.78,52836.27,-436.78,-51.27,1.251099,76.30,1
9798,1,7968,0,50300,52785,50734.91,52836.17,-434.91,-51.17,1.248924,76.38,1
9838,1,8008,0,50305,52789,50734.05,52836.07,-429.05,-47.07,1.246796,76.45,1
9878,1,8048,0,50303,52799,50733.19,52836.00,-430.19,-37.00,1.244714,76.52,1
9918,1,8088,0,50303,52806,50732.33,52835.94,-429.33,-29.94,1.242678,76.60,1
9958,1,8128,0,50310,52815,50731.48,52835.90,-421.48,-20.90,1.240685,76.67,1
9998,1,8168,0,50315,52833,50730.65,52835.90,-415.65,-2.90,1.238735,76.74,1
10038,1,8208,0,50322,52836,50729.84,52835.90,-407.84,0.10,1.236825,76.81,1
10078,1,8248,0,50326,52844,50729.03,52835.91,-403.03,8.09,1.234954,76.88,1
10118,1,8288,0,50330,52849,50728.23,52835.94,-398.23,13.06,1.233121,76.95,1
10158,1,8328,0,50329,52858,50727.44,52835.99,-398.44,22.01,1.231325,77.01,1
10198,1,8368,0,50326,52866,50726.64,52836.05,-400.64,29.95,1.229567,77.08,1
10238,1,8408,0,50328,52862,50725.84,52836.11,-397.84,25.89,1.227846,77.15,1
10278,1,8448,0,50329,52834,50725.05,52836.10,-396.05,-2.10,1.226161,77.21,1
10318,1,8488,0,50292,52759,50724.18,52835.95,-432.18,-76.95,1.224517,77.28,1
10358,1,8528,0,50261,52724,50723.26,52835.73,-462.26,-111.73,1.222919,77.34,1
10398,1,8568,0,50259,52726,50722.33,52835.51,-463.33,-109.51,1.221365,77.41,1
10438,1,8608,0,50258,52717,50721.41,52835.27,-463.41,-118.27,1.219857,77.47,1
10478,1,8648,0,50250,52715,50720.46,52835.04,-470.46,-120.04,1.218393,77.53,1
10519,1,8689,0,50259,52741,50719.54,52834.85,-460.54,-93.85,1.216973,77.59,1
10559,1,8729,0,50265,52743,50718.64,52834.66,-453.64,-91.66,1.215595,77.65,1
10599,1,8769,0,50272,52759,50717.75,52834.52,-445.75,-75.52,1.214256,77.71,1
10639,1,8809,0,50271,52759,50716.86,52834.37,-445.86,-75.37,1.212958,77.77,1
10679,1,8849,0,50276,52785,50715.98,52834.27,-439.98,-49.27,1.211699,77.83,1
10719,1,8889,0,50285,52797,50715.12,52834.20,-430.12,-37.20,1.210477,77.89,1
10759,1,8929,0,50286,52809,50714.26,52834.14,-428.26,-25.14,1.209292,77.94,1
10799,1,8969,0,50301,52834,50713.44,52834.14,-412.44,-0.14,1.208141,78.00,1
10839,1,9009,0,50309,52855,50712.63,52834.19,-403.63,20.81,1.207023,78.06,1
10879,1,9049,0,50318,52880,50711.84,52834.28,-393.84,45.72,1.205936,78.11,1
10919,1,9089,0,50327,52912,50711.07,52834.44,-384.07,77.56,1.204878,78.16,1
10959,1,9129,0,50335,52927,50710.32,52834.62,-375.32,92.37,1.203847,78.21,1
10999,1,9169,0,50353,52963,50709.61,52834.88,-356.61,128.12,1.202841,78.27,1
11039,1,9209,0,50361,52963,50708.91,52835.14,-347.91,127.86,1.201857,78.32,1
11079,1,9249,0,50352,52930,50708.20,52835.33,-356.20,94.67,1.200898,78.37,1
11119,1,9289,0,50340,52918,50707.46,52835.50,-367.46,82.50,1.199965,78.42,1
11159,1,9329,0,50339,52924,50706.73,52835.68,-367.73,88.32,1.199059,78.46,1
11199,1,9369,0,50339,52921,50706.00,52835.85,-367.00,85.15,1.198178,78.51,1
11239,1,9409,0,50337,52913,50705.26,52836.01,-368.26,76.99,1.197324,78.56,1
11279,1,9449,0,50338,52919,50704.52,52836.18,-366.52,82.82,1.196496,78.60,1
11319,1,9489,0,50339,52901,50703.79,52836.31,-364.79,64.69,1.195694,78.65,1
11359,1,9529,0,50331,52916,50703.05,52836.47,-372.05,79.53,1.194918,78.69,1
11399,1,9569,0,50333,52915,50702.31,52836.63,-369.31,78.37,1.194169,78.74,1
11439,1,9609,0,50332,52922,50701.57,52836.80,-369.57,85.20,1.193445,78.78,1
11479,1,9649,0,50334,52933,50700.84,52837.00,-366.84,96.00,1.192747,78.82,1
11520,1,9690,0,50336,52940,50700.11,52837.20,-364.11,102.80,1.192073,78.86,1
11560,1,9730,0,50333,52933,50699.37,52837.39,-366.37,95.61,1.191425,78.90,1
11600,1,9770,0,50328,52945,50698.63,52837.61,-370.63,107.39,1.190801,78.94,1
11640,1,9810,0,50330,52947,50697.90,52837.83,-367.90,109.17,1.190203,78.98,1
11680,1,9850,0,50321,52951,50697.14,52838.05,-376.14,112.95,1.189629,79.02,1
11720,1,9890,0,50321,52960,50696.39,52838.30,-375.39,121.70,1.189081,79.06,1
11760,1,9930,0,50321,52956,50695.64,52838.54,-374.64,117.46,1.188558,79.10,1
11800,1,9970,0,50319,52933,50694.89,52838.73,-375.89,94.27,1.188061,79.13,1
11840,1,10010,0,50290,52874,50694.08,52838.80,-404.08,35.20,1.187594,79.17,1
11880,1,10050,0,50260,52843,50693.21,52838.81,-433.21,4.19,1.187164,79.20,1
11920,1,10090,0,50252,52838,50692.33,52838.81,-440.33,-0.81,1.186771,79.24,1
11960,1,10130,0,50250,52841,50691.45,52838.81,-441.45,2.19,1.186414,79.27,1
12000,1,10170,0,50251,52836,50690.57,52838.81,-439.57,-2.81,1.186093,79.30,1
12040,1,10210,0,50252,52842,50689.70,52838.82,-437.70,3.18,1.185809,79.33,1
12080,1,10250,0,50258,52847,50688.83,52838.84,-430.83,8.16,1.185559,79.36,1
12120,1,10290,0,50253,52853,50687.96,52838.87,-434.96,14.13,1.185345,79.39,1
12160,1,10330,0,50254,52853,50687.09,52838.90,-433.09,14.10,1.185165,79.42,1
12200,1,10370,0,50249,52852,50686.22,52838.93,-437.22,13.07,1.185021,79.45,1
12240,1,10410,0,50248,52853,50685.34,52838.96,-437.34,14.04,1.184912,79.48,1
12280,1,10450,0,50245,52849,50684.46,52838.98,-439.46,10.02,1.184838,79.51,1
12320,1,10490,0,50237,52852,50683.57,52839.00,-446.57,13.00,1.184801,79.53,1
12360,1,10530,0,50237,52853,50682.68,52839.04,-445.68,13.96,1.184800,79.56,1
12400,1,10570,0,50234,52857,50681.79,52839.07,-447.79,17.93,1.184836,79.58,1
12440,1,10610,0,50228,52857,50680.88,52839.11,-452.88,17.89,1.184909,79.61,1
12481,1,10651,0,50229,52863,50679.98,52839.16,-450.98,23.84,1.185019,79.63,1
12521,1,10691,0,50221,52847,50679.06,52839.18,-458.06,7.82,1.185166,79.65,1
12561,1,10731,0,50201,52797,50678.11,52839.10,-477.11,-42.10,1.185354,79.67,1
12601,1,10771,0,50177,52761,50677.11,52838.94,-500.11,-77.94,1.185585,79.69,1
12641,1,10811,0,50160,52757,50676.07,52838.78,-516.07,-81.78,1.185862,79.71,1
12681,1,10851,0,50157,52755,50675.04,52838.61,-518.04,-83.61,1.186185,79.73,1
12721,1,10891,0,50158,52746,50674.01,52838.43,-516.01,-92.43,1.186552,79.75,1
12761,1,10931,0,50153,52757,50672.97,52838.27,-519.97,-81.27,1.186965,79.77,1
12801,1,10971,0,50154,52761,50671.93,52838.11,-517.93,-77.11,1.187423,79.78,1
12841,1,11011,0,50151,52766,50670.89,52837.97,-519.89,-71.97,1.187926,79.80,1
12881,1,11051,0,50151,52768,50669.86,52837.83,-518.86,-69.83,1.188474,79.81,1
12921,1,11091,0,50156,52770,50668.83,52837.70,-512.83,-67.70,1.189066,79.83,1
12961,1,11131,0,50157,52774,50667.80,52837.57,-510.80,-63.57,1.189702,79.84,1
13001,1,11171,0,50158,52784,50666.79,52837.47,-508.79,-53.47,1.190380,79.85,1
13041,1,11211,0,50162,52791,50665.78,52837.38,-503.78,-46.38,1.191101,79.86,1
13081,1,11251,0,50157,52797,50664.76,52837.30,-507.76,-40.30,1.191864,79.87,1
13121,1,11291,0,50152,52803,50663.74,52837.23,-511.74,-34.23,1.192672,79.88,1
13161,1,11331,0,50154,52806,50662.72,52837.17,-508.72,-31.17,1.193522,79.89,1
13201,1,11371,0,50153,52811,50661.70,52837.12,-508.70,-26.12,1.194416,79.90,1
13241,1,11411,0,50149,52799,50660.68,52837.05,-511.68,-38.05,1.195352,79.91,1
13281,1,11451,0,50133,52752,50659.62,52836.88,-526.62,-84.88,1.196332,79.91,1
13321,1,11491,0,50109,52717,50658.52,52836.64,-549.52,-119.64,1.197358,79.92,1
13361,1,11531,0,50097,52711,50657.40,52836.39,-560.40,-125.39,1.198429,79.92,1
13402,1,11572,0,50094,52707,50656.27,52836.13,-562.27,-129.13,1.199546,79.92,1
13442,1,11612,0,50088,52693,50655.14,52835.85,-567.14,-142.85,1.200707,79.92,1
13482,1,11652,0,50082,52701,50653.99,52835.58,-571.99,-134.58,1.201915,79.93,1
13522,1,11692,0,50086,52708,50652.86,52835.32,-566.86,-127.32,1.203168,79.92,1
13562,1,11732,0,50086,52721,50651.73,52835.10,-565.73,-114.10,1.204468,79.92,1
13602,1,11772,0,50086,52726,50650.60,52834.88,-564.60,-108.88,1.205813,79.92,1
13642,1,11812,0,50088,52729,50649.47,52834.67,-561.47,-105.67,1.207204,79.92,1
13682,1,11852,0,50094,52740,50648.36,52834.48,-554.36,-94.48,1.208640,79.91,1
13722,1,11892,0,50095,52752,50647.26,52834.32,-552.26,-82.32,1.210121,79.91,1
13762,1,11932,0,50098,52769,50646.16,52834.19,-548.16,-65.19,1.211647,79.90,1
13802,1,11972,0,50100,52782,50645.07,52834.09,-545.07,-52.09,1.213218,79.90,1
13842,1,12012,0,50112,52802,50644.00,52834.02,-532.00,-32.02,1.214833,79.89,1
13882,1,12052,0,50116,52808,50642.95,52833.97,-526.95,-25.97,1.216491,79.88,1
13922,1,12092,0,50120,52820,50641.91,52833.95,-521.91,-13.95,1.218190,79.87,1
13962,1,12132,0,50129,52836,50640.88,52833.95,-511.88,2.05,1.219930,79.86,1
14002,1,12172,0,50126,52827,50639.86,52833.94,-513.86,-6.94,1.221710,79.85,1
14042,1,12212,0,50106,52784,50638.79,52833.84,-532.79,-49.84,1.223532,79.83,1
14082,1,12252,0,50080,52737,50637.67,52833.65,-557.67,-96.65,1.225398,79.82,1
14122,1,12292,0,50073,52731,50636.54,52833.45,-563.54,-102.45,1.227308,79.80,1
14162,1,12332,0,50065,52726,50635.40,52833.23,-570.40,-107.23,1.229262,79.79,1
14202,1,12372,0,50062,52721,50634.26,52833.01,-572.26,-112.01,1.231259,79.77,1
14242,1,12412,0,50062,52737,50633.11,52832.82,-571.11,-95.82,1.233301,79.75,1
14282,1,12452,0,50067,52753,50631.98,52832.66,-564.98,-79.66,1.235389,79.73,1
14323,1,12493,0,50076,52771,50630.87,52832.54,-554.87,-61.54,1.237521,79.71,1
14363,1,12533,0,50078,52785,50629.77,52832.44,-551.77,-47.44,1.239698,79.69,1
14403,1,12573,0,50083,52796,50628.67,52832.37,-545.67,-36.37,1.241919,79.67,1
14443,1,12613,0,50082,52802,50627.58,52832.31,-545.58,-30.31,1.244184,79.65,1
14483,1,12653,0,50083,52812,50626.49,52832.27,-543.49,-20.27,1.246493,79.62,1
14523,1,12693,0,50085,52830,50625.41,52832.27,-540.41,-2.27,1.248847,79.60,1
14563,1,12733,0,50092,52837,50624.34,52832.28,-532.34,4.72,1.251242,79.57,1
14603,1,12773,0,50093,52851,50623.28,52832.32,-530.28,18.68,1.253679,79.54,1
14643,1,12813,0,50099,52871,50622.23,52832.40,-523.23,38.60,1.256156,79.52,1
14683,1,12853,0,50101,52885,50621.19,52832.50,-520.19,52.50,1.258671,79.49,1
14723,1,12893,0,50105,52901,50620.16,52832.64,-515.16,68.36,1.261221,79.46,1
14763,1,12933,0,50115,52909,50619.15,52832.79,-504.15,76.21,1.263804,79.42,1
14803,1,12973,0,50114,52884,50618.14,52832.90,-504.14,51.10,1.266423,79.39,1
14843,1,13013,0,50090,52830,50617.09,52832.89,-527.09,-2.89,1.269083,79.36,1
14883,1,13053,0,50068,52804,50615.99,52832.84,-547.99,-28.84,1.271787,79.32,1
14923,1,13093,0,50067,52816,50614.89,52832.81,-547.89,-16.81,1.274536,79.29,1
14963,1,13133,0,50062,52810,50613.79,52832.77,-551.79,-22.77,1.277331,79.25,1
15003,1,13173,0,50059,52812,50612.68,52832.73,-553.68,-20.73,1.280172,79.21,1
15043,1,13213,0,50067,52825,50611.59,52832.71,-544.59,-7.71,1.283057,79.17,1
15083,1,13253,0,50070,52834,50610.51,52832.71,-540.51,1.29,1.285986,79.13,1
15123,1,13293,0,50067,52832,50609.42,52832.71,-542.42,-0.71,1.288959,79.09,1
15163,1,13333,0,50063,52838,50608.33,52832.73,-545.33,5.27,1.291976,79.05,1
15203,1,13373,0,50064,52846,50607.25,52832.75,-543.25,13.25,1.295037,79.01,1
15244,1,13414,0,50063,52847,50606.16,52832.79,-543.16,14.21,1.298142,78.97,1
15284,1,13454,0,50060,52845,50605.07,52832.81,-545.07,12.19,1.301292,78.92,1
15324,1,13494,0,50056,52853,50603.97,52832.86,-547.97,20.14,1.304486,78.87,1
15364,1,13534,0,50051,52858,50602.87,52832.91,-551.87,25.09,1.307726,78.83,1
15404,1,13574,0,50051,52857,50601.77,52832.96,-550.77,24.04,1.311010,78.78,1
15444,1,13614,0,50043,52855,50600.65,52833.00,-557.65,22.00,1.314341,78.73,1
15484,1,13654,0,50050,52862,50599.55,52833.06,-549.55,28.94,1.317717,78.68,1
15524,1,13694,0,50041,52868,50598.43,52833.13,-557.43,34.87,1.321138,78.63,1
15564,1,13734,0,50036,52868,50597.30,52833.20,-561.30,34.80,1.324606,78.58,1
15604,1,13774,0,50036,52853,50596.18,52833.24,-560.18,19.76,1.328121,78.52,1
15644,1,13814,0,50018,52799,50595.03,52833.18,-577.03,-34.18,1.331686,78.47,1
15684,1,13854,0,49994,52764,50593.83,52833.04,-599.83,-69.04,1.335301,78.41,1
15724,1,13894,0,49989,52762,50592.62,52832.90,-603.62,-70.90,1.338967,78.36,1
15764,1,13934,0,49981,52751,50591.40,52832.73,-610.40,-81.73,1.342684,78.30,1
15804,1,13974,0,49974,52749,50590.16,52832.57,-616.16,-83.57,1.346452,78.24,1
15844,1,14014,0,49969,52750,50588.92,52832.40,-619.92,-82.40,1.346452,78.24,0
15884,1,14054,0,49968,52749,50587.68,52832.24,-619.68,-83.24,1.346452,78.24,0
15924,1,14094,0,49970,52750,50586.45,52832.07,-616.45,-82.07,1.346452,78.24,0
15964,1,14134,0,49961,52746,50585.20,52831.90,-624.20,-85.90,1.346452,78.24,0
16004,1,14174,0,49957,52743,50583.94,52831.73,-626.94,-88.73,1.346452,78.24,0
16044,1,14214,0,49954,52750,50582.68,52831.57,-628.68,-81.57,1.346452,78.24,0
16084,1,14254,0,49954,52751,50581.43,52831.41,-627.43,-80.41,1.346452,78.24,0
16125,1,14295,0,49949,52752,50580.16,52831.25,-631.16,-79.25,1.346452,78.24,0
16165,1,14335,0,49948,52756,50578.90,52831.10,-630.90,-75.10,1.346452,78.24,0
16205,1,14375,0,49945,52758,50577.64,52830.96,-632.64,-72.96,1.346452,78.24,0
16245,1,14415,0,49941,52761,50576.36,52830.82,-635.36,-69.82,1.346452,78.24,0
16285,1,14455,0,49936,52769,50575.08,52830.70,-639.08,-61.70,1.346452,78.24,0
16325,1,14495,0,49939,52777,50573.81,52830.59,-634.81,-53.59,1.346452,78.24,0
16365,1,14535,0,49934,52759,50572.54,52830.45,-638.54,-71.45,1.346452,78.24,0
16405,1,14575,0,49917,52713,50571.23,52830.22,-654.23,-117.22,1.346452,78.24,0
16445,1,14615,0,49893,52685,50569.87,52829.93,-676.87,-144.93,1.346452,78.24,0
16485,1,14655,0,49884,52687,50568.50,52829.64,-684.50,-142.64,1.346452,78.24,0
16525,1,14695,0,49885,52685,50567.13,52829.36,-682.13,-144.36,1.346452,78.24,0
16565,1,14735,0,49885,52692,50565.77,52829.08,-680.77,-137.08,1.346452,78.24,0
16605,1,14775,0,49888,52695,50564.41,52828.82,-676.41,-133.82,1.346452,78.24,0
16645,1,14815,0,49895,52700,50563.08,52828.56,-668.08,-128.56,1.346452,78.24,0
16685,1,14855,0,49898,52700,50561.75,52828.30,-663.75,-128.30,1.346452,78.24,0
16725,1,14895,0,49891,52701,50560.41,52828.05,-669.41,-127.05,1.346452,78.24,0
16765,1,14935,0,49896,52710,50559.08,52827.82,-663.08,-117.82,1.346452,78.24,0
16805,1,14975,0,49895,52720,50557.75,52827.60,-662.75,-107.60,1.346452,78.24,0
16845,1,15015,0,49893,52725,50556.43,52827.40,-663.43,-102.40,1.346452,78.24,0
16885,1,15055,0,49900,52728,50555.11,52827.20,-655.11,-99.20,1.346452,78.24,0
16925,1,15095,0,49900,52733,50553.80,52827.01,-653.80,-94.01,1.346452,78.24,0
16965,1,15135,0,49896,52734,50552.49,52826.83,-656.49,-92.83,1.346452,78.24,0
17005,1,15175,0,49892,52739,50551.17,52826.65,-659.17,-87.65,1.346452,78.24,0
17045,1,15215,0,49891,52750,50549.85,52826.50,-658.85,-76.50,1.346452,78.24,0
17085,1,15255,0,49892,52745,50548.54,52826.34,-656.54,-81.34,1.346452,78.24,0
17126,1,15296,0,49880,52697,50547.20,52826.08,-667.20,-129.08,1.346452,78.24,0
17166,1,15336,0,49848,52644,50545.80,52825.72,-697.80,-181.72,1.346452,78.24,0
17206,1,15376,0,49839,52646,50544.39,52825.36,-705.39,-179.36,1.346452,78.24,0
17246,1,15416,0,49836,52645,50542.98,52825.00,-706.98,-180.00,1.346452,78.24,0
17286,1,15456,0,49837,52643,50541.57,52824.64,-704.57,-181.64,1.346452,78.24,0
17326,1,15496,0,49838,52643,50540.16,52824.27,-702.16,-181.27,1.346452,78.24,0
17366,1,15536,0,49844,52655,50538.77,52823.94,-694.77,-168.94,1.346452,78.24,0
17406,1,15576,0,49849,52665,50537.39,52823.62,-688.39,-158.62,1.346452,78.24,0
17446,1,15616,0,49850,52669,50536.02,52823.31,-686.02,-154.31,1.346452,78.24,0
17486,1,15656,0,49851,52682,50534.65,52823.03,-683.65,-141.03,1.346452,78.24,0
17526,1,15696,0,49859,52689,50533.30,52822.77,-674.30,-133.77,1.346452,78.24,0
17566,1,15736,0,49868,52705,50531.97,52822.53,-663.97,-117.53,1.346452,78.24,0
17606,1,15776,0,49877,52716,50530.66,52822.32,-653.66,-106.32,1.346452,78.24,0
17646,1,15816,0,49881,52725,50529.36,52822.13,-648.36,-97.13,1.346452,78.24,0
17686,1,15856,0,49888,52736,50528.08,52821.96,-640.08,-85.96,1.346452,78.24,0
17726,1,15896,0,49892,52749,50526.81,52821.81,-634.81,-72.81,1.346452,78.24,0
17766,1,15936,0,49895,52762,50525.55,52821.70,-630.55,-59.70,1.346452,78.24,0
17806,1,15976,0,49899,52775,50524.30,52821.60,-625.30,-46.60,1.346452,78.24,0
17846,1,16016,0,49904,52779,50523.06,52821.52,-619.06,-42.52,1.346452,78.24,0
17886,1,16056,0,49892,52733,50521.80,52821.34,-629.80,-88.34,1.346452,78.24,0
17926,1,16096,0,49867,52681,50520.49,52821.06,-653.49,-140.06,1.346452,78.24,0
17966,1,16136,0,49855,52668,50519.16,52820.76,-664.16,-152.76,1.346452,78.24,0
18006,1,16176,0,49856,52672,50517.84,52820.46,-661.84,-148.46,1.346452,78.24,0
18046,1,16216,0,49857,52661,50516.52,52820.14,-659.52,-159.14,1.346452,78.24,0
18087,1,16257,0,49858,52672,50515.20,52819.85,-657.20,-147.85,1.346452,78.24,0
18127,1,16297,0,49858,52675,50513.89,52819.56,-655.89,-144.56,1.346452,78.24,0
18167,1,16337,0,49866,52694,50512.60,52819.31,-646.60,-125.31,1.346452,78.24,0
18207,1,16377,0,49873,52702,50511.32,52819.07,-638.32,-117.07,1.346452,78.24,0
18247,1,16417,0,49876,52718,50510.05,52818.87,-634.05,-100.87,1.346452,78.24,0
18287,1,16457,0,49884,52730,50508.80,52818.70,-624.80,-88.70,1.346452,78.24,0
18327,1,16497,0,49888,52744,50507.56,52818.55,-619.56,-74.55,1.346452,78.24,0
18367,1,16537,0,49896,52756,50506.34,52818.43,-610.34,-62.43,1.346452,78.24,0
18407,1,16577,0,49902,52769,50505.13,52818.33,-603.13,-49.33,1.346452,78.24,0
18447,1,16617,0,49907,52788,50503.93,52818.27,-596.93,-30.27,1.346452,78.24,0
18487,1,16657,0,49912,52802,50502.75,52818.24,-590.75,-16.24,1.346452,78.24,0
18527,1,16697,0,49919,52814,50501.58,52818.23,-582.58,-4.23,1.346452,78.24,0
18567,1,16737,0,49920,52823,50500.42,52818.24,-580.42,4.76,1.346452,78.24,0
18607,1,16777,0,49928,52841,50499.28,52818.29,-571.28,22.71,1.346452,78.24,0
18647,1,16817,0,49931,52838,50498.14,52818.33,-567.14,19.67,1.346452,78.24,0
18687,1,16857,0,49921,52803,50496.99,52818.30,-575.99,-15.30,1.346452,78.24,0
18727,1,16897,0,49902,52763,50495.80,52818.19,-593.80,-55.19,1.346452,78.24,0
18767,1,16937,0,49890,52759,50494.59,52818.07,-604.59,-59.07,1.346452,78.24,0
18807,1,16977,0,49892,52763,50493.39,52817.96,-601.39,-54.96,1.346452,78.24,0
18847,1,17017,0,49892,52753,50492.18,52817.84,-600.18,-64.84,1.346452,78.24,0
18887,1,17057,0,49890,52761,50490.98,52817.72,-600.98,-56.72,1.346452,78.24,0
18927,1,17097,0,49895,52775,50489.79,52817.64,-594.79,-42.64,1.346452,78.24,0
18967,1,17137,0,49898,52781,50488.61,52817.57,-590.61,-36.57,1.346452,78.24,0
19007,1,17177,0,49899,52790,50487.43,52817.51,-588.43,-27.51,1.346452,78.24,0
19048,1,17218,0,49907,52798,50486.27,52817.47,-579.27,-19.47,1.346452,78.24,0
19088,1,17258,0,49905,52803,50485.11,52817.45,-580.11,-14.45,1.346452,78.24,0
19128,1,17298,0,49910,52817,50483.96,52817.45,-573.96,-0.45,1.346452,78.24,0
19168,1,17338,0,49914,52833,50482.82,52817.48,-568.82,15.52,1.346452,78.24,0
19208,1,17378,0,49916,52850,50481.69,52817.54,-565.69,32.46,1.346452,78.24,0
19248,1,17418,0,49922,52867,50480.57,52817.64,-558.57,49.36,1.346452,78.24,0
19288,1,17458,0,49925,52873,50479.46,52817.76,-554.46,55.24,1.346452,78.24,0
19328,1,17498,0,49934,52894,50478.37,52817.91,-544.37,76.09,1.346452,78.24,0
19368,1,17538,0,49940,52907,50477.30,52818.09,-537.30,88.91,1.346452,78.24,0
19408,1,17578,0,49942,52925,50476.23,52818.30,-534.23,106.70,1.346452,78.24,0
19448,1,17618,0,49953,52946,50475.18,52818.56,-522.18,127.44,1.346452,78.24,0
19488,1,17658,0,49959,52937,50474.15,52818.80,-515.15,118.20,1.346452,78.24,0
19528,1,17698,0,49942,52892,50473.09,52818.95,-531.09,73.05,1.346452,78.24,0
19568,1,17738,0,49930,52873,50472.00,52819.06,-542.00,53.94,1.346452,78.24,0
19608,1,17778,0,49931,52874,50470.92,52819.17,-539.92,54.83,1.346452,78.24,0
19648,1,17818,0,49930,52872,50469.84,52819.27,-539.84,52.73,1.346452,78.24,0
19688,1,17858,0,49929,52880,50468.75,52819.39,-539.75,60.61,1.346452,78.24,0
19728,1,17898,0,49934,52898,50467.69,52819.55,-533.69,78.45,1.346452,78.24,0
19768,1,17938,0,49937,52912,50466.63,52819.74,-529.63,92.26,1.346452,78.24,0
19808,1,17978,0,49947,52916,50465.59,52819.94,-518.59,96.06,1.346452,78.24,0
19848,1,18018,0,49947,52922,50464.55,52820.14,-517.55,101.86,1.346452,78.24,0
19888,1,18058,0,49951,52930,50463.53,52820.37,-512.53,109.63,1.346452,78.24,0
19928,1,18098,0,49947,52937,50462.50,52820.60,-515.50,116.40,1.346452,78.24,0
19968,1,18138,0,49955,52952,50461.48,52820.87,-506.48,131.13,1.346452,78.24,0
20008,1,18178,0,49957,52962,50460.47,52821.15,-503.47,140.85,1.346452,78.24,0
20049,1,18219,0,49962,52964,50459.48,52821.44,-497.48,142.56,1.346452,78.24,0
20089,1,18259,0,49959,52975,50458.48,52821.75,-499.48,153.25,1.346452,78.24,0
20129,1,18299,0,49965,52986,50457.49,52822.07,-492.49,163.93,1.346452,78.24,0
20169,1,18339,0,49961,53004,50456.50,52822.44,-495.50,181.56,1.346452,78.24,0
20209,1,18379,0,49968,53015,50455.52,52822.82,-487.52,192.18,1.346452,78.24,0
20249,1,18419,0,49973,53021,50454.56,52823.22,-481.56,197.78,1.346452,78.24,0
20289,1,18459,0,49977,53040,50453.61,52823.66,-476.61,216.34,1.346452,78.24,0
20329,1,18499,0,49977,53034,50452.65,52824.08,-475.65,209.92,1.346452,78.24,0
20369,1,18539,0,49964,52996,50451.68,52824.42,-487.68,171.58,1.346452,78.24,0
20409,1,18579,0,49947,52960,50450.67,52824.70,-503.67,135.30,1.346452,78.24,0
20449,1,18619,0,49943,52966,50449.65,52824.98,-506.65,141.02,1.346452,78.24,0
20489,1,18659,0,49945,52959,50448.64,52825.25,-503.64,133.75,1.346452,78.24,0
20529,1,18699,0,49947,52964,50447.64,52825.53,-500.64,138.47,1.346452,78.24,0
20569,1,18739,0,49952,52966,50446.65,52825.81,-494.65,140.19,1.346452,78.24,0
20609,1,18779,0,49948,52970,50445.66,52826.10,-497.66,143.90,1.346452,78.24,0
20649,1,18819,0,49953,52978,50444.67,52826.40,-491.67,151.60,1.346452,78.24,0
20689,1,18859,0,49953,52973,50443.69,52826.70,-490.69,146.30,1.346452,78.24,0
20729,1,18899,0,49950,52979,50442.71,52827.00,-492.71,152.00,1.346452,78.24,0
20769,1,18939,0,49956,52970,50441.73,52827.29,-485.73,142.71,1.346452,78.24,0
20809,1,18979,0,49948,52968,50440.75,52827.57,-492.75,140.43,1.346452,78.24,0
20849,1,19019,0,49940,52966,50439.75,52827.85,-499.75,138.15,1.346452,78.24,0
20889,1,19059,0,49938,52956,50438.75,52828.11,-500.75,127.89,1.346452,78.24,0
20929,1,19099,0,49931,52958,50437.73,52828.37,-506.73,129.63,1.346452,78.24,0
20970,1,19140,0,49926,52951,50436.71,52828.61,-510.71,122.39,1.346452,78.24,0
21010,1,19180,0,49921,52945,50435.68,52828.85,-514.68,116.15,1.346452,78.24,0
21050,1,19220,0,49917,52946,50434.64,52829.08,-517.64,116.92,1.346452,78.24,0
21090,1,19260,0,49911,52945,50433.59,52829.32,-522.59,115.68,1.346452,78.24,0
21130,1,19300,0,49906,52951,50432.54,52829.56,-526.54,121.44,1.346452,78.24,0
21170,1,19340,0,49903,52935,50431.48,52829.77,-528.48,105.23,1.346452,78.24,0
21210,1,19380,0,49885,52880,50430.39,52829.87,-545.39,50.13,1.346452,78.24,0
21250,1,19420,0,49860,52833,50429.25,52829.88,-569.25,3.12,1.346452,78.24,0
21290,1,19460,0,49847,52824,50428.09,52829.87,-581.09,-5.87,1.346452,78.24,0
21330,1,19500,0,49840,52818,50426.91,52829.85,-586.91,-11.85,1.346452,78.24,0
21370,1,19540,0,49834,52810,50425.73,52829.81,-591.73,-19.81,1.346452,78.24,0
21410,1,19580,0,49836,52818,50424.55,52829.79,-588.55,-11.79,1.346452,78.24,0
21450,1,19620,0,49842,52817,50423.38,52829.76,-581.38,-12.76,1.346452,78.24,0
21490,1,19660,0,49844,52813,50422.23,52829.73,-578.23,-16.73,1.346452,78.24,0
21530,1,19700,0,49847,52804,50421.08,52829.68,-574.08,-25.68,1.346452,78.24,0
21570,1,19740,0,49841,52803,50419.92,52829.63,-578.92,-26.63,1.346452,78.24,0
21610,1,19780,0,49841,52804,50418.76,52829.58,-577.76,-25.58,1.346452,78.24,0
21650,1,19820,0,49837,52807,50417.60,52829.54,-580.60,-22.54,1.346452,78.24,0
21690,1,19860,0,49837,52809,50416.44,52829.50,-579.44,-20.50,1.346452,78.24,0
21730,1,19900,0,49842,52810,50415.29,52829.46,-573.29,-19.46,1.346452,78.24,0
21770,1,19940,0,49838,52808,50414.14,52829.41,-576.14,-21.41,1.346452,78.24,0
21810,1,19980,0,49837,52814,50412.98,52829.38,-575.98,-15.38,1.346452,78.24,0
21850,1,20020,0,49836,52816,50411.83,52829.36,-575.83,-13.36,1.346452,78.24,0
21890,1,20060,0,49832,52818,50410.67,52829.34,-578.67,-11.34,1.346452,78.24,0
21930,1,20100,0,49836,52826,50409.52,52829.33,-573.52,-3.33,1.346452,78.24,0
21971,1,20141,0,49832,52821,50408.37,52829.32,-576.37,-8.32,1.346452,78.24,0
22011,1,20181,0,49820,52775,50407.20,52829.21,-587.20,-54.21,1.346452,78.24,0
22051,1,20221,0,49794,52722,50405.97,52829.00,-611.97,-107.00,1.346452,78.24,0
22091,1,20261,0,49773,52706,50404.70,52828.75,-631.70,-122.75,1.346452,78.24,0
22131,1,20301,0,49775,52706,50403.45,52828.51,-628.45,-122.51,1.346452,78.24,0
22171,1,20341,0,49777,52711,50402.20,52828.27,-625.20,-117.27,1.346452,78.24,0
22211,1,20381,0,49782,52714,50400.96,52828.05,-618.96,-114.05,1.346452,78.24,0
22251,1,20421,0,49794,52726,50399.75,52827.84,-605.75,-101.84,1.346452,78.24,0
22291,1,20461,0,49794,52726,50398.54,52827.64,-604.54,-101.64,1.346452,78.24,0
22331,1,20501,0,49797,52727,50397.33,52827.44,-600.33,-100.44,1.346452,78.24,0
22371,1,20541,0,49802,52730,50396.14,52827.25,-594.14,-97.25,1.346452,78.24,0
22411,1,20581,0,49811,52747,50394.98,52827.09,-583.98,-80.09,1.346452,78.24,0
22451,1,20621,0,49823,52755,50393.83,52826.94,-570.83,-71.94,1.346452,78.24,0
22491,1,20661,0,49832,52766,50392.71,52826.82,-560.71,-60.82,1.346452,78.24,0
22531,1,20701,0,49837,52774,50391.60,52826.71,-554.60,-52.71,1.346452,78.24,0
22571,1,20741,0,49842,52787,50390.50,52826.64,-548.50,-39.64,1.346452,78.24,0
22611,1,20781,0,49847,52801,50389.42,52826.59,-542.42,-25.59,1.346452,78.24,0
22651,1,20821,0,49853,52804,50388.35,52826.54,-535.35,-22.54,1.346452,78.24,0
22691,1,20861,0,49855,52820,50387.28,52826.53,-532.28,-6.53,1.346452,78.24,0
22731,1,20901,0,49864,52822,50386.23,52826.52,-522.23,-4.52,1.346452,78.24,0
22771,1,20941,0,49860,52786,50385.18,52826.45,-525.18,-40.45,1.346452,78.24,0
22811,1,20981,0,49836,52718,50384.09,52826.23,-548.09,-108.23,1.346452,78.24,0
22851,1,21021,0,49817,52693,50382.95,52825.96,-565.95,-132.96,1.346452,78.24,0
22891,1,21061,0,49822,52699,50381.83,52825.71,-559.83,-126.71,1.346452,78.24,0
22932,1,21102,0,49831,52700,50380.73,52825.46,-549.73,-125.46,1.346452,78.24,0
22972,1,21142,0,49847,52707,50379.66,52825.23,-532.66,-118.23,1.346452,78.24,0
23012,1,21182,0,49855,52718,50378.62,52825.01,-523.62,-107.01,1.346452,78.24,0
23052,1,21222,0,49867,52730,50377.59,52824.82,-510.59,-94.82,1.346452,78.24,0
23092,1,21262,0,49875,52734,50376.59,52824.64,-501.59,-90.64,1.346452,78.24,0
23132,1,21302,0,49884,52742,50375.61,52824.48,-491.61,-82.48,1.346452,78.24,0
23172,1,21342,0,49898,52759,50374.65,52824.35,-476.65,-65.35,1.346452,78.24,0
23212,1,21382,0,49918,52770,50373.74,52824.25,-455.74,-54.25,1.346452,78.24,0
23252,1,21422,0,49930,52789,50372.86,52824.18,-442.86,-35.18,1.346452,78.24,0
23292,1,21462,0,49943,52806,50372.00,52824.14,-429.00,-18.14,1.346452,78.24,0
23332,1,21502,0,49952,52822,50371.16,52824.14,-419.16,-2.14,1.346452,78.24,0
23372,1,21542,0,49965,52835,50370.34,52824.16,-405.34,10.84,1.346452,78.24,0
23412,1,21582,0,49978,52847,50369.56,52824.21,-391.56,22.79,1.346452,78.24,0
23452,1,21622,0,49986,52858,50368.79,52824.28,-382.79,33.72,1.346452,78.24,0
23492,1,21662,0,50004,52878,50368.07,52824.39,-364.07,53.61,1.346452,78.24,0
23532,1,21702,0,50011,52860,50367.36,52824.46,-356.36,35.54,1.346452,78.24,0
23572,1,21742,0,49995,52785,50366.61,52824.38,-371.61,-39.38,1.346452,78.24,0
23612,1,21782,0,49965,52724,50365.81,52824.18,-400.81,-100.18,1.346452,78.24,0
23652,1,21822,0,49962,52710,50365.01,52823.96,-403.01,-113.96,1.346452,78.24,0
23692,1,21862,0,49977,52708,50364.23,52823.73,-387.23,-115.73,1.346452,78.24,0
23732,1,21902,0,49988,52698,50363.48,52823.48,-375.48,-125.48,1.346452,78.24,0
23772,1,21942,0,49999,52698,50362.76,52823.23,-363.76,-125.23,1.346452,78.24,0
23812,1,21982,0,50013,52712,50362.06,52823.00,-349.06,-111.00,1.346452,78.24,0
23852,1,22022,0,50027,52719,50361.39,52822.80,-334.39,-103.80,1.346452,78.24,0
23892,1,22062,0,50040,52722,50360.75,52822.60,-320.75,-100.60,1.346452,78.24,0
23933,1,22103,0,50054,52721,50360.14,52822.39,-306.14,-101.39,1.346452,78.24,0
23973,1,22143,0,50064,52729,50359.55,52822.21,-295.55,-93.21,1.346452,78.24,0
24013,1,22183,0,50079,52740,50358.99,52822.05,-279.99,-82.05,1.346452,78.24,0
24053,1,22223,0,50094,52763,50358.46,52821.93,-264.46,-58.93,1.346452,78.24,0
24093,1,22263,0,50111,52781,50357.97,52821.85,-246.97,-40.85,1.346452,78.24,0
24133,1,22303,0,50119,52790,50357.49,52821.79,-238.49,-31.79,1.346452,78.24,0
24173,1,22343,0,50133,52804,50357.04,52821.75,-224.04,-17.75,1.346452,78.24,0
24213,1,22383,0,50148,52807,50356.62,52821.72,-208.62,-14.72,1.346452,78.24,0
24253,1,22423,0,50157,52826,50356.23,52821.73,-199.23,4.27,1.346452,78.24,0
24293,1,22463,0,50172,52834,50355.86,52821.76,-183.86,12.24,1.346452,78.24,0
24333,1,22503,0,50172,52792,50355.49,52821.70,-183.49,-29.70,1.346452,78.24,0
24373,1,22543,0,50146,52703,50355.07,52821.47,-209.07,-118.47,1.346452,78.24,0
24413,1,22583,0,50126,52646,50354.62,52821.12,-228.62,-175.12,1.346452,78.24,0
24453,1,22623,0,50137,52640,50354.18,52820.76,-217.18,-180.76,1.346452,78.24,0
24493,1,22663,0,50156,52633,50353.79,52820.39,-197.79,-187.39,1.346452,78.24,0
24533,1,22703,0,50168,52628,50353.42,52820.00,-185.42,-192.00,1.346452,78.24,0
24573,1,22743,0,50187,52637,50353.09,52819.64,-166.09,-182.64,1.346452,78.24,0
24613,1,22783,0,50207,52654,50352.80,52819.31,-145.80,-165.31,1.346452,78.24,0
24653,1,22823,0,50221,52659,50352.54,52818.99,-131.54,-159.99,1.346452,78.24,0
24693,1,22863,0,50239,52669,50352.31,52818.70,-113.31,-149.70,1.346452,78.24,0
24733,1,22903,0,50261,52670,50352.13,52818.40,-91.13,-148.40,1.346452,78.24,0
24773,1,22943,0,50276,52683,50351.98,52818.13,-75.98,-135.13,1.346452,78.24,0
24813,1,22983,0,50292,52698,50351.86,52817.89,-59.86,-119.89,1.346452,78.24,0
24853,1,23023,0,50304,52716,50351.77,52817.69,-47.77,-101.69,1.346452,78.24,0
24893,1,23063,0,50324,52733,50351.71,52817.52,-27.71,-84.52,1.346452,78.24,0
24933,1,23103,0,50334,52749,50351.68,52817.38,-17.68,-68.38,1.346452,78.24,0
24974,1,23144,0,50353,52758,50351.68,52817.27,1.32,-59.27,1.346452,78.24,0
25014,1,23184,0,50363,52770,50351.70,52817.17,11.30,-47.17,1.346452,78.24,0
25054,1,23224,0,50374,52795,50351.75,52817.13,22.25,-22.13,1.346452,78.24,0
25094,1,23264,0,50394,52817,50351.84,52817.13,42.16,-0.13,1.346452,78.24,0
25134,1,23304,0,50397,52786,50351.93,52817.07,45.07,-31.07,1.346452,78.24,0
25174,1,23344,0,50376,52696,50351.98,52816.82,24.02,-120.82,1.346452,78.24,0
25214,1,23384,0,50358,52653,50351.99,52816.50,6.01,-163.50,1.346452,78.24,0
25254,1,23424,0,50366,52663,50352.02,52816.19,13.98,-153.19,1.346452,78.24,0
25294,1,23464,0,50385,52662,50352.09,52815.88,32.91,-153.88,1.346452,78.24,0
25334,1,23504,0,50394,52678,50352.17,52815.61,41.83,-137.61,1.346452,78.24,0
25374,1,23544,0,50413,52692,50352.29,52815.36,60.71,-123.36,1.346452,78.24,0
25414,1,23584,0,50431,52707,50352.45,52815.15,78.55,-108.15,1.346452,78.24,0
25454,1,23624,0,50449,52707,50352.65,52814.93,96.35,-107.93,1.346452,78.24,0
25494,1,23664,0,50457,52714,50352.86,52814.73,104.14,-100.73,1.346452,78.24,0
25534,1,23704,0,50464,52714,50353.08,52814.54,110.92,-100.54,1.346452,78.24,0
25574,1,23744,0,50473,52721,50353.32,52814.35,119.68,-93.35,1.346452,78.24,0
25614,1,23784,0,50473,52723,50353.57,52814.17,119.43,-91.17,1.346452,78.24,0
25654,1,23824,0,50479,52726,50353.82,52813.99,125.18,-87.99,1.346452,78.24,0
25694,1,23864,0,50478,52717,50354.07,52813.80,123.93,-96.80,1.346452,78.24,0
25734,1,23904,0,50480,52709,50354.32,52813.59,125.68,-104.59,1.346452,78.24,0
25774,1,23944,0,50478,52711,50354.57,52813.39,123.43,-102.39,1.346452,78.24,0
25814,1,23984,0,50480,52706,50354.83,52813.18,125.17,-107.18,1.346452,78.24,0
25854,1,24024,0,50473,52707,50355.07,52812.96,117.93,-105.96,1.346452,78.24,0
25894,1,24064,0,50473,52694,50355.30,52812.73,117.70,-118.73,1.346452,78.24,0
25934,1,24104,0,50452,52608,50355.50,52812.32,96.50,-204.32,1.346452,78.24,0
25975,1,24145,0,50412,52542,50355.61,52811.78,56.39,-269.78,1.346452,78.24,0
26015,1,24185,0,50399,52522,50355.70,52811.20,43.30,-289.20,1.346452,78.24,0
26055,1,24225,0,50392,52508,50355.78,52810.60,36.22,-302.60,1.346452,78.24,0
26095,1,24265,0,50391,52507,50355.85,52809.99,35.15,-302.99,1.346452,78.24,0
26135,1,24305,0,50387,52507,50355.91,52809.39,31.09,-302.39,1.346452,78.24,0
26175,1,24345,0,50392,52514,50355.98,52808.80,36.02,-294.80,1.346452,78.24,0
26215,1,24385,0,50400,52505,50356.07,52808.19,43.93,-303.19,1.346452,78.24,0
26255,1,24425,0,50402,52515,50356.17,52807.61,45.83,-292.61,1.346452,78.24,0
26295,1,24465,0,50401,52518,50356.26,52807.03,44.74,-289.03,1.346452,78.24,0
26335,1,24505,0,50404,52533,50356.36,52806.48,47.64,-273.48,1.346452,78.24,0
26375,1,24545,0,50415,52549,50356.47,52805.97,58.53,-256.97,1.346452,78.24,0
26415,1,24585,0,50421,52555,50356.60,52805.47,64.40,-250.47,1.346452,78.24,0
26455,1,24625,0,50426,52559,50356.74,52804.98,69.26,-245.98,1.346452,78.24,0
26495,1,24665,0,50425,52554,50356.88,52804.48,68.12,-250.48,1.346452,78.24,0
26535,1,24705,0,50421,52543,50357.01,52803.95,63.99,-260.95,1.346452,78.24,0
26575,1,24745,0,50416,52551,50357.13,52803.45,58.87,-252.45,1.346452,78.24,0
26615,1,24785,0,50410,52539,50357.23,52802.92,52.77,-263.92,1.346452,78.24,0
26655,1,24825,0,50398,52492,50357.32,52802.30,40.68,-310.30,1.346452,78.24,0
26695,1,24865,0,50368,52439,50357.34,52801.57,10.66,-362.57,1.350053,78.18,1
26735,1,24905,0,50352,52418,50357.33,52800.81,-5.33,-382.81,1.353423,78.12,1
26775,1,24945,0,50346,52416,50357.31,52800.04,-11.31,-384.04,1.356580,78.06,1
26815,1,24985,0,50342,52410,50357.28,52799.26,-15.28,-389.26,1.359531,78.00,1
26855,1,25025,0,50339,52419,50357.25,52798.50,-18.25,-379.50,1.362301,77.94,1
26895,1,25065,0,50344,52419,50357.22,52797.75,-13.22,-378.75,1.364900,77.87,1
26936,1,25106,0,50343,52421,50357.20,52796.99,-14.20,-375.99,1.367341,77.81,1
26976,1,25146,0,50342,52420,50357.17,52796.24,-15.17,-376.24,1.369632,77.75,1
27016,1,25186,0,50341,52431,50357.14,52795.51,-16.14,-364.51,1.371790,77.69,1
27056,1,25226,0,50337,52440,50357.10,52794.80,-20.10,-354.80,1.373827,77.63,1
27096,1,25266,0,50341,52458,50357.07,52794.12,-16.07,-336.12,1.375760,77.57,1
27136,1,25306,0,50345,52461,50357.04,52793.46,-12.04,-332.46,1.377594,77.51,1
27176,1,25346,0,50345,52473,50357.02,52792.82,-12.02,-319.82,1.379339,77.45,1
27216,1,25386,0,50352,52480,50357.01,52792.20,-5.01,-312.20,1.381003,77.39,1
27256,1,25426,0,50351,52499,50357.00,52791.61,-6.00,-292.61,1.382596,77.33,1
27296,1,25466,0,50355,52509,50357.00,52791.05,-2.00,-282.05,1.384125,77.27,1
27336,1,25506,0,50352,52494,50356.99,52790.45,-4.99,-296.45,1.385584,77.21,1
27376,1,25546,0,50338,52449,50356.95,52789.77,-18.95,-340.77,1.386957,77.16,1
27416,1,25586,0,50323,52425,50356.89,52789.05,-33.89,-364.05,1.388235,77.10,1
27456,1,25626,0,50314,52412,50356.80,52788.29,-42.80,-376.29,1.389416,77.05,1
27496,1,25666,0,50309,52413,50356.71,52787.54,-47.71,-374.54,1.390506,76.99,1
27536,1,25706,0,50307,52417,50356.61,52786.80,-49.61,-369.80,1.391510,76.94,1
27576,1,25746,0,50309,52424,50356.52,52786.08,-47.52,-362.08,1.392434,76.89,1
27616,1,25786,0,50309,52434,50356.42,52785.38,-47.42,-351.38,1.393287,76.84,1
27656,1,25826,0,50315,52435,50356.34,52784.68,-41.34,-349.68,1.394069,76.78,1
27696,1,25866,0,50312,52434,50356.25,52783.98,-44.25,-349.98,1.394785,76.73,1
27736,1,25906,0,50310,52440,50356.16,52783.29,-46.16,-343.29,1.395437,76.69,1
27776,1,25946,0,50309,52441,50356.07,52782.61,-47.07,-341.61,1.396030,76.64,1
27816,1,25986,0,50305,52445,50355.97,52781.93,-50.97,-336.93,1.396565,76.59,1
27856,1,26026,0,50303,52456,50355.86,52781.28,-52.86,-325.28,1.397048,76.55,1
27897,1,26067,0,50304,52463,50355.76,52780.64,-51.76,-317.64,1.397483,76.50,1
27937,1,26107,0,50303,52462,50355.66,52780.01,-52.66,-318.01,1.397871,76.46,1
27977,1,26147,0,50305,52477,50355.55,52779.40,-50.55,-302.40,1.398216,76.42,1
28017,1,26187,0,50300,52477,50355.45,52778.80,-55.45,-301.80,1.398521,76.37,1
28057,1,26227,0,50292,52459,50355.32,52778.16,-63.32,-319.16,1.398781,76.33,1
28097,1,26267,0,50271,52413,50355.15,52777.43,-84.15,-364.43,1.398985,76.30,1
28137,1,26307,0,50255,52394,50354.95,52776.67,-99.95,-382.67,1.399130,76.26,1
28177,1,26347,0,50247,52395,50354.74,52775.91,-107.74,-380.91,1.399219,76.22,1
28217,1,26387,0,50244,52388,50354.52,52775.13,-110.52,-387.13,1.399252,76.18,1
28257,1,26427,0,50241,52394,50354.29,52774.37,-113.29,-380.37,1.399233,76.15,1
28297,1,26467,0,50242,52403,50354.07,52773.63,-112.07,-370.63,1.399166,76.12,1
28337,1,26507,0,50245,52416,50353.85,52772.91,-108.85,-356.91,1.399055,76.08,1
28377,1,26547,0,50253,52420,50353.65,52772.21,-100.65,-352.21,1.398904,76.05,1
28417,1,26587,0,50254,52429,50353.45,52771.53,-99.45,-342.53,1.398714,76.02,1
28457,1,26627,0,50259,52443,50353.27,52770.87,-94.27,-327.87,1.398491,75.99,1
28497,1,26667,0,50263,52449,50353.09,52770.23,-90.09,-321.23,1.398236,75.96,1
28537,1,26707,0,50259,52466,50352.90,52769.62,-93.90,-303.62,1.397953,75.93,1
28577,1,26747,0,50261,52476,50352.71,52769.04,-91.71,-293.04,1.397644,75.91,1
28617,1,26787,0,50267,52478,50352.54,52768.46,-85.54,-290.46,1.397311,75.88,1
28657,1,26827,0,50269,52483,50352.38,52767.89,-83.38,-284.89,1.396955,75.86,1
28697,1,26867,0,50265,52490,50352.21,52767.33,-87.21,-277.33,1.396578,75.84,1
28737,1,26907,0,50264,52510,50352.03,52766.82,-88.03,-256.82,1.396182,75.81,1
28777,1,26947,0,50261,52494,50351.85,52766.28,-90.85,-272.28,1.395766,75.79,1
28817,1,26987,0,50247,52458,50351.64,52765.66,-104.64,-307.66,1.395325,75.77,1
28858,1,27028,0,50227,52431,50351.40,52765.00,-124.40,-334.00,1.394855,75.75,1
28898,1,27068,0,50217,52424,50351.13,52764.32,-134.13,-340.32,1.394356,75.73,1
28938,1,27108,0,50212,52416,50350.86,52763.62,-138.86,-347.62,1.393826,75.72,1
28978,1,27148,0,50201,52410,50350.56,52762.91,-149.56,-352.91,1.393268,75.70,1
29018,1,27188,0,50199,52433,50350.26,52762.25,-151.26,-329.25,1.392685,75.69,1
29058,1,27228,0,50211,52433,50349.98,52761.60,-138.98,-328.60,1.392078,75.67,1
29098,1,27268,0,50207,52444,50349.70,52760.96,-142.70,-316.96,1.391449,75.66,1
29138,1,27308,0,50209,52450,50349.41,52760.34,-140.41,-310.34,1.390801,75.64,1
29178,1,27348,0,50210,52460,50349.14,52759.75,-139.14,-299.75,1.390134,75.63,1
29218,1,27388,0,50208,52469,50348.86,52759.16,-140.86,-290.16,1.389451,75.62,1
29258,1,27428,0,50210,52479,50348.58,52758.61,-138.58,-279.61,1.388754,75.61,1
29298,1,27468,0,50218,52481,50348.32,52758.05,-130.32,-277.05,1.388042,75.60,1
29338,1,27508,0,50216,52489,50348.05,52757.52,-132.05,-268.52,1.387317,75.59,1
29378,1,27548,0,50214,52495,50347.79,52756.99,-133.79,-261.99,1.386580,75.59,1
29418,1,27588,0,50215,52502,50347.52,52756.48,-132.52,-254.48,1.385833,75.58,1
29458,1,27628,0,50215,52517,50347.26,52756.01,-132.26,-239.01,1.385076,75.57,1
29498,1,27668,0,50218,52534,50347.00,52755.57,-129.00,-221.57,1.384313,75.57,1
29538,1,27708,0,50217,52519,50346.74,52755.09,-129.74,-236.09,1.383542,75.56,1
29578,1,27748,0,50203,52482,50346.46,52754.55,-143.46,-272.55,1.382759,75.56,1
29618,1,27788,0,50181,52459,50346.13,52753.96,-165.13,-294.96,1.381961,75.56,1
29658,1,27828,0,50172,52452,50345.78,52753.36,-173.78,-301.36,1.381150,75.55,1
29698,1,27868,0,50158,52439,50345.41,52752.73,-187.41,-313.73,1.380324,75.55,1
29738,1,27908,0,50154,52446,50345.02,52752.12,-191.02,-306.12,1.379486,75.55,1
29778,1,27948,0,50155,52454,50344.64,52751.52,-189.64,-297.52,1.378636,75.55,1
29819,1,27989,0,50157,52464,50344.27,52750.95,-187.27,-286.95,1.377777,75.55,1
29859,1,28029,0,50159,52468,50343.90,52750.38,-184.90,-282.38,1.376909,75.55,1
29899,1,28069,0,50156,52476,50343.52,52749.84,-187.52,-273.84,1.376032,75.55,1
29939,1,28109,0,50154,52484,50343.14,52749.30,-189.14,-265.30,1.375150,75.55,1
29979,1,28149,0,50156,52499,50342.77,52748.80,-186.77,-249.80,1.374263,75.56,1
30019,1,28189,0,50155,52501,50342.40,52748.31,-187.40,-247.31,1.373372,75.56,1
30059,1,28229,0,50156,52509,50342.03,52747.83,-186.03,-238.83,1.372477,75.56,1
30099,1,28269,0,50150,52520,50341.64,52747.38,-191.64,-227.38,1.371582,75.57,1
30139,1,28309,0,50147,52533,50341.26,52746.95,-194.26,-213.95,1.370686,75.57,1
30179,1,28349,0,50152,52550,50340.88,52746.56,-188.88,-196.56,1.369793,75.58,1
30219,1,28389,0,50153,52560,50340.50,52746.19,-187.50,-186.19,1.368901,75.58,1
30259,1,28429,0,50159,52560,50340.14,52745.82,-181.14,-185.82,1.368012,75.59,1
30299,1,28469,0,50152,52534,50339.77,52745.40,-187.77,-211.40,1.367122,75.60,1
30339,1,28509,0,50132,52501,50339.35,52744.91,-207.35,-243.91,1.366231,75.61,1
30379,1,28549,0,50116,52486,50338.91,52744.39,-222.91,-258.39,1.365338,75.61,1
30419,1,28589,0,50105,52481,50338.44,52743.87,-233.44,-262.87,1.364443,75.62,1
30459,1,28629,0,50095,52474,50337.96,52743.33,-242.96,-269.33,1.363547,75.63,1
30499,1,28669,0,50089,52477,50337.46,52742.80,-248.46,-265.80,1.362651,75.64,1
30539,1,28709,0,50090,52480,50336.97,52742.27,-246.97,-262.27,1.361756,75.65,1
30579,1,28749,0,50085,52490,50336.46,52741.77,-251.46,-251.77,1.360862,75.66,1
30619,1,28789,0,50080,52495,50335.95,52741.28,-255.95,-246.28,1.359972,75.67,1
30659,1,28829,0,50077,52503,50335.44,52740.80,-258.44,-237.80,1.359087,75.68,1
30699,1,28869,0,50075,52510,50334.92,52740.34,-259.92,-230.34,1.358207,75.69,1
30740,1,28910,0,50071,52514,50334.39,52739.89,-263.39,-225.89,1.357334,75.70,1
30780,1,28950,0,50070,52522,50333.86,52739.45,-263.86,-217.45,1.356469,75.71,1
30820,1,28990,0,50065,52535,50333.33,52739.05,-268.33,-204.05,1.355613,75.73,1
30860,1,29030,0,50061,52546,50332.79,52738.66,-271.79,-192.66,1.354767,75.74,1
30900,1,29070,0,50058,52556,50332.24,52738.30,-274.24,-182.30,1.353934,75.75,1
30940,1,29110,0,50061,52559,50331.70,52737.95,-270.70,-178.95,1.353113,75.76,1
30980,1,29150,0,50059,52569,50331.15,52737.61,-272.15,-168.61,1.352305,75.78,1
31020,1,29190,0,50060,52580,50330.61,52737.30,-270.61,-157.30,1.351510,75.79,1
31060,1,29230,0,50050,52572,50330.05,52736.97,-280.05,-164.97,1.350729,75.80,1
31100,1,29270,0,50033,52538,50329.46,52736.57,-296.46,-198.57,1.349962,75.82,1
31140,1,29310,0,50017,52523,50328.84,52736.14,-311.84,-213.14,1.349208,75.83,1
31180,1,29350,0,50015,52513,50328.21,52735.70,-313.21,-222.70,1.348467,75.84,1
31220,1,29390,0,50006,52502,50327.57,52735.23,-321.57,-233.23,1.347739,75.86,1
31260,1,29430,0,50000,52502,50326.91,52734.77,-326.91,-232.77,1.347024,75.87,1
31300,1,29470,0,49987,52496,50326.23,52734.29,-339.23,-238.29,1.346323,75.88,1
31340,1,29510,0,49984,52505,50325.55,52733.84,-341.55,-228.84,1.345638,75.90,1
31380,1,29550,0,49978,52504,50324.86,52733.38,-346.86,-229.38,1.344970,75.91,1
31420,1,29590,0,49969,52504,50324.14,52732.92,-355.14,-228.92,1.344319,75.93,1
31460,1,29630,0,49970,52506,50323.44,52732.47,-353.44,-226.47,1.343685,75.94,1
31500,1,29670,0,49964,52512,50322.72,52732.03,-358.72,-220.03,1.343071,75.96,1
31540,1,29710,0,49959,52515,50321.99,52731.59,-362.99,-216.59,1.342476,75.97,1
31580,1,29750,0,49950,52512,50321.25,52731.16,-371.25,-219.16,1.341901,75.99,1
31620,1,29790,0,49944,52518,50320.50,52730.73,-376.50,-212.73,1.341349,76.00,1
31661,1,29831,0,49942,52515,50319.74,52730.30,-377.74,-215.30,1.340818,76.01,1
31701,1,29871,0,49939,52525,50318.98,52729.89,-379.98,-204.89,1.340310,76.03,1
31741,1,29911,0,49932,52532,50318.21,52729.50,-386.21,-197.50,1.339827,76.04,1
31781,1,29951,0,49926,52547,50317.43,52729.13,-391.43,-182.13,1.339371,76.06,1
31821,1,29991,0,49924,52556,50316.64,52728.79,-392.64,-172.79,1.338943,76.07,1
31861,1,30031,0,49919,52533,50315.85,52728.40,-396.85,-195.40,1.338542,76.09,1
31901,1,30071,0,49900,52491,50315.02,52727.93,-415.02,-236.93,1.338163,76.10,1
31941,1,30111,0,49880,52476,50314.15,52727.42,-434.15,-251.42,1.337809,76.11,1
31981,1,30151,0,49874,52474,50313.27,52726.92,-439.27,-252.92,1.337480,76.13,1
32021,1,30191,0,49861,52467,50312.37,52726.40,-451.37,-259.40,1.337177,76.14,1
32061,1,30231,0,49860,52465,50311.46,52725.88,-451.46,-260.88,1.336899,76.15,1
32101,1,30271,0,49857,52470,50310.56,52725.37,-453.56,-255.37,1.336647,76.17,1
32141,1,30311,0,49858,52474,50309.66,52724.87,-451.66,-250.87,1.336420,76.18,1
32181,1,30351,0,49858,52474,50308.75,52724.37,-450.75,-250.37,1.336218,76.19,1
32221,1,30391,0,49846,52471,50307.83,52723.86,-461.83,-252.86,1.336043,76.20,1
32261,1,30431,0,49847,52481,50306.91,52723.38,-459.91,-242.38,1.335895,76.21,1
32301,1,30471,0,49839,52483,50305.97,52722.90,-466.97,-239.90,1.335775,76.23,1
32341,1,30511,0,49843,52497,50305.05,52722.45,-462.05,-225.45,1.335684,76.24,1
32381,1,30551,0,49842,52502,50304.12,52722.01,-462.12,-220.01,1.335622,76.25,1
32421,1,30591,0,49837,52503,50303.19,52721.57,-466.19,-218.57,1.335590,76.26,1
32461,1,30631,0,49835,52512,50302.25,52721.15,-467.25,-209.15,1.335589,76.27,1
32501,1,30671,0,49833,52523,50301.32,52720.76,-468.32,-197.76,1.335620,76.28,1
32541,1,30711,0,49831,52531,50300.38,52720.38,-469.38,-189.38,1.335685,76.29,1
32582,1,30752,0,49827,52541,50299.43,52720.02,-472.43,-179.02,1.335784,76.30,1
32622,1,30792,0,49830,52549,50298.50,52719.68,-468.50,-170.68,1.335917,76.31,1
32662,1,30832,0,49821,52526,50297.54,52719.30,-476.54,-193.30,1.336083,76.32,1
32702,1,30872,0,49803,52495,50296.55,52718.85,-493.55,-223.85,1.336280,76.33,1
32742,1,30912,0,49782,52494,50295.53,52718.40,-513.53,-224.40,1.336511,76.33,1
32782,1,30952,0,49780,52493,50294.50,52717.95,-514.50,-224.95,1.336776,76.34,1
32822,1,30992,0,49778,52491,50293.46,52717.50,-515.46,-226.50,1.337074,76.35,1
32862,1,31032,0,49775,52496,50292.43,52717.06,-517.43,-221.06,1.337406,76.35,1
32902,1,31072,0,49771,52502,50291.39,52716.63,-520.39,-214.63,1.337772,76.36,1
32942,1,31112,0,49768,52510,50290.34,52716.22,-522.34,-206.22,1.338175,76.37,1
32982,1,31152,0,49772,52514,50289.30,52715.82,-517.30,-201.82,1.338613,76.37,1
33022,1,31192,0,49765,52522,50288.26,52715.43,-523.26,-193.43,1.339087,76.38,1
33062,1,31232,0,49764,52518,50287.21,52715.04,-523.21,-197.04,1.339598,76.38,1
33102,1,31272,0,49763,52522,50286.16,52714.65,-523.16,-192.65,1.340144,76.38,1
33142,1,31312,0,49763,52528,50285.12,52714.28,-522.12,-186.28,1.340727,76.39,1
33182,1,31352,0,49759,52527,50284.07,52713.91,-525.07,-186.91,1.341346,76.39,1
33222,1,31392,0,49755,52538,50283.01,52713.55,-528.01,-175.55,1.342004,76.39,1
33262,1,31432,0,49751,52542,50281.95,52713.21,-530.95,-171.21,1.342700,76.39,1
33302,1,31472,0,49750,52543,50280.88,52712.87,-530.88,-169.87,1.343434,76.39,1
33342,1,31512,0,49747,52549,50279.82,52712.55,-532.82,-163.55,1.344208,76.39,1
33382,1,31552,0,49746,52558,50278.75,52712.24,-532.75,-154.24,1.345022,76.39,1
33422,1,31592,0,49744,52558,50277.68,52711.93,-533.68,-153.93,1.345875,76.39,1
33462,1,31632,0,49724,52529,50276.58,52711.57,-552.58,-182.57,1.346768,76.39,1
33502,1,31672,0,49707,52502,50275.44,52711.15,-568.44,-209.15,1.347698,76.39,1
33543,1,31713,0,49700,52507,50274.29,52710.74,-574.29,-203.74,1.348666,76.38,1
33583,1,31753,0,49700,52518,50273.14,52710.36,-573.14,-192.36,1.349674,76.38,1
33623,1,31793,0,49697,52519,50271.99,52709.98,-574.99,-190.98,1.350721,76.38,1
33663,1,31833,0,49691,52532,50270.83,52709.62,-579.83,-177.62,1.351811,76.37,1
33703,1,31873,0,49689,52540,50269.67,52709.29,-580.67,-169.29,1.352944,76.36,1
33743,1,31913,0,49692,52546,50268.52,52708.96,-576.52,-162.96,1.354120,76.36,1
33783,1,31953,0,49691,52550,50267.36,52708.64,-576.36,-158.64,1.355339,76.35,1
33823,1,31993,0,49693,52563,50266.21,52708.36,-573.21,-145.36,1.356602,76.34,1
33863,1,32033,0,49697,52579,50265.08,52708.10,-568.08,-129.10,1.357910,76.33,1
33903,1,32073,0,49693,52588,50263.93,52707.86,-570.93,-119.86,1.359264,76.32,1
33943,1,32113,0,49691,52599,50262.79,52707.64,-571.79,-108.64,1.360666,76.31,1
33983,1,32153,0,49697,52607,50261.66,52707.45,-564.66,-100.45,1.362114,76.30,1
34023,1,32193,0,49697,52617,50260.53,52707.27,-563.53,-90.27,1.363609,76.29,1
34063,1,32233,0,49698,52621,50259.41,52707.09,-561.41,-86.09,1.365151,76.28,1
34103,1,32273,0,49696,52629,50258.28,52706.94,-562.28,-77.94,1.366741,76.27,1
34143,1,32313,0,49694,52632,50257.15,52706.79,-563.15,-74.79,1.368378,76.25,1
34183,1,32353,0,49688,52618,50256.02,52706.61,-568.02,-88.61,1.370062,76.24,1
34223,1,32393,0,49673,52591,50254.85,52706.38,-581.85,-115.38,1.371793,76.22,1
34263,1,32433,0,49658,52579,50253.66,52706.13,-595.66,-127.13,1.373570,76.20,1
34303,1,32473,0,49655,52582,50252.46,52705.88,-597.46,-123.88,1.375396,76.19,1
34343,1,32513,0,49642,52567,50251.25,52705.61,-609.25,-138.61,1.377268,76.17,1
34383,1,32553,0,49631,52564,50250.01,52705.32,-619.01,-141.32,1.379189,76.15,1
34423,1,32593,0,49625,52562,50248.76,52705.04,-623.76,-143.04,1.381158,76.13,1
34463,1,32633,0,49616,52558,50247.49,52704.75,-631.49,-146.75,1.383176,76.11,1
34504,1,32674,0,49609,52550,50246.21,52704.44,-637.21,-154.44,1.385243,76.08,1
34544,1,32714,0,49605,52554,50244.93,52704.14,-639.93,-150.14,1.387357,76.06,1
34584,1,32754,0,49599,52558,50243.64,52703.85,-644.64,-145.85,1.389523,76.04,1
34624,1,32794,0,49588,52565,50242.34,52703.57,-654.34,-138.57,1.391741,76.01,1
34664,1,32834,0,49587,52572,50241.03,52703.31,-654.03,-131.31,1.394013,75.99,1
34704,1,32874,0,49586,52577,50239.72,52703.06,-653.72,-126.06,1.396339,75.96,1
34744,1,32914,0,49584,52582,50238.41,52702.82,-654.41,-120.82,1.398719,75.93,1
34784,1,32954,0,49584,52593,50237.10,52702.60,-653.10,-109.60,1.401156,75.90,1
34824,1,32994,0,49581,52608,50235.79,52702.41,-654.79,-94.41,1.403650,75.87,1
34864,1,33034,0,49588,52613,50234.50,52702.23,-646.50,-89.23,1.406202,75.84,1
34904,1,33074,0,49582,52603,50233.19,52702.04,-651.19,-99.04,1.408808,75.81,1
34944,1,33114,0,49569,52579,50231.86,52701.79,-662.86,-122.79,1.411469,75.78,1
34984,1,33154,0,49560,52571,50230.52,52701.53,-670.52,-130.53,1.414183,75.74,1
35024,1,33194,0,49563,52577,50229.19,52701.29,-666.19,-124.29,1.416950,75.71,1
35064,1,33234,0,49555,52571,50227.84,52701.03,-672.84,-130.03,1.419770,75.67,1
35104,1,33274,0,49548,52569,50226.48,52700.77,-678.48,-131.77,1.422643,75.64,1
35144,1,33314,0,49541,52572,50225.11,52700.51,-684.11,-128.51,1.425571,75.60,1
35184,1,33354,0,49535,52572,50223.73,52700.25,-688.73,-128.25,1.428553,75.56,1
35224,1,33394,0,49533,52567,50222.35,52699.99,-689.35,-132.99,1.431590,75.52,1
35264,1,33434,0,49530,52572,50220.97,52699.73,-690.97,-127.73,1.434681,75.48,1
35304,1,33474,0,49529,52577,50219.59,52699.49,-690.59,-122.49,1.437827,75.43,1
35344,1,33514,0,49528,52588,50218.20,52699.27,-690.20,-111.27,1.441029,75.39,1
35384,1,33554,0,49522,52595,50216.81,52699.06,-694.81,-104.06,1.444291,75.34,1
35424,1,33594,0,49519,52605,50215.42,52698.87,-696.42,-93.87,1.447613,75.30,1
35465,1,33635,0,49518,52611,50214.02,52698.70,-696.02,-87.70,1.450997,75.25,1
35505,1,33675,0,49515,52620,50212.62,52698.54,-697.62,-78.54,1.454444,75.20,1
35545,1,33715,0,49516,52627,50211.23,52698.40,-695.23,-71.40,1.454444,75.20,0
35585,1,33755,0,49516,52639,50209.84,52698.29,-693.84,-59.29,1.454444,75.20,0
35625,1,33795,0,49511,52643,50208.45,52698.18,-697.45,-55.18,1.454444,75.20,0
35665,1,33835,0,49501,52619,50207.04,52698.02,-706.04,-79.02,1.454444,75.20,0
35705,1,33875,0,49486,52595,50205.59,52697.82,-719.59,-102.82,1.454444,75.20,0
35745,1,33915,0,49480,52594,50204.14,52697.61,-724.14,-103.61,1.454444,75.20,0
35785,1,33955,0,49475,52599,50202.69,52697.41,-727.69,-98.41,1.454444,75.20,0
35825,1,33995,0,49473,52599,50201.23,52697.22,-728.23,-98.22,1.454444,75.20,0
35865,1,34035,0,49467,52607,50199.76,52697.04,-732.76,-90.04,1.454444,75.20,0
35905,1,34075,0,49467,52615,50198.30,52696.87,-731.30,-81.87,1.454444,75.20,0
35945,1,34115,0,49472,52618,50196.84,52696.72,-724.84,-78.72,1.454444,75.20,0
35985,1,34155,0,49472,52628,50195.39,52696.58,-723.39,-68.58,1.454444,75.20,0
36025,1,34195,0,49478,52633,50193.96,52696.46,-715.96,-63.46,1.454444,75.20,0
36065,1,34235,0,49472,52642,50192.52,52696.35,-720.52,-54.35,1.454444,75.20,0
36105,1,34275,0,49474,52656,50191.08,52696.27,-717.08,-40.27,1.454444,75.20,0
36145,1,34315,0,49469,52668,50189.64,52696.21,-720.64,-28.21,1.454444,75.20,0
36185,1,34355,0,49473,52677,50188.21,52696.18,-715.21,-19.18,1.454444,75.20,0
36225,1,34395,0,49470,52685,50186.77,52696.16,-716.77,-11.16,1.454444,75.20,0
36265,1,34435,0,49471,52691,50185.34,52696.15,-714.34,-5.15,1.454444,75.20,0
36305,1,34475,0,49472,52700,50183.92,52696.16,-711.92,3.84,1.454444,75.20,0
36345,1,34515,0,49470,52714,50182.49,52696.20,-712.49,17.80,1.454444,75.20,0
36385,1,34555,0,49470,52722,50181.07,52696.25,-711.07,25.75,1.454444,75.20,0
36425,1,34595,0,49458,52697,50179.62,52696.25,-721.62,0.75,1.454444,75.20,0
36466,1,34636,0,49449,52666,50178.16,52696.20,-729.16,-30.20,1.454444,75.20,0
36506,1,34676,0,49432,52657,50176.67,52696.12,-744.67,-39.12,1.454444,75.20,0
36546,1,34716,0,49425,52653,50175.17,52696.03,-750.17,-43.03,1.454444,75.20,0
36586,1,34756,0,49422,52653,50173.66,52695.95,-751.66,-42.95,1.454444,75.20,0
36626,1,34796,0,49416,52657,50172.15,52695.87,-756.15,-38.87,1.454444,75.20,0
36666,1,34836,0,49421,52669,50170.65,52695.82,-749.65,-26.82,1.454444,75.20,0
36706,1,34876,0,49421,52680,50169.15,52695.79,-748.15,-15.79,1.454444,75.20,0
36746,1,34916,0,49423,52688,50167.66,52695.77,-744.66,-7.77,1.454444,75.20,0
36786,1,34956,0,49424,52698,50166.18,52695.77,-742.18,2.23,1.454444,75.20,0
36826,1,34996,0,49426,52711,50164.70,52695.80,-738.70,15.20,1.454444,75.20,0
36866,1,35036,0,49432,52729,50163.23,52695.87,-731.23,33.13,1.454444,75.20,0
36906,1,35076,0,49438,52740,50161.78,52695.96,-723.78,44.04,1.454444,75.20,0
36946,1,35116,0,49444,52746,50160.35,52696.06,-716.35,49.94,1.454444,75.20,0
36986,1,35156,0,49447,52760,50158.92,52696.19,-711.92,63.81,1.454444,75.20,0
37026,1,35196,0,49447,52766,50157.50,52696.33,-710.50,69.67,1.454444,75.20,0
37066,1,35236,0,49448,52781,50156.08,52696.50,-708.08,84.50,1.454444,75.20,0
37106,1,35276,0,49445,52789,50154.66,52696.69,-709.66,92.31,1.454444,75.20,0
37146,1,35316,0,49448,52790,50153.25,52696.88,-705.25,93.12,1.454444,75.20,0
37186,1,35356,0,49447,52782,50151.84,52697.05,-704.84,84.95,1.454444,75.20,0
37226,1,35396,0,49425,52721,50150.39,52697.10,-725.39,23.90,1.454444,75.20,0
37266,1,35436,0,49404,52694,50148.89,52697.10,-744.89,-3.10,1.454444,75.20,0
37306,1,35476,0,49395,52680,50147.39,52697.07,-752.39,-17.07,1.454444,75.20,0
37346,1,35516,0,49383,52673,50145.86,52697.02,-762.86,-24.02,1.454444,75.20,0
37386,1,35556,0,49381,52667,50144.33,52696.96,-763.33,-29.96,1.454444,75.20,0
37427,1,35597,0,49381,52671,50142.81,52696.91,-761.81,-25.91,1.454444,75.20,0
37467,1,35637,0,49382,52670,50141.29,52696.86,-759.29,-26.86,1.454444,75.20,0
37507,1,35677,0,49378,52672,50139.77,52696.81,-761.77,-24.81,1.454444,75.20,0
37547,1,35717,0,49374,52669,50138.23,52696.76,-764.23,-27.76,1.454444,75.20,0
37587,1,35757,0,49379,52685,50136.72,52696.73,-757.72,-11.73,1.454444,75.20,0
37627,1,35797,0,49382,52689,50135.21,52696.72,-753.21,-7.72,1.454444,75.20,0
37667,1,35837,0,49390,52695,50133.72,52696.71,-743.72,-1.71,1.454444,75.20,0
37707,1,35877,0,49395,52708,50132.25,52696.74,-737.25,11.26,1.454444,75.20,0
37747,1,35917,0,49392,52713,50130.77,52696.77,-738.77,16.23,1.454444,75.20,0
37787,1,35957,0,49392,52723,50129.29,52696.83,-737.29,26.17,1.454444,75.20,0
37827,1,35997,0,49397,52732,50127.82,52696.90,-730.82,35.10,1.454444,75.20,0
37867,1,36037,0,49408,52744,50126.39,52696.99,-718.39,47.01,1.454444,75.20,0
37907,1,36077,0,49414,52754,50124.96,52697.11,-710.96,56.89,1.454444,75.20,0
37947,1,36117,0,49421,52755,50123.56,52697.23,-702.56,57.77,1.454444,75.20,0
37987,1,36157,0,49408,52708,50122.13,52697.25,-714.13,10.75,1.454444,75.20,0
38027,1,36197,0,49389,52668,50120.66,52697.19,-731.66,-29.19,1.454444,75.20,0
38067,1,36237,0,49382,52672,50119.19,52697.14,-737.19,-25.14,1.454444,75.20,0
38107,1,36277,0,49393,52667,50117.74,52697.08,-724.74,-30.08,1.454444,75.20,0
38147,1,36317,0,49395,52666,50116.29,52697.02,-721.29,-31.02,1.454444,75.20,0
38187,1,36357,0,49404,52667,50114.87,52696.96,-710.87,-29.96,1.454444,75.20,0
38227,1,36397,0,49404,52675,50113.45,52696.92,-709.45,-21.92,1.454444,75.20,0
38267,1,36437,0,49406,52672,50112.04,52696.87,-706.04,-24.87,1.454444,75.20,0
38307,1,36477,0,49411,52670,50110.63,52696.82,-699.63,-26.82,1.454444,75.20,0
38347,1,36517,0,49414,52675,50109.24,52696.78,-695.24,-21.78,1.454444,75.20,0
38388,1,36558,0,49419,52683,50107.86,52696.75,-688.86,-13.75,1.454444,75.20,0
38428,1,36598,0,49428,52687,50106.50,52696.73,-678.50,-9.73,1.454444,75.20,0
38468,1,36638,0,49432,52695,50105.16,52696.73,-673.16,-1.73,1.454444,75.20,0
38508,1,36678,0,49436,52705,50103.82,52696.75,-667.82,8.25,1.454444,75.20,0
38548,1,36718,0,49437,52711,50102.49,52696.78,-665.49,14.22,1.454444,75.20,0
38588,1,36758,0,49441,52713,50101.17,52696.81,-660.17,16.19,1.454444,75.20,0
38628,1,36798,0,49446,52718,50099.86,52696.86,-653.86,21.14,1.454444,75.20,0
38668,1,36838,0,49453,52714,50098.57,52696.89,-645.57,17.11,1.454444,75.20,0
38708,1,36878,0,49443,52659,50097.26,52696.82,-654.26,-37.82,1.454444,75.20,0
38748,1,36918,0,49416,52608,50095.90,52696.64,-679.90,-88.64,1.454444,75.20,0
38788,1,36958,0,49416,52590,50094.54,52696.43,-678.54,-106.43,1.454444,75.20,0
38828,1,36998,0,49423,52585,50093.20,52696.21,-670.20,-111.21,1.454444,75.20,0
38868,1,37038,0,49433,52576,50091.88,52695.97,-658.88,-119.97,1.454444,75.20,0
38908,1,37078,0,49442,52577,50090.58,52695.73,-648.58,-118.73,1.454444,75.20,0
38948,1,37118,0,49454,52572,50089.31,52695.48,-635.31,-123.48,1.454444,75.20,0
38988,1,37158,0,49458,52565,50088.05,52695.23,-630.05,-130.23,1.454444,75.20,0
39028,1,37198,0,49461,52563,50086.79,52694.96,-625.79,-131.96,1.454444,75.20,0
39068,1,37238,0,49471,52570,50085.56,52694.71,-614.56,-124.71,1.454444,75.20,0
39108,1,37278,0,49480,52570,50084.35,52694.46,-604.35,-124.46,1.454444,75.20,0
39148,1,37318,0,49491,52573,50083.17,52694.22,-592.17,-121.22,1.454444,75.20,0
39188,1,37358,0,49501,52584,50082.00,52694.00,-581.00,-110.00,1.454444,75.20,0
39228,1,37398,0,49505,52588,50080.85,52693.79,-575.85,-105.79,1.454444,75.20,0
39268,1,37438,0,49515,52596,50079.72,52693.60,-564.72,-97.60,1.454444,75.20,0
39308,1,37478,0,49523,52604,50078.61,52693.42,-555.61,-89.42,1.454444,75.20,0
39349,1,37519,0,49527,52615,50077.51,52693.26,-550.51,-78.26,1.454444,75.20,0
39389,1,37559,0,49534,52609,50076.42,52693.09,-542.42,-84.09,1.454444,75.20,0
39429,1,37599,0,49530,52559,50075.33,52692.83,-545.33,-133.83,1.454444,75.20,0
39469,1,37639,0,49510,52499,50074.20,52692.44,-564.20,-193.44,1.454444,75.20,0
39509,1,37679,0,49509,52491,50073.07,52692.04,-564.07,-201.04,1.454444,75.20,0
39549,1,37719,0,49526,52494,50071.98,52691.64,-545.98,-197.64,1.454444,75.20,0
39589,1,37759,0,49547,52485,50070.93,52691.23,-523.93,-206.23,1.454444,75.20,0
39629,1,37799,0,49562,52496,50069.92,52690.84,-507.92,-194.84,1.454444,75.20,0
39669,1,37839,0,49579,52507,50068.94,52690.48,-489.94,-183.48,1.454444,75.20,0
39709,1,37879,0,49601,52522,50068.00,52690.14,-467.00,-168.14,1.454444,75.20,0
39749,1,37919,0,49616,52525,50067.10,52689.81,-451.10,-164.81,1.454444,75.20,0
39789,1,37959,0,49638,52537,50066.25,52689.51,-428.25,-152.51,1.454444,75.20,0
39829,1,37999,0,49656,52544,50065.43,52689.22,-409.43,-145.22,1.454444,75.20,0
39869,1,38039,0,49675,52559,50064.64,52688.96,-389.64,-129.96,1.454444,75.20,0
39909,1,38079,0,49689,52567,50063.89,52688.72,-374.89,-121.72,1.454444,75.20,0
39949,1,38119,0,49705,52583,50063.18,52688.51,-358.18,-105.51,1.454444,75.20,0
39989,1,38159,0,49721,52596,50062.50,52688.32,-341.50,-92.32,1.454444,75.20,0
40029,1,38199,0,49733,52610,50061.84,52688.17,-328.84,-78.17,1.454444,75.20,0
40069,1,38239,0,49752,52626,50061.22,52688.05,-309.22,-62.05,1.454444,75.20,0
40109,1,38279,0,49767,52617,50060.64,52687.91,-293.64,-70.91,1.454444,75.20,0
40149,1,38319,0,49757,52550,50060.03,52687.63,-303.03,-137.63,1.454444,75.20,0
40189,1,38359,0,49741,52490,50059.39,52687.24,-318.39,-197.24,1.454444,75.20,0
40229,1,38399,0,49744,52481,50058.77,52686.83,-314.77,-205.83,1.454444,75.20,0
40269,1,38439,0,49760,52473,50058.17,52686.40,-298.17,-213.40,1.454444,75.20,0
40310,1,38480,0,49772,52469,50057.60,52685.97,-285.60,-216.97,1.454444,75.20,0
40350,1,38520,0,49793,52473,50057.07,52685.54,-264.07,-212.54,1.454444,75.20,0
40390,1,38560,0,49811,52483,50056.58,52685.14,-245.58,-202.14,1.454444,75.20,0
40430,1,38600,0,49832,52498,50056.13,52684.77,-224.13,-186.77,1.454444,75.20,0
40470,1,38640,0,49851,52508,50055.72,52684.42,-204.72,-176.42,1.454444,75.20,0
40510,1,38680,0,49872,52524,50055.35,52684.10,-183.35,-160.10,1.454444,75.20,0
40550,1,38720,0,49891,52538,50055.02,52683.81,-164.02,-145.81,1.454444,75.20,0
40590,1,38760,0,49911,52559,50054.74,52683.56,-143.74,-124.56,1.454444,75.20,0
40630,1,38800,0,49932,52578,50054.49,52683.35,-122.49,-105.35,1.454444,75.20,0
40670,1,38840,0,49954,52596,50054.29,52683.18,-100.29,-87.18,1.454444,75.20,0
40710,1,38880,0,49969,52616,50054.12,52683.04,-85.12,-67.04,1.454444,75.20,0
40750,1,38920,0,49986,52627,50053.99,52682.93,-67.99,-55.93,1.454444,75.20,0
40790,1,38960,0,50001,52646,50053.88,52682.86,-52.88,-36.86,1.454444,75.20,0
40830,1,39000,0,50028,52651,50053.83,52682.80,-25.83,-31.80,1.454444,75.20,0
40870,1,39040,0,50023,52597,50053.77,52682.62,-30.77,-85.62,1.454444,75.20,0
40910,1,39080,0,50003,52525,50053.67,52682.31,-50.67,-157.31,1.454444,75.20,0
40950,1,39120,0,49998,52501,50053.56,52681.95,-55.56,-180.95,1.454444,75.20,0
40990,1,39160,0,50008,52495,50053.47,52681.58,-45.47,-186.58,1.454444,75.20,0
41030,1,39200,0,50023,52483,50053.41,52681.19,-30.41,-198.19,1.454444,75.20,0
41070,1,39240,0,50035,52478,50053.38,52680.78,-18.38,-202.78,1.454444,75.20,0
41110,1,39280,0,50049,52483,50053.37,52680.39,-4.37,-197.39,1.454444,75.20,0
41150,1,39320,0,50060,52484,50053.39,52680.00,6.61,-196.00,1.454444,75.20,0
41190,1,39360,0,50066,52476,50053.41,52679.59,12.59,-203.59,1.454444,75.20,0
41230,1,39400,0,50073,52483,50053.45,52679.20,19.55,-196.20,1.454444,75.20,0
41271,1,39441,0,50091,52484,50053.53,52678.81,37.47,-194.81,1.454444,75.20,0
41311,1,39481,0,50101,52490,50053.63,52678.43,47.37,-188.43,1.454444,75.20,0
41351,1,39521,0,50113,52504,50053.75,52678.09,59.25,-174.09,1.454444,75.20,0
41391,1,39561,0,50118,52518,50053.88,52677.77,64.12,-159.77,1.454444,75.20,0
41431,1,39601,0,50129,52524,50054.03,52677.46,74.97,-153.46,1.454444,75.20,0
41471,1,39641,0,50137,52530,50054.20,52677.17,82.80,-147.17,1.454444,75.20,0
41511,1,39681,0,50150,52534,50054.39,52676.88,95.61,-142.88,1.454444,75.20,0
41551,1,39721,0,50160,52550,50054.60,52676.63,105.40,-126.63,1.454444,75.20,0
41591,1,39761,0,50164,52527,50054.82,52676.33,109.18,-149.33,1.454444,75.20,0
41631,1,39801,0,50142,52458,50055.00,52675.90,87.00,-217.90,1.454444,75.20,0
41671,1,39841,0,50125,52415,50055.14,52675.38,69.86,-260.38,1.454444,75.20,0
41711,1,39881,0,50135,52410,50055.30,52674.85,79.70,-264.85,1.454444,75.20,0
41751,1,39921,0,50151,52410,50055.49,52674.32,95.51,-264.32,1.454444,75.20,0
41791,1,39961,0,50163,52405,50055.70,52673.78,107.30,-268.78,1.454444,75.20,0
41831,1,40001,0,50173,52413,50055.94,52673.26,117.06,-260.26,1.454444,75.20,0
41871,1,40041,0,50186,52425,50056.20,52672.77,129.80,-247.77,1.454444,75.20,0
41911,1,40081,0,50194,52420,50056.48,52672.26,137.52,-252.26,1.454444,75.20,0
41951,1,40121,0,50196,52418,50056.76,52671.75,139.24,-253.75,1.454444,75.20,0
41991,1,40161,0,50209,52419,50057.06,52671.25,151.94,-252.25,1.454444,75.20,0
42031,1,40201,0,50217,52423,50057.38,52670.75,159.62,-247.75,1.454444,75.20,0
42071,1,40241,0,50230,52433,50057.73,52670.28,172.27,-237.28,1.454444,75.20,0
42111,1,40281,0,50232,52441,50058.08,52669.82,173.92,-228.82,1.454444,75.20,0
42151,1,40321,0,50240,52446,50058.45,52669.38,181.55,-223.38,1.454444,75.20,0
42192,1,40362,0,50243,52451,50058.82,52668.95,184.18,-217.95,1.454444,75.20,0
42232,1,40402,0,50252,52454,50059.20,52668.52,192.80,-214.52,1.454444,75.20,0
42272,1,40442,0,50256,52464,50059.60,52668.11,196.40,-204.11,1.454444,75.20,0
42312,1,40482,0,50257,52444,50059.99,52667.66,197.01,-223.66,1.454444,75.20,0
42352,1,40522,0,50236,52372,50060.34,52667.07,175.66,-295.07,1.454444,75.20,0
42392,1,40562,0,50209,52320,50060.64,52666.38,148.36,-346.38,1.454444,75.20,0
42432,1,40602,0,50210,52306,50060.94,52665.66,149.06,-359.66,1.454444,75.20,0
42472,1,40642,0,50219,52304,50061.26,52664.94,157.74,-360.94,1.454444,75.20,0
42512,1,40682,0,50218,52301,50061.57,52664.21,156.43,-363.21,1.454444,75.20,0
42552,1,40722,0,50229,52316,50061.91,52663.52,167.09,-347.52,1.454444,75.20,0
42592,1,40762,0,50241,52325,50062.27,52662.84,178.73,-337.84,1.457838,75.15,1
42632,1,40802,0,50251,52328,50062.65,52662.18,188.35,-334.18,1.461102,75.10,1
42672,1,40842,0,50260,52335,50063.04,52661.52,196.96,-326.52,1.464245,75.05,1
42712,1,40882,0,50276,52337,50063.47,52660.87,212.53,-323.87,1.467277,75.00,1
42752,1,40922,0,50280,52346,50063.90,52660.25,216.10,-314.25,1.470206,74.95,1
42792,1,40962,0,50288,52358,50064.35,52659.64,223.65,-301.64,1.473045,74.89,1
42832,1,41002,0,50294,52368,50064.81,52659.06,229.19,-291.06,1.475802,74.84,1
42872,1,41042,0,50300,52375,50065.29,52658.50,234.71,-283.50,1.478484,74.79,1
42912,1,41082,0,50307,52378,50065.77,52657.94,241.23,-279.94,1.481096,74.73,1
42952,1,41122,0,50311,52387,50066.26,52657.40,244.74,-270.40,1.483643,74.68,1
42992,1,41162,0,50322,52403,50066.77,52656.89,255.23,-253.89,1.486137,74.62,1
43032,1,41202,0,50322,52384,50067.29,52656.35,254.71,-272.35,1.488569,74.57,1
43072,1,41242,0,50301,52313,50067.75,52655.66,233.25,-342.66,1.490901,74.51,1
43112,1,41282,0,50275,52265,50068.17,52654.88,206.83,-389.88,1.493107,74.46,1
43153,1,41323,0,50274,52264,50068.58,52654.10,205.42,-390.10,1.495192,74.40,1
43193,1,41363,0,50276,52261,50069.00,52653.32,207.00,-392.32,1.497161,74.35,1
43233,1,41403,0,50282,52267,50069.43,52652.55,212.57,-385.55,1.499022,74.29,1
43273,1,41443,0,50292,52289,50069.87,52651.82,222.13,-362.82,1.500794,74.24,1
43313,1,41483,0,50310,52312,50070.35,52651.14,239.65,-339.14,1.502491,74.18,1
43353,1,41523,0,50322,52328,50070.86,52650.50,251.14,-322.50,1.504124,74.13,1
43393,1,41563,0,50341,52345,50071.40,52649.89,269.60,-304.89,1.505704,74.08,1
43433,1,41603,0,50353,52373,50071.96,52649.34,281.04,-276.34,1.507243,74.02,1
43473,1,41643,0,50368,52405,50072.56,52648.85,295.44,-243.85,1.508754,73.97,1
43513,1,41683,0,50386,52435,50073.19,52648.42,312.81,-213.42,1.510249,73.92,1
43553,1,41723,0,50406,52460,50073.86,52648.05,332.14,-188.05,1.511736,73.87,1
43593,1,41763,0,50421,52481,50074.55,52647.71,346.45,-166.71,1.513222,73.82,1
43633,1,41803,0,50434,52508,50075.27,52647.44,358.73,-139.44,1.514713,73.77,1
43673,1,41843,0,50448,52526,50076.02,52647.20,371.98,-121.20,1.516215,73.72,1
43713,1,41883,0,50459,52553,50076.78,52647.01,382.22,-94.01,1.517732,73.67,1
43753,1,41923,0,50477,52574,50077.58,52646.86,399.42,-72.86,1.519270,73.62,1
43793,1,41963,0,50473,52536,50078.37,52646.64,394.62,-110.64,1.520823,73.57,1
43833,1,42003,0,50449,52476,50079.12,52646.30,369.88,-170.30,1.522376,73.52,1
43873,1,42043,0,50434,52446,50079.83,52645.91,354.17,-199.91,1.523919,73.47,1
43913,1,42083,0,50438,52449,50080.55,52645.52,357.45,-196.52,1.525455,73.42,1
43953,1,42123,0,50438,52435,50081.26,52645.10,356.74,-210.10,1.526979,73.37,1
43993,1,42163,0,50435,52433,50081.97,52644.68,353.03,-211.68,1.528491,73.33,1
44033,1,42203,0,50443,52445,50082.69,52644.28,360.31,-199.28,1.529995,73.28,1
44073,1,42243,0,50453,52456,50083.43,52643.90,369.57,-187.90,1.531495,73.23,1
44114,1,42284,0,50457,52457,50084.18,52643.53,372.82,-186.53,1.532992,73.19,1
44154,1,42324,0,50455,52456,50084.93,52643.16,370.07,-187.16,1.534485,73.14,1
44194,1,42364,0,50462,52463,50085.68,52642.80,376.32,-179.80,1.535978,73.09,1
44234,1,42404,0,50461,52470,50086.43,52642.45,374.57,-172.45,1.537472,73.05,1
44274,1,42444,0,50467,52479,50087.19,52642.13,379.81,-163.13,1.538969,73.00,1
44314,1,42484,0,50467,52488,50087.95,52641.82,379.05,-153.82,1.540471,72.96,1
44354,1,42524,0,50471,52486,50088.72,52641.51,382.28,-155.51,1.541979,72.91,1
44394,1,42564,0,50475,52493,50089.49,52641.21,385.51,-148.21,1.543495,72.87,1
44434,1,42604,0,50479,52500,50090.27,52640.93,388.73,-140.93,1.545020,72.82,1
44474,1,42644,0,50480,52515,50091.05,52640.68,388.95,-125.68,1.546558,72.78,1
44514,1,42684,0,50485,52520,50091.84,52640.45,393.16,-120.45,1.548109,72.73,1
44554,1,42724,0,50488,52499,50092.64,52640.16,395.36,-141.16,1.549670,72.69,1
44594,1,42764,0,50462,52423,50093.37,52639.73,368.62,-216.73,1.551218,72.64,1
44634,1,42804,0,50439,52378,50094.07,52639.21,344.93,-261.21,1.552734,72.60,1
44674,1,42844,0,50431,52369,50094.74,52638.67,336.26,-269.67,1.554215,72.56,1
44714,1,42884,0,50434,52367,50095.42,52638.12,338.58,-271.12,1.555660,72.51,1
44754,1,42924,0,50432,52364,50096.10,52637.58,335.90,-273.58,1.557069,72.47,1
44794,1,42964,0,50436,52382,50096.78,52637.07,339.22,-255.07,1.558451,72.43,1
44834,1,43004,0,50443,52389,50097.47,52636.57,345.53,-247.57,1.559808,72.38,1
44874,1,43044,0,50451,52395,50098.18,52636.09,352.82,-241.09,1.561145,72.34,1
44914,1,43084,0,50453,52394,50098.89,52635.61,354.11,-241.61,1.562461,72.30,1
44954,1,43124,0,50456,52404,50099.61,52635.14,356.39,-231.14,1.563761,72.26,1
44994,1,43164,0,50465,52413,50100.34,52634.70,364.66,-221.70,1.565049,72.22,1
45034,1,43204,0,50466,52422,50101.07,52634.28,364.93,-212.28,1.566327,72.18,1
45074,1,43244,0,50471,52437,50101.81,52633.88,369.19,-196.88,1.567600,72.13,1
45115,1,43285,0,50482,52449,50102.57,52633.52,379.43,-184.52,1.568874,72.09,1
45155,1,43325,0,50485,52460,50103.34,52633.17,381.66,-173.17,1.570151,72.05,1
45195,1,43365,0,50488,52460,50104.11,52632.83,383.89,-172.83,1.571432,72.01,1
45235,1,43405,0,50489,52479,50104.88,52632.52,384.12,-153.52,1.572720,71.97,1
45275,1,43445,0,50493,52490,50105.66,52632.24,387.34,-142.24,1.574018,71.93,1
45315,1,43485,0,50492,52465,50106.43,52631.91,385.57,-166.91,1.575322,71.89,1
45355,1,43525,0,50461,52388,50107.14,52631.42,353.86,-243.42,1.576604,71.85,1
45395,1,43565,0,50438,52360,50107.80,52630.87,330.20,-270.87,1.577853,71.82,1
45435,1,43605,0,50440,52356,50108.47,52630.33,331.53,-274.33,1.579067,71.78,1
45475,1,43645,0,50438,52358,50109.13,52629.79,328.87,-271.79,1.580249,71.74,1
45515,1,43685,0,50439,52362,50109.79,52629.25,329.21,-267.25,1.581400,71.70,1
45555,1,43725,0,50454,52382,50110.48,52628.76,343.52,-246.76,1.582530,71.66,1
45595,1,43765,0,50465,52393,50111.19,52628.29,353.81,-235.29,1.583643,71.62,1
45635,1,43805,0,50480,52403,50111.93,52627.84,368.07,-224.84,1.584746,71.59,1
45675,1,43845,0,50484,52411,50112.68,52627.41,371.32,-216.41,1.585841,71.55,1
45715,1,43885,0,50490,52418,50113.43,52626.99,376.57,-208.99,1.586930,71.51,1
45755,1,43925,0,50495,52434,50114.20,52626.61,380.80,-192.61,1.588020,71.48,1
45795,1,43965,0,50503,52453,50114.98,52626.26,388.02,-173.26,1.589115,71.44,1
45835,1,44005,0,50511,52466,50115.77,52625.94,395.23,-159.94,1.590219,71.41,1
45875,1,44045,0,50520,52479,50116.58,52625.64,403.42,-146.64,1.591337,71.37,1
45915,1,44085,0,50529,52486,50117.40,52625.37,411.60,-139.37,1.592470,71.33,1
45955,1,44125,0,50527,52493,50118.22,52625.11,408.78,-132.11,1.593620,71.30,1
45995,1,44165,0,50533,52512,50119.05,52624.88,413.95,-112.88,1.594791,71.26,1
46035,1,44205,0,50533,52516,50119.88,52624.66,413.12,-108.66,1.595983,71.23,1
46075,1,44245,0,50540,52541,50120.72,52624.50,419.28,-83.50,1.597199,71.19,1
46115,1,44285,0,50548,52541,50121.58,52624.34,426.42,-83.34,1.598443,71.16,1
46156,1,44326,0,50531,52476,50122.40,52624.04,408.60,-148.04,1.599699,71.13,1
46196,1,44366,0,50502,52423,50123.16,52623.64,378.84,-200.64,1.600950,71.09,1
46236,1,44406,0,50492,52422,50123.90,52623.23,368.10,-201.23,1.602195,71.06,1
46276,1,44446,0,50503,52443,50124.66,52622.87,378.34,-179.87,1.603441,71.02,1
46316,1,44486,0,50507,52445,50125.42,52622.52,381.58,-177.52,1.604688,70.99,1
46356,1,44526,0,50515,52468,50126.20,52622.21,388.80,-154.21,1.605944,70.95,1
46396,1,44566,0,50544,52496,50127.04,52621.96,416.96,-125.96,1.607218,70.92,1
46436,1,44606,0,50557,52532,50127.90,52621.78,429.10,-89.78,1.608518,70.89,1
46476,1,44646,0,50573,52555,50128.79,52621.65,444.21,-66.65,1.609850,70.85,1
46516,1,44686,0,50582,52586,50129.70,52621.58,452.30,-35.58,1.611218,70.82,1
46556,1,44726,0,50605,52613,50130.65,52621.56,474.35,-8.56,1.612625,70.78,1
46596,1,44766,0,50622,52648,50131.63,52621.62,490.37,26.38,1.614076,70.75,1
46636,1,44806,0,50645,52677,50132.66,52621.73,512.34,55.27,1.615571,70.72,1
46676,1,44846,0,50659,52704,50133.71,52621.89,525.29,82.11,1.617112,70.68,1
46716,1,44886,0,50673,52732,50134.79,52622.12,538.21,109.88,1.618695,70.65,1
46756,1,44926,0,50686,52757,50135.90,52622.39,550.10,134.61,1.620319,70.61,1
46796,1,44966,0,50699,52789,50137.03,52622.72,561.97,166.28,1.621977,70.58,1
46836,1,45006,0,50708,52812,50138.17,52623.10,569.83,188.90,1.623664,70.54,1
46876,1,45046,0,50726,52839,50139.35,52623.54,586.65,215.46,1.625374,70.51,1
46916,1,45086,0,50738,52871,50140.55,52624.03,597.45,246.97,1.627096,70.47,1
46956,1,45126,0,50751,52882,50141.77,52624.55,609.23,257.45,1.628828,70.44,1
46996,1,45166,0,50750,52852,50142.99,52625.00,607.01,227.00,1.630581,70.40,1
47036,1,45206,0,50726,52792,50144.16,52625.34,581.84,166.66,1.632370,70.36,1
47076,1,45246,0,50703,52777,50145.27,52625.64,557.73,151.36,1.634193,70.33,1
47116,1,45286,0,50707,52785,50146.40,52625.96,560.60,159.04,1.636048,70.29,1
47157,1,45327,0,50712,52781,50147.53,52626.28,564.47,154.72,1.637937,70.25,1
47197,1,45367,0,50717,52794,50148.67,52626.61,568.33,167.39,1.639857,70.22,1
47237,1,45407,0,50728,52825,50149.83,52627.01,578.17,197.99,1.641798,70.18,1
47277,1,45447,0,50738,52854,50151.01,52627.47,586.99,226.53,1.643753,70.14,1
47317,1,45487,0,50751,52873,50152.21,52627.96,598.79,245.04,1.645714,70.10,1
47357,1,45527,0,50762,52898,50153.43,52628.50,608.57,269.50,1.647674,70.06,1
47397,1,45567,0,50777,52919,50154.68,52629.09,622.32,289.91,1.649625,70.02,1
47437,1,45607,0,50789,52949,50155.95,52629.73,633.05,319.27,1.651554,69.98,1
47477,1,45647,0,50796,52976,50157.23,52630.42,638.77,345.58,1.653449,69.94,1
47517,1,45687,0,50807,53000,50158.54,52631.16,648.46,368.84,1.655300,69.90,1
47557,1,45727,0,50820,53019,50159.86,52631.94,660.14,387.06,1.657100,69.86,1
47597,1,45767,0,50829,53039,50161.20,52632.76,667.80,406.24,1.658842,69.82,1
47637,1,45807,0,50840,53044,50162.56,52633.58,677.44,410.42,1.660529,69.78,1
47677,1,45847,0,50842,53048,50163.92,52634.41,678.08,413.59,1.662162,69.74,1
47717,1,45887,0,50846,53055,50165.29,52635.26,680.71,419.74,1.663741,69.70,1
47757,1,45927,0,50842,53065,50166.64,52636.12,675.36,428.88,1.665262,69.66,1
47797,1,45967,0,50844,53069,50168.00,52636.98,676.00,432.02,1.666728,69.62,1
47837,1,46007,0,50834,53015,50169.33,52637.74,664.67,377.26,1.668165,69.58,1
47877,1,46047,0,50797,52939,50170.59,52638.35,626.41,300.65,1.669601,69.54,1
47917,1,46087,0,50770,52912,50171.79,52638.89,598.21,273.11,1.671038,69.50,1
47957,1,46127,0,50768,52900,50172.98,52639.42,595.02,260.58,1.672481,69.47,1
47997,1,46167,0,50761,52898,50174.16,52639.94,586.84,258.06,1.673930,69.43,1
48037,1,46207,0,50760,52896,50175.33,52640.45,584.67,255.55,1.675383,69.39,1
48077,1,46247,0,50756,52892,50176.49,52640.95,579.51,251.05,1.676842,69.35,1
48118,1,46288,0,50757,52887,50177.66,52641.45,579.34,245.55,1.678308,69.31,1
48158,1,46328,0,50751,52869,50178.80,52641.90,572.20,227.10,1.679785,69.27,1
48198,1,46368,0,50741,52868,50179.93,52642.36,561.07,225.64,1.681271,69.23,1
48238,1,46408,0,50735,52861,50181.04,52642.79,553.96,218.21,1.682767,69.19,1
48278,1,46448,0,50730,52857,50182.14,52643.22,547.86,213.78,1.684274,69.15,1
48318,1,46488,0,50727,52857,50183.23,52643.65,543.77,213.35,1.685790,69.11,1
48358,1,46528,0,50728,52863,50184.32,52644.09,543.68,218.91,1.687313,69.07,1
48398,1,46568,0,50733,52870,50185.42,52644.55,547.58,225.45,1.688843,69.04,1
48438,1,46608,0,50730,52881,50186.51,52645.02,543.49,235.98,1.690376,69.00,1
48478,1,46648,0,50728,52887,50187.59,52645.50,540.41,241.50,1.691909,68.96,1
48518,1,46688,0,50731,52900,50188.68,52646.02,542.32,253.98,1.693439,68.92,1
48558,1,46728,0,50741,52912,50189.79,52646.55,551.21,265.45,1.694963,68.88,1
48598,1,46768,0,50742,52900,50190.89,52647.06,551.11,252.94,1.696486,68.84,1
48638,1,46808,0,50726,52832,50191.96,52647.43,534.04,184.57,1.698023,68.80,1
48678,1,46848,0,50694,52780,50192.97,52647.70,501.03,132.30,1.699579,68.76,1
48718,1,46888,0,50677,52770,50193.94,52647.94,483.06,122.06,1.701155,68.73,1
48758,1,46928,0,50675,52771,50194.90,52648.19,480.10,122.81,1.702749,68.69,1
48798,1,46968,0,50672,52773,50195.86,52648.44,476.14,124.56,1.704361,68.65,1
48838,1,47008,0,50679,52785,50196.83,52648.71,482.17,136.29,1.705989,68.61,1
48878,1,47048,0,50683,52785,50197.80,52648.98,485.20,136.02,1.707634,68.57,1
48918,1,47088,0,50684,52785,50198.77,52649.26,485.23,135.74,1.709295,68.53,1
48958,1,47128,0,50678,52788,50199.73,52649.54,478.27,138.46,1.710972,68.49,1
48998,1,47168,0,50677,52789,50200.69,52649.82,476.31,139.18,1.712663,68.45,1
49039,1,47209,0,50679,52796,50201.65,52650.11,477.35,145.89,1.714368,68.41,1
49079,1,47249,0,50679,52798,50202.61,52650.41,476.39,147.59,1.716086,68.37,1
49119,1,47289,0,50682,52810,50203.57,52650.73,478.43,159.27,1.717814,68.33,1
49159,1,47329,0,50678,52822,50204.52,52651.07,473.48,170.93,1.719549,68.29,1
49199,1,47369,0,50681,52831,50205.47,52651.43,475.53,179.57,1.721290,68.25,1
49239,1,47409,0,50684,52833,50206.43,52651.79,477.57,181.21,1.723036,68.21,1
49279,1,47449,0,50689,52841,50207.39,52652.17,481.61,188.83,1.724785,68.17,1
49319,1,47489,0,50689,52846,50208.36,52652.56,480.64,193.44,1.726536,68.13,1
49359,1,47529,0,50678,52795,50209.30,52652.85,468.70,142.15,1.728300,68.09,1
49399,1,47569,0,50643,52731,50210.16,52653.00,432.84,78.00,1.730083,68.05,1
49439,1,47609,0,50626,52709,50211.00,52653.12,415.00,55.88,1.731883,68.01,1
49479,1,47649,0,50622,52697,50211.82,52653.21,410.18,43.79,1.733702,67.97,1
49519,1,47689,0,50616,52696,50212.63,52653.29,403.37,42.71,1.735538,67.93,1
49559,1,47729,0,50626,52694,50213.46,52653.37,412.54,40.63,1.737394,67.89,1
49599,1,47769,0,50627,52707,50214.29,52653.48,412.71,53.52,1.739268,67.85,1
49639,1,47809,0,50631,52717,50215.12,52653.61,415.88,63.39,1.741160,67.81,1
49679,1,47849,0,50634,52718,50215.96,52653.74,418.04,64.26,1.743071,67.77,1
49719,1,47889,0,50634,52722,50216.80,52653.88,417.20,68.12,1.744998,67.72,1
49759,1,47929,0,50644,52726,50217.65,52654.02,426.35,71.98,1.746945,67.68,1
49799,1,47969,0,50643,52740,50218.50,52654.20,424.50,85.80,1.748908,67.64,1
49839,1,48009,0,50645,52749,50219.36,52654.39,425.64,94.61,1.750886,67.60,1
49879,1,48049,0,50650,52761,50220.22,52654.60,429.78,106.40,1.752878,67.56,1
49919,1,48089,0,50648,52769,50221.08,52654.83,426.92,114.17,1.754882,67.51,1
49959,1,48129,0,50650,52779,50221.94,52655.08,428.06,123.92,1.756897,67.47,1
50000,1,48170,0,50654,52785,50222.80,52655.34,431.20,129.66,1.758921,67.43,1
50040,1,48210,0,50657,52799,50223.68,52655.63,433.32,143.37,1.760951,67.38,1
50080,1,48250,0,50655,52778,50224.54,52655.88,430.46,122.12,1.762992,67.34,1
50120,1,48290,0,50630,52705,50225.35,52655.98,404.65,49.02,1.765052,67.30,1
50160,1,48330,0,50594,52658,50226.09,52655.98,367.91,2.02,1.767128,67.25,1
50200,1,48370,0,50590,52659,50226.82,52655.99,363.18,3.01,1.769219,67.21,1
50240,1,48410,0,50596,52656,50227.56,52655.99,368.44,0.01,1.771327,67.16,1
50280,1,48450,0,50596,52663,50228.30,52656.00,367.70,7.00,1.773450,67.12,1
50320,1,48490,0,50601,52680,50229.04,52656.05,371.96,23.95,1.775591,67.07,1
50360,1,48530,0,50612,52698,50229.81,52656.14,382.19,41.86,1.777748,67.03,1
50400,1,48570,0,50622,52714,50230.59,52656.26,391.41,57.74,1.779922,66.98,1
50440,1,48610,0,50631,52723,50231.39,52656.39,399.61,66.61,1.782112,66.93,1
50480,1,48650,0,50644,52736,50232.22,52656.55,411.78,79.45,1.784319,66.89,1
50520,1,48690,0,50651,52747,50233.06,52656.74,417.94,90.26,1.786542,66.84,1
50560,1,48730,0,50660,52765,50233.92,52656.96,426.08,108.04,1.788777,66.79,1
50600,1,48770,0,50667,52789,50234.79,52657.22,432.21,131.78,1.791021,66.75,1
50640,1,48810,0,50675,52808,50235.67,52657.53,439.33,150.47,1.793269,66.70,1
50680,1,48850,0,50684,52824,50236.57,52657.86,447.43,166.14,1.795517,66.65,1
50720,1,48890,0,50685,52829,50237.46,52658.21,447.54,170.79,1.797763,66.60,1
50760,1,48930,0,50695,52848,50238.38,52658.59,456.62,189.41,1.800002,66.56,1
50800,1,48970,0,50704,52858,50239.32,52658.99,464.68,199.01,1.802230,66.51,1
50840,1,49010,0,50691,52827,50240.22,52659.32,450.78,167.68,1.804459,66.46,1
50880,1,49050,0,50663,52755,50241.07,52659.52,421.93,95.48,1.806703,66.41,1
50920,1,49090,0,50631,52717,50241.85,52659.63,389.15,57.37,1.808964,66.36,1
50961,1,49131,0,50632,52716,50242.63,52659.75,389.37,56.25,1.811242,66.31,1
51001,1,49171,0,50633,52712,50243.41,52659.85,389.59,52.15,1.813537,66.26,1
51041,1,49211,0,50630,52719,50244.19,52659.97,385.81,59.03,1.815849,66.21,1
51081,1,49251,0,50639,52737,50244.98,52660.13,394.02,76.87,1.818175,66.16,1
51121,1,49291,0,50645,52746,50245.78,52660.30,399.22,85.70,1.820516,66.11,1
51161,1,49331,0,50652,52749,50246.59,52660.48,405.41,88.52,1.820516,66.11,0
51201,1,49371,0,50656,52753,50247.41,52660.67,408.59,92.33,1.820516,66.11,0
51241,1,49411,0,50659,52767,50248.23,52660.88,410.77,106.12,1.820516,66.11,0
51281,1,49451,0,50656,52777,50249.05,52661.12,406.95,115.88,1.820516,66.11,0
51321,1,49491,0,50666,52792,50249.89,52661.38,416.11,130.62,1.820516,66.11,0
51361,1,49531,0,50667,52798,50250.72,52661.65,416.28,136.35,1.820516,66.11,0
51401,1,49571,0,50673,52808,50251.57,52661.95,421.43,146.05,1.820516,66.11,0
51441,1,49611,0,50677,52805,50252.42,52662.23,424.58,142.77,1.820516,66.11,0
51481,1,49651,0,50678,52810,50253.27,52662.53,424.73,147.47,1.820516,66.11,0
51521,1,49691,0,50670,52805,50254.11,52662.82,415.89,142.18,1.820516,66.11,0
51561,1,49731,0,50669,52816,50254.94,52663.12,414.06,152.87,1.820516,66.11,0
51601,1,49771,0,50666,52785,50255.77,52663.37,410.23,121.63,1.820516,66.11,0
51641,1,49811,0,50637,52705,50256.53,52663.46,380.47,41.54,1.820516,66.11,0
51681,1,49851,0,50604,52671,50257.23,52663.47,346.77,7.53,1.820516,66.11,0
51721,1,49891,0,50598,52664,50257.91,52663.48,340.09,0.52,1.820516,66.11,0
51761,1,49931,0,50591,52660,50258.58,52663.47,332.42,-3.47,1.820516,66.11,0
51801,1,49971,0,50588,52660,50259.24,52663.47,328.76,-3.47,1.820516,66.11,0
51842,1,50012,0,50589,52663,50259.90,52663.47,329.10,-0.47,1.820516,66.11,0
51882,1,50052,0,50585,52663,50260.55,52663.47,324.45,-0.47,1.820516,66.11,0
51922,1,50092,0,50583,52662,50261.20,52663.47,321.80,-1.47,1.820516,66.11,0
51962,1,50132,0,50587,52666,50261.85,52663.48,325.15,2.52,1.820516,66.11,0
52002,1,50172,0,50582,52673,50262.49,52663.50,319.51,9.50,1.820516,66.11,0
52042,1,50212,0,50585,52687,50263.13,52663.54,321.87,23.46,1.820516,66.11,0
52082,1,50252,0,50594,52694,50263.80,52663.61,330.20,30.39,1.820516,66.11,0
52122,1,50292,0,50598,52713,50264.46,52663.71,333.54,49.29,1.820516,66.11,0
52162,1,50332,0,50598,52714,50265.13,52663.81,332.87,50.19,1.820516,66.11,0
52202,1,50372,0,50599,52732,50265.80,52663.95,333.20,68.05,1.820516,66.11,0
52242,1,50412,0,50600,52747,50266.47,52664.11,333.53,82.89,1.820516,66.11,0
52282,1,50452,0,50615,52755,50267.17,52664.30,347.83,90.70,1.820516,66.11,0
52322,1,50492,0,50613,52753,50267.86,52664.48,345.14,88.52,1.820516,66.11,0
52362,1,50532,0,50601,52694,50268.53,52664.54,332.47,29.46,1.820516,66.11,0
52402,1,50572,0,50569,52649,50269.13,52664.50,299.87,-15.50,1.820516,66.11,0
52442,1,50612,0,50561,52648,50269.71,52664.47,291.29,-16.47,1.820516,66.11,0
52482,1,50652,0,50554,52648,50270.29,52664.44,283.71,-16.44,1.820516,66.11,0
52522,1,50692,0,50557,52649,50270.86,52664.41,286.14,-15.41,1.820516,66.11,0
52562,1,50732,0,50559,52653,50271.44,52664.39,287.56,-11.39,1.820516,66.11,0
52602,1,50772,0,50561,52659,50272.02,52664.38,288.98,-5.38,1.820516,66.11,0
52642,1,50812,0,50563,52666,50272.60,52664.39,290.40,1.61,1.820516,66.11,0
52682,1,50852,0,50556,52664,50273.17,52664.39,282.83,-0.39,1.820516,66.11,0
52722,1,50892,0,50554,52674,50273.73,52664.41,280.27,9.59,1.820516,66.11,0
52763,1,50933,0,50558,52684,50274.30,52664.45,283.70,19.55,1.820516,66.11,0
52803,1,50973,0,50560,52690,50274.87,52664.50,285.12,25.50,1.820516,66.11,0
52843,1,51013,0,50563,52715,50275.45,52664.60,287.55,50.40,1.820516,66.11,0
52883,1,51053,0,50567,52719,50276.04,52664.71,290.96,54.29,1.820516,66.11,0
52923,1,51093,0,50565,52736,50276.62,52664.85,288.38,71.15,1.820516,66.11,0
52963,1,51133,0,50574,52753,50277.21,52665.03,296.79,87.97,1.820516,66.11,0
53003,1,51173,0,50581,52766,50277.82,52665.23,303.18,100.77,1.820516,66.11,0
53043,1,51213,0,50586,52783,50278.44,52665.47,307.56,117.53,1.820516,66.11,0
53083,1,51253,0,50581,52767,50279.05,52665.67,301.95,101.33,1.820516,66.11,0
53123,1,51293,0,50561,52715,50279.61,52665.77,281.39,49.23,1.820516,66.11,0
53163,1,51333,0,50541,52686,50280.14,52665.82,260.86,20.18,1.820516,66.11,0
53203,1,51373,0,50534,52686,50280.64,52665.86,253.36,20.14,1.820516,66.11,0
53243,1,51413,0,50536,52686,50281.16,52665.90,254.84,20.10,1.820516,66.11,0
53283,1,51453,0,50539,52687,50281.67,52665.95,257.33,21.05,1.820516,66.11,0
53323,1,51493,0,50541,52700,50282.19,52666.02,258.81,33.98,1.820516,66.11,0
53363,1,51533,0,50548,52720,50282.72,52666.12,265.28,53.88,1.820516,66.11,0
53403,1,51573,0,50556,52733,50283.27,52666.26,272.73,66.74,1.820516,66.11,0
53443,1,51613,0,50558,52742,50283.82,52666.41,274.18,75.59,1.820516,66.11,0
53483,1,51653,0,50564,52757,50284.38,52666.60,279.62,90.40,1.820516,66.11,0
53523,1,51693,0,50572,52772,50284.96,52666.81,287.04,105.19,1.820516,66.11,0
53563,1,51733,0,50581,52791,50285.55,52667.06,295.45,123.94,1.820516,66.11,0
53603,1,51773,0,50586,52809,50286.16,52667.34,299.84,141.66,1.820516,66.11,0
53643,1,51813,0,50590,52822,50286.77,52667.66,303.23,154.34,1.820516,66.11,0
53683,1,51853,0,50592,52839,50287.38,52668.00,304.62,171.00,1.820516,66.11,0
53724,1,51894,0,50597,52856,50288.00,52668.38,309.00,187.62,1.820516,66.11,0
53764,1,51934,0,50599,52871,50288.62,52668.79,310.37,202.21,1.820516,66.11,0
53804,1,51974,0,50614,52897,50289.28,52669.24,324.72,227.76,1.820516,66.11,0
53844,1,52014,0,50610,52886,50289.92,52669.68,320.08,216.32,1.820516,66.11,0
53884,1,52054,0,50588,52841,50290.52,52670.02,297.48,170.98,1.820516,66.11,0
53924,1,52094,0,50563,52810,50291.07,52670.30,271.93,139.70,1.820516,66.11,0
53964,1,52134,0,50558,52802,50291.60,52670.57,266.40,131.43,1.820516,66.11,0
54004,1,52174,0,50563,52805,50292.14,52670.84,270.86,134.16,1.820516,66.11,0
54044,1,52214,0,50562,52814,50292.68,52671.12,269.32,142.87,1.820516,66.11,0
54084,1,52254,0,50564,52829,50293.23,52671.44,270.77,157.56,1.820516,66.11,0
54124,1,52294,0,50577,52850,50293.80,52671.80,283.20,178.20,1.820516,66.11,0
54164,1,52334,0,50587,52869,50294.38,52672.20,292.62,196.80,1.820516,66.11,0
54204,1,52374,0,50599,52892,50294.99,52672.64,304.01,219.36,1.820516,66.11,0
54244,1,52414,0,50612,52908,50295.63,52673.11,316.37,234.89,1.820516,66.11,0
54284,1,52454,0,50617,52920,50296.27,52673.61,320.73,246.39,1.820516,66.11,0
54324,1,52494,0,50626,52934,50296.93,52674.13,329.07,259.87,1.820516,66.11,0
54364,1,52534,0,50631,52941,50297.60,52674.66,333.40,266.34,1.822850,66.06,1
54404,1,52574,0,50628,52948,50298.26,52675.21,329.74,272.79,1.825088,66.01,1
54444,1,52614,0,50630,52955,50298.93,52675.77,331.07,279.23,1.827227,65.96,1
54484,1,52654,0,50630,52954,50299.59,52676.33,330.41,277.67,1.829272,65.91,1
54524,1,52694,0,50628,52951,50300.25,52676.88,327.75,274.12,1.831229,65.86,1
54564,1,52734,0,50620,52950,50300.89,52677.43,319.11,272.57,1.833102,65.81,1
54604,1,52774,0,50619,52950,50301.52,52677.98,317.48,272.02,1.834894,65.76,1
54644,1,52814,0,50604,52910,50302.13,52678.44,301.87,231.56,1.836631,65.71,1
54684,1,52854,0,50566,52827,50302.66,52678.74,263.34,148.26,1.838351,65.66,1
54725,1,52895,0,50535,52781,50303.12,52678.95,231.88,102.05,1.840065,65.61,1
54765,1,52935,0,50524,52768,50303.56,52679.12,220.44,88.87,1.841776,65.56,1
54805,1,52975,0,50516,52763,50303.99,52679.29,212.01,83.71,1.843484,65.51,1
54845,1,53015,0,50517,52763,50304.41,52679.46,212.59,83.54,1.845189,65.46,1
54885,1,53055,0,50509,52774,50304.82,52679.65,204.18,94.35,1.846887,65.41,1
54925,1,53095,0,50521,52777,50305.26,52679.85,215.74,97.15,1.848579,65.36,1
54965,1,53135,0,50519,52780,50305.69,52680.05,213.31,99.95,1.850265,65.31,1
55005,1,53175,0,50523,52786,50306.12,52680.27,216.87,105.73,1.851941,65.27,1
55045,1,53215,0,50530,52798,50306.57,52680.50,223.43,117.50,1.853607,65.22,1
55085,1,53255,0,50535,52821,50307.03,52680.79,227.97,140.21,1.855254,65.17,1
55125,1,53295,0,50540,52834,50307.50,52681.09,232.50,152.91,1.856877,65.12,1
55165,1,53335,0,50547,52852,50307.98,52681.44,239.02,170.56,1.858471,65.07,1
55205,1,53375,0,50558,52872,50308.48,52681.82,249.52,190.18,1.860025,65.03,1
55245,1,53415,0,50567,52876,50309.00,52682.21,258.00,193.79,1.861542,64.98,1
55285,1,53455,0,50575,52887,50309.54,52682.62,265.46,204.38,1.863016,64.93,1
55325,1,53495,0,50575,52900,50310.07,52683.06,264.93,216.94,1.864440,64.89,1
55365,1,53535,0,50581,52915,50310.61,52683.52,270.39,231.48,1.865809,64.84,1
55405,1,53575,0,50579,52886,50311.15,52683.93,267.85,202.07,1.867140,64.80,1
55445,1,53615,0,50551,52821,50311.63,52684.21,239.37,136.79,1.868458,64.75,1
55485,1,53655,0,50531,52798,50312.07,52684.44,218.93,113.56,1.869768,64.71,1
55525,1,53695,0,50537,52802,50312.52,52684.68,224.48,117.32,1.871069,64.66,1
55565,1,53735,0,50535,52802,50312.96,52684.91,222.04,117.09,1.872362,64.62,1
55605,1,53775,0,50540,52812,50313.42,52685.16,226.58,126.84,1.873644,64.57,1
55645,1,53815,0,50547,52819,50313.89,52685.43,233.11,133.57,1.874913,64.53,1
55685,1,53855,0,50551,52827,50314.37,52685.72,236.63,141.28,1.876168,64.49,1
55726,1,53896,0,50556,52828,50314.85,52686.00,241.15,142.00,1.877408,64.44,1
55766,1,53936,0,50554,52839,50315.33,52686.31,238.67,152.69,1.878629,64.40,1
55806,1,53976,0,50566,52853,50315.84,52686.65,250.16,166.35,1.879827,64.36,1
55846,1,54016,0,50572,52872,50316.35,52687.02,255.65,184.98,1.880995,64.32,1
55886,1,54056,0,50577,52891,50316.87,52687.43,260.13,203.57,1.882124,64.28,1
55926,1,54096,0,50586,52909,50317.41,52687.87,268.59,221.12,1.883207,64.24,1
55966,1,54136,0,50591,52921,50317.96,52688.34,273.04,232.66,1.884239,64.20,1
56006,1,54176,0,50607,52946,50318.54,52688.86,288.46,257.14,1.885209,64.16,1
56046,1,54216,0,50621,52971,50319.14,52689.43,301.86,281.57,1.886105,64.12,1
56086,1,54256,0,50628,52999,50319.76,52690.05,308.24,308.95,1.886912,64.08,1
56126,1,54296,0,50641,53005,50320.40,52690.68,320.60,314.32,1.887634,64.04,1
56166,1,54336,0,50625,52943,50321.01,52691.19,303.99,251.81,1.888309,64.00,1
56206,1,54376,0,50598,52885,50321.57,52691.58,276.43,193.42,1.888961,63.97,1
56246,1,54416,0,50598,52876,50322.12,52691.95,275.88,184.05,1.889596,63.93,1
56286,1,54456,0,50602,52869,50322.68,52692.30,279.32,176.70,1.890216,63.89,1
56326,1,54496,0,50606,52876,50323.25,52692.67,282.75,183.33,1.890819,63.86,1
56366,1,54536,0,50615,52889,50323.84,52693.07,291.16,195.93,1.891402,63.83,1
56406,1,54576,0,50625,52904,50324.44,52693.49,300.56,210.51,1.891962,63.79,1
56446,1,54616,0,50639,52918,50325.07,52693.94,313.93,224.06,1.892493,63.76,1
56486,1,54656,0,50645,52926,50325.71,52694.40,319.29,231.60,1.892994,63.73,1
56526,1,54696,0,50657,52949,50326.37,52694.91,330.62,254.09,1.893457,63.69,1
56566,1,54736,0,50667,52962,50327.06,52695.45,339.94,266.55,1.893878,63.66,1
56606,1,54776,0,50675,52981,50327.75,52696.02,347.25,284.98,1.894249,63.63,1
56646,1,54816,0,50691,52993,50328.48,52696.62,362.52,296.38,1.894570,63.60,1
56686,1,54856,0,50697,53011,50329.22,52697.25,367.78,313.75,1.894833,63.57,1
56727,1,54897,0,50707,53028,50329.98,52697.91,377.02,330.09,1.895034,63.54,1
56767,1,54937,0,50712,53039,50330.74,52698.59,381.26,340.41,1.895169,63.52,1
56807,1,54977,0,50717,53056,50331.52,52699.31,385.48,356.69,1.895235,63.49,1
56847,1,55017,0,50728,53068,50332.31,52700.05,395.69,367.95,1.895229,63.46,1
56887,1,55057,0,50725,53065,50333.09,52700.78,391.91,364.22,1.895158,63.44,1
56927,1,55097,0,50713,52997,50333.86,52701.37,379.14,295.63,1.895055,63.41,1
56967,1,55137,0,50681,52940,50334.55,52701.85,346.45,238.15,1.894939,63.39,1
57007,1,55177,0,50675,52931,50335.23,52702.31,339.77,228.69,1.894811,63.37,1
57047,1,55217,0,50682,52942,50335.93,52702.79,346.07,239.21,1.894670,63.35,1
57087,1,55257,0,50693,52948,50336.64,52703.29,356.36,244.71,1.894516,63.32,1
57127,1,55297,0,50698,52959,50337.37,52703.80,360.63,255.20,1.894345,63.30,1
57167,1,55337,0,50719,52981,50338.13,52704.35,380.87,276.65,1.894155,63.28,1
57207,1,55377,0,50734,53000,50338.93,52704.95,395.07,295.05,1.893939,63.27,1
57247,1,55417,0,50751,53011,50339.75,52705.56,411.25,305.44,1.893699,63.25,1
57287,1,55457,0,50759,53019,50340.59,52706.19,418.41,312.81,1.893433,63.23,1
57327,1,55497,0,50776,53042,50341.46,52706.86,434.54,335.14,1.893136,63.21,1
57367,1,55537,0,50791,53064,50342.36,52707.57,448.64,356.43,1.892802,63.20,1
57407,1,55577,0,50803,53088,50343.28,52708.34,459.72,379.66,1.892425,63.18,1
57447,1,55617,0,50818,53129,50344.23,52709.18,473.77,419.82,1.891991,63.17,1
57487,1,55657,0,50837,53157,50345.22,52710.08,491.78,446.92,1.891493,63.15,1
57527,1,55697,0,50853,53166,50346.23,52710.99,506.77,455.01,1.890936,63.14,1
57567,1,55737,0,50857,53188,50347.26,52711.95,509.74,476.05,1.890314,63.13,1
57607,1,55777,0,50877,53224,50348.32,52712.98,528.68,511.02,1.889617,63.12,1
57647,1,55817,0,50899,53251,50349.42,52714.05,549.58,536.95,1.888846,63.11,1
57687,1,55857,0,50898,53224,50350.52,52715.07,547.48,508.93,1.888016,63.10,1
57727,1,55897,0,50876,53163,50351.57,52715.97,524.43,447.03,1.887154,63.09,1
57767,1,55937,0,50863,53137,50352.59,52716.82,510.41,420.18,1.886268,63.08,1
57808,1,55978,0,50869,53145,50353.63,52717.68,515.37,427.32,1.885357,63.08,1
57848,1,56018,0,50877,53151,50354.68,52718.54,522.32,432.46,1.884423,63.07,1
57888,1,56058,0,50888,53162,50355.74,52719.43,532.26,442.57,1.883465,63.07,1
57928,1,56098,0,50895,53176,50356.82,52720.34,538.18,455.66,1.882481,63.06,1
57968,1,56138,0,50909,53197,50357.93,52721.30,551.07,475.70,1.881468,63.06,1
58008,1,56178,0,50918,53212,50359.05,52722.28,558.95,489.72,1.880425,63.06,1
58048,1,56218,0,50938,53224,50360.21,52723.29,577.79,500.71,1.879354,63.06,1
58088,1,56258,0,50948,53237,50361.38,52724.31,586.62,512.69,1.878253,63.06,1
58128,1,56298,0,50953,53252,50362.57,52725.37,590.43,526.63,1.877121,63.06,1
58168,1,56338,0,50963,53265,50363.77,52726.45,599.23,538.55,1.875958,63.06,1
58208,1,56378,0,50972,53271,50364.99,52727.54,607.01,543.46,1.874766,63.06,1
58248,1,56418,0,50979,53268,50366.22,52728.62,612.78,539.37,1.873548,63.06,1
58288,1,56458,0,50982,53274,50367.45,52729.72,614.55,544.28,1.872306,63.07,1
58328,1,56498,0,50993,53272,50368.71,52730.80,624.29,541.20,1.871044,63.07,1
58368,1,56538,0,50986,53283,50369.94,52731.91,616.06,551.09,1.869759,63.08,1
58408,1,56578,0,50999,53293,50371.20,52733.04,627.80,559.96,1.868451,63.08,1
58448,1,56618,0,50991,53245,50372.44,52734.06,618.56,510.94,1.867134,63.09,1
58488,1,56658,0,50959,53164,50373.62,52734.92,585.38,429.08,1.865820,63.10,1
58528,1,56698,0,50937,53128,50374.75,52735.71,562.25,392.29,1.864514,63.11,1
58568,1,56738,0,50939,53122,50375.87,52736.48,563.12,385.52,1.863217,63.12,1
58608,1,56778,0,50942,53123,50377.01,52737.25,564.99,385.75,1.861929,63.13,1
58648,1,56818,0,50948,53132,50378.15,52738.04,569.85,393.96,1.860648,63.14,1
58688,1,56858,0,50952,53133,50379.30,52738.84,572.70,394.16,1.859376,63.15,1
58728,1,56898,0,50957,53140,50380.46,52739.64,576.54,400.36,1.858112,63.16,1
58768,1,56938,0,50962,53133,50381.62,52740.43,580.38,392.57,1.856856,63.17,1
58809,1,56979,0,50962,53133,50382.78,52741.21,579.22,391.79,1.855610,63.19,1
58849,1,57019,0,50972,53151,50383.96,52742.04,588.04,408.96,1.854371,63.20,1
58889,1,57059,0,50982,53162,50385.16,52742.87,596.84,419.12,1.853138,63.21,1
58929,1,57099,0,50992,53188,50386.37,52743.77,605.62,444.23,1.851908,63.23,1
58969,1,57139,0,50998,53201,50387.60,52744.68,610.40,456.32,1.850678,63.24,1
59009,1,57179,0,51009,53213,50388.84,52745.62,620.16,467.38,1.849450,63.26,1
59049,1,57219,0,51018,53227,50390.10,52746.58,627.90,480.42,1.848219,63.28,1
59089,1,57259,0,51033,53257,50391.38,52747.61,641.62,509.39,1.846984,63.29,1
59129,1,57299,0,51046,53277,50392.69,52748.66,653.31,528.34,1.845742,63.31,1
59169,1,57339,0,51041,53218,50393.99,52749.61,647.01,468.39,1.844504,63.33,1
59209,1,57379,0,51000,53114,50395.20,52750.34,604.80,363.66,1.843283,63.34,1
59249,1,57419,0,50969,53053,50396.35,52750.94,572.65,302.06,1.842082,63.36,1
59289,1,57459,0,50957,53032,50397.47,52751.50,559.53,280.50,1.840902,63.38,1
59329,1,57499,0,50971,53039,50398.62,52752.08,572.38,286.92,1.839743,63.40,1
59369,1,57539,0,50974,53047,50399.77,52752.67,574.23,294.33,1.838606,63.42,1
59409,1,57579,0,50992,53071,50400.96,52753.31,591.04,317.69,1.837487,63.44,1
59449,1,57619,0,50998,53096,50402.16,52754.00,595.84,342.00,1.836386,63.46,1
59489,1,57659,0,51021,53116,50403.39,52754.72,617.61,361.28,1.835300,63.48,1
59529,1,57699,0,51034,53126,50404.66,52755.46,629.34,370.54,1.834231,63.50,1
59569,1,57739,0,51043,53134,50405.93,52756.22,637.07,377.78,1.833178,63.52,1
59609,1,57779,0,51045,53124,50407.21,52756.96,637.79,367.04,1.832142,63.54,1
59649,1,57819,0,51045,53134,50408.49,52757.71,636.51,376.29,1.831120,63.56,1
59689,1,57859,0,51047,53133,50409.77,52758.46,637.23,374.54,1.830115,63.58,1
59729,1,57899,0,51054,53131,50411.06,52759.21,642.94,371.79,1.829125,63.60,1
59770,1,57940,0,51052,53132,50412.34,52759.96,639.66,372.04,1.828151,63.62,1
59810,1,57980,0,51060,53138,50413.64,52760.71,646.36,377.29,1.827193,63.64,1
59850,1,58020,0,51055,53105,50414.92,52761.41,640.08,343.59,1.826253,63.66,1
59890,1,58060,0,51020,53010,50416.13,52761.91,603.87,248.09,1.825340,63.68,1
59930,1,58100,0,50993,52964,50417.29,52762.31,575.71,201.69,1.824454,63.70,1
59970,1,58140,0,50985,52946,50418.43,52762.68,566.57,183.32,1.823596,63.73,1
60010,1,58180,0,51001,52945,50419.59,52763.05,581.41,181.95,1.822767,63.75,1
60050,1,58220,0,51006,52949,50420.77,52763.42,585.23,185.58,1.821967,63.77,1
60090,1,58260,0,51013,52956,50421.96,52763.81,591.04,192.19,1.821196,63.79,1
60130,1,58300,0,51022,52965,50423.16,52764.21,598.84,200.79,1.820454,63.81,1
60170,1,58340,0,51028,52952,50424.37,52764.59,603.63,187.41,1.819743,63.83,1
60210,1,58380,0,51039,52959,50425.60,52764.98,613.40,194.02,1.819064,63.85,1
60250,1,58420,0,51047,52970,50426.84,52765.39,620.16,204.61,1.818415,63.87,1
60290,1,58460,0,51064,52991,50428.12,52765.84,635.88,225.16,1.817797,63.89,1
60330,1,58500,0,51075,53012,50429.42,52766.33,645.58,245.67,1.817208,63.91,1
60370,1,58540,0,51092,53037,50430.75,52766.87,661.25,270.12,1.816647,63.93,1
60410,1,58580,0,51108,53066,50432.10,52767.48,675.90,298.52,1.816111,63.95,1
60450,1,58620,0,51119,53099,50433.48,52768.14,685.52,330.86,1.815597,63.97,1
60490,1,58660,0,51144,53136,50434.90,52768.88,709.10,367.12,1.815101,63.99,1
60530,1,58700,0,51169,53124,50436.37,52769.59,732.63,354.41,1.814628,64.01,1
60570,1,58740,0,51133,53026,50437.76,52770.11,695.24,255.89,1.814188,64.03,1
60610,1,58780,0,51112,52986,50439.11,52770.54,672.89,215.46,1.813782,64.05,1
60650,1,58820,0,51109,52998,50440.45,52771.00,668.55,227.00,1.813408,64.07,1
60690,1,58860,0,51125,53017,50441.82,52771.49,683.18,245.51,1.813064,64.09,1
60731,1,58901,0,51148,53031,50443.24,52772.01,704.76,258.99,1.812753,64.10,1
60771,1,58941,0,51159,53064,50444.67,52772.59,714.33,291.41,1.812469,64.12,1
60811,1,58981,0,51181,53097,50446.14,52773.24,734.86,323.76,1.812211,64.14,1
60851,1,59021,0,51200,53132,50447.65,52773.96,752.35,358.04,1.811975,64.16,1
60891,1,59061,0,51223,53161,50449.20,52774.74,773.80,386.26,1.811757,64.17,1
60931,1,59101,0,51237,53184,50450.78,52775.56,786.22,408.44,1.811554,64.19,1
60971,1,59141,0,51263,53218,50452.41,52776.45,810.59,441.55,1.811362,64.20,1
61011,1,59181,0,51281,53251,50454.07,52777.39,826.93,473.61,1.811177,64.22,1
61051,1,59221,0,51298,53283,50455.75,52778.41,842.25,504.59,1.810991,64.23,1
61091,1,59261,0,51319,53307,50457.48,52779.46,861.52,527.54,1.810803,64.25,1
61131,1,59301,0,51332,53339,50459.23,52780.59,872.77,558.41,1.810605,64.26,1
61171,1,59341,0,51353,53358,50461.02,52781.74,891.98,576.26,1.810397,64.28,1
61211,1,59381,0,51358,53326,50462.82,52782.83,895.18,543.17,1.810189,64.29,1
61251,1,59421,0,51326,53223,50464.54,52783.71,861.46,439.29,1.809998,64.31,1
61291,1,59461,0,51282,53158,50466.18,52784.46,815.82,373.54,1.809830,64.32,1
61331,1,59501,0,51267,53155,50467.78,52785.21,799.22,369.79,1.809684,64.33,1
61371,1,59541,0,51276,53149,50469.40,52785.94,806.60,363.06,1.809561,64.35,1
61411,1,59581,0,51278,53141,50471.02,52786.65,806.98,354.35,1.809462,64.36,1
61451,1,59621,0,51283,53150,50472.64,52787.37,810.36,362.62,1.809385,64.37,1
61491,1,59661,0,51281,53147,50474.26,52788.09,806.74,358.91,1.809331,64.38,1
61531,1,59701,0,51285,53149,50475.88,52788.82,809.12,360.18,1.809298,64.39,1
61571,1,59741,0,51278,53150,50477.48,52789.54,800.52,360.46,1.809286,64.41,1
61611,1,59781,0,51279,53158,50479.09,52790.28,799.91,367.72,1.809293,64.42,1
61652,1,59822,0,51286,53168,50480.70,52791.04,805.30,376.96,1.809317,64.43,1
61692,1,59862,0,51292,53181,50482.33,52791.82,809.67,389.18,1.809356,64.44,1
61732,1,59902,0,51291,53187,50483.95,52792.61,807.05,394.39,1.809409,64.45,1
61772,1,59942,0,51288,53199,50485.55,52793.42,802.45,405.58,1.809473,64.46,1
61812,1,59982,0,51290,53206,50487.16,52794.25,802.84,411.75,1.809546,64.47,1
61852,1,60022,0,51290,53215,50488.77,52795.09,801.23,419.91,1.809626,64.47,1
61892,1,60062,1,51292,53216,50490.38,52795.94,801.62,420.06,1.809713,64.48,1
61932,1,60102,1,51287,53164,50491.97,52796.68,795.03,367.32,1.809816,64.49,1
61972,1,60142,1,51243,53073,50493.48,52797.23,749.52,275.77,1.809943,64.50,1
62012,1,60182,1,51207,53031,50494.91,52797.70,712.09,233.30,1.810096,64.51,1
62052,1,60222,1,51199,53031,50496.32,52798.17,702.68,232.83,1.810271,64.51,1
62092,1,60262,1,51205,53024,50497.73,52798.62,707.27,225.38,1.810472,64.52,1
62132,1,60302,1,51205,53028,50499.15,52799.08,705.85,228.92,1.810697,64.53,1
62172,1,60342,1,51211,53034,50500.57,52799.55,710.43,234.45,1.810946,64.53,1
62212,1,60382,1,51211,53037,50502.00,52800.03,709.00,236.97,1.811218,64.54,1
62252,1,60422,1,51205,53034,50503.40,52800.50,701.60,233.50,1.811513,64.54,1
62292,1,60462,1,51196,53037,50504.79,52800.97,691.21,236.03,1.811829,64.55,1
62332,1,60502,1,51198,53044,50506.18,52801.46,691.82,242.54,1.812165,64.55,1
62372,1,60542,1,51205,53056,50507.57,52801.97,697.43,254.03,1.812521,64.56,1
62412,1,60582,1,51205,53063,50508.97,52802.50,696.03,260.50,1.812894,64.56,1
62452,1,60622,1,51205,53070,50510.36,52803.03,694.64,266.97,1.813285,64.56,1
62492,1,60662,1,51202,53079,50511.75,52803.59,690.25,275.41,1.813690,64.57,1
62532,1,60702,1,51202,53084,50513.13,52804.15,688.87,279.85,1.814110,64.57,1
62572,1,60742,1,51203,53097,50514.51,52804.73,688.49,292.27,1.814542,64.57,1
62613,1,60783,1,51196,53068,50515.87,52805.26,680.12,262.74,1.814989,64.57,1
62653,1,60823,1,51167,52986,50517.18,52805.62,649.82,180.37,1.815458,64.57,1
62693,1,60863,1,51125,52938,50518.40,52805.89,606.60,132.11,1.815949,64.57,1
62733,1,60903,1,51109,52930,50519.58,52806.14,589.42,123.86,1.816461,64.57,1
62773,1,60943,1,51100,52922,50520.75,52806.37,579.25,115.62,1.816994,64.57,1
62813,1,60983,1,51095,52922,50521.89,52806.61,573.11,115.39,1.817547,64.57,1
62853,1,61023,1,51099,52929,50523.05,52806.86,575.95,122.14,1.818120,64.57,1
62893,1,61063,1,51103,52941,50524.21,52807.12,578.79,133.87,1.818712,64.57,1
62933,1,61103,1,51100,52951,50525.36,52807.41,574.64,143.59,1.819322,64.57,1
62973,1,61143,1,51102,52960,50526.52,52807.72,575.48,152.28,1.819950,64.57,1
63013,1,61183,1,51103,52972,50527.67,52808.05,575.33,163.95,1.820594,64.57,1
63053,1,61223,1,51108,52982,50528.83,52808.39,579.17,173.61,1.821254,64.56,1
63093,1,61263,1,51113,52992,50530.00,52808.76,583.00,183.24,1.821929,64.56,1
63133,1,61303,1,51116,52998,50531.17,52809.14,584.83,188.86,1.822618,64.56,1
63173,1,61343,1,51111,53003,50532.33,52809.53,578.67,193.47,1.823321,64.55,1
63213,1,61383,1,51109,53007,50533.49,52809.93,575.51,197.07,1.824036,64.55,1
63253,1,61423,1,51107,53016,50534.64,52810.34,572.36,205.66,1.824762,64.54,1
63293,1,61463,1,51107,53022,50535.78,52810.77,571.22,211.23,1.825498,64.54,1
63333,1,61503,1,51101,52987,50536.91,52811.12,564.09,175.88,1.826248,64.53,1
63373,1,61543,1,51067,52909,50537.98,52811.32,529.02,97.68,1.827016,64.52,1
63413,1,61583,1,51028,52872,50538.96,52811.44,489.04,60.56,1.827800,64.52,1
63453,1,61623,1,51017,52872,50539.91,52811.56,477.09,60.44,1.828600,64.51,1
63493,1,61663,1,51012,52873,50540.86,52811.68,471.14,61.32,1.829414,64.50,1
63533,1,61703,1,51013,52873,50541.80,52811.81,471.20,61.19,1.830244,64.50,1
63574,1,61744,1,51011,52880,50542.75,52811.95,468.25,68.05,1.831088,64.49,1
63614,1,61784,1,51010,52892,50543.68,52812.11,466.32,79.89,1.831946,64.48,1
63654,1,61824,1,51014,52907,50544.62,52812.30,469.37,94.70,1.832817,64.47,1
63694,1,61864,1,51010,52928,50545.56,52812.53,464.44,115.47,1.833699,64.46,1
63734,1,61904,1,51019,52948,50546.51,52812.80,472.49,135.20,1.834592,64.45,1
63774,1,61944,1,51030,52964,50547.48,52813.11,482.52,150.89,1.835494,64.44,1
63814,1,61984,1,51037,52997,50548.46,52813.48,488.54,183.52,1.836402,64.43,1
63854,1,62024,1,51046,53024,50549.45,52813.90,496.55,210.10,1.837313,64.42,1
63894,1,62064,1,51053,53054,50550.46,52814.38,502.54,239.62,1.838222,64.41,1
63934,1,62104,1,51062,53076,50551.48,52814.91,510.52,261.09,1.839126,64.40,1
