t1_us,t2_us,avail1,avail2,trial_id,t_trial_ms,phase,red_raw1,ir_raw1,red_raw2,ir_raw2,spo2_1,spo2_2,spo2_valid1,spo2_valid2
1837926,1872338,2,3,1,0,0,48299,48630,51244,52944,98.23,98.91,1,1
1897931,1932338,1,2,1,60.005,0,48385,48804,51312,53080,98.23,98.9,1,1
1957926,1992338,0,1,1,120,0,48451,48961,51365,53180,98.23,98.9,1,1
2017931,2052337,3,0,1,180.005,0,48508,49071,51401,53267,98.23,98.9,1,1
2077926,2112337,2,3,1,240,0,48558,49197,51451,53353,98.22,98.9,1,1
2137931,2172337,1,2,1,300.005,0,48591,49051,51378,52958,98.22,98.9,1,1
2197926,2232337,0,1,1,360,0,48258,48162,51121,52499,98.22,98.9,1,1
2258931,2292337,3,0,1,421.005,0,48072,48004,51074,52536,98.21,98.9,1,1
2318926,2352337,2,3,1,481,0,48146,48212,51126,52659,98.21,98.9,1,1
2378931,2413338,1,2,1,541.005,0,48242,48453,51183,52783,98.21,98.89,1,1
2438926,2473338,0,1,1,601,0,48321,48579,51199,52792,98.21,98.89,1,1
2498931,2533338,3,0,1,661.005,0,48330,48634,51205,52814,98.2,98.89,1,1
2558926,2593338,2,3,1,721,0,48385,48785,51250,52942,98.2,98.89,1,1
2618931,2653337,1,2,1,781.005,0,48471,49025,51318,53084,98.2,98.89,1,1
2678926,2713337,0,1,1,841,0,48571,49239,51375,53203,98.19,98.89,1,1
2738931,2773337,3,0,1,901.005,0,48646,49385,51417,53284,98.19,98.89,1,1
2799926,2833337,2,3,1,962,0,48697,49503,51451,53372,98.18,98.89,1,1
2859931,2893337,1,2,1,1022.005,0,48747,49573,51464,53251,98.18,98.88,1,1
2919926,2953337,0,1,1,1082,0,48567,48824,51246,52731,98.18,98.88,1,1
2979931,3013337,3,0,1,1142.005,0,48246,48307,51125,52636,98.17,98.88,1,1
3039926,3074338,2,3,1,1202,0,48249,48441,51170,52766,98.17,98.88,1,1
3099931,3134338,1,2,1,1262.005,0,48335,48674,51239,52911,98.16,98.88,1,1
3159926,3194337,0,1,1,1322,0,48413,48813,51265,52912,98.16,98.88,1,1
3219931,3254337,3,0,1,1382.005,0,48413,48774,51247,52893,98.16,98.87,1,1
3279926,3314337,2,3,1,1442,0,48422,48863,51274,52984,98.15,98.87,1,1
3340931,3374337,1,2,1,1503.005,0,48495,49048,51334,53136,98.15,98.87,1,1
3400926,3434337,0,1,1,1563,0,48570,49209,51395,53266,98.14,98.87,1,1
3460931,3494337,3,0,1,1623.005,0,48625,49333,51445,53372,98.14,98.87,1,1
3520926,3554337,2,3,1,1683,0,48665,49425,51489,53468,98.13,98.87,1,1
3580931,3614337,1,2,1,1743.005,0,48698,49396,51462,53220,98.13,98.87,1,1
3640926,3674337,0,1,1,1803,0,48445,48554,51217,52713,98.12,98.86,1,1
3700931,3735337,3,0,1,1863.005,0,48179,48230,51133,52673,98.12,98.86,1,1
3760926,3795337,2,3,1,1923,0,48222,48425,51186,52807,98.11,98.86,1,1
3821931,3855337,1,2,1,1984.005,0,48325,48683,51252,52932,98.11,98.86,1,1
3881926,3915337,0,1,1,2044,0,48403,48780,51264,52933,98.1,98.86,1,1
3941931,3975337,3,0,1,2104.005,0,48386,48750,51255,52935,98.1,98.86,1,1
4001926,4035337,2,3,1,2164,0,48417,48877,51285,53051,98.09,98.85,1,1
4061931,4095337,1,2,1,2224.005,0,48497,49072,51352,53203,98.09,98.85,1,1
4121926,4155337,0,1,1,2284,0,48576,49247,51415,53322,98.08,98.85,1,1
4181931,4215337,3,0,1,2344.005,0,48631,49371,51459,53425,98.07,98.85,1,1
4241926,4275337,2,3,1,2404,0,48684,49492,51499,53419,98.07,98.85,1,1
4301931,4335337,1,2,1,2464.005,0,48607,48974,51322,52882,98.06,98.85,1,1
4362926,4396338,0,1,1,2525,0,48229,48226,51128,52616,98.06,98.84,1,1
4422931,4456337,3,0,1,2585.005,0,48151,48243,51141,52723,98.05,98.84,1,1
4482926,4516337,2,3,1,2645,0,48212,48413,51202,52856,98.05,98.84,1,1
4542931,4576337,1,2,1,2705.005,0,48288,48571,51251,52949,98.04,98.84,1,1
4602926,4636337,0,1,1,2765,0,48307,48571,51255,52941,98.04,98.84,1,1
4662931,4696338,3,0,1,2825.005,0,48293,48555,51266,52995,98.03,98.84,1,1
4722926,4756337,2,3,1,2885,0,48329,48678,51319,53132,98.02,98.83,1,1
4782931,4816337,1,2,1,2945.005,0,48395,48826,51383,53266,98.02,98.83,1,1
4842926,4876337,0,1,1,3005,0,48449,48937,51441,53379,98.01,98.83,1,1
4903931,4936337,3,0,1,3066.005,0,48480,48993,51483,53380,98.01,98.83,1,1
4963926,4997337,2,3,1,3126,0,48373,48415,51303,52841,98,98.83,1,1
5023931,5057337,1,2,1,3186.005,0,47975,47639,51111,52580,97.99,98.83,1,1
5083926,5117337,0,1,1,3246,0,47898,47659,51117,52680,97.99,98.83,1,1
5143931,5177337,3,0,1,3306.005,0,47947,47761,51176,52819,97.98,98.82,1,1
5203926,5237337,2,3,1,3366,0,47986,47871,51229,52891,97.98,98.82,1,1
5263931,5297337,1,2,1,3426.005,0,47993,47830,51233,52880,97.97,98.82,1,1
5323926,5357337,0,1,1,3486,0,47979,47839,51243,52925,97.96,98.82,1,1
5383931,5417337,3,0,1,3546.005,0,48031,47991,51290,53044,97.96,98.82,1,1
5444926,5477337,2,3,1,3607,0,48105,48169,51348,53171,97.95,98.82,1,1
5504931,5537337,1,2,1,3667.005,0,48186,48319,51403,53298,97.95,98.81,1,1
5564926,5597337,0,1,1,3727,0,48231,48415,51438,53254,97.94,98.81,1,1
5624931,5658337,3,0,1,3787.005,0,48118,47811,51228,52693,97.93,98.81,1,1
5684926,5718337,2,3,1,3847,0,47785,47292,51065,52515,97.93,98.81,1,1
5744931,5778337,1,2,1,3907.005,0,47787,47449,51094,52626,97.92,98.81,1,1
5804926,5838338,0,1,1,3967,0,47871,47634,51165,52782,97.92,98.81,1,1
5864931,5898337,3,0,1,4027.005,0,47968,47847,51211,52837,97.91,98.81,1,1
5924926,5958337,2,3,1,4087,0,48013,47876,51209,52822,97.91,98.81,1,1
5985931,6018337,1,2,1,4148.005,0,48022,47934,51228,52893,97.9,98.8,1,1
6045926,6078337,0,1,1,4208,0,48084,48106,51283,53040,97.9,98.8,1,1
6105931,6138337,3,0,1,4268.005,0,48162,48278,51348,53179,97.89,98.8,1,1
6165926,6198337,2,3,1,4328,0,48238,48450,51405,53313,97.89,98.8,1,1
6225931,6259337,1,2,1,4388.005,0,48292,48565,51454,53386,97.88,98.8,1,1
6285926,6319337,0,1,1,4448,0,48301,48339,51349,52948,97.87,98.8,1,1
6345931,6379337,3,0,1,4508.005,0,47967,47603,51124,52591,97.87,98.8,1,1
6405926,6439337,2,3,1,4568,0,47873,47645,51120,52679,97.87,98.79,1,1
6465931,6499337,1,2,1,4628.005,0,48002,47967,51191,52849,97.86,98.79,1,1
6526926,6559337,0,1,1,4689,0,48133,48238,51257,52952,97.86,98.79,1,1
6586931,6619337,3,0,1,4749.005,0,48188,48304,51261,52954,97.85,98.79,1,1
6646926,6679337,2,3,1,4809,0,48206,48359,51278,53014,97.85,98.79,1,1
6706931,6739337,1,2,1,4869.005,0,48269,48547,51327,53166,97.84,98.79,1,1
6766926,6799337,0,1,1,4929,0,48376,48776,51400,53323,97.84,98.79,1,1
6826931,6859337,3,0,1,4989.005,0,48462,48986,51465,53454,97.83,98.79,1,1
6886926,6920337,2,3,1,5049,0,48536,49145,51510,53550,97.83,98.78,1,1
6946931,6980338,1,2,1,5109.005,0,48594,49280,51553,53623,97.83,98.78,1,1
7006926,7040337,0,1,1,5169,0,48600,49071,51459,53239,97.82,98.78,1,1
7067931,7100337,3,0,1,5230.005,0,48288,48317,51258,52908,97.82,98.78,1,1
7127926,7160337,2,3,1,5290,0,48191,48357,51250,52999,97.81,98.78,1,1
7187931,7220337,1,2,1,5350.005,0,48309,48659,51322,53180,97.81,98.78,1,1
7247926,7280337,0,1,1,5410,0,48431,48906,51381,53278,97.81,98.78,1,1
7307932,7340337,3,0,1,5470.006,0,48473,48953,51381,53262,97.8,98.78,1,1
7367926,7400337,2,3,1,5530,0,48472,48977,51385,53309,97.8,98.78,1,1
7427931,7460337,1,2,1,5590.005,0,48526,49129,51432,53423,97.79,98.78,1,1
7487926,7520337,0,1,1,5650,0,48602,49320,51493,53557,97.79,98.77,1,1
7547931,7581337,3,0,1,5710.005,0,48672,49464,51543,53669,97.79,98.77,1,1
7608926,7641337,2,3,1,5771,0,48724,49567,51587,53763,97.78,98.77,1,1
7668931,7701337,1,2,1,5831.005,0,48760,49635,51615,53721,97.78,98.77,1,1
7728926,7761337,0,1,1,5891,0,48636,49011,51438,53266,97.78,98.77,1,1
7788931,7821337,3,0,1,5951.005,0,48283,48401,51299,53120,97.77,98.77,1,1
7848926,7881337,2,3,1,6011,0,48270,48536,51334,53231,97.77,98.77,1,1
7908931,7941337,1,2,1,6071.005,0,48377,48799,51397,53385,97.76,98.77,1,1
7968926,8001337,0,1,1,6131,0,48463,48949,51425,53403,97.76,98.77,1,1
8028931,8061337,3,0,1,6191.005,0,48458,48888,51414,53387,97.76,98.77,1,1
8088926,8121337,2,3,1,6251,0,48450,48906,51433,53457,97.75,98.77,1,1
8149931,8181337,1,2,1,6312.005,0,48498,49050,51481,53585,97.75,98.77,1,1
8209926,8242337,0,1,1,6372,0,48551,49197,51542,53709,97.75,98.77,1,1
8269931,8302337,3,0,1,6432.005,0,48604,49313,51592,53823,97.74,98.77,1,1
8329926,8362337,2,3,1,6492,0,48648,49434,51636,53910,97.74,98.77,1,1
8389931,8422337,1,2,1,6552.005,0,48659,49208,51548,53540,97.74,98.77,1,1
8449926,8482338,0,1,1,6612,0,48302,48304,51341,53170,97.73,98.77,1,1
8509931,8542338,3,0,1,6672.005,0,48106,48130,51302,53171,97.73,98.77,1,1
8569926,8602338,2,3,1,6732,0,48161,48303,51341,53279,97.73,98.77,1,1
8629931,8662338,1,2,1,6792.005,0,48234,48453,51389,53364,97.72,98.77,1,1
8690926,8722337,0,1,1,6853,0,48238,48383,51392,53353,97.72,98.77,1,1
8750931,8782337,3,0,1,6913.005,0,48189,48311,51388,53379,97.72,98.77,1,1
8810926,8843337,2,3,1,6973,0,48218,48428,51432,53481,97.71,98.77,1,1
8870931,8903337,1,2,1,7033.005,0,48281,48637,51479,53615,97.71,98.77,1,1
8930926,8963337,0,1,1,7093,0,48409,48943,51536,53723,97.71,98.77,1,1
8990931,9023337,3,0,1,7153.005,0,48507,49194,51583,53826,97.7,98.77,1,1
9050926,9083338,2,3,1,7213,0,48611,49348,51604,53751,97.7,98.77,1,1
9110931,9143337,1,2,1,7273.005,0,48459,48651,51406,53238,97.7,98.77,1,1
9170926,9203338,0,1,1,7333,0,48094,48018,51246,53016,97.69,98.77,1,1
9231931,9263338,3,0,1,7394.005,0,48084,48130,51243,53068,97.69,98.77,1,1
9291926,9323337,2,3,1,7454,0,48163,48335,51295,53185,97.69,98.77,1,1
9351931,9383337,1,2,1,7514.005,0,48248,48461,51320,53219,97.68,98.77,1,1
9411926,9443337,0,1,1,7574,0,48269,48498,51314,53208,97.68,98.77,1,1
9471931,9504337,3,0,1,7634.005,0,48277,48547,51331,53259,97.68,98.77,1,1
9531926,9564337,2,3,1,7694,0,48332,48713,51377,53374,97.67,98.77,1,1
9591931,9624338,1,2,1,7754.005,0,48421,48954,51429,53483,97.67,98.78,1,1
9651926,9684338,0,1,1,7814,0,48510,49141,51477,53576,97.67,98.78,1,1
9711931,9744338,3,0,1,7874.005,0,48590,49376,51515,53652,97.66,98.78,1,1
9772926,9804338,2,3,1,7935,0,48702,49565,51536,53612,97.66,98.78,1,1
9832931,9864338,1,2,1,7995.005,0,48613,49011,51366,53143,97.66,98.78,1,1
9892926,9924338,0,1,1,8055,0,48270,48339,51219,52965,97.65,98.78,1,1
9952931,9984338,3,0,1,8115.005,0,48217,48384,51240,53046,97.65,98.78,1,1
10012926,10044337,2,3,1,8175,0,48301,48572,51287,53159,97.65,98.78,1,1
10072931,10104337,1,2,1,8235.005,0,48343,48621,51318,53191,97.64,98.78,1,1
10132926,10165338,0,1,1,8295,0,48329,48565,51315,53182,97.64,98.79,1,1
10192931,10225338,3,0,1,8355.005,0,48333,48643,51343,53264,97.64,98.79,1,1
10252926,10285338,2,3,1,8415,0,48405,48876,51398,53387,97.63,98.79,1,1
10313931,10345338,1,2,1,8476.005,0,48519,49125,51454,53523,97.63,98.79,1,1
10373926,10405338,0,1,1,8536,0,48600,49301,51510,53624,97.63,98.79,1,1
10433931,10465338,3,0,1,8596.005,0,48656,49415,51548,53716,97.62,98.79,1,1
10493926,10525338,2,3,1,8656,0,48695,49488,51587,53802,97.62,98.8,1,1
10553931,10585338,1,2,1,8716.005,0,48732,49545,51600,53694,97.62,98.8,1,1
10613926,10645337,0,1,1,8776,0,48566,48818,51406,53219,97.61,98.8,1,1
10673931,10705337,3,0,1,8836.005,0,48238,48296,51283,53070,97.61,98.8,1,1
10733926,10766338,2,3,1,8896,0,48252,48462,51305,53160,97.61,98.8,1,1
10794931,10826338,1,2,1,8957.005,0,48358,48718,51356,53286,97.61,98.8,1,1
10854926,10886338,0,1,1,9017,0,48447,48896,51384,53308,97.6,98.81,1,1
10914931,10946338,3,0,1,9077.005,0,48459,48879,51377,53293,97.6,98.81,1,1
10974926,11006338,2,3,1,9137,0,48469,48961,51399,53385,97.6,98.81,1,1
11034931,11066338,1,2,1,9197.005,0,48536,49145,51462,53512,97.59,98.81,1,1
11094926,11126338,0,1,1,9257,0,48632,49362,51515,53631,97.59,98.81,1,1
11154931,11186338,3,0,1,9317.005,0,48704,49519,51564,53715,97.59,98.82,1,1
11214926,11246338,2,3,1,9377,0,48756,49623,51593,53779,97.58,98.82,1,1
11274931,11306337,1,2,1,9437.005,0,48789,49701,51629,53829,97.58,98.82,1,1
11335926,11366337,0,1,1,9498,0,48788,49502,51552,53480,97.58,98.82,1,1
11395931,11427338,3,0,1,9558.005,0,48479,48666,51349,53131,97.57,98.82,1,1
11455926,11487338,2,3,1,9618,0,48307,48527,51316,53161,97.57,98.83,1,1
11515931,11547338,1,2,1,9678.005,0,48366,48715,51370,53311,97.57,98.83,1,1
11575926,11607338,0,1,1,9738,0,48466,48933,51426,53374,97.57,98.83,1,1
11635931,11667338,3,0,1,9798.005,0,48494,48939,51410,53325,97.56,98.83,1,1
11695926,11727338,2,3,1,9858,0,48473,48919,51408,53337,97.56,98.83,1,1
11755931,11787338,1,2,1,9918.005,0,48508,49028,51435,53432,97.56,98.84,1,1
11815926,11847338,0,1,1,9978,0,48577,49200,51495,53547,97.55,98.84,1,1
11876932,11907338,3,0,1,10039.006,0,48638,49326,51537,53644,97.55,98.84,1,1
11936926,11967337,2,3,1,10099,0,48668,49386,51579,53718,97.55,98.84,1,1
11996931,12027337,1,2,1,10159.005,0,48687,49430,51605,53693,97.54,98.85,1,1
12056926,12088338,0,1,1,10219,0,48589,48901,51429,53189,97.54,98.85,1,1
12116931,12148338,3,0,1,10279.005,0,48244,48246,51260,52949,97.54,98.85,1,1
12176926,12208338,2,3,1,10339,0,48201,48341,51266,53027,97.54,98.85,1,1
12236931,12268338,1,2,1,10399.005,0,48306,48593,51319,53144,97.53,98.85,1,1
12296926,12328338,0,1,1,10459,0,48403,48794,51352,53172,97.53,98.86,1,1
12357931,12388338,3,0,1,10520.005,0,48428,48794,51340,53129,97.53,98.86,1,1
12417926,12448338,2,3,1,10580,0,48434,48837,51346,53187,97.52,98.86,1,1
12477932,12508338,1,2,1,10640.006,0,48492,48989,51399,53300,97.52,98.86,1,1
12537926,12568337,0,1,1,10700,0,48558,49138,51448,53419,97.52,98.87,1,1
12597931,12628337,3,0,1,10760.005,0,48607,49246,51481,53483,97.51,98.87,1,1
12657926,12689338,2,3,1,10820,0,48637,49321,51506,53541,97.51,98.87,1,1
12717931,12749338,1,2,1,10880.005,0,48671,49342,51502,53368,97.51,98.87,1,1
12777926,12809338,0,1,1,10940,0,48492,48615,51276,52803,97.5,98.87,1,1
12837931,12869338,3,0,1,11000.005,0,48168,48133,51131,52640,97.5,98.88,1,1
12898926,12929338,2,3,1,11061,0,48217,48413,51151,52709,97.5,98.88,1,1
12958931,12989338,1,2,1,11121.005,0,48360,48729,51198,52829,97.49,98.88,1,1
13018926,13049338,0,1,1,11181,0,48468,48898,51224,52852,97.49,98.88,1,1
13078931,13109338,3,0,1,11241.005,0,48475,48874,51223,52854,97.49,98.88,1,1
13138926,13169338,2,3,1,11301,0,48482,48932,51250,52938,97.48,98.89,1,1
13198931,13229337,1,2,1,11361.005,0,48542,49096,51309,53065,97.48,98.89,1,1
13258926,13289337,0,1,1,11421,0,48607,49226,51362,53179,97.48,98.89,1,1
13318931,13350338,3,0,1,11481.005,0,48643,49296,51409,53264,97.48,98.89,1,1
13378926,13410338,2,3,1,11541,0,48665,49360,51447,53337,97.47,98.9,1,1
13439931,13470338,1,2,1,11602.005,0,48692,49436,51478,53338,97.47,98.9,1,1
13499926,13530338,0,1,1,11662,0,48637,48977,51314,52808,97.47,98.9,1,1
13559931,13590338,3,0,1,11722.005,0,48245,48136,51117,52515,97.46,98.9,1,1
13619926,13650338,2,3,1,11782,0,48136,48123,51107,52576,97.46,98.9,1,1
13679931,13710338,1,2,1,11842.005,0,48227,48333,51153,52686,97.46,98.91,1,1
13739926,13770338,0,1,1,11902,0,48332,48570,51204,52767,97.45,98.91,1,1
13799931,13830337,3,0,1,11962.005,0,48381,48623,51218,52761,97.45,98.91,1,1
13859926,13890337,2,3,1,12022,0,48380,48649,51230,52817,97.45,98.91,1,1
13919931,13950337,1,2,1,12082.005,0,48429,48796,51287,52944,97.44,98.91,1,1
13980926,14011338,0,1,1,12143,0,48518,49031,51347,53085,97.44,98.92,1,1
14040931,14071338,3,0,1,12203.005,0,48616,49240,51404,53209,97.44,98.92,1,1
14100926,14131338,2,3,1,12263,0,48673,49374,51456,53303,97.43,98.92,1,1
14160931,14191338,1,2,1,12323.005,0,48712,49449,51493,53394,97.43,98.92,1,1
14220926,14251338,0,1,1,12383,0,48744,49562,51537,53482,97.42,98.92,1,1
14280931,14311338,3,0,1,12443.005,0,48799,49629,51556,53383,97.42,98.93,1,1
14340926,14371338,2,3,1,12503,0,48645,48894,51330,52792,97.42,98.93,1,1
14400931,14431338,1,2,1,12563.005,0,48282,48288,51180,52629,97.41,98.93,1,1
14460926,14491338,0,1,1,12623,0,48280,48419,51201,52719,97.41,98.93,1,1
14521931,14551337,3,0,1,12684.005,0,48369,48645,51256,52847,97.41,98.93,1,1
14581926,14612338,2,3,1,12744,0,48461,48827,51298,52892,97.4,98.93,1,1
14641931,14672338,1,2,1,12804.005,0,48482,48832,51296,52894,97.4,98.94,1,1
14701926,14732338,0,1,1,12864,0,48492,48912,51323,52996,97.4,98.94,1,1
14761931,14792338,3,0,1,12924.005,0,48567,49120,51387,53131,97.39,98.94,1,1
14821926,14852338,2,3,1,12984,0,48653,49314,51447,53267,97.39,98.94,1,1
14881931,14912338,1,2,1,13044.005,0,48717,49478,51502,53366,97.39,98.94,1,1
14941926,14972338,0,1,1,13104,0,48784,49619,51541,53448,97.38,98.94,1,1
15001931,15032338,3,0,1,13164.005,0,48832,49729,51577,53529,97.38,98.95,1,1
15062926,15092338,2,3,1,13225,0,48880,49845,51614,53606,97.38,98.95,1,1
15122931,15152337,1,2,1,13285.005,0,48937,49972,51652,53710,97.37,98.95,1,1
15182926,15212337,0,1,1,13345,0,48989,50095,51690,53680,97.37,98.95,1,1
15242931,15273338,3,0,1,13405.005,0,48896,49504,51484,53094,97.37,98.95,1,1
15302926,15333338,2,3,1,13465,0,48497,48706,51305,52857,97.36,98.95,1,1
15362931,15393338,1,2,1,13525.005,0,48431,48783,51315,52952,97.36,98.95,1,1
15422926,15453338,0,1,1,13585,0,48529,49034,51369,53080,97.35,98.96,1,1
15482931,15513338,3,0,1,13645.005,0,48630,49251,51403,53110,97.35,98.96,1,1
15542926,15573338,2,3,1,13705,0,48660,49263,51388,53077,97.35,98.96,1,1
15603931,15633338,1,2,1,13766.005,0,48661,49291,51400,53136,97.34,98.96,1,1
15663926,15693338,0,1,1,13826,0,48717,49467,51450,53277,97.34,98.96,1,1
15723931,15753338,3,0,1,13886.005,0,48798,49666,51511,53405,97.34,98.96,1,1
15783926,15813337,2,3,1,13946,0,48870,49833,51561,53527,97.33,98.96,1,1
15843931,15874338,1,2,1,14006.005,0,48923,49942,51609,53601,97.33,98.96,1,1
15903926,15934338,0,1,1,14066,0,48959,50016,51628,53659,97.33,98.96,1,1
15963931,15994338,3,0,1,14126.005,0,48992,50115,51663,53732,97.32,98.96,1,1
16023926,16054338,2,3,1,14186,0,49044,50210,51681,53634,97.32,98.96,1,1
16083931,16114338,1,2,1,14246.005,0,48916,49576,51469,53091,97.32,98.96,1,1
16144926,16174338,0,1,1,14307,0,48581,49002,51333,52954,97.31,98.96,1,1
16204932,16234338,3,0,1,14367.006,0,48600,49209,51373,53099,97.31,98.96,1,1
16264926,16294338,2,3,1,14427,0,48721,49498,51439,53251,97.31,98.96,1,1
16324931,16354338,1,2,1,14487.005,0,48811,49630,51467,53263,97.3,98.96,1,1
16384926,16414337,0,1,1,14547,0,48795,49557,51458,53237,97.3,98.96,1,1
16444931,16475338,3,0,1,14607.005,0,48783,49576,51469,53307,97.3,98.96,1,1
16504926,16535338,2,3,1,14667,0,48827,49724,51528,53439,97.29,98.96,1,1
16564931,16595338,1,2,1,14727.005,0,48894,49884,51582,53563,97.29,98.96,1,1
16624926,16655338,0,1,1,14787,0,48949,50010,51630,53656,97.29,98.96,1,1
16685931,16715338,3,0,1,14848.005,0,48999,50122,51658,53727,97.28,98.96,1,1
16745926,16775338,2,3,1,14908,0,49027,50199,51689,53795,97.28,98.96,1,1
16805931,16835338,1,2,1,14968.005,0,49058,50271,51726,53886,97.28,98.96,1,1
16865926,16895338,0,1,1,15028,0,49085,50188,51677,53561,97.28,98.96,1,1
16925931,16955338,3,0,1,15088.005,0,48785,49217,51422,53031,97.27,98.96,1,1
16985926,17015337,2,3,1,15148,0,48490,48830,51341,53002,97.27,98.96,1,1
17045931,17075337,1,2,1,15208.005,0,48520,48993,51386,53112,97.27,98.96,1,1
17105926,17136338,0,1,1,15268,0,48596,49192,51436,53209,97.26,98.96,1,1
17165931,17196338,3,0,1,15328.005,0,48666,49312,51439,53190,97.26,98.96,1,1
17226926,17256338,2,3,1,15389,0,48652,49251,51426,53187,97.26,98.96,1,1
17286932,17316338,1,2,1,15449.006,0,48644,49290,51458,53282,97.26,98.96,1,1
17346926,17376338,0,1,1,15509,0,48702,49487,51505,53425,97.25,98.95,1,1
17406932,17436338,3,0,1,15569.006,0,48821,49760,51574,53556,97.25,98.95,1,1
17466926,17496338,2,3,1,15629,0,48911,49946,51621,53650,97.25,98.95,1,1
17526931,17556338,1,2,1,15689.005,0,48963,50056,51651,53710,97.24,98.95,1,1
17586926,17616337,0,1,1,15749,0,49001,50122,51677,53767,97.24,98.95,1,1
17646931,17676337,3,0,1,15809.005,0,49030,50204,51709,53844,97.24,98.95,1,1
17707926,17737338,2,3,1,15870,0,49056,50116,51653,53473,97.24,98.95,1,1
17767932,17797338,1,2,1,15930.006,0,48751,49132,51380,52948,97.23,98.94,1,1
17827926,17857338,0,1,1,15990,0,48457,48766,51296,52914,97.23,98.94,1,1
17887932,17917338,3,0,1,16050.006,0,48493,48930,51334,53022,97.23,98.94,1,1
17947926,17977338,2,3,1,16110,0,48574,49149,51389,53124,97.23,98.94,1,1
18007931,18037338,1,2,1,16170.005,0,48654,49282,51409,53121,97.22,98.94,1,1
18067926,18097338,0,1,1,16230,0,48667,49290,51399,53115,97.22,98.93,1,1
18127931,18157337,3,0,1,16290.005,0,48686,49394,51424,53208,97.22,98.93,1,1
18187926,18217337,2,3,1,16350,0,48765,49576,51480,53338,97.22,98.93,1,1
18248932,18277337,1,2,1,16411.006,0,48842,49757,51536,53455,97.21,98.93,1,1
18308926,18338338,0,1,1,16471,0,48906,49905,51578,53555,97.21,98.93,1,1
18368932,18398338,3,0,1,16531.006,0,48962,50016,51611,53632,97.21,98.92,1,1
18428926,18458338,2,3,1,16591,0,49001,50129,51649,53710,97.21,98.92,1,1
18488932,18518338,1,2,1,16651.006,0,49057,50255,51688,53800,97.21,98.92,1,1
18548926,18578338,0,1,1,16711,0,49110,50333,51680,53590,97.2,98.92,1,1
18608931,18638338,3,0,1,16771.005,0,48914,49490,51426,52987,97.2,98.91,1,1
18668926,18698337,2,3,1,16831,0,48565,48928,51292,52877,97.2,98.91,1,1
18728931,18758337,1,2,1,16891.005,0,48569,49077,51324,52977,97.2,98.91,1,1
18789926,18818337,0,1,1,16952,0,48654,49291,51372,53096,97.2,98.91,1,1
18849932,18878337,3,0,1,17012.006,0,48742,49464,51398,53114,97.19,98.9,1,1
18909926,18939338,2,3,1,17072,0,48756,49453,51385,53109,97.19,98.9,1,1
18969932,18999338,1,2,1,17132.006,0,48762,49515,51414,53192,97.19,98.9,1,1
19029926,19059338,0,1,1,17192,0,48830,49705,51470,53321,97.19,98.9,1,1
19089932,19119338,3,0,1,17252.006,0,48910,49884,51526,53445,97.18,98.89,1,1
19149926,19179338,2,3,1,17312,0,48967,50031,51571,53528,97.18,98.89,1,1
19209931,19239338,1,2,1,17372.005,0,49014,50121,51597,53582,97.18,98.89,1,1
19270926,19299337,0,1,1,17433,0,49039,50176,51622,53641,97.18,98.88,1,1
19330932,19359337,3,0,1,17493.006,0,49068,50267,51654,53658,97.18,98.88,1,1
19390926,19419337,2,3,1,17553,0,49018,49815,51492,53110,97.18,98.88,1,1
19450932,19479337,1,2,1,17613.006,0,48637,48980,51295,52865,97.17,98.87,1,1
19510926,19540338,0,1,1,17673,0,48534,48979,51314,52967,97.17,98.87,1,1
19570932,19600338,3,0,1,17733.006,0,48612,49190,51373,53105,97.17,98.87,1,1
19630926,19660338,2,3,1,17793,0,48704,49406,51411,53148,97.17,98.86,1,1
19690931,19720337,1,2,1,17853.005,0,48723,49389,51405,53103,97.17,98.86,1,1
19750926,19780338,0,1,1,17913,0,48707,49408,51403,53147,97.16,98.86,1,1
19811932,19840338,3,0,1,17974.006,0,48757,49565,51451,53270,97.16,98.85,1,1
19871926,19900337,2,3,1,18034,0,48833,49738,51507,53402,97.16,98.85,1,1
19931932,19960337,1,2,1,18094.006,0,48899,49880,51559,53502,97.16,98.85,1,1
19991927,20020337,0,1,1,18154.001,0,48938,49953,51592,53580,97.16,98.84,1,1
20051932,20080337,3,0,1,18214.006,0,48954,50005,51620,53634,97.16,98.84,1,1
20111926,20141338,2,3,1,18274,0,48989,50085,51654,53660,97.15,98.84,1,1
20171931,20201338,1,2,1,18334.005,0,48952,49710,51502,53103,97.15,98.83,1,1
20231926,20261338,0,1,1,18394,0,48548,48797,51265,52756,97.15,98.83,1,1
20291931,20321338,3,0,1,18454.005,0,48399,48707,51254,52811,97.15,98.82,1,1
20352927,20381338,2,3,1,18515.001,0,48470,48908,51297,52920,97.15,98.82,1,1
20412932,20441337,1,2,1,18575.006,0,48555,49115,51342,53000,97.15,98.82,1,1
20472926,20501337,0,1,1,18635,0,48607,49183,51344,52993,97.14,98.81,1,1
20532932,20561337,3,0,1,18695.006,0,48598,49174,51350,53031,97.14,98.81,1,1
20592926,20621337,2,3,1,18755,0,48632,49282,51397,53145,97.14,98.81,1,1
20652932,20681337,1,2,1,18815.006,0,48706,49459,51451,53272,97.14,98.8,1,1
20712926,20742338,0,1,1,18875,0,48774,49608,51502,53373,97.14,98.8,1,1
20772931,20802338,3,0,1,18935.005,0,48819,49726,51538,53455,97.14,98.79,1,1
20832926,20862338,2,3,1,18995,0,48862,49823,51565,53508,97.13,98.79,1,1
20893932,20922337,1,2,1,19056.006,0,48894,49904,51596,53593,97.13,98.79,1,1
20953926,20982337,0,1,1,19116,0,48943,50036,51627,53541,97.13,98.78,1,1
21013932,21042337,3,0,1,19176.006,0,48862,49451,51401,52905,97.13,98.78,1,1
21073927,21102337,2,3,1,19236.001,0,48456,48619,51203,52652,97.13,98.77,1,1
21133932,21162337,1,2,1,19296.006,0,48367,48635,51215,52713,97.13,98.77,1,1
21193926,21222338,0,1,1,19356,0,48423,48778,51241,52807,97.13,98.77,1,1
21253932,21282337,3,0,1,19416.006,0,48510,48997,51293,52880,97.12,98.76,1,1
21313926,21342337,2,3,1,19476,0,48571,49077,51298,52870,97.12,98.76,1,1
21373931,21403338,1,2,1,19536.005,0,48573,49095,51309,52923,97.12,98.75,1,1
21434927,21463338,0,1,1,19597.001,0,48624,49261,51356,53058,97.12,98.75,1,1
21494932,21523337,3,0,1,19657.006,0,48702,49453,51418,53193,97.12,98.74,1,1
21554927,21583337,2,3,1,19717.001,0,48777,49616,51470,53324,97.12,98.74,1,1
21614932,21643337,1,2,1,19777.006,0,48829,49739,51517,53409,97.11,98.74,1,1
21674926,21703338,0,1,1,19837,0,48872,49837,51555,53476,97.11,98.73,1,1
21734932,21763338,3,0,1,19897.006,0,48909,49913,51584,53551,97.11,98.73,1,1
21794926,21823338,2,3,1,19957,0,48951,50019,51628,53622,97.11,98.72,1,1
21854931,21883337,1,2,1,20017.005,0,48967,49812,51516,53118,97.11,98.72,1,1
21915927,21943337,0,1,1,20078.001,0,48587,48762,51239,52634,97.11,98.71,1,1
21975932,22004338,3,0,1,20138.006,0,48352,48521,51188,52655,97.11,98.71,1,1
22035927,22064337,2,3,1,20198.001,0,48402,48685,51229,52753,97.11,98.71,1,1
22095931,22124337,1,2,1,20258.005,0,48468,48887,51285,52884,97.1,98.7,1,1
22155926,22184338,0,1,1,20318,0,48554,49031,51315,52903,97.1,98.7,1,1
22215931,22244338,3,0,1,20378.005,0,48571,49068,51323,52934,97.1,98.69,1,1
22275926,22304338,2,3,1,20438,0,48606,49187,51364,53049,97.1,98.69,1,1
22335932,22364338,1,2,1,20498.006,0,48683,49381,51430,53193,97.1,98.68,1,1
22395926,22424337,0,1,1,20558,0,48760,49549,51486,53317,97.1,98.68,1,1
22456931,22484337,3,0,1,20619.005,0,48820,49691,51530,53414,97.1,98.67,1,1
22516927,22544337,2,3,1,20679.001,0,48866,49791,51567,53504,97.09,98.67,1,1
22576931,22605338,1,2,1,20739.005,0,48911,49882,51606,53593,97.09,98.67,1,1
22636926,22665337,0,1,1,20799,0,48952,49979,51646,53697,97.09,98.66,1,1
22696931,22725338,3,0,1,20859.005,0,49002,50105,51687,53655,97.09,98.66,1,1
22756926,22785338,2,3,1,20919,0,48906,49515,51467,53015,97.09,98.65,1,1
22816932,22845338,1,2,1,20979.006,0,48496,48687,51263,52751,97.09,98.65,1,1
22876926,22905338,0,1,1,21039,0,48410,48720,51278,52838,97.09,98.64,1,1
22936931,22965338,3,0,1,21099.005,0,48496,48930,51319,52950,97.09,98.64,1,1
22997926,23025337,2,3,1,21160,0,48591,49165,51367,53022,97.08,98.63,1,1
23057931,23085337,1,2,1,21220.005,0,48644,49208,51363,53008,97.08,98.63,1,1
23117927,23145337,0,1,1,21280.001,0,48644,49240,51374,53072,97.08,98.63,1,1
23177932,23206338,3,0,1,21340.006,0,48706,49411,51431,53213,97.08,98.62,1,1
23237927,23266338,2,3,1,21400.001,0,48797,49626,51495,53352,97.08,98.62,1,1
23297931,23326338,1,2,1,21460.005,0,48870,49809,51550,53463,97.08,98.61,1,1
23357926,23386338,0,1,1,21520,0,48928,49931,51586,53534,97.08,98.61,1,1
23417932,23446338,3,0,1,21580.006,0,48965,50025,51607,53587,97.08,98.6,1,1
23478926,23506338,2,3,1,21641,0,49005,50128,51638,53662,97.07,98.6,1,1
23538931,23566337,1,2,1,21701.005,0,49053,50218,51646,53546,97.07,98.59,1,1
23598926,23626337,0,1,1,21761,0,48908,49495,51411,52935,97.07,98.59,1,1
23658931,23686337,3,0,1,21821.005,0,48533,48815,51262,52811,97.07,98.58,1,1
23718929,23746337,2,3,1,21881.003,0,48499,48926,51305,52934,97.07,98.58,1,1
23778931,23807338,1,2,1,21941.005,0,48588,49151,51365,53084,97.07,98.57,1,1
23838929,23867338,0,1,1,22001.003,0,48682,49323,51396,53087,97.07,98.57,1,1
23898931,23927338,3,0,1,22061.005,0,48681,49294,51375,53049,97.07,98.56,1,1
23958926,23987338,2,3,1,22121,0,48672,49319,51387,53119,97.06,98.56,1,1
24019931,24047338,1,2,1,22182.005,0,48726,49497,51440,53258,97.06,98.56,1,1
24079928,24107338,0,1,1,22242.002,0,48800,49678,51500,53387,97.06,98.55,1,1
24139931,24167338,3,0,1,22302.005,0,48862,49806,51549,53489,97.06,98.55,1,1
24199929,24227337,2,3,1,22362.003,0,48899,49885,51578,53558,97.06,98.54,1,1
24259931,24287337,1,2,1,22422.005,0,48919,49943,51609,53617,97.06,98.54,1,1
24319929,24347337,0,1,1,22482.003,0,48949,50009,51630,53547,97.06,98.53,1,1
24379931,24407338,3,0,1,22542.005,0,48840,49396,51408,52916,97.06,98.53,1,1
24439929,24468338,2,3,1,22602.003,0,48437,48590,51212,52688,97.06,98.52,1,1
24499931,24528338,1,2,1,22662.005,0,48357,48620,51225,52772,97.05,98.52,1,1
24560929,24588338,0,1,1,22723.003,0,48429,48818,51275,52900,97.05,98.51,1,1
24620931,24648338,3,0,1,22783.005,0,48521,49028,51314,52943,97.05,98.51,1,1
24680928,24708337,2,3,1,22843.002,0,48545,49046,51300,52927,97.05,98.5,1,1
24740931,24768337,1,2,1,22903.005,0,48540,49072,51316,52989,97.05,98.5,1,1
24800928,24828337,0,1,1,22963.002,0,48587,49229,51371,53125,97.05,98.49,1,1
24860931,24888338,3,0,1,23023.005,0,48667,49423,51428,53250,97.05,98.49,1,1
24920929,24948338,2,3,1,23083.003,0,48736,49573,51474,53353,97.05,98.48,1,1
24980931,25008338,1,2,1,23143.005,0,48794,49699,51510,53425,97.05,98.48,1,1
25041929,25069338,0,1,1,23204.003,0,48831,49780,51535,53481,97.04,98.47,1,1
25101931,25129338,3,0,1,23264.005,0,48867,49855,51566,53538,97.04,98.47,1,1
25161928,25189338,2,3,1,23324.002,0,48865,49625,51440,53004,97.04,98.46,1,1
25221931,25249338,1,2,1,23384.005,0,48469,48582,51163,52550,97.04,98.46,1,1
25281929,25309337,0,1,1,23444.003,0,48239,48360,51117,52554,97.04,98.45,1,1
25341931,25369338,3,0,1,23504.005,0,48282,48509,51143,52627,97.04,98.45,1,1
25401929,25429338,2,3,1,23564.003,0,48354,48705,51186,52718,97.04,98.45,1,1
25461931,25489338,1,2,1,23624.005,0,48428,48836,51195,52705,97.04,98.44,1,1
25521927,25549338,0,1,1,23684.001,0,48429,48819,51185,52722,97.04,98.44,1,1
25582931,25609338,3,0,1,23745.005,0,48463,48963,51221,52835,97.03,98.43,1,1
25642929,25670338,2,3,1,23805.003,0,48552,49168,51286,52980,97.03,98.43,1,1
25702931,25730338,1,2,1,23865.005,0,48620,49300,51346,53106,97.03,98.42,1,1
25762929,25790338,0,1,1,23925.003,0,48660,49407,51394,53211,97.03,98.42,1,1
25822931,25850338,3,0,1,23985.005,0,48675,49439,51431,53275,97.03,98.41,1,1
25882929,25910338,2,3,1,24045.003,0,48690,49492,51461,53358,97.03,98.41,1,1
25942931,25970338,1,2,1,24105.005,0,48718,49533,51470,53206,97.03,98.4,1,1
26002929,26030338,0,1,1,24165.003,0,48563,48783,51208,52551,97.03,98.4,1,1
26062931,26090338,3,0,1,24225.005,0,48148,48040,51032,52362,97.03,98.39,1,1
26123929,26150338,2,3,1,24286.003,0,48089,48084,51042,52432,97.03,98.39,1,1
26183931,26210338,1,2,1,24346.005,0,48154,48242,51080,52548,97.03,98.38,1,1
26243929,26271337,0,1,1,24406.003,0,48232,48422,51128,52617,97.02,98.38,1,1
26303931,26331338,3,0,1,24466.005,0,48274,48471,51127,52626,97.02,98.38,1,1
26363929,26391338,2,3,1,24526.003,0,48278,48533,51156,52698,97.02,98.37,1,1
26423931,26451338,1,2,1,24586.005,0,48347,48738,51208,52851,97.02,98.37,1,1
26483929,26511338,0,1,1,24646.003,0,48439,48968,51279,52981,97.02,98.36,1,1
26543932,26571338,3,0,1,24706.006,0,48524,49155,51326,53086,97.02,98.36,1,1
26603926,26631338,2,3,1,24766,0,48582,49271,51365,53152,97.02,98.35,1,1
26664931,26691338,1,2,1,24827.005,0,48627,49372,51383,53214,97.02,98.35,1,1
26724929,26751338,0,1,1,24887.003,0,48675,49472,51424,53316,97.02,98.34,1,1
26784931,26811338,3,0,1,24947.005,0,48728,49581,51441,53189,97.02,98.34,1,1
26844929,26872337,2,3,1,25007.003,0,48581,48848,51187,52571,97.02,98.34,1,1
26904931,26932338,1,2,1,25067.005,0,48191,48201,51039,52428,97.02,98.33,1,1
26964929,26992338,0,1,1,25127.003,0,48181,48347,51070,52529,97.01,98.33,1,1
27024931,27052338,3,0,1,25187.005,0,48279,48588,51121,52656,97.01,98.32,1,1
27084929,27112338,2,3,1,25247.003,0,48383,48814,51151,52682,97.01,98.32,1,1
27145931,27172338,1,2,1,25308.005,0,48405,48810,51139,52655,97.01,98.31,1,1
27205929,27232338,0,1,1,25368.003,0,48401,48845,51155,52745,97.01,98.31,1,1
27265931,27292338,3,0,1,25428.005,0,48460,49023,51216,52886,97.01,98.31,1,1
27325929,27352338,2,3,1,25488.003,0,48548,49205,51277,53023,97.01,98.3,1,1
27385931,27412338,1,2,1,25548.005,0,48605,49330,51329,53111,97.01,98.3,1,1
27445929,27473338,0,1,1,25608.003,0,48644,49392,51354,53163,97.01,98.29,1,1
27505931,27533338,3,0,1,25668.005,0,48666,49460,51379,53231,97.01,98.29,1,1
27565928,27593338,2,3,1,25728.002,0,48704,49548,51405,53166,97.01,98.29,1,1
27625931,27653338,1,2,1,25788.005,0,48611,48996,51179,52558,97.01,98.28,1,1
27686929,27713338,0,1,1,25849.003,0,48207,48220,50991,52331,97.01,98.28,1,1
27746931,27773338,3,0,1,25909.005,0,48136,48265,51007,52433,97.01,98.27,1,1
27806929,27833338,2,3,1,25969.003,0,48216,48465,51063,52569,97.01,98.27,1,1
27866931,27893338,1,2,1,26029.005,0,48307,48656,51102,52623,97.01,98.27,1,1
27926929,27953338,0,1,1,26089.003,0,48325,48649,51097,52596,97.01,98.26,1,1
27986931,28014338,3,0,1,26149.005,0,48311,48651,51112,52659,97.01,98.26,1,1
28046929,28074338,2,3,1,26209.003,0,48358,48814,51165,52792,97,98.26,1,1
28106931,28134338,1,2,1,26269.005,0,48432,48994,51221,52917,97,98.25,1,1
28166926,28194338,0,1,1,26329,0,48493,49134,51264,53011,97,98.25,1,1
28227931,28254338,3,0,1,26390.005,0,48535,49242,51298,53070,97,98.24,1,1
28287928,28314338,2,3,1,26450.002,0,48568,49310,51322,53142,97,98.24,1,1
28347931,28374338,1,2,1,26510.005,0,48603,49396,51360,53216,97,98.24,1,1
28407929,28434338,0,1,1,26570.003,0,48622,49248,51256,52739,97,98.23,1,1
28467931,28494338,3,0,1,26630.005,0,48263,48239,50977,52243,97,98.23,1,1
28527929,28554338,2,3,1,26690.003,0,48011,47956,50917,52238,97,98.23,1,1
28587931,28615338,1,2,1,26750.005,0,48042,48077,50939,52294,97,98.22,1,1
28647928,28675338,0,1,1,26810.002,0,48082,48193,50983,52390,97,98.22,1,1
28707931,28735338,3,0,1,26870.005,0,48147,48327,50998,52394,97,98.21,1,1
28768928,28795338,2,3,1,26931.002,0,48161,48359,50994,52415,97,98.21,1,1
28828931,28855338,1,2,1,26991.005,0,48192,48489,51034,52538,97,98.21,1,1
28888928,28915338,0,1,1,27051.002,0,48273,48682,51101,52684,97,98.2,1,1
28948931,28975338,3,0,1,27111.005,0,48345,48859,51160,52821,97,98.2,1,1
29008928,29035338,2,3,1,27171.002,0,48409,48984,51211,52904,97,98.2,1,1
29068931,29095338,1,2,1,27231.005,0,48455,49074,51240,52973,97,98.19,1,1
29128929,29156338,0,1,1,27291.003,0,48488,49151,51276,53037,97,98.19,1,1
29188931,29216338,3,0,1,27351.005,0,48526,49238,51312,53094,97,98.19,1,1
29248928,29276338,2,3,1,27411.002,0,48530,49022,51168,52536,97,98.18,1,1
29309931,29336338,1,2,1,27472.005,0,48146,48015,50894,52091,97,98.18,1,1
29369928,29396338,0,1,1,27532.002,0,47923,47815,50850,52103,97,98.18,1,1
29429931,29456338,3,0,1,27592.005,0,47978,47968,50874,52196,97,98.17,1,1
29489928,29516338,2,3,1,27652.002,0,48047,48164,50940,52311,97,98.17,1,1
29549931,29576338,1,2,1,27712.005,0,48125,48308,50960,52318,97,98.17,1,1
29609928,29636338,0,1,1,27772.002,0,48133,48300,50959,52345,97,98.16,1,1
29669931,29696337,3,0,1,27832.005,0,48159,48421,51010,52465,97,98.16,1,1
29729929,29757338,2,3,1,27892.003,0,48241,48610,51069,52601,97,98.16,1,1
29789931,29817338,1,2,1,27952.005,0,48310,48770,51123,52713,97,98.15,1,1
29850929,29877338,0,1,1,28013.003,0,48365,48897,51164,52812,97,98.15,1,1
29910931,29937338,3,0,1,28073.005,0,48412,49002,51204,52885,97,98.15,1,1
29970928,29997338,2,3,1,28133.002,0,48456,49121,51236,52979,97,98.14,1,1
30030931,30057338,1,2,1,28193.005,0,48506,49266,51292,53079,97,98.14,1,1
30090929,30117338,0,1,1,28253.003,0,48569,49222,51210,52634,97,98.14,1,1
30150931,30177338,3,0,1,28313.005,0,48263,48280,50929,52128,97,98.13,1,1
30210929,30237338,2,3,1,28373.003,0,48006,47987,50865,52117,97,98.13,1,1
30270931,30297338,1,2,1,28433.005,0,48053,48167,50901,52222,97,98.13,1,1
30331928,30358338,0,1,1,28494.002,0,48142,48387,50953,52338,97,98.12,1,1
30391931,30418338,3,0,1,28554.005,0,48232,48546,50978,52356,97,98.12,1,1
30451929,30478338,2,3,1,28614.003,0,48237,48545,50982,52378,97,98.12,1,1
30511931,30538338,1,2,1,28674.005,0,48262,48659,51019,52514,97,98.11,1,1
30571928,30598338,0,1,1,28734.002,0,48348,48884,51098,52659,97,98.11,1,1
30631931,30658338,3,0,1,28794.005,0,48430,49072,51155,52794,97,98.11,1,1
30691929,30718338,2,3,1,28854.003,0,48497,49200,51205,52873,97,98.1,1,1
30751931,30778338,1,2,1,28914.005,0,48544,49291,51233,52933,97,98.1,1,1
30811928,30838338,0,1,1,28974.002,0,48581,49377,51268,53009,97.01,98.1,1,1
30872931,30899338,3,0,1,29035.005,0,48630,49486,51292,52973,97.01,98.09,1,1
30932928,30959338,2,3,1,29095.002,0,48565,48995,51077,52367,97.01,98.09,1,1
30992931,31019338,1,2,1,29155.005,0,48189,48265,50894,52168,97.01,98.09,1,1
31052928,31079338,0,1,1,29215.002,0,48130,48330,50928,52287,97.01,98.08,1,1
31112931,31139338,3,0,1,29275.005,0,48212,48553,50998,52438,97.01,98.08,1,1
31172928,31199338,2,3,1,29335.002,0,48311,48762,51036,52471,97.01,98.08,1,1
31232931,31259338,1,2,1,29395.005,0,48313,48671,51016,52428,97.01,98.07,1,1
31292929,31319338,0,1,1,29455.003,0,48261,48625,51024,52487,97.01,98.07,1,1
31353931,31379338,3,0,1,29516.005,0,48307,48784,51082,52626,97.01,98.07,1,1
31413928,31439338,2,3,1,29576.002,0,48393,48982,51144,52770,97.01,98.07,1,1
31473931,31499338,1,2,1,29636.005,0,48459,49126,51203,52877,97.01,98.06,1,1
31533928,31560338,0,1,1,29696.002,0,48504,49222,51233,52954,97.01,98.06,1,1
31593931,31620338,3,0,1,29756.005,0,48541,49298,51271,53027,97.01,98.06,1,1
31653928,31680338,2,3,1,29816.002,0,48575,49361,51270,52848,97.01,98.05,1,1
31713931,31740338,1,2,1,29876.005,0,48434,48697,51009,52237,97.01,98.05,1,1
31773929,31800338,0,1,1,29936.003,0,48086,48121,50867,52112,97.02,98.05,1,1
31833931,31860338,3,0,1,29996.005,0,48067,48236,50903,52219,97.02,98.04,1,1
31894929,31920338,2,3,1,30057.003,1,48154,48454,50960,52357,97.02,98.04,1,1
31954931,31980338,1,2,1,30117.005,1,48248,48638,50993,52382,97.02,98.04,1,1
32014929,32040338,0,1,1,30177.003,1,48258,48609,50984,52376,97.02,98.03,1,1
32074931,32100338,3,0,1,30237.005,1,48253,48644,51007,52480,97.02,98.03,1,1
32134929,32161338,2,3,1,30297.003,1,48307,48806,51077,52620,97.02,98.03,1,1
32194931,32221338,1,2,1,30357.005,1,48386,48974,51137,52753,97.02,98.03,1,1
32254928,32281338,0,1,1,30417.002,1,48447,49118,51189,52840,97.02,98.02,1,1
32314931,32341338,3,0,1,30477.005,1,48488,49189,51214,52893,97.02,98.02,1,1
32374927,32401338,2,3,1,30537.001,1,48504,49254,51238,52948,97.02,98.02,1,1
32435931,32461338,1,2,1,30598.005,1,48541,49341,51259,52874,97.03,98.01,1,1
32495929,32521338,0,1,1,30658.003,1,48462,48807,51013,52205,97.03,98.01,1,1
32555931,32581338,3,0,1,30718.005,1,48064,48005,50807,51968,97.03,98.01,1,1
32615929,32641338,2,3,1,30778.003,1,47969,47987,50817,52025,97.03,98,1,1
32675931,32701337,1,2,1,30838.005,1,48017,48124,50852,52122,97.03,98,1,1
32735928,32762338,0,1,1,30898.002,1,48099,48324,50906,52207,97.03,98,1,1
32795931,32822338,3,0,1,30958.005,1,48154,48384,50909,52183,97.03,98,1,1
32855926,32882338,2,3,1,31018,1,48152,48427,50916,52248,97.03,97.99,1,1
32916931,32942338,1,2,1,31079.005,1,48210,48588,50979,52390,97.03,97.99,1,1
32976929,33002338,0,1,1,31139.003,1,48288,48780,51042,52537,97.03,97.99,1,1
33036931,33062338,3,0,1,31199.005,1,48362,48944,51099,52647,97.04,97.98,1,1
33096929,33122338,2,3,1,31259.003,1,48421,49063,51143,52743,97.04,97.98,1,1
33156931,33182338,1,2,1,31319.005,1,48468,49170,51183,52818,97.04,97.98,1,1
33216929,33242338,0,1,1,31379.003,1,48507,49261,51227,52918,97.04,97.98,1,1
33276931,33302338,3,0,1,31439.005,1,48551,49272,51176,52547,97.04,97.97,1,1
33336929,33363338,2,3,1,31499.003,1,48319,48416,50877,51964,97.04,97.97,1,1
33396932,33423338,1,2,1,31559.006,1,48015,47996,50776,51901,97.04,97.97,1,1
33457929,33483338,0,1,1,31620.003,1,48026,48117,50799,51966,97.04,97.97,1,1
33517931,33543338,3,0,1,31680.005,1,48087,48287,50854,52104,97.05,97.96,1,1
33577929,33603338,2,3,1,31740.003,1,48188,48506,50899,52158,97.05,97.96,1,1
33637931,33663338,1,2,1,31800.005,1,48232,48588,50916,52209,97.05,97.96,1,1
33697929,33723338,0,1,1,31860.003,1,48278,48721,50963,52330,97.05,97.95,1,1
33757931,33783338,3,0,1,31920.005,1,48357,48923,51027,52483,97.05,97.95,1,1
33817929,33843338,2,3,1,31980.003,1,48449,49110,51085,52581,97.05,97.95,1,1
33877931,33903338,1,2,1,32040.005,1,48499,49177,51117,52646,97.05,97.95,1,1
33937926,33963338,0,1,1,32100,1,48521,49248,51139,52698,97.05,97.94,1,1
33998931,34024338,3,0,1,32161.005,1,48560,49325,51168,52775,97.06,97.94,1,1
34058929,34084338,2,3,1,32221.003,1,48600,49427,51218,52885,97.06,97.94,1,1
34118931,34144338,1,2,1,32281.005,1,48644,49473,51187,52586,97.06,97.94,1,1
34178929,34204338,0,1,1,32341.003,1,48427,48625,50897,51983,97.06,97.93,1,1
34238931,34264338,3,0,1,32401.005,1,48102,48165,50789,51914,97.06,97.93,1,1
34298929,34324338,2,3,1,32461.003,1,48127,48326,50817,51997,97.06,97.93,1,1
34358931,34384338,1,2,1,32521.005,1,48206,48537,50872,52121,97.06,97.93,1,1
34418929,34444338,0,1,1,32581.003,1,48312,48748,50904,52155,97.07,97.92,1,1
34479931,34504338,3,0,1,32642.005,1,48348,48768,50900,52158,97.07,97.92,1,1
34539929,34564338,2,3,1,32702.003,1,48362,48841,50929,52270,97.07,97.92,1,1
34599931,34625338,1,2,1,32762.005,1,48430,49030,51008,52433,97.07,97.92,1,1
34659929,34685338,0,1,1,32822.003,1,48519,49220,51072,52571,97.07,97.91,1,1
34719931,34745338,3,0,1,32882.005,1,48582,49375,51126,52659,97.07,97.91,1,1
34779929,34805338,2,3,1,32942.003,1,48643,49492,51150,52714,97.08,97.91,1,1
34839931,34865338,1,2,1,33002.005,1,48685,49605,51173,52766,97.08,97.91,1,1
34899929,34925338,0,1,1,33062.003,1,48736,49727,51209,52867,97.08,97.91,1,1
34959931,34985338,3,0,1,33122.005,1,48795,49761,51173,52544,97.08,97.9,1,1
35020929,35045338,2,3,1,33183.003,1,48555,48914,50885,51999,97.08,97.9,1,1
35080931,35105338,1,2,1,33243.005,1,48257,48496,50808,51996,97.08,97.9,1,1
35140929,35165338,0,1,1,33303.003,1,48286,48663,50865,52139,97.09,97.9,1,1
35200931,35226338,3,0,1,33363.005,1,48370,48862,50940,52283,97.09,97.89,1,1
35260929,35286338,2,3,1,33423.003,1,48445,48971,50958,52266,97.09,97.89,1,1
35320931,35346338,1,2,1,33483.005,1,48435,48956,50944,52270,97.09,97.89,1,1
35380929,35406338,0,1,1,33543.003,1,48461,49068,50981,52375,97.09,97.89,1,1
35440931,35466338,3,0,1,33603.005,1,48536,49261,51044,52522,97.1,97.89,1,1
35500929,35526338,2,3,1,33663.003,1,48614,49436,51097,52631,97.1,97.88,1,1
35561932,35586338,1,2,1,33724.006,1,48674,49557,51139,52710,97.1,97.88,1,1
35621929,35646338,0,1,1,33784.003,1,48702,49606,51159,52772,97.1,97.88,1,1
35681931,35706338,3,0,1,33844.005,1,48727,49672,51195,52858,97.1,97.88,1,1
35741929,35766338,2,3,1,33904.003,1,48772,49760,51212,52758,97.1,97.88,1,1
35801931,35827338,1,2,1,33964.005,1,48648,49107,50979,52165,97.11,97.88,1,1
35861929,35887338,0,1,1,34024.003,1,48273,48438,50836,52046,97.11,97.87,1,1
35921932,35947338,3,0,1,34084.006,1,48243,48555,50864,52142,97.11,97.87,1,1
35981929,36007338,2,3,1,34144.003,1,48328,48742,50920,52273,97.11,97.87,1,1
36041931,36067338,1,2,1,34204.005,1,48412,48941,50958,52317,97.12,97.87,1,1
36102929,36127338,0,1,1,34265.003,1,48444,48972,50946,52296,97.12,97.87,1,1
36162932,36187338,3,0,1,34325.006,1,48449,49009,50959,52379,97.12,97.86,1,1
36222929,36247338,2,3,1,34385.003,1,48499,49168,51019,52514,97.12,97.86,1,1
36282932,36307338,1,2,1,34445.006,1,48584,49361,51072,52640,97.12,97.86,1,1
36342929,36367338,0,1,1,34505.003,1,48650,49483,51124,52742,97.13,97.86,1,1
36402931,36427337,3,0,1,34565.005,1,48686,49568,51161,52801,97.13,97.86,1,1
36462929,36488338,2,3,1,34625.003,1,48724,49650,51183,52859,97.13,97.86,1,1
36522932,36548338,1,2,1,34685.006,1,48754,49737,51219,52935,97.13,97.85,1,1
36582929,36608338,0,1,1,34745.003,1,48801,49764,51182,52642,97.14,97.85,1,1
36643931,36668338,3,0,1,34806.005,1,48564,48891,50903,52115,97.14,97.85,1,1
36703929,36728338,2,3,1,34866.003,1,48238,48437,50821,52093,97.14,97.85,1,1
36763932,36788338,1,2,1,34926.006,1,48253,48570,50854,52174,97.14,97.85,1,1
36823929,36848338,0,1,1,34986.003,1,48319,48735,50900,52294,97.15,97.84,1,1
36883932,36908338,3,0,1,35046.006,1,48406,48927,50934,52326,97.15,97.84,1,1
36943929,36968338,2,3,1,35106.003,1,48442,48950,50929,52320,97.15,97.84,1,1
37003932,37028337,1,2,1,35166.006,1,48453,49029,50933,52333,97.15,97.84,1,1
37063929,37089338,0,1,1,35226.003,1,48530,49228,50955,52428,97.16,97.84,1,1
37123932,37149338,3,0,1,35286.006,1,48619,49427,50988,52509,97.16,97.84,1,1
37184929,37209338,2,3,1,35347.003,1,48684,49581,51028,52605,97.16,97.83,1,1
37244932,37269338,1,2,1,35407.006,1,48735,49685,51061,52695,97.16,97.83,1,1
37304929,37329338,0,1,1,35467.003,1,48775,49787,51090,52754,97.17,97.83,1,1
37364932,37389338,3,0,1,35527.006,1,48815,49900,51120,52841,97.17,97.83,1,1
37424929,37449338,2,3,1,35587.003,1,48875,49926,51105,52597,97.17,97.83,1,1
37484932,37509338,1,2,1,35647.006,1,48635,49057,50855,52139,97.17,97.83,1,1
37544929,37569338,0,1,1,35707.003,1,48335,48642,50786,52086,97.18,97.82,1,1
37604932,37629337,3,0,1,35767.006,1,48361,48792,50794,52120,97.18,97.82,1,1
37664929,37690338,2,3,1,35827.003,1,48437,48997,50813,52182,97.18,97.82,1,1
37725932,37750338,1,2,1,35888.006,1,48542,49208,50821,52200,97.18,97.82,1,1
37785929,37810338,0,1,1,35948.003,1,48568,49234,50811,52204,97.19,97.82,1,1
37845932,37870338,3,0,1,36008.006,1,48587,49322,50829,52281,97.19,97.81,1,1
37905929,37930338,2,3,1,36068.003,1,48668,49543,50876,52364,97.19,97.81,1,1
37965932,37990338,1,2,1,36128.006,1,48751,49723,50913,52444,97.2,97.81,1,1
38025929,38050338,0,1,1,36188.003,1,48823,49878,50943,52506,97.2,97.81,1,1
38085931,38110337,3,0,1,36248.005,1,48871,49983,50962,52551,97.2,97.81,1,1
38145929,38170337,2,3,1,36308.003,1,48906,50057,50972,52591,97.2,97.8,1,1
38206931,38231338,1,2,1,36369.005,1,48952,50161,50992,52640,97.21,97.8,1,1
38266929,38291338,0,1,1,36429.003,1,49004,50218,50990,52528,97.21,97.8,1,1
38326932,38351338,3,0,1,36489.006,1,48797,49404,50767,52071,97.21,97.8,1,1
38386929,38411338,2,3,1,36549.003,1,48478,48946,50681,51991,97.22,97.79,1,1
38446932,38471338,1,2,1,36609.006,1,48505,49134,50694,52010,97.22,97.79,1,1
38506929,38531338,0,1,1,36669.003,1,48597,49364,50712,52078,97.22,97.79,1,1
38566932,38591338,3,0,1,36729.006,1,48676,49499,50731,52100,97.23,97.79,1,1
38626929,38651338,2,3,1,36789.003,1,48677,49461,50708,52079,97.23,97.78,1,1
38687932,38711337,1,2,1,36850.006,1,48674,49511,50697,52077,97.23,97.78,1,1
38747929,38771337,0,1,1,36910.003,1,48739,49678,50705,52131,97.23,97.78,1,1
38807932,38831337,3,0,1,36970.006,1,48814,49849,50729,52186,97.24,97.77,1,1
38867929,38892338,2,3,1,37030.003,1,48865,49970,50750,52245,97.24,97.77,1,1
38927932,38952338,1,2,1,37090.006,1,48906,50044,50767,52254,97.24,97.77,1,1
38987929,39012338,0,1,1,37150.003,1,48929,50120,50759,52243,97.25,97.77,1,1
39047932,39072338,3,0,1,37210.006,1,48964,50216,50745,52211,97.25,97.76,1,1
39107929,39132338,2,3,1,37270.003,1,48998,50158,50723,52168,97.25,97.76,1,1
39167932,39192338,1,2,1,37330.006,1,48702,49252,50613,51895,97.26,97.75,1,1
39228929,39252338,0,1,1,37391.003,1,48449,48959,50525,51776,97.26,97.75,1,1
39288932,39312337,3,0,1,37451.006,1,48495,49137,50499,51752,97.26,97.75,1,1
39348929,39372337,2,3,1,37511.003,1,48571,49333,50503,51784,97.27,97.74,1,1
39408932,39432337,1,2,1,37571.006,1,48648,49455,50511,51805,97.27,97.74,1,1
39468929,39492337,0,1,1,37631.003,1,48638,49412,50515,51807,97.27,97.73,1,1
39528932,39553338,3,0,1,37691.006,1,48644,49489,50510,51813,97.28,97.73,1,1
39588929,39613338,2,3,1,37751.003,1,48714,49673,50513,51814,97.28,97.73,1,1
39648932,39673338,1,2,1,37811.006,1,48789,49842,50511,51820,97.28,97.72,1,1
39708929,39733338,0,1,1,37871.003,1,48842,49965,50504,51810,97.29,97.72,1,1
39769932,39793338,3,0,1,37932.006,1,48884,50064,50481,51788,97.29,97.71,1,1
39829929,39853337,2,3,1,37992.003,1,48912,50131,50471,51780,97.29,97.71,1,1
39889932,39913337,1,2,1,38052.006,1,48945,50221,50459,51770,97.3,97.7,1,1
39949928,39973338,0,1,1,38112.002,1,48990,50303,50458,51776,97.3,97.69,1,1
40009932,40033338,3,0,1,38172.006,1,48830,49559,50452,51716,97.3,97.69,1,1
40069929,40093337,2,3,1,38232.003,1,48455,48906,50361,51563,97.31,97.68,1,1
40129932,40154338,1,2,1,38292.006,1,48423,48994,50331,51521,97.31,97.68,1,1
40189929,40214338,0,1,1,38352.003,1,48483,49145,50309,51483,97.31,97.67,1,1
40249932,40274338,3,0,1,38412.006,1,48558,49338,50292,51456,97.32,97.67,1,1
40310929,40334338,2,3,1,38473.003,1,48588,49346,50277,51452,97.32,97.66,1,1
40370932,40394337,1,2,1,38533.006,1,48581,49369,50274,51455,97.32,97.65,1,1
40430929,40454338,0,1,1,38593.003,1,48625,49538,50270,51471,97.33,97.65,1,1
40490932,40514337,3,0,1,38653.006,1,48704,49720,50278,51484,97.33,97.64,1,1
40550929,40574338,2,3,1,38713.003,1,48770,49865,50281,51501,97.33,97.63,1,1
40610932,40634338,1,2,1,38773.006,1,48818,49970,50280,51511,97.34,97.62,1,1
40670929,40694338,0,1,1,38833.003,1,48859,50049,50285,51520,97.34,97.62,1,1
40730932,40754337,3,0,1,38893.006,1,48892,50130,50281,51533,97.35,97.61,1,1
40791929,40815338,2,3,1,38954.003,1,48937,50236,50280,51538,97.35,97.6,1,1
40851932,40875338,1,2,1,39014.006,1,48982,50244,50276,51567,97.35,97.59,1,1
40911929,40935338,0,1,1,39074.003,1,48726,49352,50282,51527,97.36,97.59,1,1
40971932,40995338,3,0,1,39134.006,1,48409,48921,50211,51434,97.36,97.58,1,1
41031929,41055338,2,3,1,39194.003,1,48437,49086,50212,51431,97.36,97.57,1,1
41091933,41115338,1,2,1,39254.007,1,48510,49276,50205,51415,97.37,97.56,1,1
41151929,41175338,0,1,1,39314.003,1,48592,49425,50201,51413,97.37,97.55,1,1
41211932,41235338,3,0,1,39374.006,2,48596,49411,50202,51415,97.38,97.55,1,1
41271929,41295338,2,3,1,39434.003,2,48602,49463,50196,51421,97.38,97.54,1,1
41332933,41355337,1,2,1,39495.007,2,48673,49651,50197,51428,97.38,97.53,1,1
41392929,41416338,0,1,1,39555.003,2,48753,49827,50187,51447,97.39,97.52,1,1
41452932,41476338,3,0,1,39615.006,2,48814,49950,50197,51471,97.39,97.51,1,1
41512929,41536338,2,3,1,39675.003,2,48856,50050,50206,51501,97.4,97.5,1,1
41572932,41596338,1,2,1,39735.006,2,48887,50110,50217,51511,97.4,97.49,1,1
41632929,41656338,0,1,1,39795.003,2,48918,50208,50212,51523,97.4,97.48,1,1
41692931,41716338,3,0,1,39855.005,2,48953,50263,50226,51539,97.41,97.47,1,1
41752929,41776338,2,3,1,39915.003,2,48779,49506,50213,51501,97.41,97.46,1,1
41812932,41836338,1,2,1,39975.006,2,48432,48956,50136,51365,97.42,97.45,1,1
41873929,41896337,0,1,1,40036.003,2,48428,49078,50115,51346,97.42,97.44,1,1
41933933,41956337,3,0,1,40096.007,2,48513,49269,50111,51325,97.42,97.43,1,1
41993929,42017338,2,3,1,40156.003,2,48589,49416,50097,51311,97.43,97.42,1,1
42053933,42077338,1,2,1,40216.007,2,48593,49372,50095,51318,97.43,97.41,1,1
42113929,42137338,0,1,1,40276.003,2,48589,49419,50098,51308,97.44,97.4,1,1
42173933,42197338,3,0,1,40336.007,2,48647,49581,50094,51308,97.44,97.39,1,1
42233929,42257338,2,3,1,40396.003,2,48718,49758,50092,51300,97.44,97.38,1,1
42293932,42317338,1,2,1,40456.006,2,48772,49878,50078,51300,97.45,97.37,1,1
42353929,42377338,0,1,1,40516.003,2,48814,49965,50075,51298,97.45,97.36,1,1
42414933,42437337,3,0,1,40577.007,2,48842,50029,50068,51306,97.46,97.35,1,1
42474929,42497337,2,3,1,40637.003,2,48872,50096,50071,51317,97.46,97.33,1,1
42534933,42557337,1,2,1,40697.007,2,48917,50191,50071,51337,97.47,97.32,1,1
42594929,42618338,0,1,1,40757.003,2,48830,49636,50071,51326,97.47,97.31,1,1
42654933,42678338,3,0,1,40817.007,2,48431,48824,49994,51137,97.47,97.3,1,1
42714929,42738338,2,3,1,40877.003,2,48341,48843,49947,51078,97.48,97.29,1,1
42774932,42798338,1,2,1,40937.006,2,48408,49000,49926,51022,97.48,97.28,1,1
42834929,42858338,0,1,1,40997.003,2,48485,49191,49900,50979,97.49,97.26,1,1
42894932,42918338,3,0,1,41057.006,2,48522,49213,49885,50944,97.49,97.25,1,1
42955929,42978337,2,3,1,41118.003,2,48502,49200,49865,50932,97.5,97.24,1,1
43015933,43038338,1,2,1,41178.007,2,48542,49338,49857,50920,97.5,97.23,1,1
43075929,43098337,0,1,1,41238.003,2,48617,49517,49851,50926,97.51,97.22,1,1
43135933,43158337,3,0,1,41298.007,2,48686,49642,49854,50922,97.51,97.2,1,1
43195929,43219338,2,3,1,41358.003,2,48723,49718,49850,50915,97.51,97.19,1,1
43255932,43279338,1,2,1,41418.006,2,48753,49767,49834,50896,97.52,97.18,1,1
43315929,43339338,0,1,1,41478.003,2,48776,49850,49835,50928,97.52,97.17,1,1
43375932,43399338,3,0,1,41538.006,2,48836,50024,49844,50957,97.53,97.15,1,1
43436929,43459338,2,3,1,41599.003,2,48914,50171,49852,50989,97.53,97.14,1,1
43496933,43519338,1,2,1,41659.007,2,48780,49503,49855,50969,97.54,97.13,1,1
43556929,43579337,0,1,1,41719.003,2,48408,48821,49762,50788,97.54,97.11,1,1
43616933,43639337,3,0,1,41779.007,2,48370,48900,49718,50729,97.55,97.1,1,1
43676929,43699337,2,3,1,41839.003,2,48447,49078,49707,50700,97.55,97.09,1,1
43736933,43759337,1,2,1,41899.007,2,48540,49283,49701,50680,97.56,97.08,1,1
43796929,43820338,0,1,1,41959.003,2,48580,49298,49683,50654,97.56,97.06,1,1
43856932,43880338,3,0,1,42019.006,2,48573,49312,49675,50638,97.57,97.05,1,1
43916929,43940338,2,3,1,42079.003,2,48631,49478,49660,50615,97.57,97.04,1,1
43977933,44000338,1,2,1,42140.007,2,48706,49660,49646,50603,97.57,97.02,1,1
44037929,44060338,0,1,1,42200.003,2,48778,49818,49638,50603,97.58,97.01,1,1
44097932,44120338,3,0,1,42260.006,2,48823,49921,49633,50604,97.58,97,1,1
44157929,44180337,2,3,1,42320.003,2,48847,49990,49629,50607,97.59,96.98,1,1
44217933,44240337,1,2,1,42380.007,2,48885,50075,49633,50605,97.59,96.97,1,1
44277929,44300337,0,1,1,42440.003,2,48922,50171,49623,50602,97.6,96.96,1,1
44337931,44360338,3,0,1,42500.005,2,48960,50099,49615,50576,97.6,96.94,1,1
44397929,44420338,2,3,1,42560.003,2,48657,49150,49576,50472,97.61,96.93,1,1
44457932,44481338,1,2,1,42620.006,2,48381,48816,49521,50385,97.61,96.92,1,1
44518929,44541338,0,1,1,42681.003,2,48425,48980,49497,50352,97.62,96.9,1,1
44578932,44601338,3,0,1,42741.006,2,48493,49167,49478,50324,97.62,96.89,1,1
44638929,44661338,2,3,1,42801.003,2,48568,49285,49468,50311,97.63,96.88,1,1
44698933,44721338,1,2,1,42861.007,2,48548,49238,49462,50306,97.63,96.86,1,1
44758929,44781338,0,1,1,42921.003,2,48551,49313,49461,50293,97.64,96.85,1,1
44818933,44841338,3,0,1,42981.007,2,48614,49489,49450,50287,97.64,96.84,1,1
44878929,44901338,2,3,1,43041.003,2,48686,49640,49446,50279,97.65,96.82,1,1
44938933,44961338,1,2,1,43101.007,2,48732,49736,49431,50273,97.65,96.81,1,1
44998929,45021338,0,1,1,43161.003,2,48765,49805,49428,50271,97.65,96.79,1,1
45059933,45082338,3,0,1,43222.007,2,48799,49869,49421,50283,97.66,96.78,1,1
45119929,45142338,2,3,1,43282.003,2,48829,49950,49421,50288,97.66,96.77,1,1
45179933,45202338,1,2,1,43342.007,2,48870,49968,49423,50309,97.67,96.75,1,1
45239929,45262338,0,1,1,43402.003,2,48622,49076,49409,50234,97.67,96.74,1,1
45299933,45322338,3,0,1,43462.007,2,48290,48622,49342,50123,97.68,96.73,1,1
45359929,45382338,2,3,1,43522.003,2,48308,48784,49331,50097,97.68,96.71,1,1
45419932,45442338,1,2,1,43582.006,2,48375,48958,49314,50054,97.69,96.7,1,1
45479929,45502338,0,1,1,43642.003,2,48462,49120,49292,50033,97.69,96.69,1,1
45540933,45562338,3,0,1,43703.007,2,48465,49089,49278,50002,97.7,96.67,1,1
45600929,45622338,2,3,1,43763.003,2,48467,49144,49256,49990,97.7,96.66,1,1
45660933,45682338,1,2,1,43823.007,2,48532,49314,49254,49987,97.71,96.65,1,1
45720929,45743338,0,1,1,43883.003,2,48610,49469,49255,49998,97.71,96.63,1,1
45780933,45803338,3,0,1,43943.007,2,48657,49585,49258,49997,97.72,96.62,1,1
45840929,45863338,2,3,1,44003.003,2,48700,49679,49255,50004,97.72,96.61,1,1
45900932,45923338,1,2,1,44063.006,2,48732,49749,49250,50003,97.73,96.59,1,1
45960929,45983338,0,1,1,44123.003,2,48764,49845,49247,50001,97.73,96.58,1,1
46020932,46043338,3,0,1,44183.006,2,48805,49955,49239,50011,97.73,96.57,1,1
46081929,46103338,2,3,1,44244.003,2,48809,49714,49232,49999,97.74,96.55,1,1
46141933,46163338,1,2,1,44304.007,2,48425,48717,49174,49849,97.74,96.54,1,1
46201929,46223338,0,1,1,44364.003,2,48218,48536,49127,49784,97.75,96.53,1,1
46261933,46283338,3,0,1,44424.007,2,48488,48697,49116,49756,97.75,96.51,1,1
46321929,46344338,2,3,1,44484.003,2,48342,48880,49101,49715,97.76,96.5,1,1
46381933,46404338,1,2,1,44544.007,2,48411,48980,49085,49680,97.76,96.49,1,1
46441929,46464338,0,1,1,44604.003,2,48408,48969,49070,49649,97.77,96.47,1,1
46501932,46524338,3,0,1,44664.006,2,48437,49093,49052,49628,97.77,96.46,1,1
46561929,46584338,2,3,1,44724.003,2,48515,49301,49039,49611,97.78,96.45,1,1
46622932,46664338,2,3,1,44785.006,2,48612,49504,49019,49607,97.78,96.44,1,1
46702929,46724338,1,2,1,44865.003,2,48660,49604,49017,49603,97.79,96.42,1,1
46762933,46784338,0,1,1,44925.007,2,48693,49673,49019,49617,97.79,96.41,1,1
46822929,46844338,3,0,1,44985.003,2,48724,49744,49020,49626,97.8,96.4,1,1
46882933,46904338,2,3,1,45045.007,2,48765,49842,49022,49626,97.8,96.38,1,1
46942929,46965338,1,2,1,45105.003,2,48813,49885,49023,49628,97.81,96.37,1,1
47002933,47025338,0,1,1,45165.007,2,48592,49014,48995,49516,97.81,96.36,1,1
47062929,47085338,3,0,1,45225.003,2,48246,48522,48913,49396,97.81,96.35,1,1
47122932,47145338,2,3,1,45285.006,2,48262,48664,48894,49352,97.82,96.33,1,1
47183929,47225338,2,3,1,45346.003,2,48346,48910,48866,49312,97.82,96.32,1,1
47263933,47305338,2,3,1,45426.007,2,48440,49032,48849,49290,97.83,96.31,1,1
47343929,47365338,1,2,1,45506.003,2,48437,49073,48849,49278,97.83,96.3,1,1
47403933,47425338,0,1,1,45566.007,2,48492,49226,48841,49261,97.84,96.28,1,1
47463929,47485338,3,0,1,45626.003,2,48565,49387,48829,49247,97.84,96.27,1,1
47523933,47545338,2,3,1,45686.007,2,48765,49521,48823,49233,97.85,96.26,1,1
47583929,47606338,1,2,1,45746.003,2,48674,49615,48809,49226,97.85,96.25,1,1
47643932,47666338,0,1,1,45806.006,2,48711,49694,48805,49217,97.86,96.23,1,1
47704929,47746338,0,1,1,45867.003,2,48745,49800,48795,49232,97.86,96.22,1,1
47784933,47826338,0,1,1,45947.007,2,48802,49887,48805,49250,97.87,96.21,1,1
47864929,47906338,0,1,1,46027.003,2,48445,48733,48748,49086,97.87,96.2,1,1
47944932,47966338,3,0,1,46107.006,2,48193,48475,48707,49011,97.87,96.19,1,1
48004929,48026338,2,3,1,46167.003,2,48240,48635,48690,48976,97.88,96.17,1,1
48064933,48086338,1,2,1,46227.007,2,48307,48809,48677,48947,97.88,96.16,1,1
48124929,48146338,0,1,1,46287.003,2,48591,48943,48659,48926,97.89,96.15,1,1
48184932,48207338,3,0,1,46347.006,2,48381,48917,48644,48900,97.89,96.14,1,1
48245929,48287338,3,0,1,46408.003,2,48406,49059,48624,48886,97.9,96.13,1,1
48325932,48367338,3,0,1,46488.006,2,48502,49284,48624,48887,97.9,96.12,1,1
48405929,48447338,3,0,1,46568.003,2,48581,49456,48629,48894,97.91,96.1,1,1
48485932,48527338,3,0,1,46648.006,2,48632,49565,48623,48893,97.91,96.09,1,1
48565929,48587338,2,3,1,46728.003,2,48663,49642,48623,48890,97.92,96.08,1,1
48625932,48647338,1,2,1,46788.006,2,48704,49751,48617,48888,97.92,96.07,1,1
48685929,48707338,0,1,1,46848.003,2,48754,49855,48609,48888,97.92,96.06,1,1
48746933,48787338,0,1,1,46909.007,2,48696,49352,48598,48823,97.93,96.05,1,1
48826929,48868338,0,1,1,46989.003,2,48172,48389,48503,48676,97.93,96.04,1,1
48906932,48948338,0,1,1,47069.006,2,48184,48550,48494,48651,97.94,96.03,1,1
48986929,49028338,0,1,1,47149.003,2,48270,48780,48488,48630,97.94,96.01,1,1
49066931,49108338,0,1,1,47229.005,2,48338,48893,48472,48610,97.95,96,1,1
49146929,49168338,3,0,1,47309.003,2,48344,48940,48459,48593,97.95,95.99,1,1
49206932,49228338,2,3,1,47369.006,2,48411,49125,48452,48585,97.96,95.98,1,1
49267929,49308338,2,3,1,47430.003,2,48539,49395,48442,48579,97.96,95.97,1,1
49347933,49388338,2,3,1,47510.007,2,48626,49572,48443,48589,97.96,95.96,1,1
49427929,49469338,2,3,1,47590.003,2,48684,49698,48441,48611,97.97,95.95,1,1
49507933,49549338,2,3,1,47670.007,2,48741,49848,48449,48619,97.97,95.94,1,1
49587929,49629338,2,3,1,47750.003,2,48810,50008,48445,48631,97.98,95.93,1,1
49667932,49709338,2,3,1,47830.006,2,48860,49945,48443,48627,97.98,95.92,1,1
49747929,49789338,2,3,1,47910.003,2,48382,48748,48370,48468,97.99,95.91,1,1
49828933,49869338,2,3,1,47991.007,2,48299,48814,48356,48464,97.99,95.9,1,1
49908929,49949338,2,3,1,48071.003,2,48401,49070,48354,48458,98,95.89,1,1
49988932,50029338,2,3,1,48151.006,2,48486,49209,48360,48461,98,95.88,1,1
50068929,50110338,2,3,1,48231.003,2,48479,49234,48348,48458,98,95.87,1,1
50148931,50190338,2,3,1,48311.005,2,48572,49497,48345,48446,98.01,95.86,1,1
50228929,50270338,2,3,1,48391.003,2,48687,49733,48331,48444,98.01,95.85,1,1
50308932,50350338,2,3,1,48471.006,2,48757,49888,48330,48441,98.02,95.84,1,1
50389929,50430338,2,3,1,48552.003,2,48817,49985,48323,48454,98.02,95.83,1,1
50469933,50510338,2,3,1,48632.007,2,48860,50109,48327,48485,98.03,95.82,1,1
50549929,50590338,2,3,1,48712.003,2,48920,50136,48340,48492,98.03,95.81,1,1
50629932,50670338,2,3,1,48792.006,2,48491,48965,48283,48367,98.04,95.8,1,1
50709929,50751338,2,3,1,48872.003,2,48328,48900,48261,48337,98.04,95.79,1,1
50789932,50831338,2,3,1,48952.006,2,48420,49168,48249,48321,98.04,95.78,1,1
50870929,50911338,2,3,1,49033.003,2,48507,49278,48237,48304,98.05,95.77,1,1
50950933,50991338,2,3,1,49113.007,2,48488,49292,48231,48297,98.05,95.76,1,1
51030929,51071338,2,3,1,49193.003,2,48577,49511,48222,48314,98.06,95.75,1,1
51110933,51151338,2,3,1,49273.007,2,48665,49722,48228,48314,98.06,95.74,1,1
51190929,51231338,2,3,1,49353.003,2,48729,49837,48225,48321,98.07,95.73,1,1
51270932,51311338,2,3,1,49433.006,2,48752,49916,48215,48311,98.07,95.73,1,1
51350929,51392338,2,3,1,49513.003,2,48791,50010,48209,48312,98.07,95.72,1,1
51431933,51472338,2,3,1,49594.007,2,48787,49762,48198,48302,98.08,95.71,1,1
51511929,51552338,2,3,1,49674.003,2,48275,48654,48131,48181,98.08,95.7,1,1
51591932,51632338,2,3,1,49754.006,2,48235,48765,48134,48181,98.09,95.69,1,1
51671929,51712338,2,3,1,49834.003,2,48326,48993,48129,48162,98.09,95.68,1,1
51751933,51792338,2,3,1,49914.007,2,48402,49110,48116,48150,98.1,95.67,1,1
51831929,51872338,2,3,1,49994.003,2,48408,49161,48104,48144,98.1,95.66,1,1
51911932,51952338,2,3,1,50074.006,2,48492,49393,48092,48137,98.11,95.65,1,1
51992929,52033338,2,3,1,50155.003,2,48577,49591,48087,48149,98.11,95.65,1,1
52072933,52113338,2,3,1,50235.007,2,48628,49723,48085,48170,98.11,95.64,1,1
52152929,52193338,2,3,1,50315.003,2,48683,49827,48097,48184,98.12,95.63,1,1
52232933,52273338,2,3,1,50395.007,2,48742,49974,48092,48190,98.12,95.62,1,1
52312929,52353338,2,3,1,50475.003,2,48813,50005,48093,48193,98.13,95.61,1,1
52392932,52433338,2,3,1,50555.006,2,48365,48772,48022,48048,98.13,95.6,1,1
52473929,52513338,2,3,1,50636.003,2,48171,48657,48000,48040,98.14,95.59,1,1
52553933,52593338,2,3,1,50716.007,2,48255,48875,48005,48046,98.14,95.59,1,1
52633929,52674338,2,3,1,50796.003,2,48355,49073,48007,48066,98.15,95.58,1,1
52713933,52754338,2,3,1,50876.007,2,48356,49115,48012,48061,98.15,95.57,1,1
52793929,52834338,2,3,1,50956.003,2,48443,49354,48005,48065,98.16,95.56,1,1
52873932,52914338,2,3,1,51036.006,2,48559,49606,47992,48062,98.16,95.55,1,1
52953929,52994338,2,3,1,51116.003,2,48648,49764,47992,48062,98.16,95.54,1,1
53034933,53074338,2,3,1,51197.007,2,48704,49903,47982,48079,98.17,95.54,1,1
53114929,53154338,2,3,1,51277.003,2,48764,50032,47990,48094,98.17,95.53,1,1
53194933,53235338,2,3,1,51357.007,2,48830,50209,47997,48122,98.18,95.52,1,1
53274929,53315338,2,3,1,51437.003,2,48742,49616,47986,48059,98.18,95.51,1,1
53354932,53395338,2,3,1,51517.006,2,48256,48811,47938,48010,98.19,95.5,1,1
53434929,53475338,2,3,1,51597.003,2,48321,49051,47938,48013,98.19,95.5,1,1
53514932,53555338,2,3,1,51677.006,2,48448,49335,47932,48014,98.2,95.49,1,1
53595929,53635338,2,3,1,51758.003,2,48480,49332,47925,48018,98.2,95.48,1,1
53675933,53715338,2,3,1,51838.007,2,48501,49453,47924,48044,98.21,95.47,1,1
53755929,53795338,2,3,1,51918.003,2,48616,49723,47945,48059,98.21,95.46,1,1
53835932,53876338,2,3,1,51998.006,2,48702,49908,47936,48060,98.22,95.46,1,1
53915929,53956338,2,3,1,52078.003,2,48747,50016,47930,48047,98.22,95.45,1,1
53995932,54036338,2,3,1,52158.006,2,48788,50113,47924,48050,98.23,95.44,1,1
54076929,54116338,2,3,1,52239.003,2,48859,50243,47917,48056,98.23,95.43,1,1
54156933,54196338,2,3,1,52319.007,2,48554,49204,47863,47938,98.23,95.43,1,1
54236929,54276338,2,3,1,52399.003,2,48283,48962,47859,47977,98.24,95.42,1,1
54316933,54356338,2,3,1,52479.007,2,48392,49235,47879,47976,98.24,95.41,1,1
54396929,54437338,2,3,1,52559.003,2,48492,49402,47871,47986,98.25,95.4,1,1
54476932,54517338,2,3,1,52639.006,2,48454,49344,47874,47982,98.25,95.4,1,1
54556929,54597338,2,3,1,52719.003,2,48511,49541,47864,47978,98.26,95.39,1,1
54637933,54677338,2,3,1,52800.007,2,48613,49760,47851,47985,98.26,95.38,1,1
54717929,54757338,2,3,1,52880.003,2,48675,49906,47854,47996,98.27,95.37,1,1
54797933,54837338,2,3,1,52960.007,2,48730,49992,47860,48025,98.27,95.37,1,1
54877929,54917338,2,3,1,53040.003,2,48780,50139,47867,48021,98.28,95.36,1,1
54957932,54997338,2,3,1,53120.006,2,48781,49834,47861,47970,98.28,95.35,1,1
55037929,55078338,2,3,1,53200.003,2,48238,48726,47760,47834,98.29,95.34,1,1
55117932,55158338,2,3,1,53280.006,2,48195,48798,47779,47855,98.29,95.34,1,1
55198929,55238338,2,3,1,53361.003,2,48268,49018,47786,47892,98.3,95.33,1,1
55278933,55318338,2,3,1,53441.007,2,48342,49117,47788,47913,98.3,95.32,1,1
55358929,55398338,2,3,1,53521.003,2,48357,49200,47798,47925,98.31,95.31,1,1
55438933,55478338,2,3,1,53601.007,2,48457,49430,47800,47926,98.31,95.31,1,1
55518929,55558338,2,3,1,53681.003,2,48539,49604,47794,47920,98.32,95.3,1,1
55598932,55638338,2,3,1,53761.006,2,48588,49703,47782,47918,98.32,95.29,1,1
55679929,55719338,2,3,1,53842.003,2,48627,49789,47777,47921,98.33,95.28,1,1
55759933,55799338,2,3,1,53922.007,2,48675,49930,47777,47930,98.34,95.28,1,1
55839929,55879338,2,3,1,54002.003,2,48581,49324,47742,47817,98.34,95.27,1,1
55919933,55959338,2,3,1,54082.007,2,48093,48518,47685,47756,98.35,95.26,1,1
55999929,56039338,2,3,1,54162.003,2,48122,48659,47710,47792,98.35,95.25,1,1
56079932,56119338,2,3,1,54242.006,2,48222,48922,47727,47822,98.36,95.25,1,1
56159929,56199337,2,3,1,54322.003,2,48266,48958,47723,47827,98.36,95.24,1,1
56240933,56280338,2,3,1,54403.007,2,48295,49084,47713,47834,98.37,95.23,1,1
56320929,56360338,2,3,1,54483.003,2,48405,49341,47720,47848,98.37,95.22,1,1
56400933,56440338,2,3,1,54563.007,2,48494,49536,47726,47869,98.38,95.22,1,1
56480929,56520338,2,3,1,54643.003,2,48555,49664,47733,47874,98.38,95.21,1,1
56560933,56600338,2,3,1,54723.007,2,48606,49790,47731,47878,98.39,95.2,1,1
56640929,56680338,2,3,1,54803.003,2,48678,49948,47725,47883,98.39,95.19,1,1
56720932,56760337,2,3,1,54883.006,2,48589,49374,47685,47747,98.4,95.19,1,1
56801929,56840337,2,3,1,54964.003,2,48108,48582,47625,47726,98.4,95.18,1,1
56881933,56921338,2,3,1,55044.007,2,48146,48755,47665,47773,98.41,95.17,1,1
56961929,57001338,2,3,1,55124.003,2,48262,49048,47687,47817,98.41,95.17,1,1
57041933,57081338,2,3,1,55204.007,2,48298,49049,47692,47820,98.42,95.16,1,1
57121929,57161338,2,3,1,55284.003,2,48322,49206,47692,47816,98.42,95.15,1,1
57201933,57241338,2,3,1,55364.007,2,48439,49429,47685,47816,98.43,95.14,1,1
57281929,57321338,2,3,1,55444.003,2,48503,49570,47678,47812,98.43,95.14,1,1
57362933,57401337,2,3,1,55525.007,2,48543,49640,47671,47824,98.44,95.13,1,1
57442929,57481337,2,3,1,55605.003,2,48573,49737,47671,47841,98.45,95.12,1,1
57522933,57562338,2,3,1,55685.007,2,48616,49680,47686,47816,98.45,95.11,1,1
57602929,57642338,2,3,1,55765.003,2,48155,48590,47584,47652,98.46,95.11,1,1
57682933,57722338,2,3,1,55845.007,2,48053,48608,47623,47693,98.46,95.1,1,1
57762929,57802338,2,3,1,55925.003,2,48146,48870,47624,47716,98.47,95.09,1,1
57843933,57882338,2,3,1,56006.007,2,48229,48940,47626,47729,98.47,95.09,1,1
57923929,57962337,2,3,1,56086.003,2,48217,48987,47624,47728,98.48,95.08,1,1
58003933,58042337,2,3,1,56166.007,2,48313,49212,47624,47748,98.48,95.07,1,1
58083929,58122337,2,3,1,56246.003,2,48385,49387,47633,47747,98.49,95.06,1,1
58163933,58203338,2,3,1,56326.007,2,48433,49479,47627,47744,98.49,95.06,1,1
58243929,58283338,2,3,1,56406.003,2,48462,49560,47616,47739,98.5,95.05,1,1
58323932,58363338,2,3,1,56486.006,2,48518,49691,47609,47738,98.5,95.04,1,1
58404929,58443338,2,3,1,56567.003,2,48303,48850,47538,47547,98.51,95.03,1,1
58484933,58523338,2,3,1,56647.007,2,47879,48242,47508,47560,98.51,95.03,1,1
58564929,58603338,2,3,1,56727.003,2,47906,48367,47541,47584,98.51,95.02,1,1
58644933,58683338,2,3,1,56807.007,2,48017,48644,47564,47619,98.52,95.01,1,1
58724929,58763337,2,3,1,56887.003,2,48048,48669,47561,47609,98.52,95.01,1,1
58804933,58844338,2,3,1,56967.007,2,48099,48834,47554,47611,98.53,95,1,1
58885929,58924338,2,3,1,57048.003,2,48188,49056,47543,47604,98.53,94.99,1,1
58965933,59004338,2,3,1,57128.007,2,48265,49209,47544,47619,98.54,94.98,1,1
59045929,59084338,2,3,1,57208.003,2,48317,49333,47546,47644,98.54,94.98,1,1
59125933,59164338,2,3,1,57288.007,2,48386,49470,47558,47655,98.55,94.97,1,1
59205929,59244338,2,3,1,57368.003,2,48466,49660,47560,47691,98.55,94.96,1,1
59285933,59324338,2,3,1,57448.007,2,48433,49213,47541,47555,98.55,94.96,1,1
59365929,59404337,2,2,1,57528.003,2,47913,48316,47460,47485,98.56,94.95,1,1
59426933,59465338,1,2,1,57589.007,2,47908,48410,47503,47539,98.56,94.94,1,1
59506929,59545338,1,2,1,57669.003,2,47985,48633,47517,47584,98.57,94.93,1,1
59586933,59625338,1,2,1,57749.007,2,48118,48864,47544,47640,98.57,94.93,1,1
59666929,59705338,1,2,1,57829.003,2,48157,48980,47563,47654,98.57,94.92,1,1
59746933,59785338,1,2,1,57909.007,2,48285,49257,47558,47648,98.58,94.91,1,1
59826929,59865338,1,2,1,57989.003,2,48401,49498,47552,47642,98.58,94.9,1,1
59906933,59945338,1,1,1,58069.007,2,48488,49670,47544,47639,98.58,94.9,1,1
59967929,60005337,0,0,1,58130.003,2,48547,49773,47545,47638,98.58,94.89,1,1
60027933,60065337,3,3,1,58190.007,2,48581,49883,47547,47652,98.59,94.88,1,1
60087929,60126338,2,3,1,58250.003,2,48643,50001,47539,47666,98.59,94.88,1,1
60167933,60206338,2,3,1,58330.007,2,48704,49994,47551,47649,98.59,94.87,1,1
60247929,60286338,2,3,1,58410.003,2,48221,48802,47460,47513,98.6,94.86,1,1
60327933,60366338,2,3,1,58490.007,2,48108,48815,47506,47562,98.6,94.85,1,1
60407929,60446338,2,2,1,58570.003,2,48214,49062,47504,47578,98.6,94.85,1,1
60468933,60506338,1,1,1,58631.007,2,48317,49227,47524,47594,98.6,94.84,1,1
60528929,60566337,0,0,1,58691.003,2,48317,49209,47522,47607,98.61,94.83,1,1
60588933,60626337,3,3,1,58751.007,2,48342,49306,47525,47620,98.61,94.83,1,1
60648929,60686337,2,2,1,58811.003,2,48420,49507,47520,47630,98.61,94.82,1,1
60708933,60747338,1,2,1,58871.007,2,48502,49674,47531,47646,98.61,94.81,1,1
60788929,60827338,1,2,1,58951.003,2,48578,49823,47531,47651,98.61,94.8,1,1
60868933,60907338,1,2,1,59031.007,2,48624,49931,47526,47638,98.62,94.8,1,1
60948929,60987338,1,1,1,59111.003,2,48678,50065,47521,47629,98.62,94.79,1,1
61009933,61047338,0,0,1,59172.007,2,48739,50153,47522,47640,98.62,94.78,1,1
61069929,61107338,3,3,1,59232.003,2,48546,49347,47499,47552,98.62,94.78,1,1
61129933,61167337,2,2,1,59292.007,2,48153,48739,47519,47490,98.63,94.77,1,1
61189929,61227337,1,1,1,59352.003,2,48133,48834,47464,47560,98.63,94.76,1,1
61249933,61287337,0,0,1,59412.007,2,48204,48992,47479,47573,98.63,94.75,1,1
61309929,61347338,3,3,1,59472.003,2,48290,49185,47482,47584,98.63,94.75,1,1
61369933,61408338,2,3,1,59532.007,2,48305,49172,47485,47575,98.63,94.74,1,1
61449929,61488338,2,3,1,59612.003,2,48318,49264,47480,47569,98.64,94.73,1,1
61530933,61568338,2,2,1,59693.007,2,48430,49530,47476,47563,98.64,94.73,1,1
61590929,61628338,1,1,1,59753.003,2,48503,49685,47474,47576,98.64,94.72,1,1
61650933,61688338,0,0,1,59813.007,2,48559,49801,47471,47578,98.64,94.71,1,1
61710929,61748338,3,3,1,59873.003,2,48597,49875,47467,47593,98.64,94.7,1,1
61770933,61808338,2,2,1,59933.007,2,48632,49951,47468,47593,98.64,94.7,1,1
61830929,61868338,1,1,1,59993.003,2,48669,50051,47463,47595,98.65,94.69,1,1
61890933,61928338,0,0,1,60053.007,2,48719,50074,47463,47594,98.65,94.68,1,1
61950929,61988338,3,3,1,60113.003,2,48453,49129,47431,47476,98.65,94.68,1,1
62010933,62049338,2,2,1,60173.007,2,48052,48547,47368,47415,98.65,94.67,1,1
62071929,62109338,1,1,1,60234.003,2,48037,48644,47400,47470,98.65,94.66,1,1
62131933,62169338,0,0,1,60294.007,2,48095,48779,47407,47479,98.66,94.65,1,1
62191929,62229338,3,3,1,60354.003,2,48191,49000,47465,47502,98.66,94.65,1,1
62251933,62289338,2,2,1,60414.007,2,48232,49049,47420,47526,98.66,94.64,1,1
62311929,62349338,1,1,1,60474.003,2,48246,49111,47417,47527,98.66,94.63,1,1
62371933,62409338,0,0,1,60534.007,2,48318,49294,47421,47528,98.66,94.63,1,1
62431929,62469338,3,3,1,60594.003,2,48409,49489,47416,47523,98.66,94.62,1,1
62491933,62529338,2,2,1,60654.007,2,48481,49629,47414,47524,98.67,94.61,1,1
62551929,62589338,1,1,1,60714.003,2,48529,49718,47414,47520,98.67,94.6,1,1
62612933,62649338,0,0,1,60775.007,2,48557,49786,47410,47522,98.67,94.6,1,1
62672929,62710338,3,3,1,60835.003,2,48589,49858,47406,47523,98.67,94.59,1,1
62732933,62770338,2,2,1,60895.007,2,48623,49961,47404,47543,98.67,94.58,1,1
62792929,62830337,1,1,1,60955.003,2,48681,50048,47399,47558,98.67,94.58,1,1
62852933,62890338,0,0,1,61015.007,2,48487,49227,47384,47462,98.68,94.57,1,1
62912929,62950338,3,3,1,61075.003,2,48057,48545,47319,47395,98.68,94.56,1,1
62972933,63010338,2,2,1,61135.007,2,48029,48623,47342,47436,98.68,94.55,1,1
63032929,63070338,1,1,1,61195.003,2,48096,48769,47354,47445,98.68,94.55,1,1
63092933,63130338,0,0,1,61255.007,2,48184,48991,47359,47455,98.68,94.54,1,1
63153929,63190338,3,3,1,61316.003,2,48240,49040,47359,47464,98.69,94.53,1,1
63213933,63250338,2,2,1,61376.007,2,48241,49083,47356,47468,98.69,94.53,1,1
63273929,63311338,1,1,1,61436.003,2,48305,49270,47360,47488,98.69,94.52,1,1
63333933,63371338,0,0,1,61496.007,2,48402,49489,47359,47495,98.69,94.51,1,1
63393929,63431338,3,3,1,61556.003,2,48489,49670,47354,47497,98.69,94.51,1,1
63453933,63491338,2,2,1,61616.007,2,48555,49788,47354,47502,98.69,94.5,1,1
63513929,63551338,1,1,1,61676.003,2,48597,49901,47351,47495,98.7,94.49,1,1
63573933,63611338,0,0,1,61736.007,2,48650,50009,47351,47496,98.7,94.48,1,1
63634929,63671338,3,3,1,61797.003,2,48707,50122,47347,47493,98.7,94.48,1,1
63694933,63731338,2,2,1,61857.007,2,48764,50255,47346,47510,98.7,94.47,1,1
63754929,63791338,1,1,1,61917.003,2,48665,49638,47340,47470,98.7,94.46,1,1
63814933,63851338,0,0,1,61977.007,2,48219,48789,47280,47410,98.7,94.46,1,1
63874929,63911338,3,3,1,62037.003,2,48134,48824,47300,47452,98.7,94.45,1,1
63934933,63972338,2,2,1,62097.007,2,48216,49006,47314,47467,98.71,94.44,1,1
63994929,64032338,1,1,1,62157.003,2,48304,49221,47314,47478,98.71,94.44,1,1
64054933,64092338,0,0,1,62217.007,2,48356,49266,47316,47480,98.71,94.43,1,1
64114929,64152338,3,3,1,62277.003,2,48348,49282,47317,47476,98.71,94.42,1,1
64175933,64212338,2,2,1,62338.007,2,48400,49458,47314,47471,98.71,94.41,1,1
64235929,64272338,1,1,1,62398.003,2,48502,49670,47316,47484,98.72,94.41,1,1
64295933,64332338,0,0,1,62458.007,2,48585,49833,47308,47487,98.72,94.4,1,1
64355929,64392338,3,3,1,62518.003,2,48637,49936,47311,47506,98.72,94.39,1,1
64415933,64452338,2,2,1,62578.007,2,48669,49989,47312,47511,98.72,94.39,1,1
64475929,64512338,1,1,1,62638.003,2,48688,50062,47306,47514,98.72,94.38,1,1
64535933,64573338,0,0,1,62698.007,2,48734,50178,47299,47508,98.72,94.37,1,1
64595929,64633338,3,3,1,62758.003,2,48721,49845,47299,47489,98.73,94.36,1,1
64655933,64693338,2,2,1,62818.007,2,48305,48909,47243,47391,98.73,94.36,1,1
64716929,64753338,1,1,1,62879.003,2,48135,48804,47246,47416,98.73,94.35,1,1
64776933,64813338,0,0,1,62939.007,2,48215,49006,47263,47440,98.73,94.34,1,1
64836929,64873338,3,3,1,62999.003,2,48307,49222,47258,47439,98.73,94.34,1,1
64896933,64933338,2,2,1,63059.007,2,48361,49239,47260,47451,98.74,94.33,1,1
64956929,64993338,1,1,1,63119.003,2,48329,49203,47249,47433,98.74,94.32,1,1
65016933,65053338,0,0,1,63179.007,2,48364,49324,47233,47415,98.74,94.32,1,1
65076929,65113338,3,3,1,63239.003,2,48442,49505,47222,47392,98.74,94.31,1,1
65136933,65173338,2,2,1,63299.007,2,48507,49654,47213,47368,98.74,94.3,1,1
65196929,65234338,1,1,1,63359.003,2,48553,49752,47196,47357,98.75,94.29,1,1
65257933,65294338,0,0,1,63420.007,2,48583,49823,47192,47341,98.75,94.29,1,1
65317929,65354338,3,3,1,63480.003,2,48612,49897,47181,47332,98.75,94.28,1,1
65377933,65414338,2,2,1,63540.007,2,48653,49996,47167,47326,98.75,94.27,1,1
65437929,65474338,1,1,1,63600.003,2,48608,49572,47159,47317,98.75,94.27,1,1
65497933,65534338,0,0,1,63660.007,2,48171,48628,47111,47227,98.76,94.26,1,1
65557929,65594338,3,3,1,63720.003,2,48020,48528,47101,47238,98.76,94.25,1,1
65617933,65654338,2,2,1,63780.007,2,48072,48676,47110,47238,98.76,94.24,1,1
65677929,65714338,1,1,1,63840.003,2,48152,48867,47104,47226,98.76,94.24,1,1
65737933,65774338,0,0,1,63900.007,2,48212,48932,47103,47225,98.77,94.23,1,1
65798929,65834338,3,3,1,63961.003,2,48196,48923,47101,47224,98.77,94.22,1,1
65858933,65895338,2,2,1,64021.007,2,48241,49054,47095,47226,98.77,94.22,1,1
65918929,65955338,1,1,1,64081.003,2,48325,49260,47091,47241,98.77,94.21,1,1
65978933,66015338,0,0,1,64141.007,2,48399,49431,47086,47247,98.78,94.2,1,1
66038929,66075338,3,3,1,64201.003,2,48460,49540,47081,47243,98.78,94.2,1,1
66098933,66135338,2,2,1,64261.007,2,48499,49630,47075,47245,98.78,94.19,1,1
66158929,66195338,1,1,1,64321.003,2,48536,49701,47076,47238,98.78,94.18,1,1
66218933,66255338,0,0,1,64381.007,2,48579,49786,47069,47232,98.78,94.17,1,1
66278929,66315338,3,3,1,64441.003,2,48613,49758,47067,47230,98.79,94.17,1,1
66339933,66375338,2,2,1,64502.007,2,48310,48751,47041,47153,98.79,94.16,1,1
66399929,66435338,1,1,1,64562.003,2,47952,48268,46995,47122,98.79,94.15,1,1
66459933,66496338,0,0,1,64622.007,2,47956,48377,47014,47163,98.79,94.15,1,1
66519929,66556338,3,3,1,64682.003,2,48007,48511,47019,47173,98.8,94.14,1,1
66579933,66616338,2,2,1,64742.007,2,48090,48690,47012,47173,98.8,94.13,1,1
66639929,66676338,1,1,1,64802.003,2,48110,48689,47007,47168,98.8,94.12,1,1
66699932,66736338,0,0,1,64862.006,2,48120,48760,47008,47160,98.8,94.12,1,1
66759929,66796338,3,3,1,64922.003,2,48192,48967,47006,47156,98.8,94.11,1,1
66819933,66856338,2,2,1,64982.007,2,48294,49164,46999,47156,98.81,94.1,1,1
66880929,66916338,1,1,1,65043.003,2,48367,49310,47001,47157,98.81,94.1,1,1
66940933,66976338,0,0,1,65103.007,2,48421,49432,46994,47164,98.81,94.09,1,1
67000929,67036338,3,3,1,65163.003,2,48470,49514,46999,47171,98.81,94.08,1,1
67060933,67096338,2,2,1,65223.007,2,48502,49613,46991,47188,98.81,94.07,1,1
67120929,67157338,1,1,1,65283.003,2,48561,49741,46981,47182,98.82,94.07,1,1
67180933,67217338,0,0,1,65343.007,2,48547,49409,46979,47182,98.82,94.06,1,1
67240929,67277338,3,3,1,65403.003,2,48113,48431,46930,47076,98.82,94.05,1,1
67300933,67337338,2,2,1,65463.007,2,47949,48309,46924,47098,98.82,94.04,1,1
67360929,67397338,1,1,1,65523.003,2,48018,48500,46948,47116,98.82,94.04,1,1
67421933,67457338,0,0,1,65584.007,2,48107,48724,46948,47117,98.82,94.03,1,1
67481929,67517338,3,3,1,65644.003,2,48186,48811,46947,47128,98.83,94.02,1,1
67541933,67577338,2,2,1,65704.007,2,48178,48795,46952,47142,98.83,94.02,1,1
67601929,67637338,1,1,1,65764.003,2,48208,48924,46948,47154,98.83,94.01,1,1
67661933,67697338,0,0,1,65824.007,2,48294,49127,46947,47150,98.83,94,1,1
67721929,67757338,3,3,1,65884.003,2,48365,49275,46941,47156,98.83,93.99,1,1
67781933,67818338,2,2,1,65944.007,2,48423,49385,46940,47154,98.83,93.99,1,1
67841929,67878338,1,1,1,66004.003,2,48455,49463,46933,47149,98.83,93.98,1,1
67901932,67938338,0,0,1,66064.006,2,48489,49540,46934,47145,98.83,93.97,1,1
67962929,67998338,3,3,1,66125.003,2,48530,49656,46928,47147,98.84,93.97,1,1
68022933,68058338,2,2,1,66185.007,2,48509,49302,46925,47139,98.84,93.96,1,1
68082929,68118338,1,1,1,66245.003,2,48104,48398,46880,47068,98.84,93.95,1,1
68142933,68178338,0,0,1,66305.007,2,47970,48332,46884,47101,98.84,93.94,1,1
68202929,68238338,3,3,1,66365.003,2,48039,48518,46900,47111,98.84,93.94,1,1
68262933,68298338,2,2,1,66425.007,2,48129,48722,46895,47113,98.84,93.93,1,1
68322929,68358338,1,1,1,66485.003,2,48165,48725,46894,47103,98.84,93.92,1,1
68382932,68419338,0,0,1,66545.006,2,48136,48700,46894,47101,98.84,93.91,1,1
68442929,68479338,3,3,1,66605.003,2,48174,48846,46895,47089,98.84,93.91,1,1
68503933,68539338,2,2,1,66666.007,2,48254,49035,46886,47100,98.84,93.9,1,1
68563929,68599338,1,1,1,66726.003,2,48322,49174,46886,47103,98.84,93.89,1,1
68623933,68659338,0,0,1,66786.007,2,48367,49283,46884,47113,98.85,93.88,1,1
68683929,68719338,3,3,1,66846.003,2,48400,49344,46876,47117,98.85,93.88,1,1
68743933,68779338,2,2,1,66906.007,2,48437,49420,46875,47110,98.85,93.87,1,1
68803929,68839338,1,1,1,66966.003,2,48481,49463,46869,47118,98.85,93.86,1,1
68863933,68899338,0,0,1,67026.007,2,48252,48595,46844,47023,98.85,93.85,1,1
68923929,68959338,3,3,1,67086.003,2,47880,48038,46795,46971,98.85,93.85,1,1
68984933,69019338,2,2,1,67147.007,2,47868,48136,46812,47003,98.85,93.84,1,1
69044929,69080338,1,1,1,67207.003,2,47932,48288,46825,47017,98.85,93.83,1,1
69104933,69140338,0,0,1,67267.007,2,48013,48463,46829,47026,98.85,93.82,1,1
69164929,69200338,3,3,1,67327.003,2,48026,48444,46823,47041,98.85,93.82,1,1
69224933,69260338,2,2,1,67387.007,2,48021,48496,46824,47040,98.85,93.81,1,1
69284929,69320338,1,1,1,67447.003,2,48086,48686,46818,47037,98.85,93.8,1,1
69344933,69380338,0,0,1,67507.007,2,48176,48858,46813,47031,98.85,93.79,1,1
69404929,69440338,3,3,1,67567.003,2,48239,48967,46808,47024,98.85,93.79,1,1
69464933,69500338,2,2,1,67627.007,2,48271,49048,46804,47018,98.85,93.78,1,1
69525929,69560338,1,1,1,67688.003,2,48302,49097,46803,47010,98.85,93.77,1,1
69585933,69620338,0,0,1,67748.007,2,48329,49181,46795,47015,98.85,93.76,1,1
69645929,69681338,3,3,1,67808.003,2,48369,49213,46800,47022,98.85,93.76,1,1
69705933,69741338,2,2,1,67868.007,2,48128,48298,46767,46928,98.85,93.75,1,1
69765929,69801338,1,1,1,67928.003,2,47740,47724,46699,46853,98.84,93.74,1,1
69825933,69861338,0,0,1,67988.007,2,47725,47796,46719,46889,98.84,93.73,1,1
69885929,69921338,3,3,1,68048.003,2,47772,47930,46725,46888,98.84,93.73,1,1
69945933,69981338,2,2,1,68108.007,2,47863,48154,46737,46898,98.84,93.72,1,1
70005929,70041338,1,1,1,68168.003,2,47912,48169,46736,46888,98.84,93.71,1,1
70066933,70101338,0,0,1,68229.007,2,47915,48223,46737,46893,98.84,93.7,1,1
70126929,70161338,3,3,1,68289.003,2,47980,48396,46731,46896,98.84,93.7,1,1
70186933,70221338,2,2,1,68349.007,2,48059,48563,46727,46902,98.84,93.69,1,1
70246929,70281338,1,1,1,68409.003,2,48122,48689,46727,46907,98.84,93.68,1,1
70306933,70342338,0,0,1,68469.007,2,48162,48770,46722,46903,98.84,93.67,1,1
70366929,70402338,3,3,1,68529.003,2,48203,48863,46717,46905,98.83,93.66,1,1
70426933,70462338,2,2,1,68589.007,2,48246,48971,46711,46893,98.83,93.66,1,1
70486929,70522338,1,1,1,68649.003,2,48301,49114,46712,46893,98.83,93.65,1,1
70546933,70582338,0,0,1,68709.007,2,48356,49039,46710,46881,98.83,93.64,1,1
70607929,70642338,3,3,1,68770.003,2,48009,48020,46652,46755,98.83,93.63,1,1
70667933,70702338,2,2,1,68830.007,2,47742,47724,46624,46749,98.83,93.63,1,1
70727929,70762338,1,1,1,68890.003,2,47780,47852,46657,46802,98.82,93.62,1,1
70787933,70822338,0,0,1,68950.007,2,47842,48019,46670,46823,98.82,93.61,1,1
70847929,70882338,3,3,1,69010.003,2,47942,48217,46681,46835,98.82,93.6,1,1
70907933,70943338,2,2,1,69070.007,2,47962,48226,46678,46836,98.82,93.6,1,1
70967929,71003338,1,1,1,69130.003,2,47986,48337,46676,46828,98.82,93.59,1,1
71027932,71063338,0,0,1,69190.006,2,48077,48560,46673,46825,98.81,93.58,1,1
71087929,71123338,3,3,1,69250.003,2,48170,48753,46671,46817,98.81,93.57,1,1
71148933,71183338,2,2,1,69311.007,2,48243,48908,46666,46830,98.81,93.56,1,1
71208929,71243338,1,1,1,69371.003,2,48305,49022,46668,46832,98.81,93.56,1,1
71268933,71303338,0,0,1,69431.007,2,48356,49118,46665,46845,98.8,93.55,1,1
71328929,71363338,3,3,1,69491.003,2,48400,49233,46663,46852,98.8,93.54,1,1
71388933,71423338,2,2,1,69551.007,2,48467,49371,46660,46848,98.8,93.53,1,1
71448929,71483337,1,1,1,69611.003,2,48455,49039,46659,46825,98.8,93.53,1,1
71508933,71544338,0,0,1,69671.007,2,48027,48080,46596,46709,98.79,93.52,1,1
71568929,71604338,3,3,1,69731.003,2,47884,48021,46603,46748,98.79,93.51,1,1
71628932,71664338,2,2,1,69791.006,2,47955,48201,46626,46758,98.79,93.5,1,1
71689929,71724338,1,1,1,69852.003,2,48046,48428,46632,46779,98.79,93.49,1,1
71749933,71784338,0,0,1,69912.007,2,48104,48490,46633,46780,98.78,93.49,1,1
71809929,71844338,3,3,1,69972.003,2,48091,48486,46633,46795,98.78,93.48,1,1
71869933,71904338,2,2,1,70032.007,2,48143,48630,46633,46795,98.78,93.47,1,1
71929929,71964338,1,1,1,70092.003,2,48234,48833,46634,46796,98.78,93.46,1,1
71989933,72024338,0,0,1,70152.007,2,48306,48987,46631,46791,98.77,93.45,1,1
72049929,72084337,3,3,1,70212.003,2,48357,49087,46626,46784,98.77,93.45,1,1
72109933,72145338,2,2,1,70272.007,2,48389,49166,46623,46781,98.77,93.44,1,1
72170929,72205338,1,1,1,70333.003,2,48427,49254,46614,46769,98.77,93.43,1,1
72230933,72265338,0,0,1,70393.007,2,48478,49382,46609,46780,98.76,93.42,1,1
72290929,72325338,3,3,1,70453.003,2,48443,48985,46608,46753,98.76,93.42,1,1
72350933,72385338,2,2,1,70513.007,2,48027,48102,46549,46670,98.76,93.41,1,1
72410929,72445338,1,1,1,70573.003,2,47899,48072,46561,46698,98.75,93.4,1,1
72470933,72505338,0,0,1,70633.007,2,47983,48245,46582,46719,98.75,93.39,1,1
72530929,72565338,3,3,1,70693.003,2,48069,48466,46588,46725,98.75,93.38,1,1
72590933,72625338,2,2,1,70753.007,2,48126,48520,46595,46724,98.75,93.38,1,1
72650929,72685337,1,1,1,70813.003,2,48115,48507,46588,46718,98.74,93.37,1,1
72711934,72745337,0,0,1,70874.008,2,48150,48648,46583,46715,98.74,93.36,1,1
72771929,72806338,3,3,1,70934.003,2,48230,48835,46585,46724,98.74,93.35,1,1
72831933,72866338,2,2,1,70994.007,2,48300,48996,46585,46734,98.73,93.34,1,1
72891929,72926338,1,1,1,71054.003,2,48352,49103,46575,46742,98.73,93.34,1,1
72951933,72986338,0,0,1,71114.007,2,48394,49196,46582,46739,98.73,93.33,1,1
73011929,73046338,3,3,1,71174.003,2,48431,49270,46577,46741,98.72,93.32,1,1
73071933,73106338,2,2,1,71234.007,2,48473,49362,46571,46723,98.72,93.31,1,1
73131929,73166338,1,1,1,71294.003,2,48522,49408,46562,46718,98.72,93.31,1,1
73191933,73226337,0,0,1,71354.007,2,48277,48488,46533,46612,98.72,93.3,1,1
73252929,73286337,3,3,1,71415.003,2,47892,47907,46487,46577,98.71,93.29,1,1
73312933,73346337,2,2,1,71475.007,2,47881,48011,46518,46629,98.71,93.28,1,1
73372929,73407338,1,1,1,71535.003,2,47940,48150,46527,46651,98.71,93.27,1,1
73432933,73467338,0,0,1,71595.007,2,48026,48348,46534,46664,98.7,93.27,1,1
73492929,73527338,3,3,1,71655.003,2,48052,48370,46535,46659,98.7,93.26,1,1
73552933,73587338,2,2,1,71715.007,2,48055,48425,46532,46657,98.7,93.25,1,1
73612929,73647338,1,1,1,71775.003,2,48129,48625,46528,46649,98.69,93.24,1,1
73672933,73707338,0,0,1,71835.007,2,48225,48822,46522,46642,98.69,93.24,1,1
73732929,73767337,3,3,1,71895.003,2,48298,48963,46521,46638,98.69,93.23,1,1
73793933,73827337,2,2,1,71956.007,2,48345,49062,46510,46639,98.68,93.22,1,1
73853929,73887337,1,1,1,72016.003,2,48384,49139,46512,46638,98.68,93.21,1,1
73913933,73947337,0,0,1,72076.007,2,48427,49235,46508,46651,98.68,93.2,1,1
73973929,74008338,3,3,1,72136.003,2,48470,49341,46508,46659,98.68,93.2,1,1
74033933,74068338,2,2,1,72196.007,2,48526,49448,46505,46655,98.67,93.19,1,1
74093929,74128338,1,1,1,72256.003,2,48381,48744,46490,46578,98.67,93.18,1,1
74153933,74188338,0,0,1,72316.007,2,47970,48027,46427,46512,98.67,93.17,1,1
74213929,74248338,3,3,1,72376.003,2,47928,48115,46455,46551,98.66,93.16,1,1
74274933,74308338,2,2,1,72437.007,2,48001,48249,46468,46555,98.66,93.16,1,1
74334929,74368337,1,1,1,72497.003,2,48081,48463,46476,46580,98.66,93.15,1,1
74394933,74428337,0,0,1,72557.007,2,48147,48548,46477,46585,98.66,93.14,1,1
74454929,74488337,3,3,1,72617.003,2,48159,48590,46477,46603,98.65,93.13,1,1
74514933,74548337,2,2,1,72677.007,2,48226,48775,46478,46606,98.65,93.13,1,1
74574929,74609338,1,1,1,72737.003,2,48327,48996,46476,46604,98.65,93.12,1,1
74634933,74669338,0,0,1,72797.007,2,48408,49158,46473,46601,98.64,93.11,1,1
74694929,74729338,3,3,1,72857.003,2,48468,49294,46475,46595,98.64,93.1,1,1
74754933,74789338,2,2,1,72917.007,2,48521,49403,46469,46593,98.64,93.09,1,1
74815929,74849338,1,1,1,72978.003,2,48574,49521,46467,46589,98.64,93.09,1,1
74875933,74909338,0,0,1,73038.007,2,48627,49649,46458,46597,98.63,93.08,1,1
74935929,74969337,3,3,1,73098.003,2,48689,49783,46458,46609,98.63,93.07,1,1
74995933,75029337,2,2,1,73158.007,2,48659,49359,46458,46584,98.63,93.06,1,1
75055929,75089338,1,1,1,73218.003,2,48246,48503,46403,46510,98.62,93.06,1,1
75115933,75149338,0,0,1,73278.007,2,48148,48522,46422,46555,98.62,93.05,1,1
75175929,75209337,3,3,1,73338.003,2,48244,48727,46442,46570,98.62,93.04,1,1
75235933,75270338,2,2,1,73398.007,2,48340,48964,46445,46575,98.62,93.03,1,1
75295929,75330338,1,1,1,73458.003,2,48400,49013,46450,46574,98.61,93.03,1,1
75356933,75390338,0,0,1,73519.007,2,48379,49000,46444,46570,98.61,93.02,1,1
75416929,75450338,3,3,1,73579.003,2,48426,49151,46440,46578,98.61,93.01,1,1
75476933,75510338,2,2,1,73639.007,2,48507,49357,46439,46585,98.6,93,1,1
75536929,75570337,1,1,1,73699.003,2,48586,49514,46444,46601,98.6,92.99,1,1
75596933,75630337,0,0,1,73759.007,2,48639,49613,46444,46601,98.6,92.99,1,1
75656929,75690338,3,3,1,73819.003,2,48674,49685,46436,46596,98.6,92.98,1,1
75716933,75750338,2,2,1,73879.007,2,48702,49752,46434,46595,98.59,92.97,1,1
75776929,75810338,1,1,1,73939.003,2,48739,49847,46428,46588,98.59,92.96,1,1
75836933,75871338,0,0,1,73999.007,2,48738,49588,46427,46568,98.59,92.96,1,1
75897929,75931338,3,3,1,74060.003,2,48354,48659,46373,46471,98.59,92.95,1,1
75957933,75991338,2,2,1,74120.007,2,48172,48544,46375,46509,98.58,92.94,1,1
76017929,76051338,1,1,1,74180.003,2,48234,48723,46400,46537,98.58,92.93,1,1
76077933,76111338,0,0,1,74240.007,2,48327,48943,46401,46551,98.58,92.93,1,1
76137929,76171338,3,3,1,74300.003,2,48389,49013,46407,46558,98.58,92.92,1,1
76197933,76231338,2,2,1,74360.007,2,48366,48961,46404,46558,98.57,92.91,1,1
76257929,76291338,1,1,1,74420.003,2,48385,49075,46404,46553,98.57,92.9,1,1
76317933,76351338,0,0,1,74480.007,2,48463,49265,46399,46546,98.57,92.89,1,1
76377929,76411338,3,3,1,74540.003,2,48542,49416,46395,46543,98.57,92.89,1,1
76438933,76471337,2,2,1,74601.007,2,48588,49511,46390,46537,98.56,92.88,1,1
76498929,76532338,1,1,1,74661.003,2,48619,49584,46389,46543,98.56,92.87,1,1
76558933,76592337,0,0,1,74721.007,2,48649,49647,46382,46548,98.56,92.86,1,1
76618929,76652338,3,3,1,74781.003,2,48676,49743,46381,46563,98.56,92.86,1,1
76678933,76712338,2,2,1,74841.007,2,48723,49755,46382,46576,98.55,92.85,1,1
76738929,76772338,1,1,1,74901.003,2,48463,48845,46348,46475,98.55,92.84,1,1
76798933,76832338,0,0,1,74961.007,2,48111,48363,46315,46461,98.55,92.83,1,1
76858929,76892338,3,3,1,75021.003,2,48127,48477,46350,46498,98.55,92.83,1,1
76918933,76952338,2,2,1,75081.007,2,48182,48619,46356,46503,98.55,92.82,1,1
76979929,77012337,1,1,1,75142.003,2,48258,48780,46357,46508,98.54,92.81,1,1
77039933,77072337,0,0,1,75202.007,2,48276,48774,46354,46519,98.54,92.8,1,1
77099929,77133338,3,3,1,75262.003,2,48270,48809,46354,46529,98.54,92.8,1,1
77159933,77193338,2,2,1,75322.007,2,48333,48981,46353,46541,98.54,92.79,1,1
77219929,77253338,1,1,1,75382.003,2,48407,49153,46357,46552,98.53,92.78,1,1
77279933,77313338,0,0,1,75442.007,2,48461,49280,46356,46555,98.53,92.77,1,1
77339929,77373338,3,3,1,75502.003,2,48507,49375,46354,46556,98.53,92.77,1,1
77399933,77433338,2,2,1,75562.007,2,48544,49467,46357,46555,98.53,92.76,1,1
77459929,77493338,1,1,1,75622.003,2,48583,49552,46349,46556,98.53,92.75,1,1
77520933,77553338,0,0,1,75683.007,2,48631,49670,46347,46559,98.52,92.74,1,1
77580929,77613337,3,3,1,75743.003,2,48675,49666,46348,46570,98.52,92.74,1,1
77640933,77673337,2,2,1,75803.007,2,48394,48713,46311,46484,98.52,92.73,1,1
77700929,77733337,1,1,1,75863.003,2,48076,48308,46294,46505,98.52,92.72,1,1
77760933,77794338,0,0,1,75923.007,2,48114,48461,46327,46550,98.52,92.71,1,1
77820929,77854338,3,3,1,75983.003,2,48183,48632,46335,46558,98.51,92.71,1,1
77880933,77914338,2,2,1,76043.007,2,48278,48831,46338,46562,98.51,92.7,1,1
77940929,77974338,1,1,1,76103.003,2,48312,48851,46339,46563,98.51,92.69,1,1
78000933,78034338,0,0,1,76163.007,2,48337,48954,46336,46564,98.51,92.68,1,1
78061929,78094338,3,3,1,76224.003,2,48419,49167,46335,46559,98.51,92.68,1,1
78121933,78154338,2,2,1,76284.007,2,48520,49367,46326,46571,98.5,92.67,1,1
78181929,78214337,1,1,1,76344.003,2,48583,49507,46326,46575,98.5,92.66,1,1
78241933,78274337,0,0,1,76404.007,2,48632,49602,46325,46594,98.5,92.65,1,1
78301929,78334337,3,3,1,76464.003,2,48679,49705,46323,46603,98.5,92.65,1,1
78361933,78395338,2,2,1,76524.007,2,48728,49807,46324,46606,98.5,92.64,1,1
78421929,78455338,1,1,1,76584.003,2,48788,49943,46320,46612,98.5,92.63,1,1
78481933,78515338,0,0,1,76644.007,2,48769,49600,46320,46575,98.49,92.62,1,1
78541929,78575338,3,3,1,76704.003,2,48379,48741,46267,46515,98.49,92.62,1,1
78602933,78635338,2,2,1,76765.007,2,48267,48725,46279,46547,98.49,92.61,1,1
78662929,78695338,1,1,1,76825.003,2,48351,48927,46296,46576,98.49,92.6,1,1
78722933,78755338,0,0,1,76885.007,2,48446,49136,46304,46582,98.49,92.59,1,1
78782929,78815338,3,3,1,76945.003,2,48496,49166,46307,46608,98.49,92.59,1,1
78842933,78875337,2,2,1,77005.007,2,48466,49146,46303,46610,98.48,92.58,1,1
78902929,78935337,1,1,1,77065.003,2,48518,49296,46306,46611,98.48,92.57,1,1
78962933,78995338,0,0,1,77125.007,2,48597,49488,46303,46615,98.48,92.56,1,1
79022929,79056338,3,3,1,77185.003,2,48665,49610,46297,46606,98.48,92.56,1,1
79082933,79116338,2,2,1,77245.007,2,48700,49695,46288,46604,98.48,92.55,1,1
79143929,79176338,1,1,1,77306.003,2,48730,49773,46287,46599,98.48,92.54,1,1
79203933,79236338,0,0,1,77366.007,2,48764,49861,46277,46605,98.47,92.53,1,1
79263929,79296338,3,3,1,77426.003,2,48817,49992,46280,46613,98.47,92.53,1,1
79323933,79356338,2,2,1,77486.007,2,48725,49423,46265,46569,98.47,92.52,1,1
79383929,79416337,1,1,1,77546.003,2,48355,48754,46223,46542,98.47,92.51,1,1
79443933,79476338,0,0,1,77606.007,2,48315,48823,46245,46576,98.47,92.5,1,1
79503929,79536338,3,3,1,77666.003,2,48373,48953,46253,46586,98.47,92.5,1,1
79563933,79596338,2,2,1,77726.007,2,48448,49122,46254,46579,98.47,92.49,1,1
79623929,79656338,1,1,1,77786.003,2,48457,49107,46246,46577,98.46,92.48,1,1
79683933,79717338,0,0,1,77846.007,2,48449,49122,46243,46569,98.46,92.47,1,1
79744929,79777338,3,3,1,77907.003,2,48502,49296,46236,46578,98.46,92.46,1,1
79804933,79837338,2,2,1,77967.007,2,48583,49472,46232,46581,98.46,92.46,1,1
79864929,79897338,1,1,1,78027.003,2,48641,49610,46231,46593,98.46,92.45,1,1
79924933,79957338,0,0,1,78087.007,2,48688,49710,46225,46598,98.46,92.44,1,1
79984929,80017338,3,3,1,78147.003,2,48719,49775,46224,46597,98.45,92.43,1,1
80044933,80077338,2,2,1,78207.007,2,48748,49846,46220,46594,98.45,92.43,1,1
80104929,80137338,1,1,1,78267.003,2,48788,49943,46216,46592,98.45,92.42,1,1
80164933,80197338,0,0,1,78327.007,2,48695,49355,46198,46524,98.45,92.41,1,1
80224929,80257338,3,3,1,78387.003,2,48267,48557,46149,46483,98.45,92.4,1,1
80285933,80318338,2,2,1,78448.007,2,48188,48566,46171,46529,98.45,92.4,1,1
80345929,80378338,1,1,1,78508.003,2,48234,48684,46181,46539,98.45,92.39,1,1
80405933,80438338,0,0,1,78568.007,2,48306,48899,46188,46570,98.44,92.38,1,1
80465929,80498338,3,3,1,78628.003,2,48361,48955,46189,46579,98.44,92.37,1,1
80525933,80558338,2,2,1,78688.007,2,48358,48980,46186,46578,98.44,92.36,1,1
80585929,80618338,1,1,1,78748.003,2,48405,49132,46183,46577,98.44,92.36,1,1
80645933,80678338,0,0,1,78808.007,2,48485,49299,46180,46569,98.44,92.35,1,1
80705929,80738338,3,3,1,78868.003,2,48540,49422,46175,46564,98.44,92.34,1,1
80765933,80798338,2,2,1,78928.007,2,48580,49507,46167,46558,98.44,92.33,1,1
80826929,80858338,1,1,1,78989.003,2,48614,49578,46159,46570,98.43,92.33,1,1
80886933,80918338,0,0,1,79049.007,2,48646,49657,46157,46568,98.43,92.32,1,1
80946929,80979338,3,3,1,79109.003,2,48685,49754,46156,46583,98.43,92.31,1,1
81006933,81039338,2,2,1,79169.007,2,48729,49778,46152,46580,98.43,92.3,1,1
81066929,81099338,1,1,1,79229.003,2,48475,48882,46107,46479,98.43,92.29,1,1
81126933,81159338,0,0,1,79289.007,2,48138,48430,46094,46492,98.43,92.29,1,1
81186929,81219338,3,3,1,79349.003,2,48157,48568,46119,46511,98.43,92.28,1,1
81246933,81279338,2,2,1,79409.007,2,48223,48721,46120,46528,98.42,92.27,1,1
81307929,81339338,1,1,1,79470.003,2,48320,48917,46127,46534,98.42,92.26,1,1
81367933,81399338,0,0,1,79530.007,2,48341,48932,46117,46540,98.42,92.25,1,1
81427929,81459338,3,3,1,79590.003,2,48348,48991,46120,46541,98.42,92.25,1,1
81487933,81519338,2,2,1,79650.007,2,48417,49168,46117,46561,98.42,92.24,1,1
81547929,81580338,1,1,1,79710.003,2,48498,49345,46117,46566,98.42,92.23,1,1
81607933,81640338,0,0,1,79770.007,2,48565,49485,46115,46565,98.42,92.22,1,1
81667929,81700338,3,3,1,79830.003,2,48616,49592,46115,46564,98.42,92.21,1,1
81727933,81760338,2,2,1,79890.007,2,48661,49686,46107,46560,98.41,92.21,1,1
81787929,81820338,1,1,1,79950.003,2,48698,49796,46102,46555,98.41,92.2,1,1
81848933,81880338,0,0,1,80011.007,2,48750,49918,46093,46549,98.41,92.19,1,1
81908929,81940338,3,3,1,80071.003,2,48807,49973,46094,46561,98.41,92.18,1,1
81968933,82000338,2,2,1,80131.007,2,48592,49143,46054,46470,98.41,92.17,1,1
82028929,82060338,1,1,1,80191.003,2,48259,48661,46040,46493,98.41,92.17,1,1
82088933,82120338,0,0,1,80251.007,2,48280,48812,46067,46526,98.41,92.16,1,1
82148929,82180338,3,3,1,80311.003,2,48350,48988,46069,46536,98.41,92.15,1,1
82208933,82241338,2,2,1,80371.007,2,48443,49161,46075,46528,98.41,92.14,1,1
82268929,82301338,1,1,1,80431.003,2,48451,49140,46070,46524,98.4,92.13,1,1
82328933,82361338,0,0,1,80491.007,2,48454,49204,46064,46522,98.4,92.12,1,1
82389929,82421338,3,3,1,80552.003,2,48527,49391,46060,46522,98.4,92.12,1,1
82449933,82481338,2,2,1,80612.007,2,48602,49574,46054,46526,98.4,92.11,1,1
82509929,82541338,1,1,1,80672.003,2,48668,49697,46055,46545,98.4,92.1,1,1
82569933,82601338,0,0,1,80732.007,2,48712,49771,46057,46555,98.4,92.09,1,1
82629929,82661338,3,3,1,80792.003,2,48735,49835,46055,46552,98.4,92.08,1,1
82689933,82721338,2,2,1,80852.007,2,48766,49916,46048,46547,98.4,92.07,1,1
82749929,82781338,1,1,1,80912.003,2,48813,50004,46045,46547,98.4,92.06,1,1
82809933,82841338,0,0,1,80972.007,2,48701,49397,46023,46468,98.4,92.06,1,1
82869929,82902338,3,3,1,81032.003,2,48326,48737,45985,46442,98.39,92.05,1,1
82930933,82962338,2,2,1,81093.007,2,48292,48821,46007,46481,98.39,92.04,1,1
82990929,83022338,1,1,1,81153.003,2,48368,49001,46014,46483,98.39,92.03,1,1
83050933,83082338,0,0,1,81213.007,2,48454,49203,46017,46514,98.39,92.02,1,1
83110929,83142338,3,3,1,81273.003,2,48476,49192,46021,46514,98.39,92.01,1,1
83170933,83202338,2,2,1,81333.007,2,48468,49217,46017,46510,98.39,92,1,1
83230929,83262338,1,1,1,81393.003,2,48531,49384,46012,46507,98.39,92,1,1
83290933,83322338,0,0,1,81453.007,2,48606,49561,46012,46500,98.39,91.99,1,1
83350929,83382338,3,3,1,81513.003,2,48676,49691,46006,46494,98.39,91.98,1,1
83411933,83442338,2,2,1,81574.007,2,48722,49782,46000,46489,98.39,91.97,1,1
83471929,83502338,1,1,1,81634.003,2,48747,49854,45994,46496,98.39,91.96,1,1
83531933,83563338,0,0,1,81694.007,2,48778,49922,45991,46494,98.39,91.95,1,1
83591929,83623338,3,3,1,81754.003,2,48822,50043,45986,46511,98.38,91.94,1,1
83651933,83683338,2,2,1,81814.007,2,48775,49620,45984,46461,98.38,91.93,1,1
83711929,83743338,1,1,1,81874.003,2,48374,48769,45927,46405,98.38,91.93,1,1
83771933,83803338,0,0,1,81934.007,2,48261,48738,45956,46445,98.38,91.92,1,1
83831929,83863338,3,3,1,81994.003,2,48325,48866,45968,46446,98.38,91.91,1,1
83891933,83923338,2,2,1,82054.007,2,48395,49052,45971,46458,98.38,91.9,1,1
83952929,83983338,1,1,1,82115.003,2,48455,49128,45973,46453,98.38,91.89,1,1
84012933,84043338,0,0,1,82175.007,2,48444,49110,45965,46461,98.38,91.88,1,1
84072929,84103338,3,3,1,82235.003,2,48477,49237,45968,46464,98.38,91.87,1,1
84132933,84164338,2,2,1,82295.007,2,48554,49417,45962,46480,98.38,91.86,1,1
84192929,84224338,1,1,1,82355.003,2,48616,49548,45963,46482,98.38,91.85,1,1
84252933,84284338,0,0,1,82415.007,2,48661,49647,45957,46477,98.38,91.84,1,1
84312929,84344338,3,3,1,82475.003,2,48699,49730,45955,46477,98.38,91.84,1,1
84372933,84404338,2,2,1,82535.007,2,48731,49813,45949,46467,98.38,91.83,1,1
84432929,84464338,1,1,1,82595.003,2,48771,49932,45945,46467,98.37,91.82,1,1
84493933,84524338,0,0,1,82656.007,2,48833,50037,45947,46468,98.37,91.81,1,1
84553929,84584338,3,3,1,82716.003,2,48681,49315,45916,46387,98.37,91.8,1,1
84613933,84644338,2,2,1,82776.007,2,48286,48629,45886,46381,98.37,91.79,1,1
84673929,84704338,1,1,1,82836.003,2,48256,48697,45921,46434,98.37,91.78,1,1
84733933,84764338,0,0,1,82896.007,2,48320,48845,45928,46444,98.37,91.77,1,1
84793929,84825338,3,3,1,82956.003,2,48408,49063,45933,46463,98.37,91.76,1,1
84853933,84885338,2,2,1,83016.007,2,48459,49114,45935,46457,98.37,91.75,1,1
84913929,84945338,1,1,1,83076.003,2,48454,49150,45934,46453,98.37,91.74,1,1
84973933,85005338,0,0,1,83136.007,2,48509,49323,45932,46448,98.37,91.73,1,1
85034929,85065338,3,3,1,83197.003,2,48604,49532,45928,46450,98.37,91.72,1,1
85094933,85125338,2,2,1,83257.007,2,48679,49688,45926,46456,98.37,91.71,1,1
85154929,85185338,1,1,1,83317.003,2,48730,49790,45925,46469,98.37,91.7,1,1
85214933,85245338,0,0,1,83377.007,2,48774,49878,45922,46481,98.37,91.7,1,1
85274929,85305338,3,3,1,83437.003,2,48809,49964,45923,46483,98.37,91.69,1,1
85334933,85365338,2,2,1,83497.007,2,48850,50058,45921,46484,98.37,91.68,1,1
85394929,85425338,1,1,1,83557.003,2,48896,50168,45918,46481,98.37,91.67,1,1
85454933,85486338,0,0,1,83617.007,2,48798,49573,45901,46411,98.36,91.66,1,1
85514929,85546338,3,3,1,83677.003,2,48372,48749,45862,46376,98.36,91.65,1,1
85575933,85606338,2,2,1,83738.007,2,48298,48798,45890,46428,98.36,91.64,1,1
85635929,85666338,1,1,1,83798.003,2,48377,48954,45900,46435,98.36,91.63,1,1
85695933,85726338,0,0,1,83858.007,2,48460,49169,45908,46458,98.36,91.62,1,1
85755929,85786338,3,3,1,83918.003,2,48493,49184,45905,46462,98.36,91.61,1,1
85815933,85846338,2,2,1,83978.007,2,48477,49156,45904,46458,98.36,91.6,1,1
85875929,85906338,1,1,1,84038.003,2,48516,49308,45900,46461,98.36,91.59,1,1
85935933,85966338,0,0,1,84098.007,2,48598,49479,45897,46452,98.36,91.58,1,1
85995929,86026338,3,3,1,84158.003,2,48654,49596,45892,46444,98.36,91.57,1,1
86055933,86086338,2,2,1,84218.007,2,48692,49682,45884,46434,98.36,91.56,1,1
86116929,86147338,1,1,1,84279.003,2,48717,49738,45879,46437,98.36,91.55,1,1
86176933,86207338,0,0,1,84339.007,2,48739,49807,45881,46443,98.36,91.54,1,1
86236929,86267338,3,3,1,84399.003,2,48773,49904,45879,46454,98.36,91.53,1,1
86296933,86327338,2,2,1,84459.007,2,48784,49710,45878,46443,98.36,91.52,1,1
86356929,86387338,1,1,1,84519.003,2,48417,48750,45831,46360,98.36,91.51,1,1
86416933,86447338,0,0,1,84579.007,2,48201,48551,45844,46393,98.36,91.5,1,1
86476929,86507338,3,3,1,84639.003,2,48263,48719,45864,46403,98.36,91.49,1,1
86536933,86567338,2,2,1,84699.007,2,48337,48912,45865,46406,98.36,91.48,1,1
86596929,86627338,1,1,1,84759.003,2,48410,49015,45864,46399,98.35,91.47,1,1
86657933,86687338,0,0,1,84820.007,2,48398,48973,45859,46410,98.35,91.46,1,1
86717929,86747338,3,3,1,84880.003,2,48417,49069,45860,46406,98.35,91.45,1,1
86777933,86808338,2,2,1,84940.007,2,48489,49264,45864,46423,98.35,91.44,1,1
86837929,86868338,1,1,1,85000.003,2,48566,49421,45863,46427,98.35,91.43,1,1
86897933,86928338,0,0,1,85060.007,2,48618,49533,45864,46426,98.35,91.42,1,1
86957929,86988338,3,3,1,85120.003,2,48659,49607,45856,46425,98.35,91.41,1,1
87017933,87048338,2,2,1,85180.007,2,48690,49695,45854,46421,98.35,91.4,1,1
87077929,87108338,1,1,1,85240.003,2,48729,49784,45849,46416,98.35,91.39,1,1
87137933,87168338,0,0,1,85300.007,2,48774,49882,45844,46415,98.35,91.38,1,1
87198929,87228338,3,3,1,85361.003,2,48751,49546,45836,46377,98.35,91.37,1,1
87258933,87288338,2,2,1,85421.007,2,48329,48559,45783,46302,98.35,91.36,1,1
87318929,87348338,1,1,1,85481.003,2,48164,48438,45807,46366,98.35,91.35,1,1
87378933,87408338,0,0,1,85541.007,2,48222,48589,45831,46381,98.35,91.34,1,1
87438929,87469338,3,3,1,85601.003,2,48289,48784,45841,46397,98.35,91.33,1,1
87498933,87529338,2,2,1,85661.007,2,48361,48878,45840,46391,98.35,91.32,1,1
87558929,87589338,1,1,1,85721.003,2,48348,48869,45838,46387,98.35,91.31,1,1
87618933,87649338,0,0,1,85781.007,2,48382,48995,45833,46376,98.35,91.29,1,1
87678929,87709338,3,3,1,85841.003,2,48467,49195,45827,46370,98.35,91.28,1,1
87739933,87769338,2,2,1,85902.007,2,48543,49353,45826,46382,98.34,91.27,1,1
87799929,87829338,1,1,1,85962.003,2,48593,49439,45823,46381,98.34,91.26,1,1
87859933,87889338,0,0,1,86022.007,2,48628,49520,45820,46395,98.34,91.25,1,1
87919929,87949338,3,3,1,86082.003,2,48662,49596,45829,46401,98.34,91.24,1,1
87979933,88009338,2,2,1,86142.007,2,48700,49683,45824,46399,98.34,91.23,1,1
88039929,88069337,1,1,1,86202.003,2,48745,49800,45823,46395,98.34,91.22,1,1
88099933,88130338,0,0,1,86262.007,2,48766,49622,45816,46372,98.34,91.21,1,1
88159929,88190338,3,3,1,86322.003,2,48395,48628,45760,46273,98.34,91.2,1,1
88220933,88250338,2,2,1,86383.007,2,48170,48421,45780,46314,98.34,91.19,1,1
88280929,88310338,1,1,1,86443.003,2,48235,48597,45802,46338,98.34,91.18,1,1
88340933,88370338,0,0,1,86503.007,2,48302,48799,45811,46360,98.34,91.17,1,1
88400929,88430338,3,3,1,86563.003,2,48389,48924,45817,46378,98.34,91.16,1,1
88460933,88490338,2,2,1,86623.007,2,48386,48901,45820,46374,98.34,91.15,1,1
88520929,88550338,1,1,1,86683.003,2,48416,49015,45818,46381,98.34,91.14,1,1
88580933,88610338,0,0,1,86743.007,2,48493,49207,45822,46375,98.34,91.13,1,1
88640929,88670337,3,3,1,86803.003,2,48571,49367,45816,46371,98.34,91.11,1,1
88700933,88730337,2,2,1,86863.007,2,48619,49481,45815,46365,98.34,91.1,1,1
88761929,88791338,1,1,1,86924.003,2,48665,49562,45806,46371,98.34,91.09,1,1
88821933,88851338,0,0,1,86984.007,2,48693,49626,45805,46370,98.34,91.08,1,1
88881929,88911338,3,3,1,87044.003,2,48725,49719,45806,46387,98.34,91.07,1,1
88941933,88971338,2,2,1,87104.007,2,48782,49856,45807,46393,98.34,91.06,1,1
89001929,89031338,1,1,1,87164.003,2,48758,49499,45801,46341,98.34,91.05,1,1
89061933,89091338,0,0,1,87224.007,2,48357,48603,45750,46278,98.34,91.04,1,1
89121929,89151338,3,3,1,87284.003,2,48235,48568,45777,46312,98.34,91.03,1,1
89181933,89211338,2,2,1,87344.007,2,48312,48756,45790,46323,98.34,91.02,1,1
89241929,89271337,1,1,1,87404.003,2,48393,48948,45793,46320,98.34,91.01,1,1
89302933,89331337,0,0,1,87465.007,2,48432,48951,45786,46322,98.33,91,1,1
89362929,89391337,3,3,1,87525.003,2,48395,48914,45785,46319,98.33,90.98,1,1
89422934,89452338,2,2,1,87585.008,2,48443,49050,45785,46327,98.33,90.97,1,1
89482929,89512338,1,1,1,87645.003,2,48510,49210,45786,46330,98.33,90.96,1,1
89542933,89572338,0,0,1,87705.007,2,48551,49285,45786,46323,98.33,90.95,1,1
89602929,89632338,3,3,1,87765.003,2,48569,49342,45780,46326,98.33,90.94,1,1
89662933,89692338,2,2,1,87825.007,2,48592,49410,45782,46320,98.33,90.93,1,1
89722929,89752338,1,1,1,87885.003,2,48624,49476,45770,46314,98.33,90.92,1,1
89782933,89812338,0,0,1,87945.007,2,48671,49592,45771,46308,98.33,90.91,1,1
89843929,89872337,3,3,1,88006.003,2,48688,49419,45764,46292,98.33,90.9,1,1
89903933,89932337,2,2,1,88066.007,2,48323,48452,45709,46187,98.33,90.89,1,1
89963929,89992337,1,1,1,88126.003,2,48110,48250,45730,46239,98.33,90.88,1,1
90023933,90053338,0,0,1,88186.007,2,48153,48362,45754,46257,98.33,90.86,1,1
90083929,90113338,3,3,1,88246.003,2,48208,48532,45765,46276,98.33,90.85,1,1
90143933,90173338,2,2,1,88306.007,2,48279,48646,45772,46279,98.33,90.84,1,1
90203929,90233338,1,1,1,88366.003,2,48272,48623,45769,46271,98.33,90.83,1,1
90263933,90293338,0,0,1,88426.007,2,48298,48746,45767,46271,98.33,90.82,1,1
90323929,90353338,3,3,1,88486.003,2,48379,48930,45763,46264,98.33,90.81,1,1
90384936,90413338,2,2,1,88547.01,2,48449,49078,45758,46269,98.33,90.8,1,1
90444929,90473337,1,1,1,88607.003,2,48505,49192,45758,46272,98.33,90.79,1,1
90504933,90533337,0,0,1,88667.007,2,48545,49274,45755,46283,98.33,90.78,1,1
90564930,90593337,3,3,1,88727.004,2,48584,49345,45757,46288,98.33,90.77,1,1
90624933,90653337,2,2,1,88787.007,2,48619,49423,45761,46287,98.33,90.75,1,1
90684929,90714338,1,1,1,88847.003,2,48658,49521,45756,46288,98.33,90.74,1,1
90744933,90774338,0,0,1,88907.007,2,48610,49079,45746,46214,98.33,90.73,1,1
90804929,90834338,3,3,1,88967.003,2,48193,48199,45684,46141,98.33,90.72,1,1
90865933,90894338,2,2,1,89028.007,2,48074,48173,45721,46182,98.33,90.71,1,1
90925929,90954338,1,1,1,89088.003,2,48141,48330,45734,46204,98.33,90.7,1,1
90985933,91014337,0,0,1,89148.007,2,48226,48565,45751,46233,98.33,90.69,1,1
91045929,91074338,3,3,1,89208.003,2,48297,48639,45756,46248,98.33,90.68,1,1
91105933,91134338,2,2,1,89268.007,2,48292,48646,45758,46255,98.33,90.67,1,1
91165929,91194337,1,1,1,89328.003,2,48339,48797,45762,46255,98.33,90.66,1,1
91225933,91254337,0,0,1,89388.007,2,48429,48984,45761,46254,98.33,90.64,1,1
91285929,91315338,3,3,1,89448.003,2,48491,49116,45761,46250,98.33,90.63,1,1
91345933,91375338,2,2,1,89508.007,2,48538,49208,45755,46247,98.33,90.62,1,1
91406929,91435338,1,1,1,89569.003,2,48573,49297,45749,46240,98.33,90.61,1,1
91466933,91495338,0,0,1,89629.007,2,48614,49397,45745,46248,98.33,90.6,1,1
91526929,91555338,3,3,1,89689.003,2,48675,49527,45748,46251,98.33,90.59,1,1
91586933,91615337,2,2,1,89749.007,2,48711,49525,45746,46255,98.33,90.58,1,1
91646929,91675338,1,1,1,89809.003,2,48451,48634,45704,46146,98.33,90.57,1,1
91706933,91735338,0,0,1,89869.007,2,48147,48238,45705,46165,98.33,90.56,1,1
91766929,91795338,3,3,1,89929.003,2,48177,48396,45740,46191,98.33,90.55,1,1
91826933,91855338,2,2,1,89989.007,2,48240,48561,45744,46199,98.33,90.53,1,1
91886929,91915337,1,1,1,90049.003,2,48329,48702,45751,46204,98.33,90.52,1,1
91947933,91976338,0,0,1,90110.007,2,48324,48660,45745,46194,98.33,90.51,1,1
92007930,92036338,3,3,1,90170.004,2,48333,48741,45743,46205,98.33,90.5,1,1
92067933,92096337,2,2,1,90230.007,2,48404,48932,45745,46208,98.34,90.49,1,1
92127930,92156338,1,1,1,90290.004,2,48479,49079,45742,46216,98.34,90.48,1,1
92187933,92216338,0,0,1,90350.007,2,48528,49189,45747,46219,98.34,90.47,1,1
92247929,92276338,3,3,1,90410.003,2,48562,49259,45746,46216,98.34,90.46,1,1
92307933,92336338,2,2,1,90470.007,2,48590,49309,45743,46212,98.34,90.45,1,1
92367929,92396338,1,1,1,90530.003,2,48617,49376,45742,46203,98.34,90.44,1,1
92427933,92456338,0,0,1,90590.007,2,48620,49284,45733,46194,98.34,90.43,1,1
92488929,92516337,3,3,1,90651.003,2,48325,48299,45684,46051,98.34,90.42,1,1
92548936,92577338,2,2,1,90711.01,2,47961,47804,45665,46062,98.34,90.4,1,1
92608929,92637338,1,1,1,90771.003,2,47971,47888,45699,46087,98.34,90.39,1,1
92668933,92697338,0,0,1,90831.007,2,48002,47968,45708,46111,98.34,90.38,1,1
92728929,92757338,3,3,1,90891.003,2,48064,48132,45730,46133,98.34,90.37,1,1
92788933,92817338,2,2,1,90951.007,2,48112,48218,45730,46130,98.35,90.36,1,1
92848929,92877338,1,1,1,91011.003,2,48153,48363,45728,46129,98.35,90.35,1,1
92908933,92937338,0,0,1,91071.007,2,48250,48577,45727,46130,98.35,90.34,1,1
92968929,92997338,3,3,1,91131.003,2,48339,48765,45724,46124,98.35,90.33,1,1
93029936,93057337,2,2,1,91192.01,2,48394,48885,45715,46122,98.35,90.32,1,1
93089929,93117337,1,1,1,91252.003,2,48440,48977,45713,46129,98.35,90.31,1,1
93149933,93177337,0,0,1,91312.007,2,48486,49076,45717,46136,98.35,90.3,1,1
93209929,93238338,3,3,1,91372.003,2,48540,49176,45713,46150,98.35,90.29,1,1
93269933,93298338,2,2,1,91432.007,2,48578,49289,45717,46156,98.36,90.28,1,1
93329929,93358338,1,1,1,91492.003,2,48621,49252,45718,46144,98.36,90.27,1,1
93389933,93418338,0,0,1,91552.007,2,48323,48301,45657,46006,98.36,90.26,1,1
93449929,93478338,3,3,1,91612.003,2,48035,47972,45668,46035,98.36,90.25,1,1
93509933,93538337,2,2,1,91672.007,2,48071,48108,45696,46058,98.36,90.23,1,1
93570929,93598338,1,1,1,91733.003,2,48125,48260,45708,46068,98.36,90.22,1,1
93630933,93658337,0,0,1,91793.007,2,48223,48449,45716,46094,98.37,90.21,1,1
93690929,93718337,3,3,1,91853.003,2,48236,48442,45716,46090,98.37,90.2,1,1
93750936,93778337,2,2,1,91913.01,2,48261,48552,45716,46112,98.37,90.19,1,1
93810929,93839338,1,1,1,91973.003,2,48350,48756,45722,46113,98.37,90.18,1,1
93870933,93899338,0,0,1,92033.007,2,48429,48929,45720,46114,98.37,90.17,1,1
93930930,93959338,3,3,1,92093.004,2,48488,49063,45725,46121,98.38,90.16,1,1
93990933,94019338,2,2,1,92153.007,2,48539,49169,45721,46117,98.38,90.15,1,1
94050929,94079338,1,1,1,92213.003,2,48584,49289,45717,46120,98.38,90.14,1,1
94111933,94139338,0,0,1,92274.007,2,48637,49401,45717,46121,98.38,90.13,1,1
94171929,94199337,3,3,1,92334.003,2,48688,49528,45716,46131,98.38,90.12,1,1
94231933,94259337,2,2,1,92394.007,2,48746,49631,45718,46144,98.39,90.11,1,1
94291929,94319337,1,1,1,92454.003,2,48596,48884,45686,46052,98.39,90.1,1,1
94351933,94379337,0,0,1,92514.007,2,48211,48258,45663,46043,98.39,90.09,1,1
94411929,94440338,3,3,1,92574.003,2,48202,48393,45706,46085,98.39,90.08,1,1
94471933,94500338,2,2,1,92634.007,2,48282,48567,45716,46101,98.4,90.07,1,1
94531929,94560338,1,1,1,92694.003,2,48374,48785,45728,46109,98.4,90.06,1,1
94591933,94620338,0,0,1,92754.007,2,48409,48787,45720,46101,98.4,90.05,1,1
94652929,94680338,3,3,1,92815.003,2,48409,48858,45716,46099,98.4,90.04,1,1
94712935,94740338,2,2,1,92875.009,2,48482,49056,45716,46107,98.41,90.03,1,1
94772929,94800338,1,1,1,92935.003,2,48573,49253,45717,46119,98.41,90.02,1,1
94832933,94860337,0,0,1,92995.007,2,48643,49404,45720,46131,98.41,90.01,1,1
94892929,94920337,3,3,1,93055.003,2,48685,49473,45720,46136,98.41,90,1,1
94952933,94980337,2,2,1,93115.007,2,48718,49530,45721,46134,98.42,89.99,1,1
95012929,95040337,1,1,1,93175.003,2,48747,49604,45716,46133,98.42,89.98,1,1
95072933,95101338,0,0,1,93235.007,2,48793,49718,45712,46127,98.42,89.97,1,1
95132929,95161338,3,3,1,93295.003,2,48805,49488,45705,46088,98.43,89.96,1,1
95193936,95221338,2,2,1,93356.01,2,48431,48584,45651,46017,98.43,89.95,1,1
95253929,95281338,1,1,1,93416.003,2,48271,48491,45672,46059,98.43,89.94,1,1
95313933,95341338,0,0,1,93476.007,2,48357,48721,45696,46088,98.43,89.94,1,1
95373929,95401338,3,3,1,93536.003,2,48441,48940,45701,46111,98.44,89.93,1,1
95433933,95461338,2,2,1,93596.007,2,48491,48965,45707,46105,98.44,89.92,1,1
95493929,95521337,1,1,1,93656.003,2,48460,48924,45702,46107,98.44,89.91,1,1
95553933,95581338,0,0,1,93716.007,2,48490,49049,45702,46104,98.44,89.9,1,1
95613929,95641338,3,3,1,93776.003,2,48573,49232,45698,46102,98.45,89.89,1,1
95673933,95701338,2,2,1,93836.007,2,48635,49370,45695,46099,98.45,89.88,1,1
95734929,95762338,1,1,1,93897.003,2,48683,49461,45695,46100,98.45,89.87,1,1
95794933,95822338,0,0,1,93957.007,2,48714,49529,45691,46108,98.45,89.86,1,1
95854929,95882338,3,3,1,94017.003,2,48737,49592,45687,46119,98.46,89.85,1,1
95914933,95942338,2,2,1,94077.007,2,48774,49702,45687,46137,98.46,89.84,1,1
95974929,96002338,1,1,1,94137.003,2,48781,49484,45694,46103,98.46,89.83,1,1
96034933,96062338,0,0,1,94197.007,2,48396,48512,45637,46025,98.46,89.82,1,1
96094929,96122338,3,3,1,94257.003,2,48203,48363,45655,46055,98.47,89.81,1,1
96154933,96182338,2,2,1,94317.007,2,48272,48548,45669,46077,98.47,89.8,1,1
96214929,96242338,1,1,1,94377.003,2,48346,48731,45675,46077,98.47,89.8,1,1
96275936,96302338,0,0,1,94438.01,2,48408,48824,45666,46086,98.47,89.79,1,1
96335929,96363338,3,3,1,94498.003,2,48404,48784,45673,46089,98.48,89.78,1,1
96395933,96423338,2,2,1,94558.007,2,48426,48912,45668,46104,98.48,89.77,1,1
96455929,96483338,1,1,1,94618.003,2,48503,49113,45675,46116,98.48,89.76,1,1
96515936,96543338,0,0,1,94678.01,2,48589,49287,45675,46115,98.48,89.75,1,1
96575929,96603338,3,3,1,94738.003,2,48635,49402,45672,46117,98.49,89.74,1,1
96635933,96663338,2,2,1,94798.007,2,48667,49472,45669,46117,98.49,89.73,1,1
96695929,96723338,1,1,1,94858.003,2,48695,49538,45664,46118,98.49,89.72,1,1
96756933,96783338,0,0,1,94919.007,2,48734,49630,45652,46106,98.49,89.72,1,1
96816929,96843338,3,3,1,94979.003,2,48778,49693,45647,46122,98.5,89.71,1,1
96876936,96903338,2,2,1,95039.01,2,48606,48915,45622,46027,98.5,89.7,1,1
96936929,96964338,1,1,1,95099.003,2,48193,48221,45597,46041,98.5,89.69,1,1
96996933,97024338,0,0,1,95159.007,2,48160,48308,45636,46080,98.5,89.68,1,1
97056929,97084338,3,3,1,95219.003,2,48230,48467,45641,46091,98.5,89.67,1,1
97116933,97144338,2,2,1,95279.007,2,48306,48663,45646,46093,98.51,89.66,1,1
97176929,97204338,1,1,1,95339.003,2,48346,48709,45639,46089,98.51,89.65,1,1
97236933,97264338,0,0,1,95399.007,2,48351,48775,45633,46084,98.51,89.65,1,1
97297929,97324338,3,3,1,95460.003,2,48420,48962,45627,46085,98.51,89.64,1,1
97357933,97384338,2,2,1,95520.007,2,48515,49172,45622,46097,98.51,89.63,1,1
97417929,97444338,1,1,1,95580.003,2,48587,49327,45625,46105,98.52,89.62,1,1
97477933,97504338,0,0,1,95640.007,2,48643,49433,45624,46126,98.52,89.61,1,1
97537930,97564338,3,3,1,95700.004,2,48689,49529,45628,46120,98.52,89.6,1,1
97597936,97625338,2,2,1,95760.01,2,48729,49618,45626,46130,98.52,89.6,1,1
97657929,97685338,1,1,1,95820.003,2,48775,49746,45622,46120,98.52,89.59,1,1
97717933,97745338,0,0,1,95880.007,2,48827,49729,45612,46109,98.53,89.58,1,1
97777929,97805338,3,3,1,95940.003,2,48516,48743,45563,46013,98.53,89.57,1,1
97838933,97865338,2,2,1,96001.007,2,48241,48463,45567,46052,98.53,89.56,1,1
97898929,97925338,1,1,1,96061.003,2,48304,48677,45592,46081,98.53,89.55,1,1
97958933,97985338,0,0,1,96121.007,2,48395,48884,45594,46102,98.53,89.55,1,1
98018929,98045338,3,3,1,96181.003,2,48484,49037,45602,46113,98.54,89.54,1,1
98078933,98105338,2,2,1,96241.007,2,48483,49002,45600,46113,98.54,89.53,1,1
98138929,98165338,1,1,1,96301.003,2,48495,49091,45597,46113,98.54,89.52,1,1
98198933,98225338,0,0,1,96361.007,2,48576,49298,45594,46108,98.54,89.51,1,1
98258929,98286338,3,3,1,96421.003,2,48663,49476,45586,46105,98.54,89.5,1,1
98318933,98346338,2,2,1,96481.007,2,48715,49587,45580,46099,98.55,89.5,1,1
98379929,98406338,1,1,1,96542.003,2,48745,49650,45574,46109,98.55,89.49,1,1
98439933,98466338,0,0,1,96602.007,2,48764,49707,45571,46113,98.55,89.48,1,1
98499929,98526338,3,3,1,96662.003,2,48797,49810,45570,46132,98.55,89.47,1,1
98559933,98586338,2,2,1,96722.007,2,48804,49579,45570,46103,98.55,89.46,1,1
98619929,98646338,1,1,1,96782.003,2,48429,48640,45521,46039,98.55,89.45,1,1
98679933,98706338,0,0,1,96842.007,2,48259,48547,45539,46078,98.56,89.45,1,1
98739929,98766338,3,3,1,96902.003,2,48335,48757,45555,46089,98.56,89.44,1,1
98799933,98826338,2,2,1,96962.007,2,48432,48977,45552,46091,98.56,89.43,1,1
98860929,98887338,1,1,1,97023.003,2,48476,48997,45542,46083,98.56,89.42,1,1
98920933,98947338,0,0,1,97083.007,2,48445,48946,45537,46090,98.56,89.41,1,1
98980929,99007338,3,3,1,97143.003,2,48478,49089,45537,46094,98.56,89.41,1,1
99040933,99067338,2,2,1,97203.007,2,48554,49277,45535,46109,98.56,89.4,1,1
99100929,99127338,1,1,1,97263.003,2,48625,49429,45541,46109,98.57,89.39,1,1
99160933,99187338,0,0,1,97323.007,2,48673,49525,45533,46105,98.57,89.38,1,1
99220929,99247338,3,3,1,97383.003,2,48692,49576,45533,46109,98.57,89.37,1,1
99280933,99307338,2,2,1,97443.007,2,48713,49645,45519,46093,98.57,89.37,1,1
99340929,99367338,1,1,1,97503.003,2,48756,49675,45518,46088,98.57,89.36,1,1
99401933,99427338,0,0,1,97564.007,2,48532,48800,45470,45990,98.57,89.35,1,1
99461929,99487338,3,3,1,97624.003,2,48175,48301,45458,46017,98.57,89.34,1,1
99521933,99548338,2,2,1,97684.007,2,48190,48433,45490,46064,98.57,89.33,1,1
99581929,99608338,1,1,1,97744.003,2,48256,48588,45495,46084,98.58,89.33,1,1
99641933,99668338,0,0,1,97804.007,2,48332,48755,45503,46082,98.58,89.32,1,1
99701929,99728338,3,3,1,97864.003,2,48342,48721,45499,46088,98.58,89.31,1,1
99761933,99788338,2,2,1,97924.007,2,48332,48784,45495,46075,98.58,89.3,1,1
99821929,99848338,1,1,1,97984.003,2,48403,48972,45484,46074,98.58,89.29,1,1
99881933,99908338,0,0,1,98044.007,2,48485,49142,45484,46068,98.58,89.28,1,1
99942929,99968338,3,3,1,98105.003,2,48536,49248,45476,46075,98.58,89.28,1,1
100002933,100028338,2,2,1,98165.007,2,48569,49309,45478,46082,98.58,89.27,1,1
100062929,100088338,1,1,1,98225.003,2,48597,49367,45474,46095,98.58,89.26,1,1
100122933,100148338,0,0,1,98285.007,2,48626,49448,45477,46104,98.59,89.25,1,1
100182929,100209338,3,3,1,98345.003,2,48657,49332,45469,46080,98.59,89.24,1,1
100242933,100269338,2,2,1,98405.007,2,48299,48323,45410,45976,98.59,89.24,1,1
100302929,100329338,1,1,1,98465.003,2,48036,48049,45429,46012,98.59,89.23,1,1
100362933,100389338,0,0,1,98525.007,2,48080,48182,45444,46020,98.59,89.22,1,1
100423929,100449338,3,3,1,98586.003,2,48123,48336,45449,46033,98.59,89.21,1,1
100483934,100509338,2,2,1,98646.008,2,48207,48496,45451,46050,98.59,89.2,1,1
100543929,100569338,1,1,1,98706.003,2,48221,48497,45450,46055,98.59,89.2,1,1
100603933,100629338,0,0,1,98766.007,2,48239,48585,45449,46069,98.59,89.19,1,1
100663929,100689338,3,3,1,98826.003,2,48315,48770,45451,46071,98.59,89.18,1,1
100723933,100749338,2,2,1,98886.007,2,48391,48931,45447,46069,98.6,89.17,1,1
100783929,100810338,1,1,1,98946.003,2,48449,49041,45444,46067,98.6,89.16,1,1
100843933,100870338,0,0,1,99006.007,2,48488,49116,45435,46061,98.6,89.15,1,1
100903929,100930338,3,3,1,99066.003,2,48515,49195,45432,46065,98.6,89.15,1,1
100964933,100990338,2,2,1,99127.007,2,48559,49304,45433,46063,98.6,89.14,1,1
