timestamp,sensor1_smoothed,sensor1_bpm,sensor2_smoothed,sensor2_bpm,status,
2025-08-12 14:22,453.15,0,778.05,0,0,SKIP
2025-08-12 14:22,855.28,0,1515.15,0,0,SKIP
2025-08-12 14:22,1208.39,0,2211.3,0,0,SKIP
2025-08-12 14:22,1513.31,0,2866.5,0,0,SKIP
2025-08-12 14:22,1777.17,0,3480.75,0,0,SKIP
2025-08-12 14:22,1549.66,0,3276,0,0,SKIP
2025-08-12 14:22,1340.55,0,3071.25,0,0,SKIP
2025-08-12 14:22,1151.87,0,2866.5,0,0,SKIP
2025-08-12 14:22,988.17,0,2661.75,0,0,SKIP
2025-08-12 14:22,841.75,0,2457,0,0,SKIP
2025-08-12 14:22,712.48,0,2252.25,0,0,SKIP
2025-08-12 14:22,596.02,0,2047.5,0,0,SKIP
2025-08-12 14:22,491.83,0,1842.75,0,0,SKIP
2025-08-12 14:22,391.39,0,1638,0,0,SKIP
2025-08-12 14:22,298,0,1433.25,0,0,SKIP
2025-08-12 14:22,208.32,0,1228.5,0,0,SKIP
2025-08-12 14:22,123.35,0,1020.9,0,0,SKIP
2025-08-12 14:22,40.61,0,797.11,0,0,SKIP
2025-08-12 14:22,-42.26,0,549.25,0,0,SKIP
2025-08-12 14:22,-126.93,0,275.41,0,0,SKIP
2025-08-12 14:22,-188.85,0,21.64,0,0,SKIP
2025-08-12 14:22,-233.15,0,-206.39,0,0,SKIP
2025-08-12 14:22,-269.1,0,-387.28,0,0,SKIP
2025-08-12 14:22,-287.9,0,-509.63,0,0,SKIP
2025-08-12 14:22,-294.06,0,-568.72,0,0,SKIP
2025-08-12 14:22,-311.67,0,-606.38,0,0,SKIP
2025-08-12 14:22,-337.04,0,-623.11,0,0,SKIP
2025-08-12 14:22,-359.83,0,-625.7,0,0,SKIP
2025-08-12 14:22,-379.41,0,-616.45,0,0,SKIP
2025-08-12 14:22,-393.21,0,-596.62,0,0,SKIP
2025-08-12 14:22,-399.12,0,-569.52,0,0,SKIP
2025-08-12 14:22,-390.56,0,-536.22,0,0,SKIP
2025-08-12 14:22,-365.66,0,-495.28,0,0,SKIP
2025-08-12 14:22,-326.88,0,-449.34,0,0,SKIP
2025-08-12 14:22,-267.67,0,-397.69,0,0,SKIP
2025-08-12 14:22,-193.6,0,-341.38,0,0,SKIP
2025-08-12 14:22,-111.27,0,-282.71,0,0,SKIP
2025-08-12 14:22,-33.55,0,-225.73,0,0,SKIP
2025-08-12 14:22,31.97,0,-172.7,0,-20,SKIP
2025-08-12 14:22,73.07,0,-130.56,0,-20,SKIP
2025-08-12 14:22,90.57,0,-100.26,0,-20,SKIP
2025-08-12 14:22,79.4,0,-86.32,0,-20,SKIP
2025-08-12 14:22,49.38,0,-84.96,0,-20,SKIP
2025-08-12 14:22,3.32,0,-95.77,0,-20,SKIP
2025-08-12 14:22,-50.19,0,-115.37,0,-20,SKIP
2025-08-12 14:22,-105.25,0,-141.25,0,-20,SKIP
2025-08-12 14:22,-155.18,0,-167.91,0,-20,SKIP
2025-08-12 14:22,-196.02,0,-195.14,0,-20,SKIP
2025-08-12 14:22,-221.94,0,-221.85,0,-20,SKIP
2025-08-12 14:22,-232.64,0,-245.12,0,-20,SKIP
2025-08-12 14:22,-231.19,0,-268.01,0,-20,SKIP
2025-08-12 14:22,-222.08,0,-289.46,0,-20,SKIP
2025-08-12 14:22,-209.07,0,-308.36,0,-20,SKIP
2025-08-12 14:22,-194.65,0,-326.42,0,-20,SKIP
2025-08-12 14:22,-183.82,0,-342.16,0,-20,SKIP
2025-08-12 14:22,-173.33,0,-355.15,0,-20,SKIP
2025-08-12 14:22,-163.01,0,-363.55,0,-20,SKIP
2025-08-12 14:22,-153.31,0,-369,0,-20,SKIP
2025-08-12 14:22,-142.77,0,-369.88,0,-20,SKIP
2025-08-12 14:22,-128.97,0,-366.09,0,-20,SKIP
2025-08-12 14:22,-116.71,0,-356.99,0,-20,SKIP
2025-08-12 14:22,-102.36,0,-341.63,0,-20,SKIP
2025-08-12 14:22,-88.72,0,-324.11,0,-20,SKIP
2025-08-12 14:22,-76.11,0,-302.68,0,-20,SKIP
2025-08-12 14:22,-64.45,0,-280.35,0,-20,SKIP
2025-08-12 14:22,-51.67,0,-255.37,0,-20,SKIP
2025-08-12 14:22,-38.5,0,-229.67,0,-20,SKIP
2025-08-12 14:22,-21.24,0,-198.46,0,-20,SKIP
2025-08-12 14:22,-1.18,0,-160.98,0,-20,SKIP
2025-08-12 14:22,20.14,0,-119.06,0,-20,SKIP
2025-08-12 14:22,41.91,0,-71.77,35.29,-20,SKIP
2025-08-12 14:22,64.29,0,-22.01,35.29,-20,SKIP
2025-08-12 14:22,83.43,35.29,25.59,35.29,-20,OK
2025-08-12 14:22,97.81,35.29,69.57,35.29,-20,OK
2025-08-12 14:22,108.91,35.29,107.08,35.29,-20,OK
2025-08-12 14:22,115.77,35.29,138.09,35.29,-20,OK
2025-08-12 14:22,117.26,35.29,158.49,35.29,-20,OK
2025-08-12 14:22,117.79,35.29,163.56,35.29,-20,OK
2025-08-12 14:22,115.93,35.29,160.15,35.29,-20,OK
2025-08-12 14:22,111.26,35.29,145.13,35.29,-20,OK
2025-08-12 14:22,106.62,35.29,117.52,35.29,-20,OK
2025-08-12 14:22,102.3,35.29,84.5,35.29,-20,OK
2025-08-12 14:22,94.31,35.29,51.41,35.29,-20,OK
2025-08-12 14:22,87.26,35.29,10.34,35.29,-20,OK
2025-08-12 14:22,82.14,35.29,-28.46,35.29,-20,OK
2025-08-12 14:22,74.88,35.29,-68.82,35.29,-20,OK
2025-08-12 14:22,64.25,35.29,-107.99,35.29,-20,OK
2025-08-12 14:22,57.83,35.29,-145.94,35.29,-20,OK
2025-08-12 14:22,51.53,35.29,-178.95,35.29,-20,OK
2025-08-12 14:22,44.41,35.29,-209.44,35.29,-20,OK
2025-08-12 14:22,37.8,35.29,-232.02,35.29,-20,OK
2025-08-12 14:22,31.44,35.29,-253.85,35.29,-20,OK
2025-08-12 14:22,21.84,35.29,-269.97,35.29,-20,OK
2025-08-12 14:22,13.58,35.29,-283.91,35.29,-20,OK
2025-08-12 14:22,2.34,35.29,-294.42,35.29,-20,OK
2025-08-12 14:22,-5.96,35.29,-303.94,35.29,-20,OK
2025-08-12 14:22,-10.33,35.29,-308.75,35.29,-20,OK
2025-08-12 14:22,-11.14,35.29,-310.36,35.29,-20,OK
2025-08-12 14:22,-11.48,35.29,-308.78,35.29,-20,OK
2025-08-12 14:22,-6.15,35.29,-302.33,35.29,-20,OK
2025-08-12 14:22,2.13,35.29,-294.1,35.29,-20,OK
2025-08-12 14:22,13.44,35.29,-284.26,35.29,-20,OK
2025-08-12 14:22,27.07,35.29,-276.34,35.29,-20,OK
2025-08-12 14:22,40.66,35.29,-266.33,35.29,-20,OK
2025-08-12 14:22,56.96,35.29,-259.44,35.29,-20,OK
2025-08-12 14:22,69.81,35.29,-252.27,35.29,-20,OK
2025-08-12 14:22,81.83,35.29,-246.6,35.29,-20,OK
2025-08-12 14:22,87.32,35.29,-240.15,35.29,-20,OK
2025-08-12 14:22,91.88,35.29,-234.01,35.29,-20,OK
2025-08-12 14:22,94.31,35.29,-227.83,35.29,-20,OK
2025-08-12 14:22,96.57,35.29,-222.92,35.29,-20,OK
2025-08-12 14:22,95.37,35.29,-218.99,35.29,-20,OK
2025-08-12 14:22,95.01,35.29,-214.95,35.29,-20,OK
2025-08-12 14:22,93.15,35.29,-212.79,35.29,-20,OK
2025-08-12 14:22,85.26,35.29,-215.28,35.29,-20,OK
2025-08-12 14:22,75.52,35.29,-215.85,35.29,-20,OK
2025-08-12 14:22,63.61,35.29,-214.71,35.29,-20,OK
2025-08-12 14:22,50.56,35.29,-215.14,35.29,-20,OK
2025-08-12 14:22,37.78,35.29,-214.72,35.29,-20,OK
2025-08-12 14:22,28.41,35.29,-210.46,35.29,-20,OK
2025-08-12 14:22,21.51,35.29,-207.24,35.29,-20,OK
2025-08-12 14:22,16.39,35.29,-203.41,35.29,-20,OK
2025-08-12 14:22,14.09,35.29,-196.44,35.29,-20,OK
2025-08-12 14:22,11.49,35.29,-190.36,35.29,-20,OK
2025-08-12 14:22,8.81,35.29,-181.66,35.29,-20,OK
2025-08-12 14:22,8.62,35.29,-169.88,35.29,-20,OK
2025-08-12 14:22,9.5,35.29,-157.34,35.29,-20,OK
2025-08-12 14:22,11.5,35.29,-148.03,35.29,-20,OK
2025-08-12 14:22,12.84,35.29,-130.97,35.29,-20,OK
2025-08-12 14:22,20.7,35.29,-113.4,35.29,-20,OK
2025-08-12 14:22,25.45,35.29,-94.3,35.29,-20,OK
2025-08-12 14:22,36.4,35.29,-68.32,35.29,-20,OK
2025-08-12 14:22,54.24,35.29,-32.82,35.29,-20,OK
2025-08-12 14:22,83.1,35.29,7.74,35.29,-20,OK
2025-08-12 14:22,114.29,35.29,53.89,54.04,-20,OK
2025-08-12 14:22,152.08,35.29,103.02,54.04,-20,OK
2025-08-12 14:22,189.07,35.29,151.11,54.04,-20,OK
2025-08-12 14:22,222.63,35.29,196.26,54.04,-20,OK
2025-08-12 14:22,247.1,53.48,231.27,54.04,-40,OK
2025-08-12 14:22,262.4,53.48,260.3,54.04,-40,OK
2025-08-12 14:22,271.09,53.48,279.28,54.04,-40,OK
2025-08-12 14:22,272.54,53.48,287.48,54.04,-40,OK
2025-08-12 14:22,263.94,53.48,285.51,54.04,-40,OK
2025-08-12 14:22,251.61,53.48,274.72,54.04,-40,OK
2025-08-12 14:22,233.96,53.48,254.13,54.04,-40,OK
2025-08-12 14:22,213.05,53.48,228.38,54.04,-40,OK
2025-08-12 14:22,186.03,53.48,197.61,54.04,-40,OK
2025-08-12 14:22,159.92,53.48,164.04,54.04,-40,OK
2025-08-12 14:22,132.18,53.48,130.73,54.04,-40,OK
2025-08-12 14:22,104.39,53.48,97.97,54.04,-40,OK
2025-08-12 14:22,75.87,53.48,63.63,54.04,-40,OK
2025-08-12 14:22,52.92,53.48,33.4,54.04,-40,OK
2025-08-12 14:22,31.7,53.48,5.07,54.04,-40,OK
2025-08-12 14:22,14.71,53.48,-22.49,54.04,-40,OK
2025-08-12 14:22,2.23,53.48,-47.23,54.04,-40,OK
2025-08-12 14:22,-5.23,53.48,-65.97,54.04,-40,OK
2025-08-12 14:22,-6.58,53.48,-82.15,54.04,-40,OK
2025-08-12 14:22,-2.25,53.48,-92.28,54.04,-40,OK
2025-08-12 14:22,4.76,53.48,-96.66,54.04,-40,OK
2025-08-12 14:22,17.25,53.48,-98.83,54.04,-40,OK
2025-08-12 14:22,30.74,53.48,-95.54,54.04,-40,OK
2025-08-12 14:22,43.38,53.48,-89.3,54.04,-40,OK
2025-08-12 14:22,52.85,53.48,-83.66,54.04,-40,OK
2025-08-12 14:22,63.32,53.48,-75.5,54.04,-40,OK
2025-08-12 14:22,71.81,53.48,-64.05,54.04,-40,OK
2025-08-12 14:22,82.22,53.48,-53.53,54.04,-40,OK
2025-08-12 14:22,91.81,53.48,-43.03,54.04,-40,OK
2025-08-12 14:22,105.72,53.48,-30.83,54.04,-40,OK
2025-08-12 14:22,117.86,53.48,-19.55,54.04,-40,OK
2025-08-12 14:22,130.29,53.48,-10.34,54.04,-40,OK
2025-08-12 14:22,137.71,53.48,-1.37,54.04,-40,OK
2025-08-12 14:22,143.95,53.48,6.32,54.04,-40,OK
2025-08-12 14:22,145.23,53.48,9.71,54.04,-40,OK
2025-08-12 14:22,145.1,53.48,11.75,54.04,-40,OK
2025-08-12 14:22,141.44,53.48,12.66,54.04,-40,OK
2025-08-12 14:22,136.63,53.48,11.09,54.04,-40,OK
2025-08-12 14:22,129.77,53.48,6.35,54.04,-40,OK
2025-08-12 14:22,120.39,53.48,3.29,54.04,-40,OK
2025-08-12 14:22,110.78,53.48,-1.45,54.04,-40,OK
2025-08-12 14:22,102.91,53.48,-7.99,54.04,-40,OK
2025-08-12 14:22,99.4,53.48,-13.78,54.04,-40,OK
2025-08-12 14:22,103.98,53.48,-18.77,54.04,-40,OK
2025-08-12 14:22,122.73,53.48,-24.59,54.04,-40,OK
2025-08-12 14:22,154.76,53.48,-30.14,54.04,-40,OK
2025-08-12 14:22,196.2,53.48,-33.73,54.04,-40,OK
2025-08-12 14:22,246.21,53.48,-36.99,54.04,-40,OK
2025-08-12 14:22,299.86,53.48,-39.32,54.04,-40,OK
2025-08-12 14:22,348.35,53.48,-40.43,54.04,-40,OK
2025-08-12 14:22,387.79,77.48,-43.21,54.04,-40,OK
2025-08-12 14:22,418.41,77.48,-44,54.04,-40,OK
2025-08-12 14:22,433.15,77.48,-44.55,54.04,-40,OK
2025-08-12 14:22,432.35,77.48,-42.59,54.04,-40,OK
2025-08-12 14:22,415.98,77.48,-38.41,54.04,-40,OK
2025-08-12 14:22,384.78,77.48,-28.73,54.04,-40,OK
2025-08-12 14:22,338.99,77.48,-14.81,54.04,-40,OK
2025-08-12 14:22,286.96,77.48,6.43,54.04,-40,OK
2025-08-12 14:22,226.89,77.48,37.09,54.04,-40,OK
2025-08-12 14:22,167.5,77.48,73.29,54.04,-40,OK
2025-08-12 14:22,110.15,77.48,113.81,54.04,-40,OK
2025-08-12 14:22,58.69,77.48,159.55,54.04,-40,OK
2025-08-12 14:22,12.16,77.48,204.05,72.23,120,OK
2025-08-12 14:22,-24.63,77.48,241.36,72.23,120,OK
2025-08-12 14:22,-55.31,77.48,274.88,72.23,120,OK
2025-08-12 14:22,-76.28,77.48,300.29,72.23,120,OK
2025-08-12 14:22,-87.11,77.48,314.15,72.23,120,OK
2025-08-12 14:22,-87.59,77.48,317.7,72.23,120,OK
2025-08-12 14:22,-80.4,77.48,312.17,72.23,120,OK
2025-08-12 14:22,-66.83,77.48,298.95,72.23,120,OK
2025-08-12 14:22,-47.95,77.48,279.04,72.23,120,OK
2025-08-12 14:22,-25,77.48,252.26,72.23,120,OK
2025-08-12 14:22,-2.22,77.48,220.46,72.23,120,OK
2025-08-12 14:22,21.44,77.48,184.39,72.23,120,OK
2025-08-12 14:22,42.54,77.48,144.4,72.23,120,OK
2025-08-12 14:22,59.87,77.48,103.49,72.23,120,OK
2025-08-12 14:22,69.76,77.48,64.48,72.23,120,OK
2025-08-12 14:22,75.94,77.48,28.15,72.23,120,OK
2025-08-12 14:22,74.42,77.48,-5.55,72.23,120,OK
2025-08-12 14:22,70.96,77.48,-35.11,72.23,120,OK
2025-08-12 14:22,64.26,77.48,-62.92,72.23,120,OK
2025-08-12 14:22,57.28,77.48,-86.6,72.23,120,OK
2025-08-12 14:22,47.85,77.48,-107.61,72.23,120,OK
2025-08-12 14:22,38.53,77.48,-124.03,72.23,120,OK
2025-08-12 14:22,28.9,77.48,-139.2,72.23,120,OK
2025-08-12 14:22,19.49,77.48,-148.35,72.23,120,OK
2025-08-12 14:22,11.02,77.48,-156.67,72.23,120,OK
2025-08-12 14:22,4.38,77.48,-160.14,72.23,120,OK
2025-08-12 14:22,0.67,77.48,-162.53,72.23,120,OK
2025-08-12 14:22,-1.2,77.48,-159.6,72.23,120,OK
2025-08-12 14:22,-1.34,77.48,-156.43,72.23,120,OK
2025-08-12 14:22,-1.22,77.48,-148.77,72.23,120,OK
2025-08-12 14:22,-1.08,77.48,-142.22,72.23,120,OK
2025-08-12 14:22,-0.11,77.48,-130.12,72.23,120,OK
2025-08-12 14:22,0.42,77.48,-120.42,72.23,120,OK
2025-08-12 14:22,0.6,77.48,-110.48,72.23,120,OK
2025-08-12 14:22,1.68,77.48,-101.85,72.23,120,OK
2025-08-12 14:22,3.13,77.48,-92.37,72.23,120,OK
2025-08-12 14:22,1.4,77.48,-87.62,72.23,120,OK
2025-08-12 14:22,-2.04,77.48,-81.81,72.23,120,OK
2025-08-12 14:22,-4.34,77.48,-73.95,72.23,120,OK
2025-08-12 14:22,-11.21,77.48,-68.14,72.23,120,OK
2025-08-12 14:22,-19.06,77.48,-63.41,72.23,120,OK
2025-08-12 14:22,-27.03,77.48,-59.68,72.23,120,OK
2025-08-12 14:22,-35.09,77.48,-58.94,72.23,120,OK
2025-08-12 14:22,-47.19,77.48,-59.21,72.23,120,OK
2025-08-12 14:22,-58.69,77.48,-61.31,72.23,120,OK
2025-08-12 14:22,-71.04,77.48,-62.56,72.23,120,OK
2025-08-12 14:22,-83.28,77.48,-64.19,72.23,120,OK
2025-08-12 14:22,-96.83,77.48,-64.28,72.23,120,OK
2025-08-12 14:22,-107.15,77.48,-66.18,72.23,120,OK
2025-08-12 14:22,-115.71,77.48,-66.37,72.23,120,OK
2025-08-12 14:22,-122.21,77.48,-68.23,72.23,120,OK
2025-08-12 14:22,-125.38,77.48,-70.05,72.23,120,OK
2025-08-12 14:22,-126.93,77.48,-69.63,72.23,120,OK
2025-08-12 14:22,-128.67,77.48,-70.64,72.23,120,OK
2025-08-12 14:22,-128.44,77.48,-72.08,72.23,120,OK
2025-08-12 14:22,-129.34,77.48,-71.75,72.23,120,OK
2025-08-12 14:22,-129.54,77.48,-67.66,72.23,120,OK
2025-08-12 14:22,-125.91,77.48,-62.97,72.23,120,OK
2025-08-12 14:22,-119.33,77.48,-52.07,72.23,120,OK
2025-08-12 14:22,-108.28,77.48,-33.27,72.23,120,OK
2025-08-12 14:22,-90.78,77.48,-5.51,72.23,120,OK
2025-08-12 14:22,-67.59,77.48,29.72,72.23,120,OK
2025-08-12 14:22,-40.21,77.48,70.5,72.23,120,OK
2025-08-12 14:22,-10.67,77.48,116.97,72.23,120,OK
2025-08-12 14:22,18.36,77.48,163.5,72.23,120,OK
2025-08-12 14:22,46.35,77.48,204.1,90.69,120,OK
2025-08-12 14:22,67.51,92.86,238.35,90.69,-10,OK
2025-08-12 14:22,82.35,92.86,264.81,90.69,-10,OK
2025-08-12 14:22,92.92,92.86,279.3,90.69,-10,OK
2025-08-12 14:22,95.41,92.86,284.12,90.69,-10,OK
2025-08-12 14:22,92.13,92.86,279.79,90.69,-10,OK
2025-08-12 14:22,84.41,92.86,266.7,90.69,-10,OK
2025-08-12 14:22,74.4,92.86,245.55,90.69,-10,OK
2025-08-12 14:22,59.69,92.86,219.88,90.69,-10,OK
2025-08-12 14:22,45.33,92.86,187.41,90.69,-10,OK
2025-08-12 14:22,29.31,92.86,152.75,90.69,-10,OK
2025-08-12 14:22,14.95,92.86,117.75,90.69,-10,OK
2025-08-12 14:22,-2.03,92.86,82.5,90.69,-10,OK
2025-08-12 14:22,-17.93,92.86,46.24,90.69,-10,OK
2025-08-12 14:22,-32.74,92.86,15.22,90.69,-10,OK
2025-08-12 14:22,-44.61,92.86,-14.41,90.69,-10,OK
2025-08-12 14:22,-58.25,92.86,-42.72,90.69,-10,OK
2025-08-12 14:22,-66.96,92.86,-66.21,90.69,-10,OK
2025-08-12 14:22,-75.09,92.86,-85.12,90.69,-10,OK
2025-08-12 14:22,-82.71,92.86,-100.88,90.69,-10,OK
2025-08-12 14:22,-90.47,92.86,-113.25,90.69,-10,OK
2025-08-12 14:22,-95.1,92.86,-120.9,90.69,-10,OK
2025-08-12 14:22,-101.47,92.86,-125.14,90.69,-10,OK
2025-08-12 14:22,-105.19,92.86,-126.51,90.69,-10,OK
2025-08-12 14:22,-107.25,92.86,-126.03,90.69,-10,OK
2025-08-12 14:22,-110.79,92.86,-123.35,90.69,-10,OK
2025-08-12 14:22,-114.57,92.86,-118.35,90.69,-10,OK
2025-08-12 14:22,-115.61,92.86,-111.12,90.69,-10,OK
2025-08-12 14:22,-118.25,92.86,-103.31,90.69,-10,OK
2025-08-12 14:22,-120.48,92.86,-93.97,90.69,-10,OK
2025-08-12 14:22,-119.73,92.86,-82.76,90.69,-10,OK
2025-08-12 14:22,-117.01,92.86,-72.14,90.69,-10,OK
2025-08-12 14:22,-111.61,92.86,-64.26,90.69,-10,OK
2025-08-12 14:22,-105.73,92.86,-57.8,90.69,-10,OK
2025-08-12 14:22,-96.91,92.86,-51.97,90.69,-10,OK
2025-08-12 14:22,-88.82,92.86,-47.94,90.69,-10,OK
2025-08-12 14:22,-80.83,92.86,-45.71,90.69,-10,OK
2025-08-12 14:22,-76.01,92.86,-43.98,90.69,-10,OK
2025-08-12 14:22,-69.32,92.86,-40.78,90.69,-10,OK
2025-08-12 14:22,-67.39,92.86,-41.54,90.69,-10,OK
2025-08-12 14:22,-66.48,92.86,-42.46,90.69,-10,OK
2025-08-12 14:22,-69.32,92.86,-44.6,90.69,-10,OK
2025-08-12 14:22,-74.36,92.86,-48.63,90.69,-10,OK
2025-08-12 14:22,-81.42,92.86,-52.9,90.69,-10,OK
2025-08-12 14:22,-89.4,92.86,-57.2,90.69,-10,OK
2025-08-12 14:22,-96.83,92.86,-61.1,90.69,-10,OK
2025-08-12 14:22,-102.06,92.86,-65.11,90.69,-10,OK
2025-08-12 14:22,-107.36,92.86,-66.84,90.69,-10,OK
2025-08-12 14:22,-112.05,92.86,-67.51,90.69,-10,OK
2025-08-12 14:22,-116.15,92.86,-67.26,90.69,-10,OK
2025-08-12 14:22,-118.4,92.86,-67.33,90.69,-10,OK
2025-08-12 14:22,-118.03,92.86,-66.92,90.69,-10,OK
2025-08-12 14:22,-114.45,92.86,-65.95,90.69,-10,OK
2025-08-12 14:22,-111.2,92.86,-66.94,90.69,-10,OK
2025-08-12 14:22,-107.71,92.86,-63.7,90.69,-10,OK
2025-08-12 14:22,-99.63,92.86,-59.92,90.69,-10,OK
2025-08-12 14:22,-91.16,92.86,-53.79,90.69,-10,OK
2025-08-12 14:22,-77.91,92.86,-47.72,90.69,-10,OK
2025-08-12 14:22,-56.8,92.86,-37.82,90.69,-10,OK
2025-08-12 14:22,-22.41,92.86,-26.57,90.69,-10,OK
2025-08-12 14:22,20.29,92.86,-8.74,90.69,-10,OK
2025-08-12 14:22,78.18,92.86,15.62,90.69,-10,OK
2025-08-12 14:22,145.09,92.86,48.3,90.69,-10,OK
2025-08-12 14:22,221.01,112.22,89.15,90.69,-10,OK
2025-08-12 14:22,296.82,112.22,134.21,90.69,-10,OK
2025-08-12 14:22,364.68,112.22,182.38,90.69,-10,OK
2025-08-12 14:22,418.76,112.22,228.2,108.87,30,OK
2025-08-12 14:22,451.91,112.22,268.88,108.87,30,OK
2025-08-12 14:22,458.18,112.22,301.15,108.87,30,OK
2025-08-12 14:22,435.97,112.22,324.19,108.87,30,OK
2025-08-12 14:22,386.74,112.22,333.37,108.87,30,OK
2025-08-12 14:22,310.47,112.22,332.15,108.87,30,OK
2025-08-12 14:22,218.84,112.22,320.62,108.87,30,OK
2025-08-12 14:22,116.36,112.22,298.19,108.87,30,OK
2025-08-12 14:22,12.88,112.22,267.68,108.87,30,OK
2025-08-12 14:22,-82.76,112.22,232.57,108.87,30,OK
2025-08-12 14:22,-165.22,112.22,192.29,108.87,30,OK
2025-08-12 14:22,-235.29,112.22,152.28,108.87,30,OK
2025-08-12 14:22,-290.33,112.22,109.93,108.87,30,OK
2025-08-12 14:22,-328.66,112.22,69.32,108.87,30,OK
2025-08-12 14:22,-355.55,112.22,31.76,108.87,30,OK
2025-08-12 14:22,-371.99,112.22,-3.18,108.87,30,OK
2025-08-12 14:22,-376.69,112.22,-37.67,108.87,30,OK
2025-08-12 14:22,-370.46,112.22,-65.17,108.87,30,OK
2025-08-12 14:22,-358.86,112.22,-90.65,108.87,30,OK
2025-08-12 14:22,-338.25,112.22,-114.1,108.87,30,OK
2025-08-12 14:22,-311.4,112.22,-132.53,108.87,30,OK
2025-08-12 14:22,-281.56,112.22,-147.05,108.87,30,OK
2025-08-12 14:22,-249.94,112.22,-159.09,108.87,30,OK
2025-08-12 14:22,-215.62,112.22,-168.75,108.87,30,OK
2025-08-12 14:22,-183.12,112.22,-174.88,108.87,30,OK
2025-08-12 14:22,-153.84,112.22,-177.41,108.87,30,OK
2025-08-12 14:22,-126.56,112.22,-174.23,108.87,30,OK
2025-08-12 14:22,-102.07,112.22,-169.31,108.87,30,OK
2025-08-12 14:22,-81.44,112.22,-158.36,108.87,30,OK
2025-08-12 14:22,-66.97,112.22,-145.16,108.87,30,OK
2025-08-12 14:22,-56.36,112.22,-130.9,108.87,30,OK
2025-08-12 14:22,-50.66,112.22,-119.69,108.87,30,OK
2025-08-12 14:22,-49.56,112.22,-106.84,108.87,30,OK
2025-08-12 14:22,-53.6,112.22,-96.64,108.87,30,OK
2025-08-12 14:22,-58.2,112.22,-86.46,108.87,30,OK
2025-08-12 14:22,-64.2,112.22,-76.88,108.87,30,OK
2025-08-12 14:22,-71.19,112.22,-68.4,108.87,30,OK
2025-08-12 14:22,-79.39,112.22,-62.9,108.87,30,OK
2025-08-12 14:22,-87.19,112.22,-58.43,108.87,30,OK
2025-08-12 14:22,-95.52,112.22,-55.44,108.87,30,OK
2025-08-12 14:22,-103.65,112.22,-53.07,108.87,30,OK
2025-08-12 14:22,-111.38,112.22,-49.98,108.87,30,OK
2025-08-12 14:22,-119.28,112.22,-45.53,108.87,30,OK
2025-08-12 14:22,-125.68,112.22,-41.58,108.87,30,OK
2025-08-12 14:22,-133.14,112.22,-37.72,108.87,30,OK
2025-08-12 14:22,-140.29,112.22,-34.1,108.87,30,OK
2025-08-12 14:22,-145.91,112.22,-29.58,108.87,30,OK
2025-08-12 14:22,-150.74,112.22,-27.8,108.87,30,OK
2025-08-12 14:22,-154.95,112.22,-21.89,108.87,30,OK
2025-08-12 14:22,-156.36,112.22,-16.51,108.87,30,OK
2025-08-12 14:22,-155.67,112.22,-11.37,108.87,30,OK
2025-08-12 14:22,-154.58,112.22,-8.49,108.87,30,OK
2025-08-12 14:22,-150.17,112.22,-0.8,108.87,30,OK
2025-08-12 14:22,-147.16,112.22,3.18,108.87,30,OK
2025-08-12 14:22,-143.75,112.22,10.31,108.87,30,OK
2025-08-12 14:22,-142.66,112.22,16.05,108.87,30,OK
2025-08-12 14:22,-143.43,112.22,24.05,108.87,30,OK
2025-08-12 14:22,-145.84,112.22,29.11,108.87,30,OK
2025-08-12 14:22,-149.79,112.22,33.8,108.87,30,OK
2025-08-12 14:22,-153.34,112.22,35.03,108.87,30,OK
2025-08-12 14:22,-156.9,112.22,36.18,108.87,30,OK
2025-08-12 14:22,-159.71,112.22,36.16,108.87,30,OK
2025-08-12 14:22,-162.6,112.22,36.83,108.87,30,OK
2025-08-12 14:22,-163.05,112.22,37.59,108.87,30,OK
2025-08-12 14:22,-165.07,112.22,40.36,108.87,30,OK
2025-08-12 14:22,-161.38,112.22,48.09,108.87,30,OK
2025-08-12 14:22,-153.76,112.22,60.39,108.87,30,OK
2025-08-12 14:22,-139.96,112.22,78.4,108.87,30,OK
2025-08-12 14:22,-121.48,112.22,105.99,108.87,30,OK
2025-08-12 14:22,-93.94,112.22,139.55,108.87,30,OK
2025-08-12 14:22,-63.49,112.22,178.87,108.87,30,OK
2025-08-12 14:22,-29.41,112.22,222.11,108.87,30,OK
2025-08-12 14:22,4.76,112.22,265.58,108.87,30,OK
2025-08-12 14:22,41.13,112.22,304.21,90.01,420,OK
2025-08-12 14:22,72.09,121.94,336,90.01,420,OK
2025-08-12 14:22,98.64,121.94,357.51,90.01,420,OK
2025-08-12 14:22,120.04,121.94,364.92,90.01,420,OK
2025-08-12 14:22,135.41,121.94,362.36,90.01,420,OK
2025-08-12 14:22,143.35,121.94,348.58,90.01,420,OK
2025-08-12 14:22,144.54,121.94,325.68,90.01,420,OK
2025-08-12 14:22,141.52,121.94,294.51,90.01,420,OK
2025-08-12 14:22,135.99,121.94,260.02,90.01,420,OK
2025-08-12 14:22,127.63,121.94,221.69,90.01,420,OK
2025-08-12 14:22,116.46,121.94,182.43,90.01,420,OK
2025-08-12 14:22,105.73,121.94,142.26,90.01,420,OK
2025-08-12 14:22,93.01,121.94,103.84,90.01,420,OK
2025-08-12 14:22,80.11,121.94,68.94,90.01,420,OK
2025-08-12 14:22,66.8,121.94,33.44,90.01,420,OK
2025-08-12 14:22,53.2,121.94,1.07,90.01,420,OK
2025-08-12 14:22,41.01,121.94,-25.14,90.01,420,OK
2025-08-12 14:22,28.15,121.94,-47.42,90.01,420,OK
2025-08-12 14:22,15.18,121.94,-66.23,90.01,420,OK
2025-08-12 14:22,3.61,121.94,-80.28,90.01,420,OK
2025-08-12 14:22,-4.62,121.94,-88.97,90.01,420,OK
2025-08-12 14:22,-8.62,121.94,-94.9,90.01,420,OK
2025-08-12 14:22,-6.56,121.94,-98.46,90.01,420,OK
2025-08-12 14:22,-2.84,121.94,-98.75,90.01,420,OK
2025-08-12 14:22,6.47,121.94,-95.33,90.01,420,OK
2025-08-12 14:22,19.87,121.94,-88.28,90.01,420,OK
2025-08-12 14:22,32.13,121.94,-81.99,90.01,420,OK
2025-08-12 14:22,46.37,121.94,-72.08,90.01,420,OK
2025-08-12 14:22,62.77,121.94,-60.64,90.01,420,OK
2025-08-12 14:22,77.86,121.94,-49.52,90.01,420,OK
2025-08-12 14:22,90.04,121.94,-40.92,90.01,420,OK
2025-08-12 14:22,102.33,121.94,-28.96,90.01,420,OK
2025-08-12 14:22,112.33,121.94,-19.54,90.01,420,OK
2025-08-12 14:22,121.07,121.94,-13.43,90.01,420,OK
2025-08-12 14:22,128.17,121.94,-6.83,90.01,420,OK
2025-08-12 14:22,134.78,121.94,-3.96,90.01,420,OK
2025-08-12 14:22,138.82,121.94,-6.21,90.01,420,OK
2025-08-12 14:22,141.62,121.94,-9.31,90.01,420,OK
2025-08-12 14:22,141.79,121.94,-13.99,90.01,420,OK
2025-08-12 14:22,140.55,121.94,-22.4,90.01,420,OK
2025-08-12 14:22,138.96,121.94,-29.88,90.01,420,OK
2025-08-12 14:22,136.57,121.94,-38.96,90.01,420,OK
2025-08-12 14:22,132.88,121.94,-50.14,90.01,420,OK
2025-08-12 14:22,128.93,121.94,-61.34,90.01,420,OK
2025-08-12 14:22,122.7,121.94,-71.29,90.01,420,OK
2025-08-12 14:22,114.33,121.94,-81.41,90.01,420,OK
2025-08-12 14:22,106.57,121.94,-88.11,90.01,420,OK
2025-08-12 14:22,100.3,121.94,-93.82,90.01,420,OK
2025-08-12 14:22,93.34,121.94,-98.65,90.01,420,OK
2025-08-12 14:22,86.88,121.94,-102.02,90.01,420,OK
2025-08-12 14:22,83.68,121.94,-104.25,90.01,420,OK
2025-08-12 14:22,79.85,121.94,-106.1,90.01,420,OK
2025-08-12 14:22,76.71,121.94,-105.73,90.01,420,OK
2025-08-12 14:22,75.56,121.94,-104.11,90.01,420,OK
2025-08-12 14:22,77.8,121.94,-100.45,90.01,420,OK
2025-08-12 14:22,78.16,121.94,-97.45,90.01,420,OK
2025-08-12 14:22,79.7,121.94,-92.83,90.01,420,OK
2025-08-12 14:22,79.69,121.94,-87.08,90.01,420,OK
2025-08-12 14:22,78.32,121.94,-81.09,90.01,420,OK
2025-08-12 14:22,74.12,121.94,-73.55,90.01,420,OK
2025-08-12 14:22,73.73,121.94,-63.95,90.01,420,OK
2025-08-12 14:22,74.49,121.94,-54.03,90.01,420,OK
2025-08-12 14:22,75.73,121.94,-46.05,90.01,420,OK
2025-08-12 14:22,78,121.94,-36.93,90.01,420,OK
2025-08-12 14:22,82.65,121.94,-30.72,90.01,420,OK
2025-08-12 14:22,84.29,121.94,-23.74,90.01,420,OK
2025-08-12 14:22,88.39,121.94,-14.4,90.01,420,OK
2025-08-12 14:22,96.57,121.94,1.53,90.01,420,OK
2025-08-12 14:22,109.48,121.94,21.58,90.01,420,OK
2025-08-12 14:22,127.59,121.94,51.97,90.01,420,OK
2025-08-12 14:22,151.86,121.94,88.69,90.01,420,OK
2025-08-12 14:22,180.14,121.94,132.23,90.01,420,OK
2025-08-12 14:22,209.49,121.94,178.76,90.01,420,OK
2025-08-12 14:22,239.84,121.94,226.49,87.7,720,OK
2025-08-12 14:22,267.59,121.94,266.72,87.7,720,OK
2025-08-12 14:22,292.86,114.16,302.66,87.7,720,OK
2025-08-12 14:22,311.36,114.16,327.23,87.7,720,OK
2025-08-12 14:22,324.78,114.16,339.6,87.7,720,OK
2025-08-12 14:22,329.42,114.16,339.92,87.7,720,OK
2025-08-12 14:22,327.02,114.16,329.77,87.7,720,OK
2025-08-12 14:22,316.35,114.16,307.86,87.7,720,OK
2025-08-12 14:22,300.32,114.16,278.05,87.7,720,OK
2025-08-12 14:22,278.64,114.16,240.31,87.7,720,OK
2025-08-12 14:22,254.12,114.16,198.02,87.7,720,OK
2025-08-12 14:22,226.1,114.16,153.82,87.7,720,OK
2025-08-12 14:22,197.12,114.16,109.84,87.7,720,OK
2025-08-12 14:22,167.59,114.16,64.01,87.7,720,OK
2025-08-12 14:22,137.24,114.16,22.21,87.7,720,OK
2025-08-12 14:22,107.78,114.16,-17.1,87.7,720,OK
2025-08-12 14:22,80.13,114.16,-52.18,87.7,720,OK
2025-08-12 14:22,54.29,114.16,-84.38,87.7,720,OK
2025-08-12 14:22,28.1,114.16,-109.4,87.7,720,OK
2025-08-12 14:22,4.14,114.16,-132.06,87.7,720,OK
2025-08-12 14:22,-17.79,114.16,-148.07,87.7,720,OK
2025-08-12 14:22,-37.11,114.16,-159.88,87.7,720,OK
2025-08-12 14:22,-54.02,114.16,-166.82,87.7,720,OK
2025-08-12 14:22,-66.85,114.16,-171.49,87.7,720,OK
2025-08-12 14:22,-74.14,114.16,-169.99,87.7,720,OK
2025-08-12 14:22,-77.95,114.16,-166.65,87.7,720,OK
2025-08-12 14:22,-75.43,114.16,-159.48,87.7,720,OK
2025-08-12 14:22,-71.02,114.16,-150.9,87.7,720,OK
2025-08-12 14:22,-60.66,114.16,-140.98,87.7,720,OK
2025-08-12 14:22,-47.01,114.16,-129.07,87.7,720,OK
2025-08-12 14:22,-30.4,114.16,-117.47,87.7,720,OK
2025-08-12 14:22,-13.3,114.16,-108.06,87.7,720,OK
2025-08-12 14:22,6.05,114.16,-97.59,87.7,720,OK
2025-08-12 14:22,23.43,114.16,-87.09,87.7,720,OK
2025-08-12 14:22,38.79,114.16,-78.22,87.7,720,OK
2025-08-12 14:22,52.34,114.16,-68.65,87.7,720,OK
2025-08-12 14:22,62.03,114.16,-61.24,87.7,720,OK
2025-08-12 14:22,70.27,133.06,-56.32,87.7,720,OK
2025-08-12 14:22,76.37,133.06,-52.67,87.7,720,OK
2025-08-12 14:22,80.17,133.06,-51.28,87.7,720,OK
2025-08-12 14:22,82.07,133.06,-51.93,87.7,720,OK
2025-08-12 14:22,84.19,133.06,-54.32,87.7,720,OK
2025-08-12 14:22,84.54,133.06,-57.36,87.7,720,OK
2025-08-12 14:22,83.04,133.06,-62.02,87.7,720,OK
2025-08-12 14:22,80.47,133.06,-67.85,87.7,720,OK
2025-08-12 14:22,76.17,133.06,-74.03,87.7,720,OK
2025-08-12 14:22,68.36,133.06,-80.03,87.7,720,OK
2025-08-12 14:22,58.02,133.06,-86.19,87.7,720,OK
2025-08-12 14:22,45.18,133.06,-90.91,87.7,720,OK
2025-08-12 14:22,29.59,133.06,-94.51,87.7,720,OK
2025-08-12 14:22,13.31,133.06,-97.01,87.7,720,OK
2025-08-12 14:22,-4.27,133.06,-95.67,87.7,720,OK
2025-08-12 14:22,-21.53,133.06,-94.38,87.7,720,OK
2025-08-12 14:22,-38.08,133.06,-91.17,87.7,720,OK
2025-08-12 14:22,-51.46,133.06,-87.68,87.7,720,OK
2025-08-12 14:22,-63.89,133.06,-84.02,87.7,720,OK
2025-08-12 14:22,-72.46,133.06,-81.01,87.7,720,OK
2025-08-12 14:22,-79.81,133.06,-76.41,87.7,720,OK
2025-08-12 14:22,-84.3,133.06,-72.61,87.7,720,OK
2025-08-12 14:22,-88.57,133.06,-66.61,87.7,720,OK
2025-08-12 14:22,-90.93,133.06,-57.28,87.7,720,OK
2025-08-12 14:22,-91.76,133.06,-47.54,87.7,720,OK
2025-08-12 14:22,-89.81,133.06,-36.51,87.7,720,OK
2025-08-12 14:22,-85.62,133.06,-24.36,87.7,720,OK
2025-08-12 14:22,-82.72,133.06,-12.58,87.7,720,OK
2025-08-12 14:22,-76.52,133.06,-2.55,87.7,720,OK
2025-08-12 14:22,-69.05,133.06,6.34,87.7,720,OK
2025-08-12 14:22,-61.45,133.06,17.31,87.7,720,OK
2025-08-12 14:22,-50.65,133.06,30.26,87.7,720,OK
2025-08-12 14:22,-32.64,133.06,48.68,87.7,720,OK
2025-08-12 14:22,-12.1,133.06,72.83,87.7,720,OK
2025-08-12 14:22,13.31,133.06,107.46,87.7,720,OK
2025-08-12 14:22,43.58,133.06,145.27,87.7,720,OK
2025-08-12 14:22,75.09,133.06,192.52,87.7,720,OK
2025-08-12 14:22,104.52,133.06,240.04,85.74,720,OK
2025-08-12 14:22,133.55,145.28,286.13,85.74,720,OK
2025-08-12 14:22,157.47,145.28,331.98,85.74,720,OK
2025-08-12 14:22,177.77,145.28,367.62,85.74,720,OK
2025-08-12 14:22,192.35,145.28,390.32,85.74,720,OK
2025-08-12 14:22,201,145.28,401.85,85.74,720,OK
2025-08-12 14:22,203.05,145.28,401.52,85.74,720,OK
2025-08-12 14:22,199.57,145.28,384.39,85.74,720,OK
2025-08-12 14:22,188.62,145.28,361.25,85.74,720,OK
2025-08-12 14:22,173.87,145.28,328.69,85.74,720,OK
2025-08-12 14:22,157.31,145.28,289.7,85.74,720,OK
2025-08-12 14:22,137.84,145.28,245.74,85.74,720,OK
2025-08-12 14:22,117,145.28,197.1,85.74,720,OK
2025-08-12 14:22,97.54,145.28,146.52,85.74,720,OK
2025-08-12 14:22,78.82,145.28,95.29,85.74,720,OK
2025-08-12 14:22,60.09,145.28,44.27,85.74,720,OK
2025-08-12 14:22,41.96,145.28,-4.72,85.74,720,OK
2025-08-12 14:22,25.16,145.28,-50.43,85.74,720,OK
2025-08-12 14:22,8.9,145.28,-90.66,85.74,720,OK
2025-08-12 14:22,-7.72,145.28,-124.68,85.74,720,OK
2025-08-12 14:22,-22.1,145.28,-153.55,85.74,720,OK
2025-08-12 14:22,-36.81,145.28,-176.45,85.74,720,OK
2025-08-12 14:22,-52.06,145.28,-194.24,85.74,720,OK
2025-08-12 14:22,-66.84,145.28,-207.3,85.74,720,OK
2025-08-12 14:22,-79.55,145.28,-216.36,85.74,720,OK
2025-08-12 14:22,-91.36,145.28,-219.23,85.74,720,OK
2025-08-12 14:22,-99.64,145.28,-220.96,85.74,720,OK
2025-08-12 14:22,-103.58,145.28,-216.02,85.74,720,OK
2025-08-12 14:22,-105.59,145.28,-207.62,85.74,720,OK
2025-08-12 14:22,-104.96,145.28,-195.04,85.74,720,OK
2025-08-12 14:22,-102.45,145.28,-181.87,85.74,720,OK
2025-08-12 14:22,-97.91,145.28,-164.26,85.74,720,OK
2025-08-12 14:22,-92.47,145.28,-149.22,85.74,720,OK
2025-08-12 14:22,-84.03,145.28,-135.89,85.74,720,OK
2025-08-12 14:22,-76.34,145.28,-124.93,85.74,720,OK
2025-08-12 14:22,-68.46,145.28,-115.43,85.74,720,OK
2025-08-12 14:22,-60.62,145.28,-107.98,85.74,720,OK
2025-08-12 14:22,-51.88,145.28,-100.45,85.74,720,OK
2025-08-12 14:22,-43.88,145.28,-96.42,85.74,720,OK
2025-08-12 14:22,-34.63,145.28,-93.95,85.74,720,OK
2025-08-12 14:22,-24.21,145.28,-92.77,85.74,720,OK
2025-08-12 14:22,-13.6,145.28,-94.29,85.74,720,OK
2025-08-12 14:22,-4.51,145.28,-97.61,85.74,720,OK
2025-08-12 14:22,6.04,145.28,-101.68,85.74,720,OK
2025-08-12 14:22,15.64,145.28,-104.56,85.74,720,OK
2025-08-12 14:22,21.95,145.28,-108.64,85.74,720,OK
2025-08-12 14:22,28.22,145.28,-110.33,85.74,720,OK
2025-08-12 14:22,33.23,145.28,-114.07,85.74,720,OK
2025-08-12 14:22,32.88,145.28,-115.65,85.74,720,OK
2025-08-12 14:22,30.37,145.28,-118.41,85.74,720,OK
2025-08-12 14:22,27.58,145.28,-120.35,85.74,720,OK
2025-08-12 14:22,19.67,145.28,-122.39,85.74,720,OK
2025-08-12 14:22,12.27,145.28,-121.36,85.74,720,OK
2025-08-12 14:22,2.48,145.28,-117.82,85.74,720,OK
2025-08-12 14:22,-8.83,145.28,-114.62,85.74,720,OK
2025-08-12 14:22,-21.16,145.28,-110.24,85.74,720,OK
2025-08-12 14:22,-33.28,145.28,-104.22,85.74,720,OK
2025-08-12 14:22,-48.34,145.28,-97.54,85.74,720,OK
2025-08-12 14:22,-60.85,145.28,-90.37,85.74,720,OK
2025-08-12 14:22,-72.52,145.28,-82.22,85.74,720,OK
2025-08-12 14:22,-84.21,145.28,-72.05,85.74,720,OK
2025-08-12 14:22,-94.68,145.28,-63.9,85.74,720,OK
2025-08-12 14:22,-104.35,145.28,-56.82,85.74,720,OK
2025-08-12 14:22,-112.7,145.28,-50.62,85.74,720,OK
2025-08-12 14:22,-120.87,145.28,-43.5,85.74,720,OK
2025-08-12 14:22,-125.31,145.28,-39.96,85.74,720,OK
2025-08-12 14:22,-128.58,145.28,-34.01,85.74,720,OK
2025-08-12 14:22,-129,145.28,-27.99,85.74,720,OK
2025-08-12 14:22,-127.29,145.28,-18.98,85.74,720,OK
2025-08-12 14:22,-119.06,145.28,-8.76,85.74,720,OK
2025-08-12 14:22,-108.43,145.28,7.91,85.74,720,OK
2025-08-12 14:22,-89.7,145.28,29.85,85.74,720,OK
2025-08-12 14:22,-64.81,145.28,61.22,85.74,720,OK
2025-08-12 14:22,-34.64,145.28,95.29,85.74,720,OK
2025-08-12 14:22,-1.15,145.28,135.97,85.74,720,OK
2025-08-12 14:22,35.51,145.28,179.62,85.74,720,OK
2025-08-12 14:22,67.64,145.28,219.95,83.06,750,OK
2025-08-12 14:22,94.98,125.78,253.6,83.06,750,OK
2025-08-12 14:22,115.66,125.78,281,83.06,750,OK
2025-08-12 14:22,127.26,125.78,296.9,83.06,750,OK
2025-08-12 14:22,130.68,125.78,301.34,83.06,750,OK
2025-08-12 14:22,128.94,125.78,296.28,83.06,750,OK
2025-08-12 14:22,120.72,125.78,281.94,83.06,750,OK
2025-08-12 14:22,107.65,125.78,260.84,83.06,750,OK
2025-08-12 14:22,91.99,125.78,234.34,83.06,750,OK
2025-08-12 14:22,71.52,125.78,203.71,83.06,750,OK
2025-08-12 14:22,46.68,125.78,169.89,83.06,750,OK
2025-08-12 14:22,23.12,125.78,134.82,83.06,750,OK
2025-08-12 14:22,-1.03,125.78,100.31,83.06,750,OK
2025-08-12 14:22,-24.83,125.78,65.35,83.06,750,OK
2025-08-12 14:22,-47.19,125.78,31.93,83.06,750,OK
2025-08-12 14:22,-63.52,125.78,0.21,83.06,750,OK
2025-08-12 14:22,-78.08,125.78,-28.65,83.06,750,OK
2025-08-12 14:22,-90.36,125.78,-56.89,83.06,750,OK
2025-08-12 14:22,-100.51,125.78,-80.89,83.06,750,OK
2025-08-12 14:22,-106.56,125.78,-104.77,83.06,750,OK
2025-08-12 14:22,-108.92,125.78,-130.27,83.06,750,OK
2025-08-12 14:22,-110.09,125.78,-159.59,83.06,750,OK
2025-08-12 14:22,-107.43,125.78,-191.95,83.06,750,OK
2025-08-12 14:22,-104.1,125.78,-229.17,83.06,750,OK
2025-08-12 14:22,-98.34,125.78,-268.07,83.06,750,OK
2025-08-12 14:22,-95.39,125.78,-300.81,83.06,750,OK
2025-08-12 14:22,-90.05,125.78,-328.91,83.06,750,OK
2025-08-12 14:22,-83.79,125.78,-349.36,83.06,750,OK
2025-08-12 14:22,-74.87,125.78,-358.33,83.06,750,OK
2025-08-12 14:22,-65.96,125.78,-357.67,83.06,750,OK
2025-08-12 14:22,-57.32,125.78,-349.71,83.06,750,OK
2025-08-12 14:22,-47.98,125.78,-328.62,83.06,750,OK
2025-08-12 14:22,-38.64,125.78,-301.55,83.06,750,OK
2025-08-12 14:22,-29.56,125.78,-265.49,83.06,750,OK
2025-08-12 14:22,-23.03,125.78,-222.66,83.06,750,OK
2025-08-12 14:22,-15.49,125.78,-176.53,83.06,750,OK
2025-08-12 14:22,-11.57,125.78,-131.71,83.06,750,OK
2025-08-12 14:22,-8.24,125.78,-83.78,83.06,750,OK
2025-08-12 14:22,-6.44,125.78,-40.75,96.46,370,OK
2025-08-12 14:22,-5.45,125.78,1.33,96.46,370,OK
2025-08-12 14:22,-5.92,125.78,40.78,96.46,370,OK
2025-08-12 14:22,-4.78,125.78,75.3,96.46,370,OK
2025-08-12 14:22,-6.76,125.78,105.38,96.46,370,OK
2025-08-12 14:22,-8.69,125.78,129.86,96.46,370,OK
2025-08-12 14:22,-10.11,125.78,146.46,96.46,370,OK
2025-08-12 14:22,-10.84,125.78,157.42,96.46,370,OK
2025-08-12 14:22,-15,125.78,163.69,96.46,370,OK
2025-08-12 14:22,-17.81,125.78,163.51,96.46,370,OK
2025-08-12 14:22,-20.9,125.78,159.26,96.46,370,OK
2025-08-12 14:22,-24.98,125.78,151.46,96.46,370,OK
2025-08-12 14:22,-29.39,125.78,138.64,96.46,370,OK
2025-08-12 14:22,-30.6,125.78,122.42,96.46,370,OK
2025-08-12 14:22,-33.08,125.78,104.23,96.46,370,OK
2025-08-12 14:22,-35.76,125.78,84.87,96.46,370,OK
2025-08-12 14:22,-35.84,125.78,64.66,96.46,370,OK
2025-08-12 14:22,-37.15,125.78,47,96.46,370,OK
2025-08-12 14:22,-39.57,125.78,33.76,96.46,370,OK
2025-08-12 14:22,-40.56,125.78,21.25,96.46,370,OK
2025-08-12 14:22,-42.7,125.78,12.03,96.46,370,OK
2025-08-12 14:22,-46.13,125.78,5.31,96.46,370,OK
2025-08-12 14:22,-49.31,125.78,0.65,96.46,370,OK
2025-08-12 14:22,-53.47,125.78,-5.13,96.46,370,OK
2025-08-12 14:22,-57.17,125.78,-6.84,96.46,370,OK
2025-08-12 14:22,-58.7,125.78,-8.15,96.46,370,OK
2025-08-12 14:22,-60.6,125.78,-5.06,96.46,370,OK
2025-08-12 14:22,-58.23,125.78,2.51,96.46,370,OK
2025-08-12 14:22,-49.12,125.78,17.7,96.46,370,OK
2025-08-12 14:22,-35.46,125.78,38.61,96.46,370,OK
2025-08-12 14:22,-18.48,125.78,68.82,96.46,370,OK
2025-08-12 14:22,7.44,125.78,105.24,96.46,370,OK
2025-08-12 14:22,34.53,125.78,146.9,96.46,370,OK
2025-08-12 14:22,62.42,125.78,189.47,96.46,370,OK
2025-08-12 14:22,88.82,125.78,231.91,96.46,370,OK
2025-08-12 14:22,114.45,125.78,267.34,114.31,370,OK
2025-08-12 14:22,131.78,114.31,294.92,114.31,-10,OK
2025-08-12 14:22,146.59,114.31,312.12,114.31,-10,OK
2025-08-12 14:22,152.79,114.31,316.66,114.31,-10,OK
2025-08-12 14:22,155.57,114.31,311.72,114.31,-10,OK
2025-08-12 14:22,152.14,114.31,297.44,114.31,-10,OK
2025-08-12 14:22,145.36,114.31,274.7,114.31,-10,OK
2025-08-12 14:22,133.85,114.31,242.44,114.31,-10,OK
2025-08-12 14:22,122.13,114.31,208.07,114.31,-10,OK
2025-08-12 14:22,105.64,114.31,169.02,114.31,-10,OK
2025-08-12 14:22,88.89,114.31,129.34,114.31,-10,OK
2025-08-12 14:22,70.72,114.31,88.92,114.31,-10,OK
2025-08-12 14:22,52.93,114.31,52.82,114.31,-10,OK
2025-08-12 14:22,33.21,114.31,18.62,114.31,-10,OK
2025-08-12 14:22,15.56,114.31,-13.94,114.31,-10,OK
2025-08-12 14:22,-4.24,114.31,-42.22,114.31,-10,OK
2025-08-12 14:22,-20.56,114.31,-65.15,114.31,-10,OK
2025-08-12 14:22,-38.67,114.31,-85.71,114.31,-10,OK
2025-08-12 14:22,-53.89,114.31,-103.11,114.31,-10,OK
2025-08-12 14:22,-67.58,114.31,-114.16,114.31,-10,OK
2025-08-12 14:22,-76.24,114.31,-121.88,114.31,-10,OK
2025-08-12 14:22,-84.93,114.31,-126.73,114.31,-10,OK
2025-08-12 14:22,-88.49,114.31,-125.13,114.31,-10,OK
2025-08-12 14:22,-89.95,114.31,-121.65,114.31,-10,OK
2025-08-12 14:22,-89.68,114.31,-114.82,114.31,-10,OK
2025-08-12 14:22,-89.33,114.31,-106.9,114.31,-10,OK
2025-08-12 14:22,-87.3,114.31,-94.34,114.31,-10,OK
2025-08-12 14:22,-85.2,114.31,-82.24,114.31,-10,OK
2025-08-12 14:22,-83.96,114.31,-68.45,114.31,-10,OK
2025-08-12 14:22,-80.71,114.31,-55.84,114.31,-10,OK
2025-08-12 14:22,-76.13,114.31,-43.53,114.31,-10,OK
2025-08-12 14:22,-70.74,114.31,-33.56,114.31,-10,OK
2025-08-12 14:22,-64.39,114.31,-25.34,114.31,-10,OK
2025-08-12 14:22,-55.56,114.31,-18.06,114.31,-10,OK
2025-08-12 14:22,-49.66,114.31,-14.97,114.31,-10,OK
2025-08-12 14:22,-44.26,114.31,-10.87,114.31,-10,OK
2025-08-12 14:22,-43.45,114.31,-8.38,114.31,-10,OK
2025-08-12 14:22,-41.5,114.31,-9.58,114.31,-10,OK
2025-08-12 14:22,-42.25,114.31,-10.33,114.31,-10,OK
2025-08-12 14:22,-42.76,114.31,-11.86,114.31,-10,OK
2025-08-12 14:22,-46.14,114.31,-14.52,114.31,-10,OK
2025-08-12 14:22,-45.31,114.31,-22.45,114.31,-10,OK
2025-08-12 14:22,-46.97,114.31,-27.01,114.31,-10,OK
2025-08-12 14:22,-49.81,114.31,-34.82,114.31,-10,OK
2025-08-12 14:22,-51.83,114.31,-41.04,114.31,-10,OK
2025-08-12 14:22,-51.39,114.31,-49.9,114.31,-10,OK
2025-08-12 14:22,-52.17,114.31,-54.18,114.31,-10,OK
2025-08-12 14:22,-55.64,114.31,-61.31,114.31,-10,OK
2025-08-12 14:22,-57.35,114.31,-65.87,114.31,-10,OK
2025-08-12 14:22,-59.76,114.31,-69.3,114.31,-10,OK
2025-08-12 14:22,-60.67,114.31,-70.45,114.31,-10,OK
2025-08-12 14:22,-61.05,114.31,-71.56,114.31,-10,OK
2025-08-12 14:22,-59.15,114.31,-70.56,114.31,-10,OK
2025-08-12 14:22,-56.64,114.31,-68.87,114.31,-10,OK
2025-08-12 14:22,-52.53,114.31,-68.39,114.31,-10,OK
2025-08-12 14:22,-48.8,114.31,-68.58,114.31,-10,OK
2025-08-12 14:22,-46.03,114.31,-67.73,114.31,-10,OK
2025-08-12 14:22,-42.2,114.31,-66.23,114.31,-10,OK
2025-08-12 14:22,-36.16,114.31,-64.63,114.31,-10,OK
2025-08-12 14:22,-32.95,114.31,-61.05,114.31,-10,OK
2025-08-12 14:22,-31.25,114.31,-56.58,114.31,-10,OK
2025-08-12 14:22,-27.16,114.31,-52.67,114.31,-10,OK
2025-08-12 14:22,-23.78,114.31,-49.71,114.31,-10,OK
2025-08-12 14:22,-20.58,114.31,-44.79,114.31,-10,OK
2025-08-12 14:22,-15.25,114.31,-37.77,114.31,-10,OK
2025-08-12 14:22,-4.37,114.31,-27.22,114.31,-10,OK
2025-08-12 14:22,9.22,114.31,-11.06,114.31,-10,OK
2025-08-12 14:22,27.86,114.31,14.01,114.31,-10,OK
2025-08-12 14:22,50.37,114.31,46.42,114.31,-10,OK
2025-08-12 14:22,78.53,114.31,82.88,114.31,-10,OK
2025-08-12 14:22,105.95,114.31,125.06,114.31,-10,OK
2025-08-12 14:22,132.59,114.31,166.06,114.31,-10,OK
2025-08-12 14:22,157.17,114.31,203.61,114.54,-10,OK
2025-08-12 14:22,175.16,114.76,231.31,114.54,-10,OK
2025-08-12 14:22,186.89,114.76,253.65,114.54,-10,OK
2025-08-12 14:22,192.21,114.76,264.09,114.54,-10,OK
2025-08-12 14:22,191.92,114.76,264.51,114.54,-10,OK
2025-08-12 14:22,185.37,114.76,253.67,114.54,-10,OK
2025-08-12 14:22,175.07,114.76,234.95,114.54,-10,OK
2025-08-12 14:22,161.83,114.76,208.64,114.54,-10,OK
2025-08-12 14:22,146.49,114.76,176.13,114.54,-10,OK
2025-08-12 14:22,129.47,114.76,140.98,114.54,-10,OK
2025-08-12 14:22,111.79,114.76,103.7,114.54,-10,OK
2025-08-12 14:22,93.5,114.76,67.98,114.54,-10,OK
2025-08-12 14:22,75.91,114.76,31.83,114.54,-10,OK
2025-08-12 14:22,58.36,114.76,-1.98,114.54,-10,OK
2025-08-12 14:22,41.82,114.76,-32.41,114.54,-10,OK
2025-08-12 14:22,24.32,114.76,-58.26,114.54,-10,OK
2025-08-12 14:22,10.99,114.76,-82.04,114.54,-10,OK
2025-08-12 14:22,-4.39,114.76,-101.7,114.54,-10,OK
2025-08-12 14:22,-15.67,114.76,-117.84,114.54,-10,OK
2025-08-12 14:22,-27.08,114.76,-129.45,114.54,-10,OK
2025-08-12 14:22,-33.77,114.76,-138.16,114.54,-10,OK
2025-08-12 14:22,-41.83,114.76,-141.11,114.54,-10,OK
2025-08-12 14:22,-47.93,114.76,-142.8,114.54,-10,OK
2025-08-12 14:22,-56.16,114.76,-139.88,114.54,-10,OK
2025-08-12 14:22,-61.64,114.76,-134.83,114.54,-10,OK
2025-08-12 14:22,-67.02,114.76,-127.84,114.54,-10,OK
2025-08-12 14:22,-69.78,114.76,-119.16,114.54,-10,OK
2025-08-12 14:22,-70.35,114.76,-106.21,114.54,-10,OK
2025-08-12 14:22,-66.83,114.76,-94.12,114.54,-10,OK
2025-08-12 14:22,-62.93,114.76,-82.29,114.54,-10,OK
2025-08-12 14:22,-58.52,114.76,-68.81,114.54,-10,OK
2025-08-12 14:22,-53.86,114.76,-58.73,114.54,-10,OK
2025-08-12 14:22,-48,114.76,-52.96,114.54,-10,OK
2025-08-12 14:22,-45.03,114.76,-46.53,114.54,-10,OK
2025-08-12 14:22,-40.43,114.76,-42.47,114.54,-10,OK
2025-08-12 14:22,-36.3,114.76,-41.52,114.54,-10,OK
2025-08-12 14:22,-32.49,114.76,-42.24,114.54,-10,OK
2025-08-12 14:22,-30.52,114.76,-42.41,114.54,-10,OK
2025-08-12 14:22,-28.49,114.76,-44.34,114.54,-10,OK
2025-08-12 14:22,-27.66,114.76,-45.99,114.54,-10,OK
2025-08-12 14:22,-27.65,114.76,-49.3,114.54,-10,OK
2025-08-12 14:22,-28.58,114.76,-51,114.54,-10,OK
2025-08-12 14:22,-28.68,114.76,-53.14,114.54,-10,OK
2025-08-12 14:22,-27.23,114.76,-56.14,114.54,-10,OK
2025-08-12 14:22,-26.91,114.76,-59.92,114.54,-10,OK
2025-08-12 14:22,-28.86,114.76,-63.24,114.54,-10,OK
2025-08-12 14:22,-28.51,114.76,-65.86,114.54,-10,OK
2025-08-12 14:22,-29.51,114.76,-69.29,114.54,-10,OK
2025-08-12 14:22,-30.27,114.76,-70.82,114.54,-10,OK
2025-08-12 14:22,-31.73,114.76,-73.92,114.54,-10,OK
2025-08-12 14:22,-30.02,114.76,-75.69,114.54,-10,OK
2025-08-12 14:22,-30.41,114.76,-78.38,114.54,-10,OK
2025-08-12 14:22,-29.68,114.76,-79.62,114.54,-10,OK
2025-08-12 14:22,-31.25,114.76,-81.48,114.54,-10,OK
2025-08-12 14:22,-28.45,114.76,-83.04,114.54,-10,OK
2025-08-12 14:22,-25.88,114.76,-84.24,114.54,-10,OK
2025-08-12 14:22,-22.59,114.76,-84.39,114.54,-10,OK
2025-08-12 14:22,-18.32,114.76,-83.87,114.54,-10,OK
2025-08-12 14:22,-10.46,114.76,-83.35,114.54,-10,OK
2025-08-12 14:22,-3.63,114.76,-81.66,114.54,-10,OK
2025-08-12 14:22,4.06,114.76,-80.64,114.54,-10,OK
2025-08-12 14:22,11.17,114.76,-79.79,114.54,-10,OK
2025-08-12 14:22,18.32,114.76,-79.49,114.54,-10,OK
2025-08-12 14:22,21.97,114.76,-75.95,114.54,-10,OK
2025-08-12 14:22,24.14,114.76,-70.52,114.54,-10,OK
2025-08-12 14:22,26.12,114.76,-62.34,114.54,-10,OK
2025-08-12 14:22,30.5,114.76,-48.88,114.54,-10,OK
2025-08-12 14:22,36.13,114.76,-29.55,114.54,-10,OK
2025-08-12 14:22,46.16,114.76,-4.05,114.54,-10,OK
2025-08-12 14:22,57.63,114.76,28.09,114.54,-10,OK
2025-08-12 14:22,70.2,114.76,65.53,114.54,-10,OK
2025-08-12 14:22,84.42,114.76,105.92,114.54,-10,OK
2025-08-12 14:22,96.78,114.76,146.76,114.54,-10,OK
2025-08-12 14:22,107.58,114.76,183.09,114.76,-10,OK
2025-08-12 14:22,116.11,114.76,213.1,114.76,-10,OK
2025-08-12 14:22,122.24,114.76,233.38,114.76,-10,OK
2025-08-12 14:22,121.53,114.76,243.6,114.76,-10,OK
2025-08-12 14:22,118.73,114.76,244.4,114.76,-10,OK
2025-08-12 14:22,111.66,114.76,233.91,114.76,-10,OK
2025-08-12 14:22,101.08,114.76,216.71,114.76,-10,OK
2025-08-12 14:22,87.06,114.76,195.56,114.76,-10,OK
2025-08-12 14:22,72.65,114.76,167.98,114.76,-10,OK
2025-08-12 14:22,55.65,114.76,135.41,114.76,-10,OK
2025-08-12 14:22,38.35,114.76,100.57,114.76,-10,OK
2025-08-12 14:22,23.4,114.76,64.86,114.76,-10,OK
2025-08-12 14:22,8.25,114.76,29.29,114.76,-10,OK
2025-08-12 14:22,-7.68,114.76,-3.7,114.76,-10,OK
2025-08-12 14:22,-21.56,114.76,-32.87,114.76,-10,OK
2025-08-12 14:22,-34.33,114.76,-56.62,114.76,-10,OK
2025-08-12 14:22,-47.01,114.76,-76.6,114.76,-10,OK
2025-08-12 14:22,-55.64,114.76,-91.37,114.76,-10,OK
2025-08-12 14:22,-58.32,114.76,-101.17,114.76,-10,OK
2025-08-12 14:22,-58.18,114.76,-107.29,114.76,-10,OK
2025-08-12 14:22,-54.76,114.76,-111.39,114.76,-10,OK
2025-08-12 14:22,-47.68,114.76,-111.73,114.76,-10,OK
2025-08-12 14:22,-40.97,114.76,-109.33,114.76,-10,OK
2025-08-12 14:22,-33.38,114.76,-106.55,114.76,-10,OK
2025-08-12 14:22,-25.98,114.76,-101.27,114.76,-10,OK
2025-08-12 14:22,-18.78,114.76,-93.52,114.76,-10,OK
2025-08-12 14:22,-13.48,114.76,-84.29,114.76,-10,OK
2025-08-12 14:22,-8.86,114.76,-75.93,114.76,-10,OK
2025-08-12 14:22,-6.85,114.76,-64.55,114.76,-10,OK
2025-08-12 14:22,-5.03,114.76,-53.83,114.76,-10,OK
2025-08-12 14:22,-5.36,114.76,-42.22,114.76,-10,OK
2025-08-12 14:22,-7.85,114.76,-32.95,114.76,-10,OK
2025-08-12 14:22,-10.73,114.76,-23.92,114.76,-10,OK
2025-08-12 14:22,-13.5,114.76,-16.83,114.76,-10,OK
2025-08-12 14:22,-15.74,114.76,-11.15,114.76,-10,OK
2025-08-12 14:22,-19.39,114.76,-8.77,114.76,-10,OK
2025-08-12 14:22,-19.7,114.76,-7.96,114.76,-10,OK
2025-08-12 14:22,-20.14,114.76,-8.15,114.76,-10,OK
2025-08-12 14:22,-21.05,114.76,-11.47,114.76,-10,OK
2025-08-12 14:22,-24.6,114.76,-14.87,114.76,-10,OK
2025-08-12 14:22,-25.97,114.76,-19.52,114.76,-10,OK
2025-08-12 14:22,-28.91,114.76,-24.91,114.76,-10,OK
2025-08-12 14:22,-31.28,114.76,-31.34,114.76,-10,OK
2025-08-12 14:22,-38.38,114.76,-38.81,114.76,-10,OK
2025-08-12 14:22,-43.69,114.76,-45.1,114.76,-10,OK
2025-08-12 14:22,-49.18,114.76,-50.16,114.76,-10,OK
2025-08-12 14:22,-56.04,114.76,-55.87,114.76,-10,OK
2025-08-12 14:22,-60.96,114.76,-60.7,114.76,-10,OK
2025-08-12 14:22,-62.04,114.76,-60.7,114.76,-10,OK
2025-08-12 14:22,-63.06,114.76,-63.5,114.76,-10,OK
2025-08-12 14:22,-62.96,114.76,-64.85,114.76,-10,OK
2025-08-12 14:22,-61.7,114.76,-63.34,114.76,-10,OK
2025-08-12 14:22,-60.3,114.76,-59.43,114.76,-10,OK
2025-08-12 14:22,-57.8,114.76,-58.21,114.76,-10,OK
2025-08-12 14:22,-54.6,114.76,-53.66,114.76,-10,OK
2025-08-12 14:22,-53.65,114.76,-49.3,114.76,-10,OK
2025-08-12 14:22,-51.42,114.76,-44.41,114.76,-10,OK
2025-08-12 14:22,-50.43,114.76,-40.95,114.76,-10,OK
2025-08-12 14:22,-50.25,114.76,-36.53,114.76,-10,OK
2025-08-12 14:22,-52.68,114.76,-32.73,114.76,-10,OK
2025-08-12 14:22,-52.73,114.76,-27.88,114.76,-10,OK
2025-08-12 14:22,-53.84,114.76,-24.56,114.76,-10,OK
2025-08-12 14:22,-54.23,114.76,-21.63,114.76,-10,OK
2025-08-12 14:22,-55.91,114.76,-19.53,114.76,-10,OK
2025-08-12 14:22,-54.96,114.76,-17.62,114.76,-10,OK
2025-08-12 14:22,-53.27,114.76,-16.05,114.76,-10,OK
2025-08-12 14:22,-49.09,114.76,-10.31,114.76,-10,OK
2025-08-12 14:22,-40.6,114.76,-1.94,114.76,-10,OK
2025-08-12 14:22,-26.35,114.76,15.39,114.76,-10,OK
2025-08-12 14:22,-4.97,114.76,39.69,114.76,-10,OK
2025-08-12 14:22,21.27,114.76,71.15,114.76,-10,OK
2025-08-12 14:22,50.97,114.76,106.4,114.76,-10,OK
2025-08-12 14:22,81.98,114.76,145.82,114.76,-10,OK
2025-08-12 14:22,112.11,114.76,181.52,114.76,-10,OK
2025-08-12 14:22,137.36,114.76,210.87,115.19,-10,OK
2025-08-12 14:22,157.59,88.64,233.12,115.19,-750,OK
2025-08-12 14:22,171.89,88.64,246.28,115.19,-750,OK
2025-08-12 14:22,179.66,88.64,247.24,115.19,-750,OK
2025-08-12 14:22,180.93,88.64,238.71,115.19,-750,OK
2025-08-12 14:22,177.55,88.64,222.45,115.19,-750,OK
2025-08-12 14:22,166.78,88.64,197.2,115.19,-750,OK
2025-08-12 14:22,153.85,88.64,165.46,115.19,-750,OK
2025-08-12 14:22,137.55,88.64,131.58,115.19,-750,OK
2025-08-12 14:22,120.07,88.64,95.31,115.19,-750,OK
2025-08-12 14:22,101.79,88.64,57.97,115.19,-750,OK
2025-08-12 14:22,86.79,88.64,23.28,115.19,-750,OK
2025-08-12 14:22,69.92,88.64,-8.98,115.19,-750,OK
2025-08-12 14:22,51.34,88.64,-38.13,115.19,-750,OK
2025-08-12 14:22,34.15,88.64,-64.14,115.19,-750,OK
2025-08-12 14:22,17.79,88.64,-85.7,115.19,-750,OK
2025-08-12 14:22,-1.2,88.64,-105.13,115.19,-750,OK
2025-08-12 14:22,-18.16,88.64,-119.07,115.19,-750,OK
2025-08-12 14:22,-31.22,88.64,-129.42,115.19,-750,OK
2025-08-12 14:22,-44.41,88.64,-134.56,115.19,-750,OK
2025-08-12 14:22,-56.06,88.64,-135.01,115.19,-750,OK
2025-08-12 14:22,-62.7,88.64,-130,115.19,-750,OK
2025-08-12 14:22,-67.76,88.64,-124.26,115.19,-750,OK
2025-08-12 14:22,-69.99,88.64,-114.88,115.19,-750,OK
2025-08-12 14:22,-69.56,88.64,-105.67,115.19,-750,OK
2025-08-12 14:22,-67.7,88.64,-95.07,115.19,-750,OK
2025-08-12 14:22,-65.56,88.64,-86.46,115.19,-750,OK
2025-08-12 14:22,-63.8,88.64,-75.93,115.19,-750,OK
2025-08-12 14:22,-61.41,88.64,-66.8,115.19,-750,OK
2025-08-12 14:22,-58.09,88.64,-58.45,115.19,-750,OK
2025-08-12 14:22,-53.55,88.64,-52.71,115.19,-750,OK
2025-08-12 14:22,-46.36,88.64,-48.28,115.19,-750,OK
2025-08-12 14:22,-36.76,88.64,-46.41,115.19,-750,OK
2025-08-12 14:22,-27.47,88.64,-45.97,115.19,-750,OK
2025-08-12 14:22,-16.76,88.64,-45.14,115.19,-750,OK
2025-08-12 14:22,-5.7,88.64,-46.89,115.19,-750,OK
2025-08-12 14:22,4.11,88.64,-46.57,115.19,-750,OK
2025-08-12 14:22,17.06,88.64,-47.59,115.19,-750,OK
2025-08-12 14:22,30.18,88.64,-50.44,115.19,-750,OK
2025-08-12 14:22,45,88.64,-54.54,115.19,-750,OK
2025-08-12 14:22,59.63,88.64,-57.25,115.19,-750,OK
2025-08-12 14:22,73.79,88.64,-61.89,115.19,-750,OK
2025-08-12 14:22,85.54,88.64,-65.93,115.19,-750,OK
2025-08-12 14:22,97.11,88.64,-69.26,115.19,-750,OK
2025-08-12 14:22,107.97,88.64,-71.75,115.19,-750,OK
2025-08-12 14:22,120.23,88.64,-71.85,115.19,-750,OK
2025-08-12 14:22,131.67,88.64,-72.99,115.19,-750,OK
2025-08-12 14:22,142.81,88.64,-73.65,115.19,-750,OK
2025-08-12 14:22,154.2,88.64,-74.44,115.19,-750,OK
2025-08-12 14:22,165.05,88.64,-74.57,115.19,-750,OK
2025-08-12 14:22,171.78,88.64,-77.94,115.19,-750,OK
2025-08-12 14:22,178.1,88.64,-80.59,115.19,-750,OK
2025-08-12 14:22,182.79,88.64,-83.96,115.19,-750,OK
2025-08-12 14:22,188.94,88.64,-88.23,115.19,-750,OK
2025-08-12 14:22,197.67,88.64,-94.24,115.19,-750,OK
2025-08-12 14:22,211.32,88.64,-99.14,115.19,-750,OK
2025-08-12 14:22,230.51,88.64,-102.08,115.19,-750,OK
2025-08-12 14:22,253.19,88.64,-104.52,115.19,-750,OK
2025-08-12 14:22,273.84,88.64,-104.27,115.19,-750,OK
2025-08-12 14:22,290.92,88.64,-101.9,115.19,-750,OK
2025-08-12 14:22,300.61,88.64,-102.01,115.19,-750,OK
2025-08-12 14:22,299.66,88.64,-101.35,115.19,-750,OK
2025-08-12 14:22,290.61,88.64,-94.62,115.19,-750,OK
2025-08-12 14:22,275.05,88.64,-85.92,115.19,-750,OK
2025-08-12 14:22,254.48,88.64,-74.96,115.19,-750,OK
2025-08-12 14:22,236.72,88.64,-54.17,115.19,-750,OK
2025-08-12 14:22,226.81,88.64,-27.76,115.19,-750,OK
2025-08-12 14:22,225.94,88.64,1.84,115.19,-750,OK
2025-08-12 14:22,240.38,88.64,39.12,115.19,-750,OK
2025-08-12 14:22,267.65,88.64,82.47,115.19,-750,OK
2025-08-12 14:22,308.59,88.64,128.81,115.19,-750,OK
2025-08-12 14:22,357.86,88.64,175.96,100.51,-750,OK
2025-08-12 14:22,415.8,88.64,220.63,100.51,-750,OK
2025-08-12 14:22,472.79,88.64,257.78,100.51,-750,OK
2025-08-12 14:22,529.25,88.64,287.71,100.51,-750,OK
2025-08-12 14:22,575.26,73.27,305.73,100.51,-40,OK
2025-08-12 14:22,610.79,73.27,311.44,100.51,-40,OK
2025-08-12 14:22,628.91,73.27,304.99,100.51,-40,OK
2025-08-12 14:22,631.17,73.27,288.95,100.51,-40,OK
2025-08-12 14:22,615.19,73.27,263.68,100.51,-40,OK
2025-08-12 14:22,583.48,73.27,232.92,100.51,-40,OK
2025-08-12 14:22,536.74,73.27,198.5,100.51,-40,OK
2025-08-12 14:22,479.75,73.27,164.92,100.51,-40,OK
2025-08-12 14:22,412.56,73.27,129.43,100.51,-40,OK
2025-08-12 14:22,339.47,73.27,94.39,100.51,-40,OK
2025-08-12 14:22,260.78,73.27,61.69,100.51,-40,OK
2025-08-12 14:22,182.2,73.27,34.67,100.51,-40,OK
2025-08-12 14:22,103.37,73.27,7.09,100.51,-40,OK
2025-08-12 14:22,27.18,73.27,-14.74,100.51,-40,OK
2025-08-12 14:22,-45.19,73.27,-32.47,100.51,-40,OK
2025-08-12 14:22,-113.25,73.27,-45.69,100.51,-40,OK
2025-08-12 14:22,-177.11,73.27,-57.71,100.51,-40,OK
2025-08-12 14:22,-235.84,73.27,-65.17,100.51,-40,OK
2025-08-12 14:22,-287.86,73.27,-70.46,100.51,-40,OK
2025-08-12 14:22,-334.68,73.27,-71.48,100.51,-40,OK
2025-08-12 14:22,-373.88,73.27,-70.12,100.51,-40,OK
2025-08-12 14:22,-407.97,73.27,-66.54,100.51,-40,OK
2025-08-12 14:22,-434.81,73.27,-60.37,100.51,-40,OK
2025-08-12 14:22,-459.4,73.27,-52.14,100.51,-40,OK
2025-08-12 14:22,-483.45,73.27,-43.72,100.51,-40,OK
2025-08-12 14:22,-501.3,73.27,-35.02,100.51,-40,OK
2025-08-12 14:22,-518.05,73.27,-26.46,100.51,-40,OK
2025-08-12 14:22,-536.26,73.27,-18.81,100.51,-40,OK
2025-08-12 14:22,-552.31,73.27,-10.67,100.51,-40,OK
2025-08-12 14:22,-567.52,73.27,-2.32,100.51,-40,OK
2025-08-12 14:22,-587.35,73.27,2.43,100.51,-40,OK
2025-08-12 14:22,-609.51,73.27,6.97,100.51,-40,OK
2025-08-12 14:22,-635.67,73.27,9.64,100.51,-40,OK
2025-08-12 14:22,-670.16,73.27,9.54,100.51,-40,OK
2025-08-12 14:22,-710.59,73.27,6.68,100.51,-40,OK
2025-08-12 14:22,-760.01,73.27,4.7,100.51,-40,OK
2025-08-12 14:22,-818.48,73.27,-0.91,100.51,-40,OK
2025-08-12 14:22,-882.79,73.27,-4.95,100.51,-40,OK
2025-08-12 14:22,-951.32,73.27,-11.52,100.51,-40,OK
2025-08-12 14:22,-1019.37,73.27,-17.17,100.51,-40,OK
2025-08-12 14:22,-1080.43,73.27,-24.2,100.51,-40,OK
2025-08-12 14:22,-1132.99,73.27,-27.55,100.51,-40,OK
2025-08-12 14:22,-1173.01,73.27,-33.77,100.51,-40,OK
2025-08-12 14:22,-1197.27,73.27,-36.91,100.51,-40,OK
2025-08-12 14:22,-1202.61,73.27,-40.51,100.51,-40,OK
2025-08-12 14:22,-1190.88,73.27,-43.92,100.51,-40,OK
2025-08-12 14:22,-1161.62,73.27,-48.05,100.51,-40,OK
2025-08-12 14:22,-1116.83,73.27,-48.67,100.51,-40,OK
2025-08-12 14:22,-1055.21,73.27,-49.1,100.51,-40,OK
2025-08-12 14:22,-986.26,73.27,-50.03,100.51,-40,OK
2025-08-12 14:22,-909.23,73.27,-46.61,100.51,-40,OK
2025-08-12 14:22,-826.19,73.27,-43.21,100.51,-40,OK
2025-08-12 14:22,-739.8,80.56,-39.69,100.51,-40,OK
2025-08-12 14:22,-651.53,80.56,-36.74,100.51,-40,OK
2025-08-12 14:22,-560.06,80.56,-31.42,100.51,-40,OK
2025-08-12 14:22,-471.96,80.56,-26.66,100.51,-40,OK
2025-08-12 14:22,-381.95,80.56,-22.62,100.51,-40,OK
2025-08-12 14:22,-294.62,80.56,-16.92,100.51,-40,OK
2025-08-12 14:22,-212.22,80.56,-11.31,100.51,-40,OK
2025-08-12 14:22,-135.55,80.56,-5.58,100.51,-40,OK
2025-08-12 14:22,-63.73,80.56,0.16,100.51,-40,OK
2025-08-12 14:22,-0.4,80.56,10.24,100.51,-40,OK
2025-08-12 14:22,57.1,80.56,21.4,100.51,-40,OK
2025-08-12 14:22,110.75,80.56,40.9,100.51,-40,OK
2025-08-12 14:22,160.76,80.56,67.46,100.51,-40,OK
2025-08-12 14:22,209.2,80.56,99.3,100.51,-40,OK
2025-08-12 14:22,254.14,80.56,135.8,100.51,-40,OK
2025-08-12 14:22,297.15,80.56,176.76,100.51,-40,OK
2025-08-12 14:22,337.2,80.56,215.16,82.89,160,OK
2025-08-12 14:22,371.19,80.56,248.28,82.89,160,OK
2025-08-12 14:22,401.41,80.56,274.18,82.89,160,OK
2025-08-12 14:22,425.62,80.56,291.39,82.89,160,OK
2025-08-12 14:22,441.81,80.56,296.07,82.89,160,OK
2025-08-12 14:22,449.59,80.56,290.46,82.89,160,OK
2025-08-12 14:22,451.01,80.56,273.83,82.89,160,OK
2025-08-12 14:22,444.72,80.56,250.5,82.89,160,OK
2025-08-12 14:22,432.63,80.56,220.03,82.89,160,OK
2025-08-12 14:22,419.82,80.56,188.41,82.89,160,OK
2025-08-12 14:22,402.12,80.56,149.86,82.89,160,OK
2025-08-12 14:22,384.12,80.56,110.32,82.89,160,OK
2025-08-12 14:22,362.45,80.56,76.01,82.89,160,OK
2025-08-12 14:22,343.24,80.56,39.75,82.89,160,OK
2025-08-12 14:22,317.99,80.56,2.76,82.89,160,OK
2025-08-12 14:22,295.07,80.56,-27.52,82.89,160,OK
2025-08-12 14:22,269.5,80.56,-53.36,82.89,160,OK
2025-08-12 14:22,246.34,80.56,-79.63,82.89,160,OK
2025-08-12 14:22,220.4,80.56,-99.73,82.89,160,OK
2025-08-12 14:22,197.46,80.56,-116.12,82.89,160,OK
2025-08-12 14:22,175.9,80.56,-126.15,82.89,160,OK
2025-08-12 14:22,155.34,80.56,-132.2,82.89,160,OK
2025-08-12 14:22,138.36,80.56,-133.81,82.89,160,OK
2025-08-12 14:22,124.23,80.56,-131.79,82.89,160,OK
2025-08-12 14:22,111.36,80.56,-125.25,82.89,160,OK
2025-08-12 14:22,100.27,80.56,-116.33,82.89,160,OK
2025-08-12 14:22,92.65,80.56,-103.74,82.89,160,OK
2025-08-12 14:22,85.44,80.56,-91.22,82.89,160,OK
2025-08-12 14:22,81.67,80.56,-78.39,82.89,160,OK
2025-08-12 14:22,79.5,80.56,-64.81,82.89,160,OK
2025-08-12 14:22,78.09,80.56,-52.66,82.89,160,OK
2025-08-12 14:22,77.99,80.56,-45.26,82.89,160,OK
2025-08-12 14:22,78.2,80.56,-36.51,82.89,160,OK
2025-08-12 14:22,78.64,80.56,-27.83,82.89,160,OK
2025-08-12 14:22,81.64,80.56,-21.48,82.89,160,OK
2025-08-12 14:22,85.43,80.56,-19.44,82.89,160,OK
2025-08-12 14:22,88.25,80.56,-15.91,82.89,160,OK
2025-08-12 14:22,92.08,80.56,-17.62,82.89,160,OK
2025-08-12 14:22,95.1,80.56,-20.76,82.89,160,OK
2025-08-12 14:22,96.04,80.56,-27.73,82.89,160,OK
2025-08-12 14:22,94.94,80.56,-30.97,82.89,160,OK
2025-08-12 14:22,94.48,80.56,-35.19,82.89,160,OK
2025-08-12 14:22,92.01,80.56,-40.07,82.89,160,OK
2025-08-12 14:22,90.31,80.56,-45.89,82.89,160,OK
2025-08-12 14:22,88.34,80.56,-48.46,82.89,160,OK
2025-08-12 14:22,86.48,80.56,-53.95,82.89,160,OK
2025-08-12 14:22,84.43,80.56,-60.13,82.89,160,OK
2025-08-12 14:22,81.39,80.56,-63.52,82.89,160,OK
2025-08-12 14:22,77.34,80.56,-65.34,82.89,160,OK
2025-08-12 14:22,73.89,80.56,-68.62,82.89,160,OK
2025-08-12 14:22,69.69,80.56,-69.86,82.89,160,OK
2025-08-12 14:22,65.2,80.56,-68.76,82.89,160,OK
2025-08-12 14:22,62.53,80.56,-66.65,82.89,160,OK
2025-08-12 14:22,60.25,80.56,-65.42,82.89,160,OK
2025-08-12 14:22,56.95,80.56,-60.32,82.89,160,OK
2025-08-12 14:22,54.44,80.56,-55.9,82.89,160,OK
2025-08-12 14:22,54.17,80.56,-49.55,82.89,160,OK
2025-08-12 14:22,54,80.56,-44.64,82.89,160,OK
2025-08-12 14:22,54.48,80.56,-36.79,82.89,160,OK
2025-08-12 14:22,56.63,80.56,-29.96,82.89,160,OK
2025-08-12 14:22,60.27,80.56,-23.17,82.89,160,OK
2025-08-12 14:22,65.36,80.56,-19.9,82.89,160,OK
2025-08-12 14:22,67.73,80.56,-16.41,82.89,160,OK
2025-08-12 14:22,69.64,80.56,-13.92,82.89,160,OK
2025-08-12 14:22,76.04,80.56,-12.81,82.89,160,OK
2025-08-12 14:22,83.66,80.56,-8.81,82.89,160,OK
2025-08-12 14:22,94.88,80.56,1.84,82.89,160,OK
2025-08-12 14:22,113.24,80.56,17.17,82.89,160,OK
2025-08-12 14:22,138.84,80.56,38.85,82.89,160,OK
2025-08-12 14:22,168.03,80.56,69.62,82.89,160,OK
2025-08-12 14:22,200.11,80.56,105.58,82.89,160,OK
2025-08-12 14:22,232.9,80.56,143.8,82.89,160,OK
2025-08-12 14:22,265.57,80.56,181.04,82.89,160,OK
2025-08-12 14:22,294.98,77.61,214.5,82.66,160,OK
2025-08-12 14:22,319.02,77.61,240.63,82.66,160,OK
2025-08-12 14:22,336.73,77.61,256.24,82.66,160,OK
2025-08-12 14:22,346.53,77.61,260.54,82.66,160,OK
2025-08-12 14:22,351.01,77.61,255.69,82.66,160,OK
2025-08-12 14:22,346.21,77.61,243.42,82.66,160,OK
2025-08-12 14:22,333.77,77.61,221.22,82.66,160,OK
2025-08-12 14:22,316.22,77.61,192.66,82.66,160,OK
2025-08-12 14:22,293.51,77.61,159.26,82.66,160,OK
2025-08-12 14:22,264.83,77.61,123.8,82.66,160,OK
2025-08-12 14:22,234.66,77.61,87.35,82.66,160,OK
2025-08-12 14:22,204.67,77.61,51.47,82.66,160,OK
2025-08-12 14:22,176.87,77.61,18.63,82.66,160,OK
2025-08-12 14:22,151.21,77.61,-11.08,82.66,160,OK
2025-08-12 14:22,128.8,77.61,-35.94,82.66,160,OK
2025-08-12 14:22,108.08,77.61,-58.77,82.66,160,OK
2025-08-12 14:22,87.42,77.61,-75.41,82.66,160,OK
2025-08-12 14:22,69.64,77.61,-89.86,82.66,160,OK
2025-08-12 14:22,52.01,77.61,-100.91,82.66,160,OK
2025-08-12 14:22,36.09,77.61,-109.84,82.66,160,OK
2025-08-12 14:22,22.45,77.61,-114.01,82.66,160,OK
2025-08-12 14:22,11.71,77.61,-117.01,82.66,160,OK
2025-08-12 14:22,1.92,77.61,-115.03,82.66,160,OK
2025-08-12 14:22,-4.13,77.61,-108.92,82.66,160,OK
2025-08-12 14:22,-8.44,77.61,-101.71,82.66,160,OK
2025-08-12 14:22,-10.48,77.61,-93.58,82.66,160,OK
2025-08-12 14:22,-10.85,77.61,-84.11,82.66,160,OK
2025-08-12 14:22,-10.41,77.61,-72.58,82.66,160,OK
2025-08-12 14:22,-11.34,77.61,-63.77,82.66,160,OK
2025-08-12 14:22,-11.02,77.61,-53.93,82.66,160,OK
2025-08-12 14:22,-11.51,77.61,-45.16,82.66,160,OK
2025-08-12 14:22,-11.28,77.61,-39.76,82.66,160,OK
2025-08-12 14:22,-11.44,77.61,-37.13,82.66,160,OK
2025-08-12 14:22,-9.25,77.61,-33.47,82.66,160,OK
2025-08-12 14:22,-7.77,77.61,-34.21,82.66,160,OK
2025-08-12 14:22,-5.82,77.61,-36.1,82.66,160,OK
2025-08-12 14:22,-4.66,77.61,-37.95,82.66,160,OK
2025-08-12 14:22,-2.7,77.61,-42.07,82.66,160,OK
2025-08-12 14:22,-2.38,77.61,-47.56,82.66,160,OK
2025-08-12 14:22,-3.1,77.61,-52.49,82.66,160,OK
2025-08-12 14:22,-5.21,77.61,-57.55,82.66,160,OK
2025-08-12 14:22,-8.24,77.61,-62.23,82.66,160,OK
2025-08-12 14:22,-13.54,77.61,-66.59,82.66,160,OK
2025-08-12 14:22,-19,77.61,-71.26,82.66,160,OK
2025-08-12 14:22,-25.74,77.61,-74.49,82.66,160,OK
2025-08-12 14:22,-32.49,77.61,-77.65,82.66,160,OK
2025-08-12 14:22,-38.43,77.61,-78,82.66,160,OK
2025-08-12 14:22,-43.19,77.61,-78.2,82.66,160,OK
2025-08-12 14:22,-48.8,77.61,-76.63,82.66,160,OK
2025-08-12 14:22,-54.19,77.61,-74.03,82.66,160,OK
2025-08-12 14:22,-58.06,77.61,-71.77,82.66,160,OK
2025-08-12 14:22,-62.14,77.61,-68.99,82.66,160,OK
2025-08-12 14:22,-67.18,77.61,-64.29,82.66,160,OK
2025-08-12 14:22,-70.9,77.61,-60.34,82.66,160,OK
2025-08-12 14:22,-71.67,77.61,-54.83,82.66,160,OK
2025-08-12 14:22,-73.4,77.61,-47.51,82.66,160,OK
2025-08-12 14:22,-74.92,77.61,-42.85,82.66,160,OK
2025-08-12 14:22,-75.61,77.61,-37.8,82.66,160,OK
2025-08-12 14:22,-74.81,77.61,-32.85,82.66,160,OK
2025-08-12 14:22,-74.72,77.61,-28.94,82.66,160,OK
2025-08-12 14:22,-74.22,77.61,-27.19,82.66,160,OK
2025-08-12 14:22,-72.61,77.61,-23.5,82.66,160,OK
2025-08-12 14:22,-69.68,77.61,-21.02,82.66,160,OK
2025-08-12 14:22,-67.8,77.61,-18.22,82.66,160,OK
2025-08-12 14:22,-65.67,77.61,-17.36,82.66,160,OK
2025-08-12 14:22,-59.91,77.61,-13.81,82.66,160,OK
2025-08-12 14:22,-50.89,77.61,-9.88,82.66,160,OK
2025-08-12 14:22,-37.62,77.61,-2.2,82.66,160,OK
2025-08-12 14:22,-17.75,77.61,11.56,82.66,160,OK
2025-08-12 14:22,6.42,77.61,32.8,82.66,160,OK
2025-08-12 14:22,34.28,77.61,60.48,82.66,160,OK
2025-08-12 14:22,65.72,77.61,95.54,82.66,160,OK
2025-08-12 14:22,96.4,77.61,133.99,82.66,160,OK
2025-08-12 14:22,122.49,77.61,169.8,82.66,160,OK
2025-08-12 14:22,146.15,77.16,203.83,82.44,740,OK
2025-08-12 14:22,164.87,77.16,229.51,82.44,740,OK
2025-08-12 14:22,175.19,77.16,247.04,82.44,740,OK
2025-08-12 14:22,179,77.16,253.74,82.44,740,OK
2025-08-12 14:22,180.05,77.16,252.39,82.44,740,OK
2025-08-12 14:22,174.01,77.16,239.33,82.44,740,OK
2025-08-12 14:22,161.02,77.16,218.65,82.44,740,OK
2025-08-12 14:22,144.12,77.16,191.42,82.44,740,OK
2025-08-12 14:22,123.95,77.16,159.09,82.44,740,OK
2025-08-12 14:22,99.11,77.16,124.46,82.44,740,OK
2025-08-12 14:22,71.2,77.16,89.7,82.44,740,OK
2025-08-12 14:22,43.26,77.16,55.78,82.44,740,OK
2025-08-12 14:22,14.38,77.16,22.37,82.44,740,OK
2025-08-12 14:22,-12.62,77.16,-8.19,82.44,740,OK
2025-08-12 14:22,-36.81,77.16,-37.91,82.44,740,OK
2025-08-12 14:22,-56.82,77.16,-63.84,82.44,740,OK
2025-08-12 14:22,-72.12,77.16,-84.52,82.44,740,OK
2025-08-12 14:22,-82.38,77.16,-101.14,82.44,740,OK
2025-08-12 14:22,-88.25,77.16,-112.72,82.44,740,OK
2025-08-12 14:22,-93.02,77.16,-117.86,82.44,740,OK
2025-08-12 14:22,-94.59,77.16,-120.33,82.44,740,OK
2025-08-12 14:22,-95.66,77.16,-121.59,82.44,740,OK
2025-08-12 14:22,-96.71,77.16,-120.76,82.44,740,OK
2025-08-12 14:22,-98.89,77.16,-115.66,82.44,740,OK
2025-08-12 14:22,-101.41,77.16,-112.11,82.44,740,OK
2025-08-12 14:22,-100.9,77.16,-104.65,82.44,740,OK
2025-08-12 14:22,-99.7,77.16,-96.3,82.44,740,OK
2025-08-12 14:22,-95.54,77.16,-88.59,82.44,740,OK
2025-08-12 14:22,-89.3,77.16,-80.65,82.44,740,OK
2025-08-12 14:22,-79.25,77.16,-70.4,82.44,740,OK
2025-08-12 14:22,-70.92,77.16,-62.8,82.44,740,OK
2025-08-12 14:22,-59.93,77.16,-55.11,82.44,740,OK
2025-08-12 14:22,-51.88,77.16,-47.22,82.44,740,OK
2025-08-12 14:22,-44.74,77.16,-44.24,82.44,740,OK
2025-08-12 14:22,-38.83,77.16,-42.2,82.44,740,OK
2025-08-12 14:22,-35.72,77.16,-41,82.44,740,OK
2025-08-12 14:22,-38.01,77.16,-42.19,82.44,740,OK
2025-08-12 14:22,-39.59,77.16,-42.18,82.44,740,OK
2025-08-12 14:22,-43.8,77.16,-41.89,82.44,740,OK
2025-08-12 14:22,-47.5,77.16,-44.58,82.44,740,OK
2025-08-12 14:22,-50.26,77.16,-45.92,82.44,740,OK
2025-08-12 14:22,-50.85,77.16,-47.37,82.44,740,OK
2025-08-12 14:22,-50.78,77.16,-52.54,82.44,740,OK
2025-08-12 14:22,-49.64,77.16,-58.06,82.44,740,OK
2025-08-12 14:22,-49.86,77.16,-62.14,82.44,740,OK
2025-08-12 14:22,-49.38,77.16,-67.91,82.44,740,OK
2025-08-12 14:22,-48.81,77.16,-72.57,82.44,740,OK
2025-08-12 14:22,-49.74,77.16,-75.99,82.44,740,OK
2025-08-12 14:22,-53.51,77.16,-76.09,82.44,740,OK
2025-08-12 14:22,-56.71,77.16,-77.81,82.44,740,OK
2025-08-12 14:22,-64.91,77.16,-77.72,82.44,740,OK
2025-08-12 14:22,-71.76,77.16,-76.42,82.44,740,OK
2025-08-12 14:22,-81.38,77.16,-73.33,82.44,740,OK
2025-08-12 14:22,-86.94,77.16,-72.92,82.44,740,OK
2025-08-12 14:22,-93,77.16,-67.08,82.44,740,OK
2025-08-12 14:22,-95.43,77.16,-62.18,82.44,740,OK
2025-08-12 14:22,-98.45,77.16,-56.95,82.44,740,OK
2025-08-12 14:22,-98.37,77.16,-53.24,82.44,740,OK
2025-08-12 14:22,-98.52,77.16,-46.2,82.44,740,OK
2025-08-12 14:22,-96.21,77.16,-43.19,82.44,740,OK
2025-08-12 14:22,-91.91,77.16,-39.58,82.44,740,OK
2025-08-12 14:22,-87.9,77.16,-37.69,82.44,740,OK
2025-08-12 14:22,-83.94,77.16,-35.35,82.44,740,OK
2025-08-12 14:22,-78.06,77.16,-35.29,82.44,740,OK
2025-08-12 14:22,-73.26,77.16,-35.44,82.44,740,OK
2025-08-12 14:22,-64.5,77.16,-36.09,82.44,740,OK
2025-08-12 14:22,-52.16,77.16,-34.72,82.44,740,OK
2025-08-12 14:22,-32.52,77.16,-31.02,82.44,740,OK
2025-08-12 14:22,-4.43,77.16,-21.36,82.44,740,OK
2025-08-12 14:22,29.53,77.16,-6.17,82.44,740,OK
2025-08-12 14:22,66.79,77.16,16.39,82.44,740,OK
2025-08-12 14:22,109.56,77.16,42.51,82.44,740,OK
2025-08-12 14:22,153.82,85.66,77.52,82.44,740,OK
2025-08-12 14:22,191.52,85.66,110.66,82.44,740,OK
2025-08-12 14:22,225.82,85.66,143.52,82.44,740,OK
2025-08-12 14:22,253.48,85.66,171.22,82.22,30,OK
2025-08-12 14:22,270.1,85.66,196.8,82.22,30,OK
2025-08-12 14:22,275.7,85.66,209.37,82.22,30,OK
2025-08-12 14:22,273.59,85.66,214.06,82.22,30,OK
2025-08-12 14:22,265.36,85.66,208.56,82.22,30,OK
2025-08-12 14:22,248.53,85.66,194.72,82.22,30,OK
2025-08-12 14:22,225.97,85.66,170.78,82.22,30,OK
2025-08-12 14:22,196.63,85.66,144.14,82.22,30,OK
2025-08-12 14:22,162.67,85.66,114.1,82.22,30,OK
2025-08-12 14:22,121.26,85.66,84.09,82.22,30,OK
2025-08-12 14:22,79.11,85.66,54.7,82.22,30,OK
2025-08-12 14:22,34.81,85.66,28.9,82.22,30,OK
2025-08-12 14:22,-8.19,85.66,3.26,82.22,30,OK
2025-08-12 14:22,-49.54,85.66,-20.15,82.22,30,OK
2025-08-12 14:22,-86.71,85.66,-41.82,82.22,30,OK
2025-08-12 14:22,-119.85,85.66,-61.14,82.22,30,OK
2025-08-12 14:22,-147.25,85.66,-78.07,82.22,30,OK
2025-08-12 14:22,-167.83,85.66,-91.32,82.22,30,OK
2025-08-12 14:22,-182.69,85.66,-100.74,82.22,30,OK
2025-08-12 14:22,-190.45,85.66,-106.69,82.22,30,OK
2025-08-12 14:22,-191.89,85.66,-110.9,82.22,30,OK
2025-08-12 14:22,-187.25,85.66,-115.06,82.22,30,OK
2025-08-12 14:22,-177.2,85.66,-116.78,82.22,30,OK
2025-08-12 14:22,-163.21,85.66,-119.29,82.22,30,OK
2025-08-12 14:22,-145.5,85.66,-118.96,82.22,30,OK
2025-08-12 14:22,-126.54,85.66,-117.05,82.22,30,OK
2025-08-12 14:22,-106.1,85.66,-112.99,82.22,30,OK
2025-08-12 14:22,-86.71,85.66,-107.43,82.22,30,OK
2025-08-12 14:22,-66.9,85.66,-98.38,82.22,30,OK
2025-08-12 14:22,-50.77,85.66,-90.83,82.22,30,OK
2025-08-12 14:22,-35.83,85.66,-84.36,82.22,30,OK
2025-08-12 14:22,-24.94,104.74,-76.9,82.22,30,OK
2025-08-12 14:22,-17.44,104.74,-71.98,82.22,30,OK
2025-08-12 14:22,-15.56,104.74,-67.35,82.22,30,OK
2025-08-12 14:22,-16.93,104.74,-63.38,82.22,30,OK
2025-08-12 14:22,-21.78,104.74,-59.65,82.22,30,OK
2025-08-12 14:22,-31.01,104.74,-58.05,82.22,30,OK
2025-08-12 14:22,-41.04,104.74,-58.24,82.22,30,OK
2025-08-12 14:22,-52.87,104.74,-60.83,82.22,30,OK
2025-08-12 14:22,-65.84,104.74,-64.51,82.22,30,OK
2025-08-12 14:22,-79.14,104.74,-69.44,82.22,30,OK
2025-08-12 14:22,-88.36,104.74,-75.1,82.22,30,OK
2025-08-12 14:22,-96.15,104.74,-79.71,82.22,30,OK
2025-08-12 14:22,-99.94,104.74,-83.82,82.22,30,OK
2025-08-12 14:22,-98.04,104.74,-87.18,82.22,30,OK
2025-08-12 14:22,-92.37,104.74,-88.45,82.22,30,OK
2025-08-12 14:22,-85.87,104.74,-86.87,82.22,30,OK
2025-08-12 14:22,-76.31,104.74,-87.63,82.22,30,OK
2025-08-12 14:22,-66.05,104.74,-87.36,82.22,30,OK
2025-08-12 14:22,-57.14,104.74,-88.99,82.22,30,OK
2025-08-12 14:22,-49.31,104.74,-92.43,82.22,30,OK
2025-08-12 14:22,-38.45,104.74,-100.72,82.22,30,OK
2025-08-12 14:22,-30.14,104.74,-106.84,82.22,30,OK
2025-08-12 14:22,-19.54,104.74,-117.32,82.22,30,OK
2025-08-12 14:22,-7.47,104.74,-129.25,82.22,30,OK
2025-08-12 14:22,6.97,104.74,-139.46,82.22,30,OK
2025-08-12 14:22,18.67,104.74,-147.89,82.22,30,OK
2025-08-12 14:22,33.01,104.74,-154.86,82.22,30,OK
2025-08-12 14:22,48.19,104.74,-157.68,82.22,30,OK
2025-08-12 14:22,63.65,104.74,-155.46,82.22,30,OK
2025-08-12 14:22,79.07,104.74,-151.94,82.22,30,OK
2025-08-12 14:22,93.41,104.74,-146.47,82.22,30,OK
2025-08-12 14:22,106.12,104.74,-136.64,82.22,30,OK
2025-08-12 14:22,114.15,104.74,-124.94,82.22,30,OK
2025-08-12 14:22,116.23,104.74,-110.69,82.22,30,OK
2025-08-12 14:22,113.94,104.74,-92.23,82.22,30,OK
2025-08-12 14:22,112.07,104.74,-68.9,82.22,30,OK
2025-08-12 14:22,108.07,104.74,-45.1,82.22,30,OK
2025-08-12 14:22,108.34,104.74,-15.17,82.22,30,OK
2025-08-12 14:22,112.96,104.74,22.68,82.22,30,OK
2025-08-12 14:22,120.67,104.74,65.18,82.46,390,OK
2025-08-12 14:22,132,104.74,113.02,82.46,390,OK
2025-08-12 14:22,144.13,104.74,165.09,82.46,390,OK
2025-08-12 14:22,154.06,104.74,217.89,82.46,390,OK
2025-08-12 14:22,160.63,104.74,267.07,82.46,390,OK
2025-08-12 14:22,163,104.74,309.98,82.46,390,OK
2025-08-12 14:22,158.43,104.74,345.64,82.46,390,OK
2025-08-12 14:22,147.27,104.74,369.32,82.46,390,OK
2025-08-12 14:22,130.37,104.74,380.5,82.46,390,OK
2025-08-12 14:22,110.63,104.74,379.16,82.46,390,OK
2025-08-12 14:22,87.39,104.74,367.23,82.46,390,OK
2025-08-12 14:22,63.4,104.74,343.19,82.46,390,OK
2025-08-12 14:22,39.73,104.74,314.12,82.46,390,OK
2025-08-12 14:22,15.9,104.74,276.77,82.46,390,OK
2025-08-12 14:22,-7.5,104.74,226.22,82.46,390,OK
2025-08-12 14:22,-26.63,104.74,148.81,82.46,390,OK
2025-08-12 14:22,-45.03,104.74,26.94,82.46,390,OK
2025-08-12 14:22,-56.51,104.74,-140.6,82.46,390,OK
2025-08-12 14:22,-65.33,104.74,-347.87,82.46,390,OK
2025-08-12 14:22,-68.86,104.74,-579.27,82.46,390,OK
2025-08-12 14:22,-72.82,104.74,-809.17,82.46,390,OK
2025-08-12 14:22,-73.1,104.74,-1006.26,82.46,390,OK
2025-08-12 14:22,-76.37,104.74,-1160.43,82.46,390,OK
2025-08-12 14:22,-76.38,104.74,-1263.04,82.46,390,OK
2025-08-12 14:22,-79.81,104.74,-1316.25,82.46,390,OK
2025-08-12 14:22,-81.66,104.74,-1318.74,82.46,390,OK
2025-08-12 14:22,-85.32,104.74,-1282.35,82.46,390,OK
2025-08-12 14:22,-87.95,104.74,-1216.59,82.46,390,OK
2025-08-12 14:22,-93.12,104.74,-1131.21,82.46,390,OK
2025-08-12 14:22,-95.55,104.74,-1027.98,82.46,390,OK
2025-08-12 14:22,-97.51,104.74,-916.94,82.46,390,OK
2025-08-12 14:22,-96.1,104.74,-800.18,82.46,390,OK
2025-08-12 14:22,-93.09,104.74,-676.17,82.46,390,OK
2025-08-12 14:22,-86.77,104.74,-548.05,82.46,390,OK
2025-08-12 14:22,-80.62,104.74,-422.36,101.09,390,OK
2025-08-12 14:22,-74.32,104.74,-301.56,101.09,390,OK
2025-08-12 14:22,-71.16,104.74,-184.33,101.09,390,OK
2025-08-12 14:22,-68.04,104.74,-77.73,101.09,390,OK
2025-08-12 14:22,-68.68,104.74,17.82,101.09,390,OK
2025-08-12 14:22,-70.77,104.74,100.36,101.09,390,OK
2025-08-12 14:22,-73.92,104.74,167.07,101.09,390,OK
2025-08-12 14:22,-77.75,104.74,218.35,101.09,390,OK
2025-08-12 14:22,-82.62,104.74,250.82,101.09,390,OK
2025-08-12 14:22,-84.76,104.74,271.95,101.09,390,OK
2025-08-12 14:22,-82.83,104.74,284.56,101.09,390,OK
2025-08-12 14:22,-80.45,104.74,290.09,101.09,390,OK
2025-08-12 14:22,-74.57,104.74,291.23,101.09,390,OK
2025-08-12 14:22,-67.47,104.74,295.55,101.09,390,OK
2025-08-12 14:22,-59.78,104.74,295.81,101.09,390,OK
2025-08-12 14:22,-54.68,104.74,294.09,101.09,390,OK
2025-08-12 14:22,-48.63,104.74,291.38,101.09,390,OK
2025-08-12 14:22,-43.81,104.74,282.5,101.09,390,OK
2025-08-12 14:22,-38.56,104.74,272.36,101.09,390,OK
2025-08-12 14:22,-35.38,104.74,263.63,101.09,390,OK
2025-08-12 14:22,-31.86,104.74,254.39,101.09,390,OK
2025-08-12 14:22,-27.03,104.74,244.67,101.09,390,OK
2025-08-12 14:22,-20.9,104.74,240.21,101.09,390,OK
2025-08-12 14:22,-14.11,104.74,234.46,101.09,390,OK
2025-08-12 14:22,-5.76,104.74,231.57,101.09,390,OK
2025-08-12 14:22,4.33,104.74,229.59,101.09,390,OK
2025-08-12 14:22,12.16,104.74,234.35,101.09,390,OK
2025-08-12 14:22,18.88,104.74,241.08,101.09,390,OK
2025-08-12 14:22,23.67,104.74,254.86,101.09,390,OK
2025-08-12 14:22,26.7,104.74,267.83,101.09,390,OK
2025-08-12 14:22,25.95,104.74,283.2,101.09,390,OK
2025-08-12 14:22,22,104.74,294.85,101.09,390,OK
2025-08-12 14:22,16.34,104.74,301.96,101.09,390,OK
2025-08-12 14:22,7.63,104.74,301.81,101.09,390,OK
2025-08-12 14:22,-0.85,104.74,299.42,101.09,390,OK
2025-08-12 14:22,-10.33,104.74,291.83,101.09,390,OK
2025-08-12 14:22,-16.48,104.74,282.54,101.09,390,OK
2025-08-12 14:22,-21.77,104.74,277.82,101.09,390,OK
2025-08-12 14:22,-23.53,104.74,277.17,101.09,390,OK
2025-08-12 14:22,-22.41,104.74,280.6,101.09,390,OK
2025-08-12 14:22,-15.5,104.74,293.71,101.09,390,OK
2025-08-12 14:22,-4.56,104.74,317.04,101.09,390,OK
2025-08-12 14:22,12.16,104.74,349.08,101.09,390,OK
2025-08-12 14:22,34.38,104.74,387.67,101.09,390,OK
2025-08-12 14:22,59.41,104.74,432.08,101.09,390,OK
2025-08-12 14:22,83.38,104.74,477.13,101.09,390,OK
2025-08-12 14:22,107.93,104.74,515.92,101.09,390,OK
2025-08-12 14:22,127.26,104.74,547.2,110.19,390,OK
2025-08-12 14:22,140.96,91.58,571.42,110.19,-480,OK
2025-08-12 14:22,149.41,91.58,583.33,110.19,-480,OK
2025-08-12 14:22,153.43,91.58,584.03,110.19,-480,OK
2025-08-12 14:22,149.83,91.58,576.38,110.19,-480,OK
2025-08-12 14:22,142.3,91.58,557.93,110.19,-480,OK
2025-08-12 14:22,130.09,91.58,527.34,110.19,-480,OK
2025-08-12 14:22,114.93,91.58,490.63,110.19,-480,OK
2025-08-12 14:22,100.12,91.58,446.15,110.19,-480,OK
2025-08-12 14:22,85.59,91.58,395.55,110.19,-480,OK
2025-08-12 14:22,71.16,91.58,342.65,110.19,-480,OK
2025-08-12 14:22,60.22,91.58,290.9,110.19,-480,OK
2025-08-12 14:22,49.89,91.58,240.75,110.19,-480,OK
2025-08-12 14:22,39.69,91.58,193.71,110.19,-480,OK
2025-08-12 14:22,31,91.58,153.58,110.19,-480,OK
2025-08-12 14:22,23.53,91.58,119.56,110.19,-480,OK
2025-08-12 14:22,13.22,91.58,93.11,110.19,-480,OK
2025-08-12 14:22,3.9,91.58,73.52,110.19,-480,OK
2025-08-12 14:22,-6.3,91.58,60.83,110.19,-480,OK
2025-08-12 14:22,-16.97,91.58,53.76,110.19,-480,OK
2025-08-12 14:22,-28.01,91.58,53.66,110.19,-480,OK
2025-08-12 14:22,-35.56,91.58,54.75,110.19,-480,OK
2025-08-12 14:22,-42.61,91.58,57.7,110.19,-480,OK
2025-08-12 14:22,-46.84,91.58,63.9,110.19,-480,OK
2025-08-12 14:22,-50.41,91.58,72.49,110.19,-480,OK
2025-08-12 14:22,-52.17,91.58,79.45,110.19,-480,OK
2025-08-12 14:22,-52.79,91.58,88.65,110.19,-480,OK
2025-08-12 14:22,-52.65,91.58,96.99,110.19,-480,OK
2025-08-12 14:22,-50.62,91.58,104.08,110.19,-480,OK
2025-08-12 14:22,-46.97,91.58,107.32,110.19,-480,OK
2025-08-12 14:22,-41.59,91.58,107.44,110.19,-480,OK
2025-08-12 14:22,-34.4,91.58,104.34,110.19,-480,OK
2025-08-12 14:22,-26.42,91.58,99.46,110.19,-480,OK
2025-08-12 14:22,-19.8,91.58,93.08,110.19,-480,OK
2025-08-12 14:22,-12.91,91.58,85.83,110.19,-480,OK
2025-08-12 14:22,-4.8,91.58,77.5,110.19,-480,OK
2025-08-12 14:22,0.07,91.58,68.34,110.19,-480,OK
2025-08-12 14:22,5.81,91.58,58.93,110.19,-480,OK
2025-08-12 14:22,10.14,91.58,46.03,110.19,-480,OK
2025-08-12 14:22,12.23,91.58,30.71,110.19,-480,OK
2025-08-12 14:22,13.2,91.58,14.66,110.19,-480,OK
2025-08-12 14:22,13.56,91.58,-1.35,110.19,-480,OK
2025-08-12 14:22,12.9,91.58,-19.38,110.19,-480,OK
2025-08-12 14:22,12.29,91.58,-32.73,110.19,-480,OK
2025-08-12 14:22,9.62,91.58,-46.27,110.19,-480,OK
2025-08-12 14:22,6.19,91.58,-56.63,110.19,-480,OK
2025-08-12 14:22,2.27,91.58,-67.04,110.19,-480,OK
2025-08-12 14:22,-4.36,91.58,-73.48,110.19,-480,OK
2025-08-12 14:22,-9.85,91.58,-80.5,110.19,-480,OK
2025-08-12 14:22,-12.83,91.58,-82.28,110.19,-480,OK
2025-08-12 14:22,-15.03,91.58,-85.62,110.19,-480,OK
2025-08-12 14:22,-15.81,91.58,-87.68,110.19,-480,OK
2025-08-12 14:22,-14.8,91.58,-88.36,110.19,-480,OK
2025-08-12 14:22,-12.9,91.58,-87.18,110.19,-480,OK
2025-08-12 14:22,-10.32,91.58,-84.24,110.19,-480,OK
2025-08-12 14:22,-9.68,91.58,-77.19,110.19,-480,OK
2025-08-12 14:22,-9.5,91.58,-66.47,110.19,-480,OK
2025-08-12 14:22,-8.74,91.58,-55.72,110.19,-480,OK
2025-08-12 14:22,-10.7,91.58,-44.78,110.19,-480,OK
2025-08-12 14:22,-12.09,91.58,-33.28,110.19,-480,OK
2025-08-12 14:22,-11.82,91.58,-21.38,110.19,-480,OK
2025-08-12 14:22,-11.31,91.58,-10.91,110.19,-480,OK
2025-08-12 14:22,-10.41,91.58,-1.06,110.19,-480,OK
2025-08-12 14:22,-7.98,91.58,7.56,110.19,-480,OK
2025-08-12 14:22,-7.42,91.58,13.37,110.19,-480,OK
2025-08-12 14:22,-6.96,91.58,16.19,110.19,-480,OK
2025-08-12 14:22,-6.81,91.58,20.63,110.19,-480,OK
2025-08-12 14:22,-4.82,91.58,27.85,110.19,-480,OK
2025-08-12 14:22,-2,91.58,39.48,110.19,-480,OK
2025-08-12 14:22,4.94,91.58,59.83,110.19,-480,OK
2025-08-12 14:22,13.9,91.58,89.22,110.19,-480,OK
2025-08-12 14:22,25.76,91.58,126.17,110.19,-480,OK
2025-08-12 14:22,38.52,91.58,167.17,110.19,-480,OK
2025-08-12 14:22,51.76,91.58,212.13,110.19,-480,OK
2025-08-12 14:22,65.45,91.58,255.82,110.19,-480,OK
2025-08-12 14:22,76.38,91.58,291.88,110.19,-480,OK
2025-08-12 14:22,87.66,91.58,318.46,110.19,-480,OK
2025-08-12 14:22,95.26,91.58,335.74,110.19,-480,OK
2025-08-12 14:22,101.08,91.58,341.08,110.19,-480,OK
2025-08-12 14:22,103.29,91.58,333.55,110.19,-480,OK
2025-08-12 14:22,104.4,91.58,316.29,110.19,-480,OK
2025-08-12 14:22,100.84,91.58,289.75,110.19,-480,OK
2025-08-12 14:22,93.04,91.58,255.19,110.19,-480,OK
2025-08-12 14:22,83.95,91.58,212.84,110.19,-480,OK
2025-08-12 14:22,73.36,91.58,166.85,110.19,-480,OK
2025-08-12 14:22,63.25,91.58,118.3,110.19,-480,OK
2025-08-12 14:22,52.07,91.58,71.31,110.19,-480,OK
2025-08-12 14:22,43.98,91.58,26.82,110.19,-480,OK
2025-08-12 14:22,35.28,91.58,-11.89,110.19,-480,OK
2025-08-12 14:22,25.29,91.58,-46.41,110.19,-480,OK
2025-08-12 14:22,15.18,91.58,-74.19,110.19,-480,OK
2025-08-12 14:22,5.36,91.58,-95.31,110.19,-480,OK
2025-08-12 14:22,-6.34,91.58,-110.56,110.19,-480,OK
2025-08-12 14:22,-18.38,91.58,-121.24,110.19,-480,OK
2025-08-12 14:22,-29.29,91.58,-125.98,110.19,-480,OK
2025-08-12 14:22,-40.11,91.58,-126.29,110.19,-480,OK
2025-08-12 14:22,-49.39,91.58,-124.69,110.19,-480,OK
2025-08-12 14:22,-55.58,91.58,-120.56,110.19,-480,OK
2025-08-12 14:22,-59.97,91.58,-112.92,110.19,-480,OK
2025-08-12 14:22,-62.75,91.58,-104.75,110.19,-480,OK
2025-08-12 14:22,-63.99,91.58,-95.36,110.19,-480,OK
2025-08-12 14:22,-63.57,91.58,-86.59,110.19,-480,OK
2025-08-12 14:22,-63.09,91.58,-79.03,110.19,-480,OK
2025-08-12 14:22,-61.28,91.58,-75.74,110.19,-480,OK
2025-08-12 14:22,-57.14,91.58,-75.45,110.19,-480,OK
2025-08-12 14:22,-52.29,91.58,-77.67,110.19,-480,OK
2025-08-12 14:22,-46.45,91.58,-81.17,110.19,-480,OK
2025-08-12 14:22,-38.96,91.58,-85.5,110.19,-480,OK
2025-08-12 14:22,-31.28,91.58,-90.45,110.19,-480,OK
2025-08-12 14:22,-24.28,91.58,-95.53,110.19,-480,OK
2025-08-12 14:22,-18.93,91.58,-100.73,110.19,-480,OK
2025-08-12 14:22,-14.05,91.58,-105.67,110.19,-480,OK
2025-08-12 14:22,-11.49,91.58,-110.98,110.19,-480,OK
2025-08-12 14:22,-11.42,91.58,-117.52,110.19,-480,OK
2025-08-12 14:22,-13.55,91.58,-120.9,110.19,-480,OK
2025-08-12 14:22,-17.27,91.58,-126.32,110.19,-480,OK
2025-08-12 14:22,-21.74,91.58,-131.79,110.19,-480,OK
2025-08-12 14:22,-26.45,91.58,-137.46,110.19,-480,OK
2025-08-12 14:22,-30.59,91.58,-139.02,110.19,-480,OK
2025-08-12 14:22,-36.05,91.58,-144.66,110.19,-480,OK
2025-08-12 14:22,-41.58,91.58,-148.03,110.19,-480,OK
2025-08-12 14:22,-49.2,91.58,-151.34,110.19,-480,OK
2025-08-12 14:22,-56.52,91.58,-153.28,110.19,-480,OK
2025-08-12 14:22,-64.05,91.58,-154.46,110.19,-480,OK
2025-08-12 14:22,-70.12,91.58,-155.4,110.19,-480,OK
2025-08-12 14:22,-74.36,91.58,-154.48,110.19,-480,OK
2025-08-12 14:22,-76.78,91.58,-151.63,110.19,-480,OK
2025-08-12 14:22,-77.17,91.58,-146.01,110.19,-480,OK
2025-08-12 14:22,-77.87,91.58,-139.68,110.19,-480,OK
2025-08-12 14:22,-76.58,91.58,-129.45,110.19,-480,OK
2025-08-12 14:22,-76.3,91.58,-115.73,110.19,-480,OK
2025-08-12 14:22,-76.21,91.58,-101.76,110.19,-480,OK
2025-08-12 14:22,-77.71,91.58,-86.1,110.19,-480,OK
2025-08-12 14:22,-78.91,91.58,-68.77,110.19,-480,OK
2025-08-12 14:22,-81.81,91.58,-53.76,110.19,-480,OK
2025-08-12 14:22,-81.44,91.58,-41.13,110.19,-480,OK
2025-08-12 14:22,-84.26,91.58,-28.18,110.19,-480,OK
2025-08-12 14:22,-87.26,91.58,-18.63,110.19,-480,OK
2025-08-12 14:22,-89.25,91.58,-12.75,110.19,-480,OK
2025-08-12 14:22,-90.34,91.58,-9.68,110.19,-480,OK
2025-08-12 14:22,-93.05,91.58,-7.34,110.19,-480,OK
2025-08-12 14:22,-90.76,91.58,-2.91,110.19,-480,OK
2025-08-12 14:22,-84.11,91.58,6.54,110.19,-480,OK
2025-08-12 14:22,-71.66,91.58,22.24,110.19,-480,OK
2025-08-12 14:22,-52.93,91.58,50.83,110.19,-480,OK
2025-08-12 14:22,-26.7,91.58,86.89,110.19,-480,OK
2025-08-12 14:22,5.89,91.58,128.49,110.19,-480,OK
2025-08-12 14:22,42.99,91.58,171.93,110.19,-480,OK
2025-08-12 14:22,79.1,91.58,216.82,110.19,-480,OK
2025-08-12 14:22,115,91.58,254.78,110.19,-480,OK
2025-08-12 14:22,144.82,86.15,286.22,110.19,-760,OK
2025-08-12 14:22,167.97,86.15,306.64,110.19,-760,OK
2025-08-12 14:22,185.73,86.15,314.72,110.19,-760,OK
2025-08-12 14:22,198.85,86.15,308.11,110.19,-760,OK
2025-08-12 14:22,202.63,86.15,291.25,110.19,-760,OK
2025-08-12 14:22,201.24,86.15,260.59,110.19,-760,OK
2025-08-12 14:22,195.67,86.15,223.76,110.19,-760,OK
2025-08-12 14:22,184.54,86.15,180.81,110.19,-760,OK
2025-08-12 14:22,169.65,86.15,137.09,110.19,-760,OK
2025-08-12 14:22,151.77,86.15,92.41,110.19,-760,OK
2025-08-12 14:22,132.08,86.15,50.68,110.19,-760,OK
2025-08-12 14:22,110.53,86.15,9.87,110.19,-760,OK
2025-08-12 14:22,87.07,86.15,-26.27,110.19,-760,OK
2025-08-12 14:22,60.62,86.15,-59.79,110.19,-760,OK
2025-08-12 14:22,35.73,86.15,-87.31,110.19,-760,OK
2025-08-12 14:22,12.64,86.15,-109.83,110.19,-760,OK
2025-08-12 14:22,-8.63,86.15,-128.17,110.19,-760,OK
2025-08-12 14:22,-26.6,86.15,-140.04,110.19,-760,OK
2025-08-12 14:22,-39.93,86.15,-147.83,110.19,-760,OK
2025-08-12 14:22,-49.4,86.15,-151.2,110.19,-760,OK
2025-08-12 14:22,-57,86.15,-148.13,110.19,-760,OK
2025-08-12 14:22,-62.2,86.15,-142.48,110.19,-760,OK
2025-08-12 14:22,-66.54,86.15,-134.62,110.19,-760,OK
2025-08-12 14:22,-68.61,86.15,-123.19,110.19,-760,OK
2025-08-12 14:22,-68.28,86.15,-110.54,110.19,-760,OK
2025-08-12 14:22,-66.02,86.15,-101.04,110.19,-760,OK
2025-08-12 14:22,-62.05,86.15,-89.01,110.19,-760,OK
2025-08-12 14:22,-56.67,86.15,-77.26,110.19,-760,OK
2025-08-12 14:22,-49.91,86.15,-68.4,110.19,-760,OK
2025-08-12 14:22,-43.11,86.15,-59.98,110.19,-760,OK
2025-08-12 14:22,-35.78,86.15,-50.43,110.19,-760,OK
2025-08-12 14:22,-27.1,86.15,-43.12,110.19,-760,OK
2025-08-12 14:22,-18.6,86.15,-36.13,110.19,-760,OK
2025-08-12 14:22,-9.73,86.15,-31.93,110.19,-760,OK
2025-08-12 14:22,-2.62,86.15,-29.68,110.19,-760,OK
2025-08-12 14:22,3.36,86.15,-28.64,110.19,-760,OK
2025-08-12 14:22,7.84,86.15,-29.87,110.19,-760,OK
2025-08-12 14:22,12.24,86.15,-33.69,110.19,-760,OK
2025-08-12 14:22,13.61,86.15,-39,110.19,-760,OK
2025-08-12 14:22,14.06,86.15,-44.91,110.19,-760,OK
2025-08-12 14:22,13.23,86.15,-51.4,110.19,-760,OK
2025-08-12 14:22,10.06,86.15,-57.09,110.19,-760,OK
2025-08-12 14:22,4.62,86.15,-62.37,110.19,-760,OK
2025-08-12 14:22,-3.51,86.15,-65.41,110.19,-760,OK
2025-08-12 14:22,-10.89,86.15,-69.31,110.19,-760,OK
2025-08-12 14:22,-17.87,86.15,-72.26,110.19,-760,OK
2025-08-12 14:22,-24.97,86.15,-77.37,110.19,-760,OK
2025-08-12 14:22,-31.54,86.15,-79.72,110.19,-760,OK
2025-08-12 14:22,-35.24,86.15,-81.23,110.19,-760,OK
2025-08-12 14:22,-40.18,86.15,-82.46,110.19,-760,OK
2025-08-12 14:22,-43.96,86.15,-81.01,110.19,-760,OK
2025-08-12 14:22,-46.53,86.15,-77.05,110.19,-760,OK
2025-08-12 14:22,-49.81,86.15,-76.55,110.19,-760,OK
2025-08-12 14:22,-53.49,86.15,-73.71,110.19,-760,OK
2025-08-12 14:22,-54.91,86.15,-68.7,110.19,-760,OK
2025-08-12 14:22,-61.21,86.15,-65.46,110.19,-760,OK
2025-08-12 14:22,-67.02,86.15,-61.9,110.19,-760,OK
2025-08-12 14:22,-73.25,86.15,-55.5,110.19,-760,OK
2025-08-12 14:22,-75.98,86.15,-49.53,110.19,-760,OK
2025-08-12 14:22,-81.28,86.15,-43.64,110.19,-760,OK
2025-08-12 14:22,-81.82,86.15,-37.7,110.19,-760,OK
2025-08-12 14:22,-80.97,86.15,-31.14,110.19,-760,OK
2025-08-12 14:22,-77.19,86.15,-26.48,110.19,-760,OK
2025-08-12 14:22,-72.48,86.15,-18.8,110.19,-760,OK
2025-08-12 14:22,-61.55,86.15,-6.82,110.19,-760,OK
2025-08-12 14:22,-45.68,86.15,12.09,110.19,-760,OK
2025-08-12 14:22,-25.18,86.15,38.91,110.19,-760,OK
2025-08-12 14:22,3.28,86.15,75.55,110.19,-760,OK
2025-08-12 14:22,34.98,86.15,118.58,110.19,-760,OK
2025-08-12 14:22,68.45,86.15,165.83,110.19,-760,OK
2025-08-12 14:22,103.35,86.15,212.49,109.94,-760,OK
2025-08-12 14:22,134.41,86.83,255.51,109.94,-10,OK
2025-08-12 14:22,160.71,86.83,291.12,109.94,-10,OK
2025-08-12 14:22,180.25,86.83,317.56,109.94,-10,OK
2025-08-12 14:22,192.61,86.83,330.9,109.94,-10,OK
2025-08-12 14:22,194.95,86.83,330.28,109.94,-10,OK
2025-08-12 14:22,191.69,86.83,316.92,109.94,-10,OK
2025-08-12 14:22,181.86,86.83,292.53,109.94,-10,OK
2025-08-12 14:22,167.23,86.83,257.28,109.94,-10,OK
2025-08-12 14:22,149.95,86.83,211.95,109.94,-10,OK
2025-08-12 14:22,132.44,86.83,164.16,109.94,-10,OK
2025-08-12 14:22,112.48,86.83,114.16,109.94,-10,OK
2025-08-12 14:22,90.53,86.83,62.64,109.94,-10,OK
2025-08-12 14:22,68.28,86.83,12.22,109.94,-10,OK
2025-08-12 14:22,45.34,86.83,-34.14,109.94,-10,OK
2025-08-12 14:22,22.26,86.83,-78.98,109.94,-10,OK
2025-08-12 14:22,1.86,86.83,-117.96,109.94,-10,OK
2025-08-12 14:22,-17.16,86.83,-152.52,109.94,-10,OK
2025-08-12 14:22,-32.63,86.83,-181.87,109.94,-10,OK
2025-08-12 14:22,-45.58,86.83,-203.43,109.94,-10,OK
2025-08-12 14:22,-54.33,86.83,-217.26,109.94,-10,OK
2025-08-12 14:22,-61.35,86.83,-227.19,109.94,-10,OK
2025-08-12 14:22,-66,86.83,-230.4,109.94,-10,OK
2025-08-12 14:22,-69.31,86.83,-229.09,109.94,-10,OK
2025-08-12 14:22,-70.03,86.83,-222.75,109.94,-10,OK
2025-08-12 14:22,-70.75,86.83,-212.71,109.94,-10,OK
2025-08-12 14:22,-70.89,86.83,-200.43,109.94,-10,OK
2025-08-12 14:22,-71.3,86.83,-182.53,109.94,-10,OK
2025-08-12 14:22,-69.5,86.83,-161.75,109.94,-10,OK
2025-08-12 14:22,-69.12,86.83,-143.38,109.94,-10,OK
2025-08-12 14:22,-67.8,86.83,-126.21,109.94,-10,OK
2025-08-12 14:22,-62.85,86.83,-107.58,109.94,-10,OK
2025-08-12 14:22,-55.14,86.83,-94.26,109.94,-10,OK
2025-08-12 14:22,-48.09,86.83,-84.58,109.94,-10,OK
2025-08-12 14:22,-37.77,86.83,-74.15,109.94,-10,OK
2025-08-12 14:22,-27.67,86.83,-68.26,109.94,-10,OK
2025-08-12 14:22,-21.74,86.83,-63.94,109.94,-10,OK
2025-08-12 14:22,-17.16,86.83,-62.26,109.94,-10,OK
2025-08-12 14:22,-13.43,86.83,-61.74,109.94,-10,OK
2025-08-12 14:22,-14.12,86.83,-63.7,109.94,-10,OK
2025-08-12 14:22,-17.02,86.83,-65.96,109.94,-10,OK
2025-08-12 14:22,-18.62,86.83,-70.81,109.94,-10,OK
2025-08-12 14:22,-22.01,86.83,-75.32,109.94,-10,OK
2025-08-12 14:22,-27.69,86.83,-79.07,109.94,-10,OK
2025-08-12 14:22,-32.25,86.83,-82.17,109.94,-10,OK
2025-08-12 14:22,-36.17,86.83,-85.7,109.94,-10,OK
2025-08-12 14:22,-41.01,86.83,-87.49,109.94,-10,OK
2025-08-12 14:22,-46.57,86.83,-87.36,109.94,-10,OK
2025-08-12 14:22,-47.01,86.83,-88.08,109.94,-10,OK
2025-08-12 14:22,-48.94,86.83,-88.33,109.94,-10,OK
2025-08-12 14:22,-49.21,86.83,-86.22,109.94,-10,OK
2025-08-12 14:22,-49.62,86.83,-84.75,109.94,-10,OK
2025-08-12 14:22,-47.91,86.83,-85.2,109.94,-10,OK
2025-08-12 14:22,-48.94,86.83,-83.01,109.94,-10,OK
2025-08-12 14:22,-48.37,86.83,-81.62,109.94,-10,OK
2025-08-12 14:22,-48.13,86.83,-79.81,109.94,-10,OK
2025-08-12 14:22,-47.41,86.83,-76.29,109.94,-10,OK
2025-08-12 14:22,-46.64,86.83,-71.61,109.94,-10,OK
2025-08-12 14:22,-46.21,86.83,-68.13,109.94,-10,OK
2025-08-12 14:22,-44.21,86.83,-63.23,109.94,-10,OK
2025-08-12 14:22,-46.34,86.83,-58.32,109.94,-10,OK
2025-08-12 14:22,-46.62,86.83,-54.86,109.94,-10,OK
2025-08-12 14:22,-48.46,86.83,-52.58,109.94,-10,OK
2025-08-12 14:22,-50,86.83,-49.3,109.94,-10,OK
2025-08-12 14:22,-51.02,86.83,-44.1,109.94,-10,OK
2025-08-12 14:22,-46.77,86.83,-35.6,109.94,-10,OK
2025-08-12 14:22,-38.72,86.83,-20.87,109.94,-10,OK
2025-08-12 14:22,-21.24,86.83,3.62,109.94,-10,OK
2025-08-12 14:22,2.36,86.83,37.06,109.94,-10,OK
2025-08-12 14:22,31.64,86.83,79.86,109.94,-10,OK
2025-08-12 14:22,66.7,86.83,131.15,109.94,-10,OK
2025-08-12 14:22,102.58,86.83,184.6,109.94,-10,OK
2025-08-12 14:22,134.86,86.83,238.68,115.99,-10,OK
2025-08-12 14:22,163.28,86.83,285.51,115.99,-390,OK
2025-08-12 14:22,183.81,86.83,322.76,115.99,-390,OK
2025-08-12 14:22,197.48,86.83,346.59,115.99,-390,OK
2025-08-12 14:22,202.86,86.83,358.2,115.99,-390,OK
2025-08-12 14:22,200.49,86.83,355.89,115.99,-390,OK
2025-08-12 14:22,191.07,86.83,343.28,115.99,-390,OK
2025-08-12 14:22,177.1,86.83,318.27,115.99,-390,OK
2025-08-12 14:22,156.69,86.83,286.05,115.99,-390,OK
2025-08-12 14:22,133.29,86.83,245.99,115.99,-390,OK
2025-08-12 14:22,107.74,86.83,200.37,115.99,-390,OK
2025-08-12 14:22,79.8,86.83,151.67,115.99,-390,OK
2025-08-12 14:22,51.73,86.83,102.88,115.99,-390,OK
2025-08-12 14:22,25.74,86.83,55.22,115.99,-390,OK
2025-08-12 14:22,-0.3,86.83,10.59,115.99,-390,OK
2025-08-12 14:22,-24.86,86.83,-31.46,115.99,-390,OK
2025-08-12 14:22,-45.48,86.83,-67.92,115.99,-390,OK
2025-08-12 14:22,-64.18,86.83,-99.28,115.99,-390,OK
2025-08-12 14:22,-82.65,86.83,-127.52,115.99,-390,OK
2025-08-12 14:22,-95.87,86.83,-149.66,115.99,-390,OK
2025-08-12 14:22,-106.14,86.83,-164.44,115.99,-390,OK
2025-08-12 14:22,-114.52,86.83,-175.82,115.99,-390,OK
2025-08-12 14:22,-119.96,86.83,-180.29,115.99,-390,OK
2025-08-12 14:22,-123.15,86.83,-178.94,115.99,-390,OK
2025-08-12 14:22,-125.04,86.83,-172.05,115.99,-390,OK
2025-08-12 14:22,-125.02,86.83,-161.75,115.99,-390,OK
2025-08-12 14:22,-122.13,86.83,-146.14,115.99,-390,OK
2025-08-12 14:22,-117.65,86.83,-129.86,115.99,-390,OK
2025-08-12 14:22,-111.96,86.83,-111.22,115.99,-390,OK
2025-08-12 14:22,-105.47,86.83,-94.96,115.99,-390,OK
2025-08-12 14:22,-98.16,86.83,-78.85,115.99,-390,OK
2025-08-12 14:22,-90.8,86.83,-66,115.99,-390,OK
2025-08-12 14:22,-81.74,86.83,-55.05,115.99,-390,OK
2025-08-12 14:22,-71.79,86.83,-46.56,115.99,-390,OK
2025-08-12 14:22,-62.22,86.83,-40.79,115.99,-390,OK
2025-08-12 14:22,-51.53,86.83,-38.79,115.99,-390,OK
2025-08-12 14:22,-41.61,86.83,-38.38,115.99,-390,OK
2025-08-12 14:22,-32.09,86.83,-40.19,115.99,-390,OK
2025-08-12 14:22,-24.06,86.83,-44.75,115.99,-390,OK
2025-08-12 14:22,-16.41,86.83,-48.24,115.99,-390,OK
2025-08-12 14:22,-13.51,86.83,-53.43,115.99,-390,OK
2025-08-12 14:22,-10.81,86.83,-60.47,115.99,-390,OK
2025-08-12 14:22,-13.23,86.83,-67.4,115.99,-390,OK
2025-08-12 14:22,-16.33,86.83,-75.6,115.99,-390,OK
2025-08-12 14:22,-21.43,86.83,-82.74,115.99,-390,OK
2025-08-12 14:22,-27.26,86.83,-90.28,115.99,-390,OK
2025-08-12 14:22,-35.39,86.83,-93.58,115.99,-390,OK
2025-08-12 14:22,-41.27,86.83,-98.31,115.99,-390,OK
2025-08-12 14:22,-44.38,86.83,-100.43,115.99,-390,OK
2025-08-12 14:22,-47.85,86.83,-103.16,115.99,-390,OK
2025-08-12 14:22,-48.75,86.83,-103.35,115.99,-390,OK
2025-08-12 14:22,-46.8,86.83,-104.24,115.99,-390,OK
2025-08-12 14:22,-43.93,86.83,-101.62,115.99,-390,OK
2025-08-12 14:22,-43.91,86.83,-97.99,115.99,-390,OK
2025-08-12 14:22,-41.25,86.83,-92.52,115.99,-390,OK
2025-08-12 14:22,-38.64,86.83,-85.44,115.99,-390,OK
2025-08-12 14:22,-36.26,86.83,-77.07,115.99,-390,OK
2025-08-12 14:22,-35.21,86.83,-68.52,115.99,-390,OK
2025-08-12 14:22,-32.59,86.83,-60.12,115.99,-390,OK
2025-08-12 14:22,-31.49,86.83,-52,115.99,-390,OK
2025-08-12 14:22,-27.47,86.83,-43.48,115.99,-390,OK
2025-08-12 14:22,-25.03,86.83,-36.4,115.99,-390,OK
2025-08-12 14:22,-18.63,86.83,-29.95,115.99,-390,OK
2025-08-12 14:22,-9.27,86.83,-21.73,115.99,-390,OK
2025-08-12 14:22,3.16,86.83,-13.73,115.99,-390,OK
2025-08-12 14:22,19.76,86.83,-2.41,115.99,-390,OK
2025-08-12 14:22,39.19,86.83,12.77,115.99,-390,OK
2025-08-12 14:22,61.53,86.83,35.83,115.99,-390,OK
2025-08-12 14:22,88.02,86.83,66.39,115.99,-390,OK
2025-08-12 14:22,118.53,86.83,105.62,115.99,-390,OK
2025-08-12 14:22,148.51,86.83,150.39,115.99,-390,OK
2025-08-12 14:22,181.26,68.68,199.07,115.99,-390,OK
2025-08-12 14:22,210.88,68.68,245.37,116.44,10,OK
2025-08-12 14:22,235.94,68.68,289.09,116.44,10,OK
2025-08-12 14:22,253.08,68.68,323.63,116.44,10,OK
2025-08-12 14:22,262.98,68.68,346.16,116.44,10,OK
2025-08-12 14:22,266.29,68.68,357.24,116.44,10,OK
2025-08-12 14:22,262.25,68.68,354.72,116.44,10,OK
2025-08-12 14:22,251.25,68.68,338.48,116.44,10,OK
2025-08-12 14:22,236.75,68.68,311.47,116.44,10,OK
2025-08-12 14:22,219.24,68.68,278.46,116.44,10,OK
2025-08-12 14:22,197.64,68.68,237.07,116.44,10,OK
2025-08-12 14:22,176.17,68.68,190.99,116.44,10,OK
2025-08-12 14:22,154.63,68.68,142.35,116.44,10,OK
2025-08-12 14:22,131.15,68.68,95.75,116.44,10,OK
2025-08-12 14:22,106.89,68.68,48.15,116.44,10,OK
2025-08-12 14:22,84.44,68.68,5.83,116.44,10,OK
2025-08-12 14:22,59.63,68.68,-29.76,116.44,10,OK
2025-08-12 14:22,35.43,68.68,-62.93,116.44,10,OK
2025-08-12 14:22,13.93,68.68,-91.77,116.44,10,OK
2025-08-12 14:22,-5.95,68.68,-116.86,116.44,10,OK
2025-08-12 14:22,-24.68,68.68,-136.13,116.44,10,OK
2025-08-12 14:22,-37.67,68.68,-153.62,116.44,10,OK
2025-08-12 14:22,-49.57,68.68,-164.05,116.44,10,OK
2025-08-12 14:22,-59.1,68.68,-171.69,116.44,10,OK
2025-08-12 14:22,-64.47,68.68,-172.61,116.44,10,OK
2025-08-12 14:22,-67.78,68.68,-171.85,116.44,10,OK
2025-08-12 14:22,-69.38,68.68,-164.67,116.44,10,OK
2025-08-12 14:22,-67.91,68.68,-156.15,116.44,10,OK
2025-08-12 14:22,-64.02,68.68,-143.24,116.44,10,OK
2025-08-12 14:22,-59.47,68.68,-130.46,116.44,10,OK
2025-08-12 14:22,-53.34,68.68,-115.42,116.44,10,OK
2025-08-12 14:22,-47.04,68.68,-100.84,116.44,10,OK
2025-08-12 14:22,-39.08,68.68,-87.71,116.44,10,OK
2025-08-12 14:22,-31.77,68.68,-75.99,116.44,10,OK
2025-08-12 14:22,-25.94,68.68,-65.24,116.44,10,OK
2025-08-12 14:22,-21.5,68.68,-57.97,116.44,10,OK
2025-08-12 14:22,-16.5,68.68,-54.02,116.44,10,OK
2025-08-12 14:22,-15.05,68.68,-49.09,116.44,10,OK
2025-08-12 14:22,-13.93,68.68,-47.96,116.44,10,OK
2025-08-12 14:22,-14.7,68.68,-47.61,116.44,10,OK
2025-08-12 14:22,-15.84,68.68,-49.83,116.44,10,OK
2025-08-12 14:22,-19.28,68.68,-52.91,116.44,10,OK
2025-08-12 14:22,-23.08,68.68,-60.66,116.44,10,OK
2025-08-12 14:22,-28.17,68.68,-68.14,116.44,10,OK
2025-08-12 14:22,-31.33,68.68,-76.32,116.44,10,OK
2025-08-12 14:22,-34.34,68.68,-82.92,116.44,10,OK
2025-08-12 14:22,-38.51,68.68,-87.78,116.44,10,OK
2025-08-12 14:22,-44.61,68.68,-91.91,116.44,10,OK
2025-08-12 14:22,-51.48,68.68,-93.99,116.44,10,OK
2025-08-12 14:22,-60.37,68.68,-95.06,116.44,10,OK
2025-08-12 14:22,-70.31,68.68,-95.39,116.44,10,OK
2025-08-12 14:22,-81.58,68.68,-94.59,116.44,10,OK
2025-08-12 14:22,-90.75,68.68,-90.43,116.44,10,OK
2025-08-12 14:22,-97.14,68.68,-85.74,116.44,10,OK
2025-08-12 14:22,-103.95,68.68,-79.95,116.44,10,OK
2025-08-12 14:22,-108.9,68.68,-73.8,116.44,10,OK
2025-08-12 14:22,-110.29,68.68,-67.63,116.44,10,OK
2025-08-12 14:22,-110.71,68.68,-60.79,116.44,10,OK
2025-08-12 14:22,-110.38,68.68,-53.67,116.44,10,OK
2025-08-12 14:22,-108.83,68.68,-48.78,116.44,10,OK
2025-08-12 14:22,-106.3,68.68,-42.52,116.44,10,OK
2025-08-12 14:22,-102.94,68.68,-37.09,116.44,10,OK
2025-08-12 14:22,-98.42,68.68,-31.75,116.44,10,OK
2025-08-12 14:22,-96.47,68.68,-29.36,116.44,10,OK
2025-08-12 14:22,-93.06,68.68,-24.9,116.44,10,OK
2025-08-12 14:22,-88.82,68.68,-23.75,116.44,10,OK
2025-08-12 14:22,-82.52,68.68,-21.32,116.44,10,OK
2025-08-12 14:22,-74.38,68.68,-14.82,116.44,10,OK
2025-08-12 14:22,-59.25,68.68,-3.64,116.44,10,OK
2025-08-12 14:22,-36.89,68.68,14.83,116.44,10,OK
2025-08-12 14:22,-7.82,68.68,45.5,116.44,10,OK
2025-08-12 14:22,24.38,68.68,86.37,116.44,10,OK
2025-08-12 14:22,58.93,68.68,131.07,116.44,10,OK
2025-08-12 14:22,93.03,68.68,183.85,116.44,10,OK
2025-08-12 14:22,123.29,74.98,236.4,116.44,10,OK
2025-08-12 14:22,148.89,74.98,283.45,116.66,10,OK
2025-08-12 14:22,167.63,74.98,321.7,116.66,10,OK
2025-08-12 14:22,181.31,74.98,351.67,116.66,10,OK
2025-08-12 14:22,185.94,74.98,366.07,116.66,10,OK
2025-08-12 14:22,185.76,74.98,367,116.66,10,OK
2025-08-12 14:22,178.34,74.98,353.82,116.66,10,OK
2025-08-12 14:22,167.28,74.98,329.65,116.66,10,OK
2025-08-12 14:22,152.23,74.98,296.01,116.66,10,OK
2025-08-12 14:22,135.34,74.98,256.88,116.66,10,OK
2025-08-12 14:22,115.05,74.98,210.99,116.66,10,OK
2025-08-12 14:22,91.95,74.98,163.72,116.66,10,OK
2025-08-12 14:22,70.48,74.98,115.28,116.66,10,OK
2025-08-12 14:22,49.92,74.98,66.98,116.66,10,OK
2025-08-12 14:22,30.25,74.98,19.74,116.66,10,OK
2025-08-12 14:22,12.08,74.98,-21.03,116.66,10,OK
2025-08-12 14:22,-1.71,74.98,-55.98,116.66,10,OK
2025-08-12 14:22,-13.66,74.98,-84.82,116.66,10,OK
2025-08-12 14:22,-24.68,74.98,-111.17,116.66,10,OK
2025-08-12 14:22,-32.91,74.98,-131.18,116.66,10,OK
2025-08-12 14:22,-38.27,74.98,-147.85,116.66,10,OK
2025-08-12 14:22,-41.69,74.98,-159.92,116.66,10,OK
2025-08-12 14:22,-46.66,74.98,-169.8,116.66,10,OK
2025-08-12 14:22,-48.63,74.98,-174.46,116.66,10,OK
2025-08-12 14:22,-50.54,74.98,-173.53,116.66,10,OK
2025-08-12 14:22,-52.34,74.98,-168.52,116.66,10,OK
2025-08-12 14:22,-54.32,74.98,-161.73,116.66,10,OK
2025-08-12 14:22,-53.94,74.98,-152.78,116.66,10,OK
2025-08-12 14:22,-51.87,74.98,-140.34,116.66,10,OK
2025-08-12 14:22,-49.41,74.98,-128.88,116.66,10,OK
2025-08-12 14:22,-45.99,74.98,-117.43,116.66,10,OK
2025-08-12 14:22,-42.96,74.98,-106.53,116.66,10,OK
2025-08-12 14:22,-39.3,74.98,-96.13,116.66,10,OK
2025-08-12 14:22,-37.31,74.98,-87.09,116.66,10,OK
2025-08-12 14:22,-33.87,74.98,-80.39,116.66,10,OK
2025-08-12 14:22,-31.33,74.98,-75.75,116.66,10,OK
2025-08-12 14:22,-27.99,74.98,-72.19,116.66,10,OK
2025-08-12 14:22,-26.93,74.98,-69.73,116.66,10,OK
2025-08-12 14:22,-27.33,74.98,-69.91,116.66,10,OK
2025-08-12 14:22,-27.75,74.98,-70.22,116.66,10,OK
2025-08-12 14:22,-30.04,74.98,-69.38,116.66,10,OK
2025-08-12 14:22,-32.19,74.98,-69.91,116.66,10,OK
2025-08-12 14:22,-35.12,74.98,-69.18,116.66,10,OK
2025-08-12 14:22,-37.19,74.98,-69.66,116.66,10,OK
2025-08-12 14:22,-42.48,74.98,-68.12,116.66,10,OK
2025-08-12 14:22,-46.49,74.98,-69.51,116.66,10,OK
2025-08-12 14:22,-51.79,74.98,-70.24,116.66,10,OK
2025-08-12 14:22,-56.88,74.98,-70.65,116.66,10,OK
2025-08-12 14:22,-61.49,74.98,-70.58,116.66,10,OK
2025-08-12 14:22,-65.42,74.98,-69.89,116.66,10,OK
2025-08-12 14:22,-66.92,74.98,-69.14,116.66,10,OK
2025-08-12 14:22,-68.38,74.98,-67.36,116.66,10,OK
2025-08-12 14:22,-66.89,74.98,-65.9,116.66,10,OK
2025-08-12 14:22,-66.27,74.98,-61.33,116.66,10,OK
2025-08-12 14:22,-62.58,74.98,-58.05,116.66,10,OK
2025-08-12 14:22,-60.56,74.98,-53.02,116.66,10,OK
2025-08-12 14:22,-56.27,74.98,-46.55,116.66,10,OK
2025-08-12 14:22,-51.07,74.98,-38.57,116.66,10,OK
2025-08-12 14:22,-45.27,74.98,-31.95,116.66,10,OK
2025-08-12 14:22,-39.86,74.98,-24.93,116.66,10,OK
2025-08-12 14:22,-33.41,74.98,-18.05,116.66,10,OK
2025-08-12 14:22,-29.03,74.98,-11.38,116.66,10,OK
2025-08-12 14:22,-27.62,74.98,-6.56,116.66,10,OK
2025-08-12 14:22,-26.15,74.98,-3.37,116.66,10,OK
2025-08-12 14:22,-24.23,74.98,-0.3,116.66,10,OK
2025-08-12 14:22,-25.64,74.98,2.5,116.66,10,OK
2025-08-12 14:22,-25.54,74.98,3.92,116.66,10,OK
2025-08-12 14:22,-23.83,74.98,5.74,116.66,10,OK
2025-08-12 14:22,-20.79,74.98,11.93,116.66,10,OK
2025-08-12 14:22,-13.83,74.98,22.46,116.66,10,OK
2025-08-12 14:22,1.11,74.98,40.11,116.66,10,OK
2025-08-12 14:22,20.15,74.98,66.03,116.66,10,OK
2025-08-12 14:22,44.87,74.98,102.17,116.66,10,OK
2025-08-12 14:22,72.96,74.98,145.21,116.66,10,OK
2025-08-12 14:22,101.65,74.98,191.57,116.66,10,OK
2025-08-12 14:22,129.02,74.98,239.13,116.66,10,OK
2025-08-12 14:22,153.06,74.98,283.01,115.76,10,OK
2025-08-12 14:22,171.81,82.51,318.21,115.76,-10,OK
2025-08-12 14:22,184.36,82.51,341.19,115.76,-10,OK
2025-08-12 14:22,189.43,82.51,351.93,115.76,-10,OK
2025-08-12 14:22,186.66,82.51,349.27,115.76,-10,OK
2025-08-12 14:22,177.85,82.51,334.23,115.76,-10,OK
2025-08-12 14:22,164.1,82.51,307.91,115.76,-10,OK
2025-08-12 14:22,146.8,82.51,274.24,115.76,-10,OK
2025-08-12 14:22,126.93,82.51,233.62,115.76,-10,OK
2025-08-12 14:22,107.13,82.51,190.63,115.76,-10,OK
2025-08-12 14:22,86.16,82.51,145.01,115.76,-10,OK
2025-08-12 14:22,67.61,82.51,100.98,115.76,-10,OK
2025-08-12 14:22,50.89,82.51,58.58,115.76,-10,OK
2025-08-12 14:22,35.39,82.51,19.2,115.76,-10,OK
2025-08-12 14:22,20,82.51,-18.33,115.76,-10,OK
2025-08-12 14:22,8.26,82.51,-50.84,115.76,-10,OK
2025-08-12 14:22,-5.49,82.51,-80.3,115.76,-10,OK
2025-08-12 14:22,-17.01,82.51,-102.43,115.76,-10,OK
2025-08-12 14:22,-26.39,82.51,-122.24,115.76,-10,OK
2025-08-12 14:22,-33.23,82.51,-136.21,115.76,-10,OK
2025-08-12 14:22,-39.92,82.51,-145.99,115.76,-10,OK
2025-08-12 14:22,-42.95,82.51,-152.09,115.76,-10,OK
2025-08-12 14:22,-46.47,82.51,-156.35,115.76,-10,OK
2025-08-12 14:22,-48.43,82.51,-153.92,115.76,-10,OK
2025-08-12 14:22,-50.17,82.51,-149.82,115.76,-10,OK
2025-08-12 14:22,-50.05,82.51,-142.56,115.76,-10,OK
2025-08-12 14:22,-48.19,82.51,-131.49,115.76,-10,OK
2025-08-12 14:22,-44.85,82.51,-121.17,115.76,-10,OK
2025-08-12 14:22,-41.39,82.51,-111.96,115.76,-10,OK
2025-08-12 14:22,-36.5,82.51,-101.72,115.76,-10,OK
2025-08-12 14:22,-31.86,82.51,-94.72,115.76,-10,OK
2025-08-12 14:22,-28.13,82.51,-89.68,115.76,-10,OK
2025-08-12 14:22,-25.01,82.51,-84.82,115.76,-10,OK
2025-08-12 14:22,-21.68,82.51,-80.48,115.76,-10,OK
2025-08-12 14:22,-18.96,82.51,-79.91,115.76,-10,OK
2025-08-12 14:22,-18.03,82.51,-79.78,115.76,-10,OK
2025-08-12 14:22,-15.94,82.51,-80.66,115.76,-10,OK
2025-08-12 14:22,-13.69,82.51,-82.32,115.76,-10,OK
2025-08-12 14:22,-13.76,82.51,-84.61,115.76,-10,OK
2025-08-12 14:22,-14.49,82.51,-87.03,115.76,-10,OK
2025-08-12 14:22,-15.56,82.51,-87.66,115.76,-10,OK
2025-08-12 14:22,-19.33,82.51,-88.68,115.76,-10,OK
2025-08-12 14:22,-22.91,82.51,-92.04,115.76,-10,OK
2025-08-12 14:22,-26.86,82.51,-93.99,115.76,-10,OK
2025-08-12 14:22,-31.57,82.51,-94.41,115.76,-10,OK
2025-08-12 14:22,-35.03,82.51,-96.88,115.76,-10,OK
2025-08-12 14:22,-37.6,82.51,-96.93,115.76,-10,OK
2025-08-12 14:22,-40.95,82.51,-93.75,115.76,-10,OK
2025-08-12 14:22,-44.25,82.51,-90.95,115.76,-10,OK
2025-08-12 14:22,-45.88,82.51,-86.52,115.76,-10,OK
2025-08-12 14:22,-46.66,82.51,-77.81,115.76,-10,OK
2025-08-12 14:22,-48.93,82.51,-71.95,115.76,-10,OK
2025-08-12 14:22,-49.96,82.51,-64.41,115.76,-10,OK
2025-08-12 14:22,-48.83,82.51,-57.37,115.76,-10,OK
2025-08-12 14:22,-47.18,82.51,-51.36,115.76,-10,OK
2025-08-12 14:22,-45.31,82.51,-47.11,115.76,-10,OK
2025-08-12 14:22,-42.78,82.51,-40.78,115.76,-10,OK
2025-08-12 14:22,-40.93,82.51,-34.43,115.76,-10,OK
2025-08-12 14:22,-38.5,82.51,-28.68,115.76,-10,OK
2025-08-12 14:22,-37.64,82.51,-23.53,115.76,-10,OK
2025-08-12 14:22,-38.09,82.51,-16.6,115.76,-10,OK
2025-08-12 14:22,-38.59,82.51,-11.44,115.76,-10,OK
2025-08-12 14:22,-39.32,82.51,-8.1,115.76,-10,OK
2025-08-12 14:22,-42,82.51,-4.17,115.76,-10,OK
2025-08-12 14:22,-44.29,82.51,-1.53,115.76,-10,OK
2025-08-12 14:22,-46.53,82.51,-2.34,115.76,-10,OK
2025-08-12 14:22,-47.92,82.51,-2.92,115.76,-10,OK
2025-08-12 14:22,-49.12,82.51,-4.09,115.76,-10,OK
2025-08-12 14:22,-47.11,82.51,-3,115.76,-10,OK
2025-08-12 14:22,-41.8,82.51,0.49,115.76,-10,OK
2025-08-12 14:22,-32.01,82.51,11.03,115.76,-10,OK
2025-08-12 14:22,-15.42,82.51,28.87,115.76,-10,OK
2025-08-12 14:22,8.58,82.51,56.73,115.76,-10,OK
2025-08-12 14:22,36.61,82.51,92.31,115.76,-10,OK
2025-08-12 14:22,66.51,82.51,136.61,115.76,-10,OK
2025-08-12 14:22,98.11,82.51,185,115.76,-10,OK
2025-08-12 14:22,126.7,82.51,232.88,115.76,-10,OK
2025-08-12 14:22,149.07,81.4,275.97,96.05,-10,OK
2025-08-12 14:22,166.05,81.4,311.13,96.05,-10,OK
2025-08-12 14:22,175.48,81.4,334.63,96.05,-10,OK
2025-08-12 14:22,177.99,81.4,344.21,96.05,-10,OK
2025-08-12 14:22,173.5,81.4,342.33,96.05,-10,OK
2025-08-12 14:22,164.03,81.4,327.36,96.05,-10,OK
2025-08-12 14:22,147.24,81.4,301.32,96.05,-10,OK
2025-08-12 14:22,129.02,81.4,267.96,96.05,-10,OK
2025-08-12 14:22,107.16,81.4,227.14,96.05,-10,OK
2025-08-12 14:22,83.98,81.4,181.2,96.05,-10,OK
2025-08-12 14:22,59.19,81.4,136.7,96.05,-10,OK
2025-08-12 14:22,37.43,81.4,92.61,96.05,-10,OK
2025-08-12 14:22,14.95,81.4,49.49,96.05,-10,OK
2025-08-12 14:22,-4.32,81.4,12.68,96.05,-10,OK
2025-08-12 14:22,-21.06,81.4,-19.16,96.05,-10,OK
2025-08-12 14:22,-33.76,81.4,-47.51,96.05,-10,OK
2025-08-12 14:22,-45.88,81.4,-71.94,96.05,-10,OK
2025-08-12 14:22,-55.28,81.4,-91.94,96.05,-10,OK
2025-08-12 14:22,-62.77,81.4,-108.54,96.05,-10,OK
2025-08-12 14:22,-68.97,81.4,-123.5,96.05,-10,OK
2025-08-12 14:22,-73.88,81.4,-134.9,96.05,-10,OK
2025-08-12 14:22,-76.15,81.4,-142.8,96.05,-10,OK
2025-08-12 14:22,-77.67,81.4,-146.15,96.05,-10,OK
2025-08-12 14:22,-78.33,81.4,-146.41,96.05,-10,OK
2025-08-12 14:22,-79.39,81.4,-142.81,96.05,-10,OK
2025-08-12 14:22,-78.36,81.4,-136.66,96.05,-10,OK
2025-08-12 14:22,-73.97,81.4,-128.22,96.05,-10,OK
2025-08-12 14:22,-69.12,81.4,-119.69,96.05,-10,OK
2025-08-12 14:22,-62.32,81.4,-110.73,96.05,-10,OK
2025-08-12 14:22,-54.72,81.4,-101.13,96.05,-10,OK
2025-08-12 14:22,-48.96,81.4,-92.85,96.05,-10,OK
2025-08-12 14:22,-44.09,81.4,-84.77,96.05,-10,OK
2025-08-12 14:22,-38.45,81.4,-78.28,96.05,-10,OK
2025-08-12 14:22,-35.03,81.4,-75.01,96.05,-10,OK
2025-08-12 14:22,-30.63,81.4,-72.96,96.05,-10,OK
2025-08-12 14:22,-24.62,81.4,-73.36,96.05,-10,OK
2025-08-12 14:22,-22.1,81.4,-74.33,96.05,-10,OK
2025-08-12 14:22,-19.64,81.4,-75.22,96.05,-10,OK
2025-08-12 14:22,-17.07,81.4,-76.24,96.05,-10,OK
2025-08-12 14:22,-16.92,81.4,-76.93,96.05,-10,OK
2025-08-12 14:22,-19.49,81.4,-77.33,96.05,-10,OK
2025-08-12 14:22,-21.94,81.4,-79.56,96.05,-10,OK
2025-08-12 14:22,-25.64,81.4,-83.27,96.05,-10,OK
2025-08-12 14:22,-31.87,81.4,-85.31,96.05,-10,OK
2025-08-12 14:22,-36.95,81.4,-87.75,96.05,-10,OK
2025-08-12 14:22,-42.38,81.4,-91.44,96.05,-10,OK
2025-08-12 14:22,-46.64,81.4,-93.17,96.05,-10,OK
2025-08-12 14:22,-50.89,81.4,-93.78,96.05,-10,OK
2025-08-12 14:22,-51.01,81.4,-95.74,96.05,-10,OK
2025-08-12 14:22,-51.12,81.4,-95.85,96.05,-10,OK
2025-08-12 14:22,-50.32,81.4,-93.45,96.05,-10,OK
2025-08-12 14:22,-48.86,81.4,-90.33,96.05,-10,OK
2025-08-12 14:22,-46.13,81.4,-86.55,96.05,-10,OK
2025-08-12 14:22,-45.51,81.4,-80.75,96.05,-10,OK
2025-08-12 14:22,-42.45,81.4,-76.31,96.05,-10,OK
2025-08-12 14:22,-38.11,81.4,-69.86,96.05,-10,OK
2025-08-12 14:22,-33.85,81.4,-63.82,96.05,-10,OK
2025-08-12 14:22,-30.04,81.4,-56.28,96.05,-10,OK
2025-08-12 14:22,-25.88,81.4,-46.58,96.05,-10,OK
2025-08-12 14:22,-23.4,81.4,-36.92,96.05,-10,OK
2025-08-12 14:22,-21.13,81.4,-29.01,96.05,-10,OK
2025-08-12 14:22,-20.96,81.4,-21.54,96.05,-10,OK
2025-08-12 14:22,-19.43,81.4,-14.78,96.05,-10,OK
2025-08-12 14:22,-19.41,81.4,-8.64,96.05,-10,OK
2025-08-12 14:22,-18.5,81.4,-2.57,96.05,-10,OK
2025-08-12 14:22,-21.15,81.4,2.95,96.05,-10,OK
2025-08-12 14:22,-20.68,81.4,7.43,96.05,-10,OK
2025-08-12 14:22,-22.97,81.4,11.7,96.05,-10,OK
2025-08-12 14:22,-22.94,81.4,15.28,96.05,-10,OK
2025-08-12 14:22,-22.62,81.4,19.01,96.05,-10,OK
2025-08-12 14:22,-17.81,81.4,25.25,96.05,-10,OK
2025-08-12 14:22,-10.81,81.4,39.19,96.05,-10,OK
2025-08-12 14:22,3.06,81.4,59.66,96.05,-10,OK
2025-08-12 14:22,20.84,81.4,87.7,96.05,-10,OK
2025-08-12 14:22,43.35,81.4,124.68,96.05,-10,OK
2025-08-12 14:22,68.26,81.4,168.25,96.05,-10,OK
2025-08-12 14:22,94.62,81.4,213.38,96.05,-10,OK
2025-08-12 14:22,118.46,81.4,259.37,80.05,770,OK
2025-08-12 14:22,140.04,81.4,299.7,80.05,770,OK
2025-08-12 14:22,154,79.92,331.12,80.05,770,OK
2025-08-12 14:22,164.08,79.92,351.99,80.05,770,OK
2025-08-12 14:22,166.14,79.92,358.56,80.05,770,OK
2025-08-12 14:22,160.43,79.92,351.47,80.05,770,OK
2025-08-12 14:22,149.16,79.92,331.17,80.05,770,OK
2025-08-12 14:22,135.13,79.92,302.71,80.05,770,OK
2025-08-12 14:22,116.41,79.92,265.19,80.05,770,OK
2025-08-12 14:22,96.45,79.92,222.88,80.05,770,OK
2025-08-12 14:22,77.48,79.92,177.42,80.05,770,OK
2025-08-12 14:22,56.35,79.92,130.74,80.05,770,OK
2025-08-12 14:22,37.58,79.92,85.1,80.05,770,OK
2025-08-12 14:22,19.6,79.92,43.34,80.05,770,OK
2025-08-12 14:22,4.62,79.92,6.92,80.05,770,OK
2025-08-12 14:22,-9.38,79.92,-26.98,80.05,770,OK
2025-08-12 14:22,-18.54,79.92,-55.44,80.05,770,OK
2025-08-12 14:22,-26.93,79.92,-80.13,80.05,770,OK
2025-08-12 14:22,-33.19,79.92,-99.67,80.05,770,OK
2025-08-12 14:22,-37.77,79.92,-118.86,80.05,770,OK
2025-08-12 14:22,-41.86,79.92,-132.58,80.05,770,OK
2025-08-12 14:22,-46.58,79.92,-140.86,80.05,770,OK
2025-08-12 14:22,-51.56,79.92,-147.15,80.05,770,OK
2025-08-12 14:22,-55.71,79.92,-150.66,80.05,770,OK
2025-08-12 14:22,-60.69,79.92,-147.84,80.05,770,OK
2025-08-12 14:22,-66.2,79.92,-142.2,80.05,770,OK
2025-08-12 14:22,-70.73,79.92,-135.79,80.05,770,OK
2025-08-12 14:22,-73.11,79.92,-126.18,80.05,770,OK
2025-08-12 14:22,-73.86,79.92,-116.86,80.05,770,OK
2025-08-12 14:22,-75.61,79.92,-107.74,80.05,770,OK
2025-08-12 14:22,-74.47,79.92,-100.01,80.05,770,OK
2025-08-12 14:22,-71.29,79.92,-90.35,80.05,770,OK
2025-08-12 14:22,-68.37,79.92,-83.3,80.05,770,OK
2025-08-12 14:22,-65.51,79.92,-76,80.05,770,OK
2025-08-12 14:22,-60.51,79.92,-70.8,80.05,770,OK
2025-08-12 14:22,-56.15,79.92,-65.33,80.05,770,OK
2025-08-12 14:22,-54.88,79.92,-64.43,80.05,770,OK
2025-08-12 14:22,-55.24,79.92,-62.91,80.05,770,OK
2025-08-12 14:22,-58.82,79.92,-66.24,80.05,770,OK
2025-08-12 14:22,-62.78,79.92,-67.51,80.05,770,OK
2025-08-12 14:22,-68.09,79.92,-71.51,80.05,770,OK
2025-08-12 14:22,-74.97,79.92,-73.08,80.05,770,OK
2025-08-12 14:22,-81.32,79.92,-76.41,80.05,770,OK
2025-08-12 14:22,-84.52,79.92,-78.58,80.05,770,OK
2025-08-12 14:22,-88.24,79.92,-83.06,80.05,770,OK
2025-08-12 14:22,-88.91,79.92,-85.1,80.05,770,OK
2025-08-12 14:22,-86.29,79.92,-89.38,80.05,770,OK
2025-08-12 14:22,-79.71,79.92,-91.26,80.05,770,OK
2025-08-12 14:22,-72.92,79.92,-92.37,80.05,770,OK
2025-08-12 14:22,-64.29,79.92,-91.2,80.05,770,OK
2025-08-12 14:22,-54.55,79.92,-89.22,80.05,770,OK
2025-08-12 14:22,-45.56,79.92,-86.32,80.05,770,OK
2025-08-12 14:22,-37.68,79.92,-82.05,80.05,770,OK
2025-08-12 14:22,-27.06,79.92,-75.66,80.05,770,OK
2025-08-12 14:22,-18.87,79.92,-69.04,80.05,770,OK
2025-08-12 14:22,-9.03,79.92,-62.73,80.05,770,OK
2025-08-12 14:22,1.06,79.92,-55.6,80.05,770,OK
2025-08-12 14:22,9.94,79.92,-49.18,80.05,770,OK
2025-08-12 14:22,15.56,79.92,-43.12,80.05,770,OK
2025-08-12 14:22,23.9,79.92,-38.07,80.05,770,OK
2025-08-12 14:22,28.23,79.92,-33.37,80.05,770,OK
2025-08-12 14:22,34.69,79.92,-28.33,80.05,770,OK
2025-08-12 14:22,39.33,79.92,-25.35,80.05,770,OK
2025-08-12 14:22,43.67,79.92,-22.95,80.05,770,OK
2025-08-12 14:22,43.85,79.92,-22.38,80.05,770,OK
2025-08-12 14:22,44.38,79.92,-21.17,80.05,770,OK
2025-08-12 14:22,40.64,79.92,-19.87,80.05,770,OK
2025-08-12 14:22,35.52,79.92,-18.97,80.05,770,OK
2025-08-12 14:22,28.93,79.92,-19.2,80.05,770,OK
2025-08-12 14:22,24.3,79.92,-18.32,80.05,770,OK
2025-08-12 14:22,20.1,79.92,-18.45,80.05,770,OK
2025-08-12 14:22,19.15,79.92,-17.23,80.05,770,OK
2025-08-12 14:22,23.72,79.92,-9.54,80.05,770,OK
2025-08-12 14:22,34.44,79.92,7.23,80.05,770,OK
2025-08-12 14:22,48.21,79.92,33.93,80.05,770,OK
2025-08-12 14:22,68.74,79.92,71.12,80.05,770,OK
2025-08-12 14:22,94.35,79.92,117.47,80.05,770,OK
2025-08-12 14:22,124.69,79.92,169.9,80.05,770,OK
2025-08-12 14:22,154.75,79.92,223.21,80.05,770,OK
2025-08-12 14:22,187.1,79.92,272.22,78.57,770,OK
2025-08-12 14:22,214.15,79.92,313.38,78.57,770,OK
2025-08-12 14:22,233.38,77.97,344.5,78.57,770,OK
2025-08-12 14:22,243.55,77.97,361.31,78.57,770,OK
2025-08-12 14:22,249.27,77.97,364.6,78.57,770,OK
2025-08-12 14:22,241.81,77.97,356.23,78.57,770,OK
2025-08-12 14:22,226.61,77.97,335.07,78.57,770,OK
2025-08-12 14:22,205.95,77.97,303.48,78.57,770,OK
2025-08-12 14:22,177.57,77.97,263.89,78.57,770,OK
2025-08-12 14:22,142.37,77.97,218.59,78.57,770,OK
2025-08-12 14:22,108.04,77.97,170.07,78.57,770,OK
2025-08-12 14:22,74.78,77.97,122.12,78.57,770,OK
2025-08-12 14:22,42.17,77.97,76.75,78.57,770,OK
2025-08-12 14:22,16.41,77.97,33.48,78.57,770,OK
2025-08-12 14:22,-5.12,77.97,-5.51,78.57,770,OK
2025-08-12 14:22,-22.57,77.97,-40.91,78.57,770,OK
2025-08-12 14:22,-35.31,77.97,-72.53,78.57,770,OK
2025-08-12 14:22,-42.99,77.97,-101.34,78.57,770,OK
2025-08-12 14:22,-48.5,77.97,-124.56,78.57,770,OK
2025-08-12 14:22,-51.77,77.97,-141.3,78.57,770,OK
2025-08-12 14:22,-51.65,77.97,-152.3,78.57,770,OK
2025-08-12 14:22,-50.27,77.97,-157.89,78.57,770,OK
2025-08-12 14:22,-47.15,77.97,-158.72,78.57,770,OK
2025-08-12 14:22,-44.02,77.97,-154.53,78.57,770,OK
2025-08-12 14:22,-38.9,77.97,-148.33,78.57,770,OK
2025-08-12 14:22,-35.89,77.97,-139.71,78.57,770,OK
2025-08-12 14:22,-34.86,77.97,-126.31,78.57,770,OK
2025-08-12 14:22,-34.83,77.97,-111.92,78.57,770,OK
2025-08-12 14:22,-36.72,77.97,-97.03,78.57,770,OK
2025-08-12 14:22,-39.68,77.97,-80.89,78.57,770,OK
2025-08-12 14:22,-41.78,77.97,-64.98,78.57,770,OK
2025-08-12 14:22,-43.46,77.97,-52.43,78.57,770,OK
2025-08-12 14:22,-46.88,77.97,-40.41,78.57,770,OK
2025-08-12 14:22,-48.84,77.97,-31.59,78.57,770,OK
2025-08-12 14:22,-52.89,77.97,-28.22,78.57,770,OK
2025-08-12 14:22,-56.89,77.97,-27.92,78.57,770,OK
2025-08-12 14:22,-63.91,77.97,-32.05,78.57,770,OK
2025-08-12 14:22,-70.38,77.97,-38.36,78.57,770,OK
2025-08-12 14:22,-77.43,77.97,-47.25,78.57,770,OK
2025-08-12 14:22,-84.23,77.97,-56.96,78.57,770,OK
2025-08-12 14:22,-90.32,77.97,-67.17,78.57,770,OK
2025-08-12 14:22,-94.03,77.97,-76.81,78.57,770,OK
2025-08-12 14:22,-95.45,77.97,-86.77,78.57,770,OK
2025-08-12 14:22,-93.6,77.97,-95.56,78.57,770,OK
2025-08-12 14:22,-88.97,77.97,-101.5,78.57,770,OK
2025-08-12 14:22,-80.5,77.97,-105.42,78.57,770,OK
2025-08-12 14:22,-69.08,77.97,-106.24,78.57,770,OK
2025-08-12 14:22,-57.6,77.97,-105.37,78.57,770,OK
2025-08-12 14:22,-46.94,77.97,-101.11,78.57,770,OK
2025-08-12 14:22,-38.26,77.97,-95.21,78.57,770,OK
2025-08-12 14:22,-32.94,77.97,-89.01,78.57,770,OK
2025-08-12 14:22,-31.35,77.97,-84.51,78.57,770,OK
2025-08-12 14:22,-31.09,77.97,-81.19,78.57,770,OK
2025-08-12 14:22,-31.82,77.97,-77.36,78.57,770,OK
2025-08-12 14:22,-33.21,77.97,-74.4,78.57,770,OK
2025-08-12 14:22,-33.33,77.97,-72.95,78.57,770,OK
2025-08-12 14:22,-31.28,77.97,-68.95,78.57,770,OK
2025-08-12 14:22,-27.19,77.97,-63.96,78.57,770,OK
2025-08-12 14:22,-22.58,77.97,-59.88,78.57,770,OK
2025-08-12 14:22,-15.44,77.97,-55.4,78.57,770,OK
2025-08-12 14:22,-8.98,77.97,-49.08,78.57,770,OK
2025-08-12 14:22,-1.79,77.97,-43.12,78.57,770,OK
2025-08-12 14:22,6.52,77.97,-37,78.57,770,OK
2025-08-12 14:22,13.15,77.97,-31.49,78.57,770,OK
2025-08-12 14:22,16.95,77.97,-24.57,78.57,770,OK
2025-08-12 14:22,19.38,77.97,-16.83,78.57,770,OK
2025-08-12 14:22,18.58,77.97,-10.49,78.57,770,OK
2025-08-12 14:22,14.37,77.97,-3.54,78.57,770,OK
2025-08-12 14:22,9.78,77.97,3.17,78.57,770,OK
2025-08-12 14:22,7.63,77.97,9.7,78.57,770,OK
2025-08-12 14:22,7.09,77.97,16.99,78.57,770,OK
2025-08-12 14:22,11.51,77.97,31.53,78.57,770,OK
2025-08-12 14:22,20.94,77.97,53.59,78.57,770,OK
2025-08-12 14:22,34.85,77.97,85.01,78.57,770,OK
2025-08-12 14:22,52.17,77.97,126.12,78.57,770,OK
2025-08-12 14:22,71.78,77.97,175.08,78.57,770,OK
2025-08-12 14:22,91.91,77.97,226.34,78.57,770,OK
2025-08-12 14:22,110.31,77.97,276.07,77.94,750,OK
2025-08-12 14:22,125.92,77.97,320.35,77.94,750,OK
2025-08-12 14:22,137.47,77.97,351.92,77.94,750,OK
2025-08-12 14:22,143.61,77.97,371.59,77.94,750,OK
2025-08-12 14:22,144.09,77.97,377.58,77.94,750,OK
2025-08-12 14:22,140.23,77.97,369.97,77.94,750,OK
2025-08-12 14:22,133.34,77.97,348.64,77.94,750,OK
2025-08-12 14:22,123.65,77.97,318.55,77.94,750,OK
2025-08-12 14:22,111.06,77.97,278.71,77.94,750,OK
2025-08-12 14:22,96.51,77.97,232.65,77.94,750,OK
2025-08-12 14:22,79.92,77.97,182.32,77.94,750,OK
2025-08-12 14:22,61.36,77.97,133.15,77.94,750,OK
2025-08-12 14:22,42.57,77.97,83.84,77.94,750,OK
2025-08-12 14:22,23.85,77.97,39.1,77.94,750,OK
2025-08-12 14:22,7.2,77.97,-0.81,77.94,750,OK
2025-08-12 14:22,-9.25,77.97,-34.64,77.94,750,OK
2025-08-12 14:22,-24.42,77.97,-62.97,77.94,750,OK
2025-08-12 14:22,-38.07,77.97,-84.57,77.94,750,OK
2025-08-12 14:22,-50.01,77.97,-103.82,77.94,750,OK
2025-08-12 14:22,-62.23,77.97,-116.57,77.94,750,OK
2025-08-12 14:22,-71.03,77.97,-128.37,77.94,750,OK
2025-08-12 14:22,-79.99,77.97,-138.22,77.94,750,OK
2025-08-12 14:22,-84.61,77.97,-145.56,77.94,750,OK
2025-08-12 14:22,-86.03,77.97,-149.3,77.94,750,OK
2025-08-12 14:22,-83.1,77.97,-152.92,77.94,750,OK
2025-08-12 14:22,-78.12,77.97,-151.04,77.94,750,OK
2025-08-12 14:22,-68.29,77.97,-145.66,77.94,750,OK
2025-08-12 14:22,-58.18,77.97,-138.5,77.94,750,OK
2025-08-12 14:22,-47.02,77.97,-129.78,77.94,750,OK
2025-08-12 14:22,-37.65,77.97,-119.39,77.94,750,OK
2025-08-12 14:22,-28.02,77.97,-110.21,77.94,750,OK
2025-08-12 14:22,-19.99,77.97,-101.68,77.94,750,OK
2025-08-12 14:22,-14.11,77.97,-93.91,77.94,750,OK
2025-08-12 14:22,-8.23,77.97,-86.96,77.94,750,OK
2025-08-12 14:22,-3.45,77.97,-80.88,77.94,750,OK
2025-08-12 14:22,-0.73,77.97,-75.09,77.94,750,OK
2025-08-12 14:22,1.91,77.97,-69.84,77.94,750,OK
2025-08-12 14:22,-0.3,77.97,-64.94,77.94,750,OK
2025-08-12 14:22,-4.47,77.97,-61.02,77.94,750,OK
2025-08-12 14:22,-10.43,77.97,-59.24,77.94,750,OK
2025-08-12 14:22,-19.35,77.97,-58.51,77.94,750,OK
2025-08-12 14:22,-30.04,77.97,-60.03,77.94,750,OK
2025-08-12 14:22,-40.56,77.97,-62.99,77.94,750,OK
2025-08-12 14:22,-49.67,77.97,-68.06,77.94,750,OK
2025-08-12 14:22,-63.14,77.97,-72.22,77.94,750,OK
2025-08-12 14:22,-73.8,77.97,-77.62,77.94,750,OK
2025-08-12 14:22,-84.56,77.97,-82.93,77.94,750,OK
2025-08-12 14:22,-92.88,77.97,-86.75,77.94,750,OK
2025-08-12 14:22,-101.43,77.97,-88.3,77.94,750,OK
2025-08-12 14:22,-104.71,77.97,-91.56,77.94,750,OK
2025-08-12 14:22,-104.81,77.97,-91.88,77.94,750,OK
2025-08-12 14:22,-102.67,77.97,-90.71,77.94,750,OK
2025-08-12 14:22,-97.89,77.97,-88.48,77.94,750,OK
2025-08-12 14:22,-91.32,77.97,-86.37,77.94,750,OK
2025-08-12 14:22,-81.36,77.97,-81.52,77.94,750,OK
2025-08-12 14:22,-73.58,77.97,-76.52,77.94,750,OK
2025-08-12 14:22,-62.15,77.97,-71,77.94,750,OK
2025-08-12 14:22,-51.67,77.97,-63.85,77.94,750,OK
2025-08-12 14:22,-39.16,77.97,-55.76,77.94,750,OK
2025-08-12 14:22,-25.4,77.97,-47.84,77.94,750,OK
2025-08-12 14:22,-11.21,77.97,-40.33,77.94,750,OK
2025-08-12 14:22,-0.55,77.97,-33.33,77.94,750,OK
2025-08-12 14:22,10.13,77.97,-27.85,77.94,750,OK
2025-08-12 14:22,15.71,77.97,-24.13,77.94,750,OK
2025-08-12 14:22,15.97,77.97,-20.15,77.94,750,OK
2025-08-12 14:22,15.62,77.97,-16.58,77.94,750,OK
2025-08-12 14:22,12.9,77.97,-14.57,77.94,750,OK
2025-08-12 14:22,8.93,77.97,-12.67,77.94,750,OK
2025-08-12 14:22,5.97,77.97,-8.32,77.94,750,OK
2025-08-12 14:22,4.17,77.97,-3.67,77.94,750,OK
2025-08-12 14:22,5.48,77.97,5.93,77.94,750,OK
2025-08-12 14:22,8.67,77.97,23.3,77.94,750,OK
2025-08-12 14:22,17.16,77.97,48.61,77.94,750,OK
2025-08-12 14:22,29.59,77.97,84.6,77.94,750,OK
2025-08-12 14:22,47.41,77.97,127.91,77.94,750,OK
2025-08-12 14:22,65.44,77.97,178.43,77.94,750,OK
2025-08-12 14:22,87.22,77.97,229.4,77.94,750,OK
2025-08-12 14:22,107.53,77.97,277.11,77.53,750,OK
2025-08-12 14:22,123.47,77.97,315.16,77.53,750,OK
2025-08-12 14:22,134.74,77.97,344.85,77.53,750,OK
2025-08-12 14:22,140.28,77.97,357.54,77.53,750,OK
2025-08-12 14:22,138.52,77.97,358.17,77.53,750,OK
2025-08-12 14:22,128.92,77.97,343.62,77.53,750,OK
2025-08-12 14:22,115.66,77.97,318.93,77.53,750,OK
2025-08-12 14:22,98.14,77.97,283.5,77.53,750,OK
2025-08-12 14:22,78.49,77.97,241.7,77.53,750,OK
2025-08-12 14:22,56.56,77.97,192.13,77.53,750,OK
2025-08-12 14:22,37.58,77.97,142.86,77.53,750,OK
2025-08-12 14:22,18.08,77.97,93.14,77.53,750,OK
2025-08-12 14:22,1.61,77.97,44.64,77.53,750,OK
2025-08-12 14:22,-12.16,77.97,-0.24,77.53,750,OK
2025-08-12 14:22,-21.13,77.97,-37.34,77.53,750,OK
2025-08-12 14:22,-30.92,77.97,-72.17,77.53,750,OK
2025-08-12 14:22,-36.27,77.97,-101.22,77.53,750,OK
2025-08-12 14:22,-39.13,77.97,-124.89,77.53,750,OK
2025-08-12 14:22,-41.02,77.97,-143.33,77.53,750,OK
2025-08-12 14:22,-43.58,77.97,-158.32,77.53,750,OK
2025-08-12 14:22,-42.72,77.97,-166.22,77.53,750,OK
2025-08-12 14:22,-43.46,77.97,-168.86,77.53,750,OK
2025-08-12 14:22,-44.52,77.97,-167.57,77.53,750,OK
2025-08-12 14:22,-44.76,77.97,-162.39,77.53,750,OK
2025-08-12 14:22,-42.06,77.97,-154.51,77.53,750,OK
2025-08-12 14:22,-39.23,77.97,-145.85,77.53,750,OK
2025-08-12 14:22,-35.14,77.97,-136.52,77.53,750,OK
2025-08-12 14:22,-29.9,77.97,-125.76,77.53,750,OK
2025-08-12 14:22,-24.86,77.97,-112.87,77.53,750,OK
2025-08-12 14:22,-19.99,77.97,-101.67,77.53,750,OK
2025-08-12 14:22,-15.95,77.97,-88.76,77.53,750,OK
2025-08-12 14:22,-12.97,77.97,-77.62,77.53,750,OK
2025-08-12 14:22,-10.71,77.97,-67.49,77.53,750,OK
2025-08-12 14:22,-9.05,77.97,-60.01,77.53,750,OK
2025-08-12 14:22,-7.19,77.97,-51.21,77.53,750,OK
2025-08-12 14:22,-6.37,77.97,-45.59,77.53,750,OK
2025-08-12 14:22,-5.04,77.97,-41.76,77.53,750,OK
2025-08-12 14:22,-5.06,77.97,-40.52,77.53,750,OK
2025-08-12 14:22,-6.94,77.97,-40.94,77.53,750,OK
2025-08-12 14:22,-11.64,77.97,-44.51,77.53,750,OK
2025-08-12 14:22,-17.2,77.97,-50.17,77.53,750,OK
2025-08-12 14:22,-22.95,77.97,-56.02,77.53,750,OK
2025-08-12 14:22,-28.95,77.97,-61.82,77.53,750,OK
2025-08-12 14:22,-34.05,77.97,-69.2,77.53,750,OK
2025-08-12 14:22,-38.74,77.97,-76.12,77.53,750,OK
2025-08-12 14:22,-41.89,77.97,-82.41,77.53,750,OK
2025-08-12 14:22,-44.26,77.97,-87.13,77.53,750,OK
2025-08-12 14:22,-47.32,77.97,-89.51,77.53,750,OK
2025-08-12 14:22,-50.62,77.97,-89.9,77.53,750,OK
2025-08-12 14:22,-53.91,77.97,-88.23,77.53,750,OK
2025-08-12 14:22,-56.99,77.97,-84.64,77.53,750,OK
2025-08-12 14:22,-59.49,77.97,-79.81,77.53,750,OK
2025-08-12 14:22,-60.29,77.97,-74.54,77.53,750,OK
2025-08-12 14:22,-60.61,77.97,-68.54,77.53,750,OK
2025-08-12 14:22,-58.16,77.97,-61.92,77.53,750,OK
2025-08-12 14:22,-55.2,77.97,-55.58,77.53,750,OK
