t_ms,trial_id,t_trial_ms,phase,red_raw,ir_raw,red_dc,ir_dc,red_ac,ir_ac,R,spo2,spo2_valid
132516,1,0,0,47113,51128,46940.73,51301.16,172.27,-173.16,1.018700,85.80,1
132556,1,40,0,47025,51000,46940.89,51300.55,84.11,-300.55,1.020084,85.76,1
132596,1,80,0,46988,50965,46940.99,51299.89,47.01,-334.89,1.021423,85.72,1
132637,1,121,0,46993,50992,46941.09,51299.27,51.91,-307.27,1.022726,85.68,1
132677,1,161,0,46997,50997,46941.21,51298.67,55.79,-301.67,1.023994,85.64,1
132717,1,201,0,47005,51038,46941.34,51298.15,63.66,-260.15,1.025235,85.60,1
132757,1,241,0,47034,51101,46941.52,51297.76,92.48,-196.76,1.026461,85.57,1
132797,1,281,0,47053,51133,46941.75,51297.43,111.25,-164.43,1.027676,85.53,1
132837,1,321,0,47066,51151,46942.00,51297.14,124.00,-146.14,1.028883,85.49,1
132877,1,361,0,47082,51177,46942.28,51296.90,139.72,-119.90,1.030086,85.45,1
132917,1,401,0,47089,51215,46942.57,51296.73,146.43,-81.73,1.031287,85.42,1
132957,1,441,0,47106,51254,46942.90,51296.65,163.10,-42.65,1.032489,85.38,1
132997,1,481,0,47131,51308,46943.28,51296.67,187.72,11.33,1.033695,85.34,1
133037,1,521,0,47143,51338,46943.68,51296.75,199.32,41.25,1.034905,85.31,1
133077,1,561,0,47154,51371,46944.10,51296.90,209.90,74.10,1.036118,85.27,1
133118,1,602,0,47164,51405,46944.54,51297.12,219.46,107.88,1.037334,85.23,1
133158,1,642,0,47170,51346,46945.00,51297.22,225.00,48.78,1.038556,85.20,1
133198,1,682,0,47095,51135,46945.30,51296.89,149.70,-161.89,1.039770,85.16,1
133238,1,722,0,47012,51004,46945.43,51296.31,66.57,-292.31,1.040949,85.13,1
133278,1,762,0,46981,50984,46945.50,51295.68,35.50,-311.68,1.042088,85.09,1
133318,1,802,0,46991,51012,46945.60,51295.12,45.40,-283.12,1.043194,85.06,1
133358,1,842,0,47008,51029,46945.72,51294.59,62.28,-265.59,1.044272,85.02,1
133398,1,882,0,47026,51085,46945.88,51294.17,80.12,-209.17,1.045333,84.99,1
133438,1,922,0,47053,51131,46946.10,51293.84,106.90,-162.84,1.046383,84.95,1
133478,1,962,0,47066,51152,46946.34,51293.56,119.66,-141.56,1.047426,84.92,1
133518,1,1002,0,47075,51164,46946.60,51293.30,128.40,-129.30,1.048464,84.88,1
133558,1,1042,0,47075,51188,46946.86,51293.09,128.14,-105.09,1.049497,84.85,1
133599,1,1083,0,47090,51222,46947.14,51292.95,142.86,-70.95,1.050531,84.82,1
133639,1,1123,0,47108,51271,46947.47,51292.91,160.53,-21.91,1.051567,84.78,1
133679,1,1163,0,47124,51319,46947.82,51292.96,176.18,26.04,1.052607,84.75,1
133719,1,1203,0,47146,51353,46948.22,51293.09,197.78,59.91,1.053652,84.72,1
133759,1,1243,0,47159,51399,46948.64,51293.30,210.36,105.70,1.054699,84.69,1
133799,1,1283,0,47182,51442,46949.11,51293.60,232.89,148.40,1.055748,84.65,1
133839,1,1323,0,47202,51463,46949.62,51293.94,252.38,169.06,1.056798,84.62,1
133879,1,1363,0,47186,51321,46950.09,51293.99,235.91,27.01,1.057857,84.59,1
133919,1,1403,0,47094,51131,46950.38,51293.67,143.62,-162.67,1.058908,84.56,1
133959,1,1443,0,47025,51056,46950.54,51293.20,74.46,-237.20,1.059934,84.53,1
133999,1,1483,0,47018,51071,46950.67,51292.75,67.33,-221.75,1.060938,84.49,1
134039,1,1523,0,47027,51097,46950.82,51292.36,76.18,-195.36,1.061926,84.46,1
134079,1,1563,0,47045,51152,46951.02,51292.08,93.98,-140.08,1.062904,84.43,1
134120,1,1604,0,47067,51196,46951.25,51291.89,115.75,-95.89,1.063880,84.40,1
134160,1,1644,0,47089,51244,46951.53,51291.80,137.47,-47.80,1.064856,84.37,1
134200,1,1684,0,47091,51248,46951.81,51291.71,139.19,-43.71,1.065834,84.34,1
134240,1,1724,0,47102,51286,46952.11,51291.70,149.89,-5.70,1.066814,84.31,1
134280,1,1764,0,47114,51329,46952.43,51291.77,161.57,37.23,1.067797,84.28,1
134320,1,1804,0,47144,51394,46952.82,51291.98,191.18,102.02,1.068783,84.25,1
134360,1,1844,0,47174,51435,46953.26,51292.27,220.74,142.73,1.069770,84.22,1
134400,1,1884,0,47188,51473,46953.73,51292.63,234.27,180.37,1.070754,84.19,1
134440,1,1924,0,47203,51507,46954.23,51293.06,248.77,213.94,1.071732,84.16,1
134480,1,1964,0,47209,51531,46954.74,51293.54,254.26,237.46,1.072699,84.13,1
134520,1,2004,0,47227,51559,46955.29,51294.07,271.71,264.93,1.073653,84.10,1
134560,1,2044,0,47201,51402,46955.78,51294.29,245.22,107.71,1.074615,84.07,1
134601,1,2085,0,47106,51210,46956.08,51294.12,149.92,-84.12,1.075577,84.04,1
134641,1,2125,0,47049,51162,46956.27,51293.86,92.73,-131.86,1.076531,84.02,1
134681,1,2165,0,47049,51193,46956.46,51293.66,92.54,-100.66,1.077480,83.99,1
134721,1,2205,0,47063,51219,46956.67,51293.51,106.33,-74.51,1.078427,83.96,1
134761,1,2245,0,47079,51268,46956.92,51293.46,122.08,-25.46,1.079374,83.93,1
134801,1,2285,0,47109,51325,46957.22,51293.52,151.78,31.48,1.080325,83.90,1
134841,1,2325,0,47128,51350,46957.57,51293.64,170.43,56.36,1.081279,83.87,1
134881,1,2365,0,47137,51366,46957.93,51293.78,179.07,72.22,1.082237,83.85,1
134921,1,2405,0,47145,51399,46958.30,51293.99,186.70,105.01,1.083197,83.82,1
134961,1,2445,0,47165,51438,46958.71,51294.28,206.29,143.72,1.084157,83.79,1
135001,1,2485,0,47180,51485,46959.16,51294.66,220.84,190.34,1.085110,83.76,1
135041,1,2525,0,47192,51529,46959.63,51295.13,232.37,233.87,1.086050,83.74,1
135082,1,2566,0,47212,51570,46960.14,51295.68,251.86,274.32,1.086971,83.71,1
135122,1,2606,0,47225,51618,46960.67,51296.33,264.33,321.67,1.087861,83.68,1
135162,1,2646,0,47233,51647,46961.21,51297.03,271.79,349.97,1.088714,83.65,1
135202,1,2686,0,47234,51538,46961.76,51297.52,272.24,240.48,1.089560,83.63,1
135242,1,2726,0,47145,51319,46962.13,51297.56,182.87,21.44,1.090412,83.60,1
135282,1,2766,0,47065,51195,46962.34,51297.36,102.66,-102.36,1.091261,83.57,1
135322,1,2806,0,47048,51180,46962.51,51297.12,85.49,-117.12,1.092102,83.55,1
135362,1,2846,0,47046,51174,46962.68,51296.87,83.32,-122.87,1.092936,83.52,1
135402,1,2886,0,47039,51176,46962.83,51296.63,76.17,-120.63,1.093763,83.50,1
135442,1,2926,0,47056,51202,46963.02,51296.45,92.98,-94.45,1.094585,83.47,1
135482,1,2966,0,47051,51190,46963.19,51296.23,87.81,-106.23,1.095402,83.44,1
135522,1,3006,0,47040,51201,46963.35,51296.05,76.65,-95.05,1.096214,83.42,1
135563,1,3047,0,47068,51222,46963.56,51295.90,104.44,-73.90,1.097025,83.39,1
135603,1,3087,0,47041,51165,46963.71,51295.64,77.29,-130.64,1.097826,83.37,1
135643,1,3127,0,47014,51182,46963.82,51295.41,50.18,-113.41,1.098620,83.34,1
135683,1,3167,0,47052,51267,46963.99,51295.36,88.01,-28.36,1.099413,83.32,1
135723,1,3207,0,47067,51253,46964.20,51295.27,102.80,-42.27,1.100207,83.29,1
135763,1,3247,0,47047,51258,46964.37,51295.20,82.63,-37.20,1.100999,83.27,1
135803,1,3287,0,47069,51307,46964.58,51295.22,104.42,11.78,1.101793,83.24,1
135843,1,3327,0,47069,51238,46964.79,51295.11,104.21,-57.11,1.102586,83.22,1
135883,1,3367,0,46996,51041,46964.85,51294.60,31.15,-253.60,1.103344,83.20,1
135923,1,3407,0,46938,50970,46964.80,51293.95,-26.80,-323.95,1.104049,83.17,1
135963,1,3447,0,46952,50974,46964.78,51293.32,-12.78,-319.32,1.104704,83.15,1
136003,1,3487,0,46917,50903,46964.68,51292.54,-47.68,-389.54,1.105287,83.13,1
136044,1,3528,0,46893,50925,46964.54,51291.80,-71.54,-366.80,1.105811,83.10,1
136084,1,3568,0,46932,50996,46964.48,51291.21,-32.48,-295.21,1.106296,83.08,1
136124,1,3608,0,46935,51011,46964.42,51290.65,-29.42,-279.65,1.106746,83.06,1
136164,1,3648,0,46958,51085,46964.41,51290.24,-6.41,-205.24,1.107178,83.03,1
136204,1,3688,0,46988,51126,46964.46,51289.91,23.54,-163.91,1.107597,83.01,1
136244,1,3728,0,46996,51137,46964.52,51289.61,31.48,-152.61,1.108005,82.99,1
136284,1,3768,0,47012,51190,46964.62,51289.41,47.38,-99.41,1.108409,82.97,1
136324,1,3808,0,47039,51245,46964.77,51289.32,74.23,-44.32,1.108812,82.95,1
136364,1,3848,0,47058,51293,46964.95,51289.33,93.05,3.67,1.109218,82.93,1
136404,1,3888,0,47075,51334,46965.18,51289.42,109.82,44.58,1.109625,82.91,1
136444,1,3928,0,47083,51385,46965.41,51289.61,117.59,95.39,1.110031,82.89,1
136484,1,3968,0,47104,51441,46965.69,51289.92,138.31,151.08,1.110433,82.87,1
136525,1,4009,0,47119,51415,46966.00,51290.17,153.00,124.83,1.110835,82.85,1
136565,1,4049,0,47058,51256,46966.18,51290.10,91.82,-34.10,1.111237,82.83,1
136605,1,4089,0,46989,51139,46966.23,51289.80,22.77,-150.80,1.111629,82.81,1
136645,1,4129,0,46951,51095,46966.20,51289.41,-15.20,-194.41,1.112002,82.79,1
136685,1,4169,0,46938,51104,46966.15,51289.04,-28.15,-185.04,1.112360,82.78,1
136725,1,4209,0,46950,51136,46966.12,51288.74,-16.12,-152.74,1.112705,82.76,1
136765,1,4249,0,46970,51165,46966.12,51288.49,3.87,-123.49,1.113043,82.74,1
136805,1,4289,0,46983,51211,46966.16,51288.34,16.84,-77.34,1.113378,82.72,1
136845,1,4329,0,47007,51251,46966.24,51288.27,40.76,-37.27,1.113711,82.71,1
136885,1,4369,0,47018,51266,46966.35,51288.22,51.65,-22.22,1.114044,82.69,1
136925,1,4409,0,47014,51288,46966.45,51288.22,47.55,-0.22,1.114377,82.67,1
136966,1,4450,0,47029,51327,46966.57,51288.30,62.43,38.70,1.114710,82.66,1
137006,1,4490,0,47041,51358,46966.72,51288.44,74.28,69.56,1.115041,82.64,1
137046,1,4530,0,47050,51404,46966.89,51288.68,83.11,115.32,1.115368,82.63,1
137086,1,4570,0,47070,51444,46967.09,51288.99,102.91,155.01,1.115686,82.61,1
137126,1,4610,0,47085,51485,46967.33,51289.38,117.67,195.62,1.115990,82.60,1
137166,1,4650,0,47103,51538,46967.61,51289.88,135.39,248.12,1.116271,82.58,1
137206,1,4690,0,47122,51573,46967.91,51290.45,154.09,282.55,1.116524,82.57,1
137246,1,4730,0,47134,51576,46968.25,51291.02,165.75,284.98,1.116749,82.55,1
137286,1,4770,0,47103,51461,46968.52,51291.36,134.48,169.64,1.116966,82.54,1
137326,1,4810,0,47041,51363,46968.66,51291.51,72.34,71.49,1.117183,82.52,1
137366,1,4850,0,47018,51360,46968.76,51291.64,49.24,68.36,1.117399,82.51,1
137406,1,4890,0,47025,51389,46968.87,51291.84,56.13,97.16,1.117610,82.50,1
137447,1,4931,0,47031,51423,46969.00,51292.10,62.00,130.90,1.117814,82.48,1
137487,1,4971,0,47054,51476,46969.17,51292.47,84.83,183.53,1.118005,82.47,1
137527,1,5011,0,47065,51529,46969.36,51292.94,95.64,236.06,1.118173,82.46,1
137567,1,5051,0,47097,51589,46969.62,51293.54,127.38,295.46,1.118307,82.44,1
137607,1,5091,0,47111,51624,46969.91,51294.20,141.09,329.80,1.118400,82.43,1
137647,1,5131,0,47130,51677,46970.23,51294.96,159.77,382.04,1.118441,82.42,1
137687,1,5171,0,47163,51731,46970.61,51295.84,192.39,435.16,1.118418,82.41,1
137727,1,5211,0,47173,51735,46971.02,51296.72,201.98,438.28,1.118336,82.40,1
137767,1,5251,0,47166,51783,46971.41,51297.69,194.59,485.31,1.118183,82.39,1
137807,1,5291,0,47202,51831,46971.87,51298.76,230.13,532.24,1.117953,82.38,1
137847,1,5331,0,47206,51849,46972.34,51299.86,233.66,549.14,1.117649,82.37,1
137887,1,5371,0,47211,51873,46972.82,51301.01,238.18,571.99,1.117269,82.36,1
137928,1,5412,0,47213,51868,46973.30,51302.14,239.70,565.86,1.116823,82.35,1
137968,1,5452,0,47183,51760,46973.72,51303.06,209.28,456.94,1.116339,82.34,1
138008,1,5492,0,47127,51673,46974.03,51303.80,152.97,369.20,1.115831,82.34,1
138048,1,5532,0,47100,51628,46974.29,51304.45,125.71,323.55,1.115304,82.33,1
138088,1,5572,0,47085,51629,46974.51,51305.11,110.49,323.89,1.114757,82.32,1
138128,1,5612,0,47101,51660,46974.76,51305.82,126.24,354.18,1.114188,82.32,1
138168,1,5652,0,47123,51690,46975.06,51306.59,147.94,383.41,1.113593,82.31,1
138208,1,5692,0,47138,51728,46975.39,51307.43,162.61,420.57,1.112969,82.31,1
138248,1,5732,0,47140,51739,46975.72,51308.29,164.28,430.71,1.112316,82.31,1
138288,1,5772,0,47142,51757,46976.05,51309.19,165.95,447.81,1.111631,82.30,1
138328,1,5812,0,47141,51759,46976.38,51310.09,164.62,448.91,1.110915,82.30,1
138368,1,5852,0,47142,51788,46976.71,51311.05,165.29,476.95,1.110166,82.30,1
138408,1,5892,0,47157,51818,46977.08,51312.07,179.92,505.93,1.109380,82.30,1
138449,1,5933,0,47169,51844,46977.46,51313.13,191.54,530.87,1.108557,82.30,1
138489,1,5973,0,47172,51860,46977.86,51314.23,194.14,545.77,1.107697,82.30,1
138529,1,6013,0,47175,51894,46978.25,51315.39,196.75,578.61,1.106796,82.30,1
138569,1,6053,0,47200,51935,46978.70,51316.63,221.30,618.37,1.105853,82.30,1
138609,1,6093,0,47203,51939,46979.14,51317.87,223.86,621.12,1.104870,82.30,1
138649,1,6133,0,47190,51863,46979.57,51318.96,210.43,544.04,1.103861,82.31,1
138689,1,6173,0,47149,51773,46979.91,51319.87,169.09,453.12,1.102835,82.31,1
138729,1,6213,0,47123,51760,46980.20,51320.76,142.80,439.24,1.101793,82.31,1
138769,1,6253,0,47132,51790,46980.50,51321.70,151.50,468.30,1.100731,82.32,1
138809,1,6293,0,47146,51806,46980.83,51322.67,165.17,483.33,1.099651,82.32,1
138849,1,6333,0,47148,51833,46981.17,51323.69,166.83,509.31,1.098549,82.33,1
138889,1,6373,0,47165,51889,46981.54,51324.82,183.46,564.18,1.097422,82.34,1
138930,1,6414,0,47184,51923,46981.94,51326.02,202.06,596.98,1.096269,82.35,1
138970,1,6454,0,47198,51963,46982.37,51327.30,215.62,635.70,1.095087,82.35,1
139010,1,6494,0,47216,52019,46982.84,51328.68,233.16,690.32,1.093873,82.36,1
139050,1,6534,0,47244,52066,46983.37,51330.16,260.63,735.84,1.092627,82.37,1
139090,1,6574,0,47260,52112,46983.92,51331.72,276.08,780.28,1.091347,82.38,1
139130,1,6614,0,47290,52188,46984.54,51333.44,305.46,854.56,1.090030,82.39,1
139170,1,6654,0,47318,52233,46985.20,51335.24,332.80,897.76,1.088678,82.41,1
139210,1,6694,0,47343,52284,46985.92,51337.14,357.08,946.86,1.087292,82.42,1
139250,1,6734,0,47358,52347,46986.67,51339.16,371.33,1007.84,1.085870,82.43,1
139290,1,6774,0,47394,52409,46987.48,51341.30,406.52,1067.70,1.084415,82.44,1
139330,1,6814,0,47396,52399,46988.30,51343.41,407.70,1055.59,1.082933,82.46,1
139370,1,6854,0,47399,52362,46989.12,51345.45,409.87,1016.55,1.081431,82.47,1
139410,1,6894,0,47367,52290,46989.88,51347.34,377.12,942.66,1.079914,82.49,1
139451,1,6935,0,47341,52258,46990.59,51349.17,350.41,908.83,1.078384,82.51,1
139491,1,6975,0,47330,52266,46991.27,51351.00,338.73,915.00,1.076840,82.52,1
139531,1,7015,0,47332,52275,46991.95,51352.85,340.05,922.15,1.075283,82.54,1
139571,1,7055,0,47339,52305,46992.64,51354.76,346.36,950.24,1.073712,82.56,1
139611,1,7095,0,47344,52324,46993.35,51356.70,350.65,967.30,1.072128,82.58,1
139651,1,7135,0,47364,52365,46994.09,51358.72,369.91,1006.28,1.070531,82.60,1
139691,1,7175,0,47361,52341,46994.82,51360.68,366.18,980.32,1.068924,82.62,1
139731,1,7215,0,47374,52401,46995.58,51362.77,378.42,1038.23,1.067306,82.64,1
139771,1,7255,0,47382,52384,46996.36,51364.81,385.64,1019.19,1.065680,82.66,1
139811,1,7295,0,47379,52432,46997.12,51366.95,381.88,1065.05,1.064042,82.68,1
139851,1,7335,0,47407,52478,46997.94,51369.17,409.06,1108.83,1.062395,82.71,1
139891,1,7375,0,47411,52503,46998.77,51371.44,412.23,1131.56,1.060739,82.73,1
139931,1,7415,0,47416,52537,46999.61,51373.77,416.39,1163.23,1.059072,82.75,1
139972,1,7456,0,47430,52567,47000.47,51376.16,429.53,1190.84,1.057396,82.78,1
140012,1,7496,0,47435,52598,47001.34,51378.60,433.66,1219.40,1.055710,82.80,1
140052,1,7536,0,47442,52613,47002.22,51381.07,439.78,1231.93,1.054016,82.83,1
140092,1,7576,0,47424,52531,47003.07,51383.37,420.93,1147.63,1.052317,82.85,1
140132,1,7616,0,47377,52429,47003.82,51385.46,373.18,1043.54,1.050615,82.88,1
140172,1,7656,0,47335,52371,47004.48,51387.44,330.52,983.56,1.048909,82.91,1
140212,1,7696,0,47330,52378,47005.13,51389.42,324.87,988.58,1.047200,82.93,1
140252,1,7736,0,47335,52363,47005.79,51391.37,329.21,971.63,1.045488,82.96,1
140292,1,7776,0,47311,52334,47006.41,51393.26,304.59,940.74,1.043773,82.99,1
140332,1,7816,0,47303,52339,47007.00,51395.15,296.00,943.85,1.042055,83.02,1
140372,1,7856,0,47309,52351,47007.61,51397.07,301.39,953.93,1.040334,83.05,1
140412,1,7896,0,47301,52340,47008.20,51398.95,292.80,941.05,1.038610,83.08,1
140452,1,7936,0,47288,52308,47008.76,51400.77,279.24,907.23,1.036885,83.11,1
140493,1,7977,0,47287,52326,47009.32,51402.62,277.68,923.37,1.035156,83.14,1
140533,1,8017,0,47289,52343,47009.88,51404.51,279.12,938.49,1.033426,83.17,1
140573,1,8057,0,47293,52359,47010.45,51406.42,282.55,952.58,1.031693,83.20,1
140613,1,8097,0,47301,52384,47011.03,51408.37,289.97,975.62,1.029956,83.23,1
140653,1,8137,0,47309,52407,47011.62,51410.37,297.37,996.62,1.028218,83.26,1
140693,1,8177,0,47302,52375,47012.21,51412.30,289.79,962.70,1.026477,83.30,1
140733,1,8217,0,47271,52330,47012.73,51414.14,258.27,915.86,1.024734,83.33,1
140773,1,8257,0,47266,52365,47013.23,51416.04,252.77,948.96,1.022989,83.36,1
140813,1,8297,0,47287,52360,47013.78,51417.93,273.22,942.07,1.021242,83.39,1
140853,1,8337,0,47249,52232,47014.25,51419.56,234.75,812.44,1.019495,83.43,1
140893,1,8377,0,47194,52163,47014.61,51421.05,179.39,741.95,1.017748,83.46,1
140933,1,8417,0,47180,52143,47014.95,51422.50,165.05,720.50,1.016001,83.50,1
140974,1,8458,0,47177,52154,47015.27,51423.96,161.73,730.04,1.014254,83.53,1
141014,1,8498,0,47190,52169,47015.62,51425.45,174.38,743.55,1.012507,83.57,1
141054,1,8538,0,47181,52159,47015.95,51426.92,165.05,732.08,1.010759,83.60,1
141094,1,8578,0,47162,52101,47016.25,51428.27,145.75,672.73,1.009012,83.64,1
141134,1,8618,0,47140,52077,47016.50,51429.57,123.50,647.43,1.007266,83.67,1
141174,1,8658,0,47130,52066,47016.72,51430.84,113.28,635.16,1.005520,83.71,1
141214,1,8698,0,47129,52074,47016.95,51432.13,112.05,641.87,1.003775,83.74,1
141254,1,8738,0,47144,52108,47017.20,51433.48,126.80,674.52,1.002029,83.78,1
141294,1,8778,0,47160,52136,47017.49,51434.89,142.51,701.11,1.000284,83.82,1
141334,1,8818,0,47165,52165,47017.79,51436.35,147.21,728.65,0.998538,83.85,1
141374,1,8858,0,47196,52194,47018.14,51437.86,177.86,756.14,0.996793,83.89,1
141414,1,8898,0,47202,52204,47018.51,51439.40,183.49,764.60,0.995048,83.93,1
141454,1,8938,0,47204,52224,47018.88,51440.97,185.12,783.03,0.993303,83.96,1
141495,1,8979,0,47207,52194,47019.26,51442.48,187.74,751.52,0.991558,84.00,1
141535,1,9019,0,47154,52002,47019.53,51443.60,134.47,558.40,0.989816,84.04,1
141575,1,9059,0,47015,51751,47019.52,51444.21,-4.52,306.79,0.988078,84.08,1
141615,1,9099,0,46913,51631,47019.31,51444.59,-106.31,186.41,0.986346,84.11,1
141655,1,9139,0,46892,51630,47019.06,51444.96,-127.06,185.04,0.984621,84.15,1
141695,1,9179,0,46898,51631,47018.82,51445.34,-120.82,185.66,0.982901,84.19,1
141735,1,9219,0,46905,51651,47018.59,51445.75,-113.59,205.25,0.981188,84.23,1
141775,1,9259,0,46940,51694,47018.43,51446.25,-78.43,247.75,0.979479,84.27,1
141815,1,9299,0,46953,51705,47018.30,51446.77,-65.30,258.23,0.977775,84.31,1
141855,1,9339,0,46966,51729,47018.20,51447.33,-52.20,281.67,0.976075,84.34,1
141895,1,9379,0,46993,51753,47018.15,51447.95,-25.15,305.05,0.974379,84.38,1
141935,1,9419,0,46997,51775,47018.11,51448.60,-21.11,326.40,0.972686,84.42,1
141975,1,9459,0,47029,51838,47018.13,51449.38,10.87,388.62,0.970996,84.46,1
142016,1,9500,0,47059,51867,47018.21,51450.22,40.79,416.78,0.969309,84.50,1
142056,1,9540,0,47070,51894,47018.32,51451.11,51.68,442.89,0.967624,84.54,1
142096,1,9580,0,47086,51938,47018.46,51452.09,67.54,485.91,0.965942,84.58,1
142136,1,9620,0,47113,51969,47018.65,51453.12,94.35,515.88,0.964261,84.62,1
142176,1,9660,0,47124,51987,47018.86,51454.19,105.14,532.81,0.962582,84.66,1
142216,1,9700,0,47130,51955,47019.08,51455.20,110.92,499.80,0.960905,84.70,1
142256,1,9740,0,47087,51777,47019.22,51455.84,67.78,321.16,0.959233,84.74,1
142296,1,9780,0,47020,51653,47019.22,51456.23,0.78,196.77,0.957564,84.78,1
142336,1,9820,0,46995,51607,47019.18,51456.54,-24.18,150.46,0.955901,84.82,1
142376,1,9860,0,46994,51606,47019.12,51456.84,-25.12,149.16,0.954242,84.86,1
142416,1,9900,0,47007,51614,47019.10,51457.16,-12.10,156.84,0.952588,84.90,1
142456,1,9940,0,47025,51648,47019.11,51457.54,5.89,190.46,0.950939,84.94,1
142496,1,9980,0,47047,51675,47019.17,51457.98,27.83,217.02,0.949293,84.98,1
142537,1,10021,0,47058,51693,47019.25,51458.45,38.75,234.55,0.947652,85.02,1
142577,1,10061,0,47075,51711,47019.36,51458.96,55.64,252.04,0.946015,85.06,1
142617,1,10101,0,47080,51734,47019.48,51459.51,60.52,274.49,0.944382,85.10,1
142657,1,10141,0,47098,51771,47019.64,51460.13,78.36,310.87,0.942753,85.14,1
142697,1,10181,0,47121,51820,47019.85,51460.86,101.15,359.14,0.941129,85.18,1
142737,1,10221,0,47150,51855,47020.11,51461.64,129.89,393.36,0.939508,85.22,1
142777,1,10261,0,47163,51884,47020.39,51462.49,142.61,421.51,0.937892,85.26,1
142817,1,10301,0,47183,51921,47020.72,51463.41,162.28,457.59,0.936281,85.30,1
142857,1,10341,0,47196,51958,47021.07,51464.40,174.93,493.60,0.934674,85.34,1
142897,1,10381,0,47218,51988,47021.47,51465.45,196.53,522.55,0.933073,85.38,1
142937,1,10421,0,47218,51938,47021.86,51466.39,196.14,471.61,0.931477,85.42,1
142977,1,10461,0,47163,51743,47022.15,51466.95,140.85,276.05,0.929887,85.46,1
143017,1,10501,0,47084,51603,47022.27,51467.22,61.73,135.78,0.928302,85.50,1
143058,1,10542,0,47058,51582,47022.35,51467.45,35.65,114.55,0.926722,85.54,1
143098,1,10582,0,47071,51609,47022.45,51467.74,48.55,141.26,0.925147,85.58,1
143138,1,10622,0,47087,51614,47022.57,51468.03,64.43,145.97,0.923577,85.62,1
143178,1,10662,0,47103,51659,47022.73,51468.41,80.27,190.59,0.922011,85.66,1
143218,1,10702,0,47136,51713,47022.96,51468.91,113.04,244.09,0.920451,85.70,1
143258,1,10742,0,47154,51730,47023.22,51469.43,130.78,260.57,0.918897,85.74,1
143298,1,10782,0,47167,51742,47023.51,51469.98,143.49,272.02,0.917348,85.78,1
143338,1,10822,0,47181,51768,47023.83,51470.57,157.17,297.43,0.915807,85.82,1
143378,1,10862,0,47197,51812,47024.18,51471.26,172.82,340.74,0.914271,85.86,1
143418,1,10902,0,47222,51843,47024.57,51472.00,197.43,371.00,0.912744,85.90,1
143458,1,10942,0,47236,51873,47025.00,51472.81,211.00,400.19,0.911224,85.94,1
143498,1,10982,0,47242,51894,47025.43,51473.65,216.57,420.35,0.909712,85.98,1
143538,1,11022,0,47252,51909,47025.89,51474.52,226.11,434.48,0.908208,86.02,1
143579,1,11063,0,47259,51943,47026.36,51475.46,232.64,467.54,0.906712,86.05,1
143619,1,11103,0,47281,51984,47026.87,51476.48,254.13,507.52,0.905224,86.09,1
143659,1,11143,0,47286,51988,47027.39,51477.50,258.61,510.50,0.903745,86.13,1
143699,1,11183,0,47272,51857,47027.88,51478.27,244.12,378.73,0.902277,86.17,1
143739,1,11223,0,47232,51760,47028.29,51478.83,203.71,281.17,0.900817,86.21,1
143779,1,11263,0,47205,51693,47028.64,51479.26,176.36,213.74,0.899365,86.25,1
143819,1,11303,0,47212,51716,47029.01,51479.74,182.99,236.26,0.897920,86.29,1
143859,1,11343,0,47245,51749,47029.45,51480.28,215.55,268.72,0.896486,86.33,1
143899,1,11383,0,47246,51764,47029.88,51480.85,216.12,283.15,0.895061,86.37,1
143939,1,11423,0,47278,51814,47030.37,51481.52,247.62,332.48,0.893646,86.41,1
143979,1,11463,0,47298,51834,47030.91,51482.22,267.09,351.78,0.892244,86.45,1
144019,1,11503,0,47297,51829,47031.45,51482.92,265.55,346.08,0.890853,86.48,1
144059,1,11543,0,47300,51839,47031.98,51483.63,268.02,355.37,0.889475,86.52,1
144100,1,11584,0,47304,51851,47032.53,51484.37,271.47,366.63,0.888108,86.56,1
144140,1,11624,0,47301,51873,47033.07,51485.14,267.93,387.86,0.886752,86.60,1
144180,1,11664,0,47315,51899,47033.64,51485.97,281.36,413.03,0.885408,86.64,1
144220,1,11704,0,47339,51933,47034.25,51486.87,304.75,446.13,0.884076,86.67,1
144260,1,11744,0,47341,51953,47034.86,51487.80,306.14,465.20,0.882757,86.71,1
144300,1,11784,0,47352,51981,47035.50,51488.79,316.50,492.21,0.881451,86.75,1
144340,1,11824,0,47367,51991,47036.16,51489.79,330.84,501.21,0.880158,86.79,1
144380,1,11864,0,47364,51922,47036.82,51490.66,327.18,431.34,0.878880,86.82,1
144420,1,11904,0,47294,51721,47037.34,51491.12,256.66,229.88,0.877614,86.86,1
144460,1,11944,0,47222,51601,47037.71,51491.34,184.29,109.66,0.876356,86.90,1
144500,1,11984,0,47202,51612,47038.04,51491.59,163.96,120.41,0.875105,86.94,1
144540,1,12024,0,47224,51643,47038.41,51491.89,185.59,151.11,0.873863,86.97,1
144581,1,12065,0,47239,51670,47038.81,51492.25,200.19,177.75,0.872629,87.01,1
144621,1,12105,0,47260,51727,47039.26,51492.72,220.74,234.28,0.871405,87.04,1
144661,1,12145,0,47286,51771,47039.75,51493.28,246.25,277.72,0.870191,87.08,1
144701,1,12185,0,47304,51782,47040.29,51493.86,263.71,288.14,0.868989,87.12,1
144741,1,12225,0,47309,51812,47040.82,51494.50,268.18,317.50,0.867798,87.15,1
144781,1,12265,0,47326,51847,47041.39,51495.20,284.61,351.80,0.866619,87.19,1
144821,1,12305,0,47345,51885,47042.00,51495.98,303.00,389.02,0.865453,87.22,1
144861,1,12345,0,47373,51940,47042.67,51496.87,330.33,443.12,0.864302,87.26,1
144901,1,12385,0,47410,51997,47043.40,51497.87,366.60,499.12,0.863165,87.29,1
144941,1,12425,0,47422,52023,47044.16,51498.93,377.84,524.07,0.862046,87.33,1
144981,1,12465,0,47433,52042,47044.94,51500.01,388.06,541.99,0.860942,87.36,1
145021,1,12505,0,47445,52079,47045.74,51501.17,399.26,577.83,0.859855,87.40,1
145061,1,12545,0,47459,52096,47046.57,51502.36,412.43,593.64,0.858784,87.43,1
145102,1,12586,0,47441,51958,47047.36,51503.28,393.64,454.72,0.857732,87.46,1
145142,1,12626,0,47351,51738,47047.96,51503.75,303.04,234.25,0.856694,87.50,1
145182,1,12666,0,47281,51644,47048.43,51504.03,232.57,139.97,0.855666,87.53,1
145222,1,12706,0,47275,51640,47048.89,51504.30,226.11,135.70,0.854647,87.56,1
145262,1,12746,0,47283,51653,47049.36,51504.60,233.64,148.40,0.853639,87.60,1
145302,1,12786,0,47288,51657,47049.83,51504.91,238.17,152.09,0.852641,87.63,1
145342,1,12826,0,47296,51687,47050.32,51505.27,245.68,181.73,0.851653,87.66,1
145382,1,12866,0,47323,51724,47050.87,51505.71,272.13,218.29,0.850677,87.69,1
145422,1,12906,0,47331,51727,47051.43,51506.16,279.57,220.84,0.849713,87.73,1
145462,1,12946,0,47329,51738,47051.99,51506.62,277.01,231.38,0.848762,87.76,1
145502,1,12986,0,47353,51789,47052.59,51507.19,300.41,281.81,0.847823,87.79,1
145542,1,13026,0,47376,51838,47053.24,51507.85,322.76,330.15,0.846898,87.82,1
145582,1,13066,0,47397,51892,47053.93,51508.62,343.07,383.38,0.845987,87.85,1
145623,1,13107,0,47426,51936,47054.67,51509.48,371.33,426.52,0.845093,87.88,1
145663,1,13147,0,47439,51971,47055.44,51510.40,383.56,460.60,0.844214,87.91,1
145703,1,13187,0,47450,52004,47056.23,51511.39,393.77,492.61,0.843350,87.94,1
145743,1,13227,0,47470,52042,47057.06,51512.45,412.94,529.55,0.842503,87.97,1
145783,1,13267,0,47492,52093,47057.93,51513.62,434.07,579.38,0.841671,88.00,1
145823,1,13307,0,47501,52040,47058.82,51514.67,442.18,525.33,0.840859,88.03,1
145863,1,13347,0,47439,51810,47059.58,51515.27,379.42,294.73,0.840065,88.06,1
145903,1,13387,0,47346,51628,47060.15,51515.49,285.85,112.51,0.839283,88.09,1
145943,1,13427,0,47289,51553,47060.61,51515.57,228.39,37.43,0.838511,88.12,1
145983,1,13467,0,47258,51518,47061.00,51515.58,197.00,2.42,0.837747,88.15,1
146023,1,13507,0,47258,51490,47061.40,51515.53,196.60,-25.53,0.836990,88.17,1
146063,1,13547,0,47209,51423,47061.70,51515.34,147.30,-92.34,0.836238,88.20,1
146103,1,13587,0,47174,51428,47061.92,51515.17,112.08,-87.17,0.835489,88.23,1
146144,1,13628,0,47214,51520,47062.23,51515.18,151.77,4.82,0.834746,88.26,1
146184,1,13668,0,47259,51569,47062.62,51515.29,196.38,53.71,0.834011,88.28,1
146224,1,13708,0,47278,51628,47063.05,51515.52,214.95,112.48,0.833284,88.31,1
146264,1,13748,0,47317,51701,47063.56,51515.89,253.44,185.11,0.832566,88.33,1
146304,1,13788,0,47356,51766,47064.15,51516.39,291.85,249.61,0.831860,88.36,1
146344,1,13828,0,47379,51829,47064.78,51517.02,314.22,311.98,0.831167,88.39,1
146384,1,13868,0,47420,51892,47065.49,51517.77,354.51,374.23,0.830487,88.41,1
146424,1,13908,0,47453,51950,47066.27,51518.63,386.73,431.37,0.829822,88.44,1
146464,1,13948,0,47473,51992,47067.09,51519.58,405.91,472.42,0.829173,88.46,1
146504,1,13988,0,47489,52025,47067.93,51520.59,421.07,504.41,0.828539,88.49,1
146544,1,14028,0,47501,52055,47068.80,51521.66,432.20,533.34,0.827920,88.51,1
146584,1,14068,0,47511,52051,47069.68,51522.72,441.32,528.28,0.827318,88.54,1
146624,1,14108,0,47465,51845,47070.48,51523.37,394.52,321.63,0.826733,88.56,1
146665,1,14149,0,47360,51629,47071.06,51523.58,288.94,105.42,0.826161,88.58,1
146705,1,14189,0,47305,51582,47071.53,51523.70,233.47,58.30,0.825599,88.61,1
146745,1,14229,0,47306,51601,47072.00,51523.85,234.00,77.15,0.825045,88.63,1
146785,1,14269,0,47323,51624,47072.50,51524.05,250.50,99.95,0.824501,88.65,1
146825,1,14309,0,47337,51673,47073.03,51524.36,263.97,148.64,0.823967,88.67,1
146865,1,14349,0,47368,51728,47073.62,51524.77,294.38,203.23,0.823444,88.70,1
146905,1,14389,0,47386,51740,47074.25,51525.20,311.75,214.80,0.822935,88.72,1
146945,1,14429,0,47399,51747,47074.90,51525.64,324.10,221.36,0.822439,88.74,1
146985,1,14469,0,47400,51767,47075.55,51526.13,324.45,240.87,0.821957,88.76,1
147025,1,14509,0,47419,51804,47076.24,51526.69,342.76,277.31,0.821488,88.78,1
147065,1,14549,0,47432,51841,47076.95,51527.32,355.05,313.68,0.821033,88.80,1
147105,1,14589,0,47447,51885,47077.69,51528.03,369.31,356.97,0.820592,88.82,1
147145,1,14629,0,47465,51922,47078.47,51528.82,386.53,393.18,0.820165,88.84,1
147186,1,14670,0,47476,51944,47079.27,51529.65,396.73,414.35,0.819752,88.86,1
147226,1,14710,0,47485,51977,47080.08,51530.55,404.92,446.45,0.819352,88.88,1
147266,1,14750,0,47499,52012,47080.92,51531.51,418.08,480.49,0.818965,88.90,1
147306,1,14790,0,47515,52055,47081.79,51532.56,433.21,522.44,0.818589,88.92,1
147346,1,14830,0,47535,52051,47082.70,51533.60,452.30,517.40,0.818227,88.94,1
147386,1,14870,0,47490,51844,47083.51,51534.22,406.49,309.78,0.817884,88.96,1
147426,1,14910,0,47394,51667,47084.13,51534.48,309.87,132.52,0.817553,88.98,1
147466,1,14950,0,47352,51623,47084.67,51534.66,267.33,88.34,0.817232,88.99,1
147506,1,14990,0,47353,51662,47085.21,51534.92,267.79,127.08,0.816921,89.01,1
147546,1,15030,0,47376,51697,47085.79,51535.25,290.21,161.75,0.816620,89.03,1
147586,1,15070,0,47390,51740,47086.40,51535.66,303.60,204.34,0.816331,89.05,1
147626,1,15110,0,47403,51775,47087.03,51536.14,315.97,238.86,0.816053,89.06,1
147667,1,15151,0,47415,51773,47087.69,51536.61,327.31,236.39,0.815787,89.08,1
147707,1,15191,0,47412,51778,47088.34,51537.10,323.66,240.90,0.815532,89.10,1
147747,1,15231,0,47421,51810,47089.00,51537.64,332.00,272.36,0.815289,89.11,1
147787,1,15271,0,47442,51846,47089.71,51538.26,352.29,307.74,0.815057,89.13,1
147827,1,15311,0,47452,51890,47090.44,51538.96,361.56,351.04,0.814837,89.14,1
147867,1,15351,0,47473,51949,47091.20,51539.79,381.80,409.21,0.814626,89.16,1
147907,1,15391,0,47506,51985,47092.04,51540.68,413.96,444.32,0.814427,89.17,1
147947,1,15431,0,47519,52009,47092.89,51541.61,426.11,467.39,0.814239,89.18,1
147987,1,15471,0,47528,52046,47093.76,51542.62,434.24,503.37,0.814061,89.20,1
148027,1,15511,0,47548,52081,47094.67,51543.70,453.33,537.30,0.813893,89.21,1
148067,1,15551,0,47553,52069,47095.59,51544.75,457.41,524.25,0.813735,89.23,1
148107,1,15591,0,47512,51875,47096.43,51545.41,415.57,329.59,0.813593,89.24,1
148148,1,15632,0,47406,51665,47097.05,51545.66,308.95,119.34,0.813463,89.25,1
148188,1,15672,0,47350,51615,47097.55,51545.80,252.45,69.20,0.813341,89.26,1
148228,1,15712,0,47351,51643,47098.06,51545.99,252.94,97.01,0.813228,89.28,1
148268,1,15752,0,47368,51668,47098.61,51546.24,269.39,121.76,0.813124,89.29,1
148308,1,15792,0,47385,51713,47099.18,51546.57,285.82,166.43,0.813029,89.30,1
148348,1,15832,0,47409,51767,47099.80,51547.02,309.20,219.98,0.812943,89.31,1
148388,1,15872,0,47432,51793,47100.46,51547.51,331.54,245.49,0.812869,89.32,1
148428,1,15912,0,47448,51807,47101.16,51548.03,346.84,258.97,0.812806,89.33,1
148468,1,15952,0,47454,51835,47101.87,51548.60,352.13,286.40,0.812755,89.34,1
148508,1,15992,0,47467,51866,47102.60,51549.24,364.40,316.76,0.812714,89.35,1
148548,1,16032,0,47487,51903,47103.37,51549.95,383.63,353.05,0.812684,89.36,1
148588,1,16072,0,47498,51947,47104.16,51550.74,393.84,396.26,0.812664,89.37,1
148628,1,16112,0,47520,51994,47104.99,51551.63,415.01,442.37,0.812652,89.38,1
148669,1,16153,0,47533,52023,47105.84,51552.57,427.16,470.43,0.812649,89.39,1
148709,1,16193,0,47541,52061,47106.71,51553.59,434.29,507.41,0.812652,89.40,1
148749,1,16233,0,47552,52088,47107.61,51554.66,444.39,533.34,0.812660,89.41,1
148789,1,16273,0,47569,52135,47108.53,51555.82,460.47,579.18,0.812672,89.42,1
148829,1,16313,0,47594,52151,47109.50,51557.02,484.50,593.98,0.812688,89.42,1
148869,1,16353,0,47558,51935,47110.40,51557.77,447.60,377.23,0.812720,89.43,1
148909,1,16393,0,47457,51730,47111.10,51558.12,345.90,171.88,0.812764,89.44,1
148949,1,16433,0,47396,51671,47111.67,51558.35,284.33,112.65,0.812818,89.45,1
148989,1,16473,0,47396,51688,47112.24,51558.61,283.76,129.39,0.812880,89.45,1
149029,1,16513,0,47409,51707,47112.83,51558.91,296.17,148.09,0.812952,89.46,1
149069,1,16553,0,47414,51741,47113.44,51559.27,300.56,181.73,0.813033,89.47,1
149109,1,16593,0,47435,51792,47114.08,51559.74,320.92,232.26,0.813123,89.47,1
149150,1,16634,0,47460,51828,47114.77,51560.28,345.23,267.72,0.813223,89.48,1
149190,1,16674,0,47468,51849,47115.48,51560.86,352.52,288.14,0.813332,89.48,1
149230,1,16714,0,47480,51872,47116.21,51561.48,363.79,310.52,0.813450,89.49,1
149270,1,16754,0,47500,51921,47116.98,51562.20,383.02,358.80,0.813577,89.50,1
149310,1,16794,0,47521,51980,47117.79,51563.04,403.21,416.96,0.813711,89.50,1
149350,1,16834,0,47552,52034,47118.66,51563.98,433.34,470.02,0.813851,89.50,1
149390,1,16874,0,47577,52074,47119.58,51565.00,457.42,509.00,0.813997,89.51,1
149430,1,16914,0,47599,52123,47120.54,51566.11,478.46,556.89,0.814147,89.51,1
149470,1,16954,0,47616,52158,47121.53,51567.30,494.47,590.70,0.814300,89.52,1
149510,1,16994,0,47630,52190,47122.55,51568.54,507.45,621.46,0.814454,89.52,1
149550,1,17034,0,47642,52236,47123.59,51569.88,518.41,666.12,0.814607,89.52,1
149590,1,17074,0,47659,52266,47124.66,51571.27,534.34,694.73,0.814758,89.53,1
149631,1,17115,0,47661,52206,47125.73,51572.54,535.27,633.46,0.814912,89.53,1
149671,1,17155,0,47586,51952,47126.66,51573.30,459.34,378.70,0.815080,89.53,1
149711,1,17195,0,47477,51787,47127.36,51573.73,349.64,213.27,0.815259,89.54,1
149751,1,17235,0,47450,51765,47128.01,51574.12,321.99,190.88,0.815446,89.54,1
149791,1,17275,0,47457,51803,47128.67,51574.58,328.33,228.42,0.815642,89.54,1
149831,1,17315,0,47475,51831,47129.36,51575.09,345.64,255.91,0.815846,89.54,1
149871,1,17355,0,47496,51873,47130.10,51575.69,365.90,297.31,0.816058,89.54,1
149911,1,17395,0,47516,51908,47130.87,51576.36,385.13,331.64,0.816279,89.55,1
149951,1,17435,0,47529,51918,47131.67,51577.04,397.33,340.96,0.816509,89.55,1
149991,1,17475,0,47533,51924,47132.47,51577.73,400.53,346.27,0.816748,89.55,1
150031,1,17515,0,47543,51946,47133.30,51578.47,409.70,367.53,0.816995,89.55,1
150071,1,17555,0,47549,51969,47134.13,51579.25,414.87,389.75,0.817250,89.55,1
150111,1,17595,0,47559,52010,47134.98,51580.12,424.02,429.88,0.817510,89.55,1
150152,1,17636,0,47580,52051,47135.87,51581.06,444.13,469.94,0.817775,89.55,1
150192,1,17676,0,47595,52095,47136.79,51582.09,458.21,512.91,0.818042,89.55,1
150232,1,17716,0,47611,52135,47137.74,51583.19,473.26,551.81,0.818311,89.55,1
150272,1,17756,0,47626,52153,47138.71,51584.33,487.29,568.67,0.818580,89.55,1
150312,1,17796,0,47629,52179,47139.70,51585.52,489.30,593.48,0.818848,89.55,1
150352,1,17836,0,47643,52214,47140.70,51586.78,502.30,627.22,0.819114,89.55,1
150392,1,17876,0,47660,52214,47141.74,51588.04,518.26,625.96,0.819378,89.55,1
150432,1,17916,0,47621,52006,47142.70,51588.87,478.30,417.13,0.819654,89.55,1
150472,1,17956,0,47510,51777,47143.44,51589.25,366.56,187.75,0.819941,89.54,1
150512,1,17996,0,47448,51715,47144.05,51589.50,303.95,125.50,0.820236,89.54,1
150552,1,18036,0,47446,51741,47144.65,51589.81,301.35,151.19,0.820539,89.54,1
150592,1,18076,0,47464,51772,47145.29,51590.18,318.71,181.82,0.820849,89.54,1
150632,1,18116,0,47473,51801,47145.95,51590.60,327.05,210.40,0.821167,89.54,1
150673,1,18157,0,47484,51836,47146.62,51591.09,337.37,244.91,0.821492,89.53,1
150713,1,18197,0,47489,51836,47147.31,51591.58,341.69,244.42,0.821825,89.53,1
150753,1,18237,0,47486,51827,47147.99,51592.05,338.01,234.95,0.822165,89.53,1
150793,1,18277,0,47488,51843,47148.67,51592.56,339.33,250.44,0.822511,89.53,1
150833,1,18317,0,47496,51880,47149.37,51593.14,346.63,286.86,0.822864,89.52,1
150873,1,18357,0,47536,51992,47150.14,51593.94,385.86,398.06,0.823219,89.52,1
150913,1,18397,0,47587,52026,47151.02,51594.80,435.98,431.20,0.823579,89.52,1
150953,1,18437,0,47579,52032,47151.87,51595.68,427.13,436.32,0.823943,89.51,1
150993,1,18477,0,47586,52085,47152.74,51596.66,433.26,488.34,0.824307,89.51,1
151033,1,18517,0,47609,52098,47153.66,51597.66,455.34,500.34,0.824672,89.51,1
151073,1,18557,0,47602,52109,47154.55,51598.69,447.45,510.31,0.825036,89.50,1
151113,1,18597,0,47611,52135,47155.47,51599.76,455.53,535.24,0.825399,89.50,1
151153,1,18637,0,47601,51983,47156.36,51600.53,444.64,382.47,0.825770,89.49,1
151194,1,18678,0,47491,51724,47157.03,51600.78,333.97,123.22,0.826152,89.49,1
151234,1,18718,0,47402,51631,47157.52,51600.84,244.48,30.16,0.826539,89.49,1
151274,1,18758,0,47391,51632,47157.99,51600.91,233.01,31.09,0.826930,89.48,1
151314,1,18798,0,47405,51667,47158.49,51601.04,246.51,65.96,0.827327,89.48,1
151354,1,18838,0,47418,51707,47159.01,51601.25,258.99,105.75,0.827730,89.47,1
151394,1,18878,0,47440,51758,47159.57,51601.57,280.43,156.43,0.828139,89.47,1
151434,1,18918,0,47459,51778,47160.17,51601.93,298.83,176.07,0.828553,89.46,1
151474,1,18958,0,47464,51785,47160.78,51602.29,303.22,182.71,0.828974,89.45,1
151514,1,18998,0,47466,51794,47161.39,51602.68,304.61,191.32,0.829402,89.45,1
151554,1,19038,0,47478,51823,47162.03,51603.12,315.97,219.88,0.829835,89.44,1
151594,1,19078,0,47489,51865,47162.68,51603.64,326.32,261.36,0.830274,89.44,1
151634,1,19118,0,47503,51918,47163.37,51604.27,339.63,313.73,0.830715,89.43,1
151675,1,19159,0,47524,51959,47164.09,51604.98,359.91,354.02,0.831159,89.42,1
151715,1,19199,0,47536,51982,47164.84,51605.73,371.16,376.27,0.831604,89.42,1
151755,1,19239,0,47538,52021,47165.58,51606.57,372.42,414.43,0.832048,89.41,1
151795,1,19279,0,47555,52044,47166.36,51607.44,388.64,436.56,0.832490,89.40,1
151835,1,19319,0,47566,52086,47167.16,51608.40,398.84,477.60,0.832929,89.40,1
151875,1,19359,0,47583,52113,47168.00,51609.41,415.00,503.59,0.833362,89.39,1
151915,1,19399,0,47567,51928,47168.80,51610.05,398.20,317.95,0.833803,89.38,1
151955,1,19439,0,47453,51673,47169.37,51610.18,283.63,62.82,0.834253,89.38,1
151995,1,19479,0,47378,51579,47169.79,51610.11,208.21,-31.11,0.834705,89.37,1
152035,1,19519,0,47365,51586,47170.18,51610.07,194.82,-24.07,0.835161,89.36,1
152075,1,19559,0,47376,51604,47170.59,51610.05,205.41,-6.05,0.835621,89.35,1
152115,1,19599,0,47376,51627,47171.00,51610.09,205.00,16.91,0.836084,89.35,1
152155,1,19639,0,47388,51665,47171.43,51610.20,216.57,54.80,0.836551,89.34,1
152196,1,19680,0,47407,51690,47171.91,51610.36,235.09,79.64,0.837024,89.33,1
152236,1,19720,0,47409,51696,47172.38,51610.53,236.62,85.47,0.837501,89.32,1
152276,1,19760,0,47415,51730,47172.87,51610.77,242.13,119.23,0.837982,89.31,1
152316,1,19800,0,47428,51761,47173.38,51611.07,254.62,149.93,0.838468,89.31,1
152356,1,19840,0,47445,51808,47173.93,51611.47,271.07,196.53,0.838958,89.30,1
152396,1,19880,0,47468,51862,47174.52,51611.97,293.48,250.03,0.839450,89.29,1
152436,1,19920,0,47496,51918,47175.16,51612.59,320.84,305.41,0.839944,89.28,1
152476,1,19960,0,47515,51951,47175.84,51613.27,339.16,337.73,0.840439,89.27,1
152516,1,20000,0,47531,51981,47176.55,51614.00,354.45,367.00,0.840934,89.26,1
152556,1,20040,0,47537,52011,47177.27,51614.80,359.73,396.20,0.841428,89.25,1
152596,1,20080,0,47551,52040,47178.02,51615.65,372.98,424.35,0.841918,89.25,1
152636,1,20120,0,47562,52062,47178.79,51616.55,383.21,445.45,0.842404,89.24,1
152676,1,20160,0,47543,51901,47179.52,51617.12,363.48,283.88,0.842896,89.23,1
152717,1,20201,0,47427,51627,47180.02,51617.14,246.98,9.86,0.843396,89.22,1
152757,1,20241,0,47342,51525,47180.34,51616.95,161.66,-91.95,0.843896,89.21,1
152797,1,20281,0,47331,51555,47180.64,51616.83,150.36,-61.83,0.844397,89.20,1
152837,1,20321,0,47355,51571,47181.00,51616.74,174.00,-45.74,0.844900,89.19,1
152877,1,20361,0,47357,51597,47181.35,51616.70,175.65,-19.70,0.845406,89.18,1
152917,1,20401,0,47374,51653,47181.73,51616.78,192.27,36.22,0.845915,89.17,1
152957,1,20441,0,47398,51670,47182.17,51616.89,215.83,53.11,0.846428,89.16,1
152997,1,20481,0,47405,51666,47182.61,51616.98,222.39,49.02,0.846947,89.15,1
153037,1,20521,0,47404,51673,47183.06,51617.10,220.94,55.90,0.847470,89.14,1
153077,1,20561,0,47403,51689,47183.50,51617.24,219.50,71.76,0.847998,89.13,1
153117,1,20601,0,47415,51724,47183.96,51617.46,231.04,106.54,0.848530,89.12,1
153157,1,20641,0,47436,51775,47184.47,51617.77,251.53,157.23,0.849066,89.11,1
153197,1,20681,0,47457,51844,47185.02,51618.23,271.98,225.77,0.849605,89.10,1
153238,1,20722,0,47487,51864,47185.62,51618.72,301.38,245.28,0.850148,89.09,1
153278,1,20762,0,47471,51874,47186.19,51619.23,284.81,254.77,0.850692,89.08,1
153318,1,20802,0,47486,51915,47186.79,51619.82,299.21,295.18,0.851236,89.07,1
153358,1,20842,0,47501,51950,47187.42,51620.48,313.58,329.52,0.851779,89.06,1
153398,1,20882,0,47503,51874,47188.05,51620.99,314.95,253.01,0.852326,89.04,1
153438,1,20922,0,47418,51608,47188.52,51620.97,229.48,-12.97,0.852880,89.03,1
153478,1,20962,0,47316,51454,47188.77,51620.64,127.23,-166.64,0.853430,89.02,1
153518,1,21002,0,47290,51449,47188.98,51620.29,101.02,-171.29,0.853976,89.01,1
153558,1,21042,0,47298,51486,47189.20,51620.03,108.80,-134.03,0.854520,89.00,1
153598,1,21082,0,47312,51516,47189.44,51619.82,122.56,-103.82,0.855063,88.99,1
153638,1,21122,0,47329,51568,47189.72,51619.72,139.28,-51.72,0.855607,88.98,1
153678,1,21162,0,47347,51588,47190.04,51619.66,156.96,-31.66,0.856153,88.97,1
153718,1,21202,0,47349,51595,47190.36,51619.61,158.64,-24.61,0.856701,88.95,1
153759,1,21243,0,47346,51598,47190.67,51619.57,155.33,-21.57,0.857251,88.94,1
153799,1,21283,0,47358,51642,47191.01,51619.61,166.99,22.39,0.857804,88.93,1
153839,1,21323,0,47368,51682,47191.36,51619.74,176.64,62.26,0.858359,88.92,1
153879,1,21363,0,47390,51742,47191.76,51619.98,198.24,122.02,0.858917,88.91,1
153919,1,21403,0,47412,51794,47192.20,51620.33,219.80,173.67,0.859476,88.90,1
153959,1,21443,0,47432,51840,47192.68,51620.77,239.32,219.23,0.860036,88.88,1
153999,1,21483,0,47456,51885,47193.21,51621.30,262.79,263.70,0.860595,88.87,1
154039,1,21523,0,47476,51905,47193.78,51621.87,282.22,283.12,0.861153,88.86,1
154079,1,21563,0,47480,51948,47194.35,51622.53,285.65,325.47,0.861707,88.85,1
154119,1,21603,0,47496,51934,47194.96,51623.15,301.04,310.85,0.862260,88.84,1
154159,1,21643,0,47439,51669,47195.45,51623.25,243.55,45.75,0.862821,88.82,1
154199,1,21683,0,47309,51438,47195.67,51622.87,113.33,-184.87,0.863376,88.81,1
154239,1,21723,0,47244,51378,47195.77,51622.39,48.23,-244.39,0.863922,88.80,1
154280,1,21764,0,47239,51390,47195.86,51621.92,43.14,-231.92,0.864458,88.79,1
154320,1,21804,0,47243,51403,47195.95,51621.48,47.05,-218.48,0.864985,88.77,1
154360,1,21844,0,47248,51435,47196.05,51621.11,51.95,-186.11,0.865506,88.76,1
154400,1,21884,0,47270,51482,47196.20,51620.84,73.80,-138.84,0.866023,88.75,1
154440,1,21924,0,47285,51513,47196.38,51620.62,88.62,-107.62,0.866539,88.74,1
154480,1,21964,0,47293,51528,47196.58,51620.44,96.42,-92.44,0.867053,88.72,1
154520,1,22004,0,47302,51548,47196.79,51620.29,105.21,-72.29,0.867566,88.71,1
154560,1,22044,0,47324,51578,47197.04,51620.21,126.96,-42.21,0.868081,88.70,1
154600,1,22084,0,47329,51620,47197.31,51620.21,131.69,-0.21,0.868597,88.69,1
154640,1,22124,0,47347,51673,47197.61,51620.32,149.39,52.68,0.869115,88.68,1
154680,1,22164,0,47366,51705,47197.95,51620.49,168.05,84.51,0.869636,88.66,1
154720,1,22204,0,47378,51740,47198.31,51620.73,179.69,119.27,0.870158,88.65,1
154760,1,22244,0,47389,51769,47198.69,51621.03,190.31,147.97,0.870682,88.64,1
154801,1,22285,0,47398,51794,47199.09,51621.37,198.91,172.62,0.871206,88.63,1
154841,1,22325,0,47408,51836,47199.51,51621.80,208.49,214.20,0.871730,88.61,1
154881,1,22365,0,47421,51820,47199.95,51622.20,221.05,197.80,0.872254,88.60,1
154921,1,22405,0,47360,51565,47200.27,51622.09,159.73,-57.09,0.872781,88.59,1
154961,1,22445,0,47238,51337,47200.35,51621.52,37.65,-284.52,0.873292,88.57,1
155001,1,22485,0,47173,51276,47200.30,51620.83,-27.30,-344.83,0.873782,88.56,1
155041,1,22525,0,47172,51285,47200.24,51620.16,-28.24,-335.16,0.874251,88.55,1
155081,1,22565,0,47184,51302,47200.21,51619.52,-16.21,-317.52,0.874701,88.54,1
155121,1,22605,0,47195,51332,47200.20,51618.95,-5.20,-286.95,0.875136,88.52,1
155161,1,22645,0,47209,51380,47200.22,51618.47,8.78,-238.47,0.875561,88.51,1
155201,1,22685,0,47234,51412,47200.29,51618.06,33.71,-206.06,0.875977,88.50,1
155241,1,22725,0,47243,51426,47200.38,51617.68,42.62,-191.68,0.876386,88.49,1
155281,1,22765,0,47248,51444,47200.48,51617.33,47.52,-173.33,0.876789,88.48,1
155322,1,22806,0,47260,51485,47200.60,51617.07,59.40,-132.07,0.877189,88.46,1
155362,1,22846,0,47278,51533,47200.75,51616.90,77.25,-83.90,0.877588,88.45,1
155402,1,22886,0,47295,51592,47200.95,51616.85,94.05,-24.85,0.877987,88.44,1
155442,1,22926,0,47319,51644,47201.18,51616.91,117.82,27.09,0.878387,88.43,1
155482,1,22966,0,47340,51686,47201.46,51617.05,138.54,68.95,0.878789,88.42,1
155522,1,23006,0,47355,51729,47201.77,51617.27,153.23,111.73,0.879193,88.40,1
155562,1,23046,0,47373,51756,47202.11,51617.55,170.89,138.45,0.879599,88.39,1
155602,1,23086,0,47391,51789,47202.49,51617.89,188.51,171.11,0.880005,88.38,1
155642,1,23126,0,47403,51831,47202.89,51618.32,200.11,212.68,0.880410,88.37,1
155682,1,23166,0,47416,51781,47203.32,51618.65,212.68,162.35,0.880819,88.36,1
155722,1,23206,0,47339,51494,47203.59,51618.40,135.41,-124.40,0.881228,88.34,1
155762,1,23246,0,47215,51303,47203.62,51617.77,11.38,-314.77,0.881617,88.33,1
155802,1,23286,0,47172,51264,47203.55,51617.07,-31.55,-353.07,0.881982,88.32,1
155843,1,23327,0,47171,51281,47203.49,51616.39,-32.49,-335.39,0.882325,88.31,1
155883,1,23367,0,47182,51294,47203.45,51615.75,-21.45,-321.75,0.882649,88.30,1
155923,1,23407,0,47190,51336,47203.42,51615.19,-13.42,-279.19,0.882958,88.29,1
155963,1,23447,0,47210,51372,47203.44,51614.71,6.56,-242.71,0.883255,88.28,1
156003,1,23487,0,47230,51393,47203.49,51614.27,26.51,-221.27,0.883543,88.27,1
156043,1,23527,0,47232,51405,47203.55,51613.85,28.45,-208.85,0.883823,88.26,1
156083,1,23567,0,47243,51423,47203.63,51613.47,39.37,-190.47,0.884095,88.24,1
156123,1,23607,0,47261,51460,47203.75,51613.16,57.25,-153.16,0.884363,88.23,1
156163,1,23647,0,47276,51493,47203.89,51612.93,72.11,-119.93,0.884629,88.22,1
156203,1,23687,0,47286,51527,47204.06,51612.75,81.94,-85.75,0.884894,88.21,1
156243,1,23727,0,47302,51553,47204.25,51612.64,97.75,-59.64,0.885160,88.20,1
156283,1,23767,0,47310,51574,47204.46,51612.56,105.54,-38.56,0.885427,88.19,1
156323,1,23807,0,47313,51586,47204.68,51612.51,108.32,-26.51,0.885697,88.18,1
156364,1,23848,0,47314,51594,47204.90,51612.48,109.10,-18.48,0.885968,88.17,1
156404,1,23888,0,47321,51630,47205.14,51612.51,115.86,17.49,0.886241,88.16,1
156444,1,23928,0,47320,51567,47205.37,51612.42,114.63,-45.42,0.886517,88.15,1
156484,1,23968,0,47243,51303,47205.45,51611.80,37.55,-308.80,0.886773,88.14,1
156524,1,24008,0,47136,51122,47205.31,51610.83,-69.31,-488.83,0.886985,88.13,1
156564,1,24048,0,47090,51099,47205.08,51609.80,-115.08,-510.80,0.887150,88.12,1
156604,1,24088,0,47102,51132,47204.87,51608.85,-102.87,-476.85,0.887277,88.12,1
156644,1,24128,0,47120,51152,47204.71,51607.94,-84.71,-455.94,0.887370,88.11,1
156684,1,24168,0,47135,51204,47204.57,51607.13,-69.57,-403.13,0.887436,88.10,1
156724,1,24208,0,47149,51215,47204.46,51606.35,-55.46,-391.35,0.887477,88.09,1
156764,1,24248,0,47150,51206,47204.35,51605.55,-54.35,-399.55,0.887493,88.08,1
156804,1,24288,0,47141,51196,47204.23,51604.73,-63.23,-408.73,0.887483,88.07,1
156844,1,24328,0,47138,51217,47204.09,51603.96,-66.09,-386.96,0.887451,88.06,1
156885,1,24369,0,47150,51246,47203.99,51603.25,-53.99,-357.25,0.887400,88.06,1
156925,1,24409,0,47158,51291,47203.90,51602.62,-45.90,-311.62,0.887335,88.05,1
156965,1,24449,0,47174,51347,47203.84,51602.11,-29.84,-255.11,0.887260,88.04,1
157005,1,24489,0,47208,51395,47203.85,51601.70,4.15,-206.70,0.887179,88.04,1
157045,1,24529,0,47211,51420,47203.86,51601.33,7.14,-181.33,0.887093,88.03,1
157085,1,24569,0,47229,51465,47203.91,51601.06,25.09,-136.06,0.887005,88.02,1
157125,1,24609,0,47256,51479,47204.02,51600.82,51.98,-121.82,0.886916,88.02,1
157165,1,24649,0,47223,51272,47204.06,51600.16,18.94,-328.16,0.886810,88.01,1
157205,1,24689,0,47105,51040,47203.86,51599.05,-98.86,-559.05,0.886659,88.01,1
157245,1,24729,0,47031,50961,47203.52,51597.77,-172.52,-636.77,0.886459,88.00,1
157285,1,24769,0,47023,50954,47203.16,51596.49,-180.16,-642.49,0.886211,88.00,1
157325,1,24809,0,47003,50902,47202.76,51595.10,-199.76,-693.10,0.885913,87.99,1
157365,1,24849,0,46959,50841,47202.28,51593.59,-243.28,-752.59,0.885561,87.99,1
157406,1,24890,0,46928,50786,47201.73,51591.98,-273.73,-805.98,0.885157,87.99,1
157446,1,24930,0,46845,50639,47201.02,51590.07,-356.02,-951.07,0.884689,87.98,1
157486,1,24970,0,46755,50482,47200.13,51587.86,-445.13,-1105.86,0.884154,87.98,1
157526,1,25010,0,46679,50472,47199.09,51585.63,-520.09,-1113.63,0.883574,87.98,1
157566,1,25050,0,46703,50619,47198.09,51583.70,-495.09,-964.70,0.882973,87.98,1
157606,1,25090,0,46803,50789,47197.30,51582.11,-394.30,-793.11,0.882358,87.98,1
157646,1,25130,0,46910,50929,47196.73,51580.80,-286.73,-651.80,0.881730,87.97,1
157686,1,25170,0,46981,51010,47196.30,51579.66,-215.30,-569.66,0.881091,87.97,1
157726,1,25210,0,47025,51095,47195.96,51578.69,-170.96,-483.69,0.880444,87.97,1
157766,1,25250,0,47063,51134,47195.70,51577.80,-132.70,-443.80,0.879789,87.98,1
157806,1,25290,0,47066,51159,47195.44,51576.97,-129.44,-417.97,0.879127,87.98,1
157846,1,25330,0,47066,51078,47195.18,51575.97,-129.18,-497.97,0.878455,87.98,1
157886,1,25370,0,46989,50854,47194.77,51574.53,-205.77,-720.53,0.877760,87.98,1
157927,1,25411,0,46902,50747,47194.18,51572.88,-292.18,-825.88,0.877041,87.98,1
157967,1,25451,0,46884,50768,47193.56,51571.27,-309.56,-803.27,0.876303,87.99,1
158007,1,25491,0,46907,50814,47192.99,51569.76,-285.99,-755.76,0.875550,87.99,1
158047,1,25531,0,46925,50849,47192.46,51568.32,-267.46,-719.32,0.874783,88.00,1
158087,1,25571,0,46954,50933,47191.98,51567.05,-237.98,-634.05,0.874007,88.00,1
158127,1,25611,0,46987,50974,47191.57,51565.86,-204.57,-591.86,0.873221,88.01,1
158167,1,25651,0,47006,50995,47191.20,51564.72,-185.20,-569.72,0.872428,88.01,1
158207,1,25691,0,47017,51028,47190.85,51563.65,-173.85,-535.65,0.871627,88.02,1
158247,1,25731,0,47022,51052,47190.52,51562.63,-168.52,-510.63,0.870820,88.02,1
158287,1,25771,0,47034,51089,47190.20,51561.68,-156.20,-472.68,0.870008,88.03,1
158327,1,25811,0,47056,51159,47189.94,51560.88,-133.94,-401.88,0.869194,88.04,1
158367,1,25851,0,47094,51232,47189.75,51560.22,-95.75,-328.22,0.868379,88.04,1
158408,1,25892,0,47112,51268,47189.59,51559.64,-77.59,-291.64,0.867563,88.05,1
158448,1,25932,0,47123,51308,47189.46,51559.14,-66.46,-251.14,0.866747,88.06,1
158488,1,25972,0,47138,51364,47189.36,51558.75,-51.36,-194.75,0.865932,88.07,1
158528,1,26012,0,47169,51368,47189.32,51558.37,-20.32,-190.37,0.865117,88.08,1
158568,1,26052,0,47119,51171,47189.18,51557.60,-70.18,-386.60,0.864299,88.09,1
158608,1,26092,0,46998,50944,47188.80,51556.37,-190.80,-612.37,0.863470,88.10,1
158648,1,26132,0,46928,50889,47188.28,51555.04,-260.28,-666.04,0.862634,88.11,1
158688,1,26172,0,46960,50961,47187.82,51553.85,-227.82,-592.85,0.861792,88.12,1
158728,1,26212,0,46980,50960,47187.41,51552.66,-207.41,-592.66,0.860943,88.13,1
158768,1,26252,0,46967,50998,47186.96,51551.55,-219.96,-553.55,0.860091,88.14,1
158808,1,26292,0,47012,51103,47186.62,51550.66,-174.62,-447.66,0.859237,88.15,1
158848,1,26332,0,47047,51136,47186.34,51549.83,-139.34,-413.83,0.858381,88.16,1
158888,1,26372,0,47051,51168,47186.07,51549.07,-135.07,-381.07,0.857523,88.18,1
158929,1,26413,0,47076,51228,47185.85,51548.43,-109.85,-320.43,0.856666,88.19,1
158969,1,26453,0,47097,51274,47185.68,51547.88,-88.68,-273.88,0.855809,88.20,1
159009,1,26493,0,47100,51304,47185.50,51547.39,-85.50,-243.39,0.854953,88.21,1
159049,1,26533,0,47116,51375,47185.37,51547.05,-69.37,-172.05,0.854099,88.23,1
159089,1,26573,0,47160,51446,47185.32,51546.85,-25.32,-100.85,0.853247,88.24,1
159129,1,26613,0,47164,51466,47185.27,51546.69,-21.27,-80.69,0.852398,88.25,1
159169,1,26653,0,47174,51488,47185.25,51546.57,-11.25,-58.57,0.851551,88.27,1
159209,1,26693,0,47188,51542,47185.26,51546.57,2.74,-4.57,0.850706,88.28,1
159249,1,26733,0,47210,51583,47185.31,51546.64,24.69,36.36,0.849864,88.29,1
159289,1,26773,0,47203,51465,47185.35,51546.48,17.65,-81.48,0.849024,88.31,1
159329,1,26813,0,47130,51313,47185.24,51546.02,-55.24,-233.02,0.848185,88.32,1
159369,1,26853,0,47091,51288,47185.05,51545.50,-94.05,-257.50,0.847346,88.34,1
159410,1,26894,0,47092,51312,47184.87,51545.04,-92.87,-233.04,0.846509,88.35,1
159450,1,26934,0,47104,51342,47184.71,51544.63,-80.71,-202.63,0.845674,88.37,1
159490,1,26974,0,47115,51390,47184.57,51544.32,-69.57,-154.32,0.844840,88.38,1
159530,1,27014,0,47147,51460,47184.50,51544.15,-37.50,-84.15,0.844009,88.40,1
159570,1,27054,0,47168,51491,47184.46,51544.05,-16.46,-53.05,0.843181,88.41,1
159610,1,27094,0,47184,51533,47184.46,51544.03,-0.46,-11.03,0.842355,88.43,1
159650,1,27134,0,47202,51564,47184.50,51544.07,17.50,19.93,0.841531,88.45,1
159690,1,27174,0,47221,51588,47184.57,51544.16,36.43,43.84,0.840710,88.46,1
159730,1,27214,0,47229,51642,47184.66,51544.36,44.34,97.64,0.839892,88.48,1
159770,1,27254,0,47266,51737,47184.83,51544.74,81.17,192.26,0.839075,88.50,1
159810,1,27294,0,47295,51733,47185.05,51545.12,109.95,187.88,0.838261,88.51,1
159850,1,27334,0,47274,51774,47185.23,51545.58,88.77,228.42,0.837448,88.53,1
159890,1,27374,0,47305,51819,47185.47,51546.13,119.53,272.87,0.836637,88.54,1
159931,1,27415,0,47314,51846,47185.73,51546.73,128.27,299.27,0.835826,88.56,1
159971,1,27455,0,47311,51787,47185.98,51547.21,125.02,239.79,0.835018,88.58,1
160011,1,27495,0,47240,51595,47186.09,51547.31,53.91,47.69,0.834213,88.60,1
160051,1,27535,0,47166,51475,47186.05,51547.16,-20.05,-72.16,0.833410,88.61,1
160091,1,27575,0,47138,51468,47185.96,51547.01,-47.96,-79.01,0.832610,88.63,1
160131,1,27615,0,47147,51497,47185.88,51546.91,-38.88,-49.91,0.831812,88.65,1
160171,1,27655,0,47158,51507,47185.82,51546.83,-27.82,-39.83,0.831016,88.66,1
160211,1,27695,0,47173,51570,47185.80,51546.88,-12.80,23.12,0.830223,88.68,1
160251,1,27735,0,47199,51613,47185.83,51547.01,13.17,65.99,0.829432,88.70,1
160291,1,27775,0,47209,51633,47185.87,51547.18,23.12,85.82,0.828644,88.72,1
160331,1,27815,0,47229,51673,47185.96,51547.44,43.04,125.56,0.827857,88.73,1
160371,1,27855,0,47250,51719,47186.09,51547.78,63.91,171.22,0.827071,88.75,1
160411,1,27895,0,47266,51763,47186.25,51548.21,79.75,214.79,0.826287,88.77,1
160452,1,27936,0,47282,51806,47186.44,51548.73,95.56,257.27,0.825503,88.79,1
160492,1,27976,0,47301,51864,47186.67,51549.36,114.33,314.64,0.824718,88.81,1
160532,1,28016,0,47319,51909,47186.94,51550.08,132.06,358.92,0.823931,88.82,1
160572,1,28056,0,47344,51955,47187.25,51550.89,156.75,404.11,0.823143,88.84,1
160612,1,28096,0,47355,51999,47187.59,51551.79,167.41,447.21,0.822351,88.86,1
160652,1,28136,0,47373,51969,47187.96,51552.63,185.04,416.37,0.821558,88.88,1
160692,1,28176,0,47320,51789,47188.23,51553.10,131.77,235.90,0.820769,88.90,1
160732,1,28216,0,47244,51665,47188.34,51553.33,55.66,111.67,0.819982,88.91,1
160772,1,28256,0,47210,51632,47188.38,51553.49,21.62,78.51,0.819197,88.93,1
160812,1,28296,0,47214,51641,47188.43,51553.66,25.57,87.34,0.818415,88.95,1
160852,1,28336,0,47218,51663,47188.49,51553.88,29.51,109.12,0.817634,88.97,1
160892,1,28376,0,47230,51714,47188.58,51554.20,41.42,159.80,0.816854,88.99,1
160933,1,28417,0,47252,51747,47188.71,51554.59,63.29,192.41,0.816075,89.00,1
160973,1,28457,0,47253,51766,47188.84,51555.02,64.16,210.98,0.815296,89.02,1
161013,1,28497,0,47260,51795,47188.98,51555.50,71.02,239.50,0.814518,89.04,1
161053,1,28537,0,47274,51804,47189.15,51556.00,84.85,248.00,0.813739,89.06,1
161093,1,28577,0,47281,51850,47189.34,51556.59,91.66,293.41,0.812960,89.08,1
161133,1,28617,0,47307,51898,47189.57,51557.27,117.43,340.73,0.812178,89.10,1
161173,1,28657,0,47326,51938,47189.85,51558.03,136.15,379.97,0.811395,89.12,1
161213,1,28697,0,47342,51978,47190.15,51558.87,151.85,419.13,0.810608,89.13,1
161253,1,28737,0,47350,52003,47190.47,51559.76,159.53,443.24,0.809817,89.15,1
161293,1,28777,0,47361,52039,47190.82,51560.72,170.18,478.28,0.809021,89.17,1
161333,1,28817,0,47376,52041,47191.19,51561.68,184.81,479.32,0.808222,89.19,1
161373,1,28857,0,47343,51896,47191.49,51562.36,151.51,333.64,0.807424,89.21,1
161413,1,28897,0,47260,51729,47191.63,51562.69,68.37,166.31,0.806628,89.23,1
161454,1,28938,0,47205,51660,47191.66,51562.89,13.34,97.11,0.805834,89.25,1
161494,1,28978,0,47193,51679,47191.66,51563.12,1.34,115.88,0.805041,89.27,1
161534,1,29018,0,47210,51712,47191.70,51563.42,18.30,148.58,0.804249,89.28,1
161574,1,29058,0,47217,51726,47191.75,51563.75,25.25,162.25,0.803459,89.30,1
161614,1,29098,0,47227,51799,47191.82,51564.22,35.18,234.78,0.802667,89.32,1
161654,1,29138,0,47261,51837,47191.96,51564.77,69.04,272.23,0.801874,89.34,1
161694,1,29178,0,47267,51847,47192.11,51565.34,74.89,281.66,0.801080,89.36,1
161734,1,29218,0,47272,51869,47192.27,51565.95,79.73,303.05,0.800283,89.38,1
161774,1,29258,0,47284,51906,47192.46,51566.62,91.54,339.37,0.799484,89.40,1
161814,1,29298,0,47298,51933,47192.67,51567.36,105.33,365.64,0.798682,89.42,1
161854,1,29338,0,47310,51989,47192.90,51568.20,117.10,420.80,0.797874,89.44,1
161894,1,29378,0,47330,52033,47193.18,51569.13,136.82,463.87,0.797060,89.46,1
161935,1,29419,0,47345,52065,47193.48,51570.12,151.52,494.87,0.796239,89.47,1
161975,1,29459,0,47354,52111,47193.80,51571.21,160.20,539.79,0.795409,89.49,1
162015,1,29499,0,47365,52152,47194.15,51572.37,170.85,579.63,0.794569,89.51,1
162055,1,29539,0,47384,52161,47194.53,51573.55,189.47,587.45,0.793721,89.53,1
162095,1,29579,0,47349,52031,47194.84,51574.47,154.16,456.53,0.792870,89.55,1
162135,1,29619,0,47278,51905,47195.01,51575.13,82.99,329.87,0.792016,89.57,1
162175,1,29659,0,47250,51866,47195.12,51575.71,54.88,290.29,0.791161,89.59,1
162215,1,29699,0,47244,51876,47195.21,51576.32,48.79,299.68,0.790304,89.61,1
162255,1,29739,0,47243,51896,47195.31,51576.96,47.69,319.04,0.789444,89.63,1
162295,1,29779,0,47255,51932,47195.43,51577.67,59.57,354.33,0.788581,89.65,1
162335,1,29819,0,47265,51966,47195.57,51578.45,69.43,387.55,0.787713,89.67,1
162375,1,29859,0,47274,51998,47195.73,51579.29,78.27,418.71,0.786839,89.69,1
162416,1,29900,0,47281,52013,47195.90,51580.15,85.10,432.85,0.785959,89.71,1
162456,1,29940,0,47277,52021,47196.07,51581.04,80.93,439.96,0.785072,89.73,1
162496,1,29980,0,47283,52062,47196.24,51582.00,86.76,480.00,0.784177,89.75,1
162536,1,30020,0,47297,52093,47196.45,51583.02,100.55,509.98,0.783274,89.77,1
162576,1,30060,1,47308,52135,47196.67,51584.13,111.33,550.87,0.782360,89.79,1
162616,1,30100,1,47316,52169,47196.91,51585.30,119.09,583.70,0.781436,89.81,1
162656,1,30140,1,47331,52192,47197.18,51586.52,133.82,605.48,0.780500,89.83,1
162696,1,30180,1,47336,52218,47197.45,51587.78,138.55,630.22,0.779553,89.85,1
162736,1,30220,1,47345,52247,47197.75,51589.10,147.25,657.90,0.778593,89.87,1
162776,1,30260,1,47337,52174,47198.03,51590.27,138.97,583.73,0.777625,89.89,1
162816,1,30300,1,47281,52057,47198.20,51591.21,82.80,465.79,0.776652,89.91,1
162856,1,30340,1,47233,51999,47198.27,51592.02,34.73,406.98,0.775675,89.93,1
162896,1,30380,1,47223,52005,47198.32,51592.85,24.68,412.15,0.774693,89.95,1
162937,1,30421,1,47223,52026,47198.37,51593.72,24.63,432.28,0.773705,89.98,1
162977,1,30461,1,47230,52058,47198.44,51594.65,31.56,463.35,0.772712,90.00,1
163017,1,30501,1,47231,52094,47198.50,51595.65,32.50,498.35,0.771710,90.02,1
163057,1,30541,1,47240,52106,47198.59,51596.67,41.41,509.33,0.770701,90.04,1
163097,1,30581,1,47238,52132,47198.67,51597.74,39.33,534.26,0.769683,90.06,1
163137,1,30621,1,47246,52149,47198.77,51598.85,47.23,550.15,0.768656,90.08,1
163177,1,30661,1,47251,52168,47198.87,51599.99,52.13,568.01,0.767620,90.10,1
163217,1,30701,1,47261,52208,47199.00,51601.21,62.00,606.79,0.766572,90.13,1
163257,1,30741,1,47274,52256,47199.15,51602.52,74.85,653.48,0.765513,90.15,1
163297,1,30781,1,47287,52283,47199.32,51603.88,87.68,679.12,0.764441,90.17,1
163337,1,30821,1,47295,52318,47199.52,51605.31,95.48,712.69,0.763357,90.19,1
163377,1,30861,1,47303,52348,47199.72,51606.80,103.28,741.20,0.762259,90.22,1
163418,1,30902,1,47304,52370,47199.93,51608.33,104.07,761.67,0.761147,90.24,1
163458,1,30942,1,47316,52399,47200.17,51609.91,115.83,789.09,0.760021,90.26,1
163498,1,30982,1,47297,52317,47200.36,51611.32,96.64,705.68,0.758886,90.28,1
163538,1,31022,1,47236,52205,47200.44,51612.51,35.56,592.49,0.757743,90.31,1
163578,1,31062,1,47204,52169,47200.45,51613.62,3.55,555.37,0.756594,90.33,1
163618,1,31102,1,47187,52169,47200.42,51614.74,-13.42,554.26,0.755439,90.35,1
163658,1,31142,1,47192,52175,47200.40,51615.86,-8.40,559.14,0.754279,90.38,1
163698,1,31182,1,47199,52183,47200.40,51617.00,-1.40,566.00,0.753113,90.40,1
163738,1,31222,1,47197,52219,47200.40,51618.20,-3.40,600.80,0.751940,90.43,1
163778,1,31262,1,47206,52239,47200.41,51619.45,5.59,619.55,0.750759,90.45,1
163818,1,31302,1,47217,52254,47200.45,51620.71,16.55,633.29,0.749572,90.47,1
163858,1,31342,1,47208,52267,47200.46,51622.01,7.54,644.99,0.748376,90.50,1
163898,1,31382,1,47215,52301,47200.49,51623.37,14.51,677.63,0.747172,90.52,1
163939,1,31423,1,47223,52328,47200.54,51624.78,22.46,703.22,0.745959,90.55,1
163979,1,31463,1,47231,52363,47200.60,51626.25,30.40,736.75,0.744737,90.57,1
164019,1,31503,1,47232,52385,47200.66,51627.77,31.34,757.23,0.743504,90.60,1
164059,1,31543,1,47242,52420,47200.75,51629.36,41.25,790.64,0.742261,90.62,1
164099,1,31583,1,47247,52445,47200.84,51630.99,46.16,814.01,0.741007,90.65,1
164139,1,31623,1,47249,52474,47200.94,51632.68,48.06,841.32,0.739742,90.67,1
164179,1,31663,1,47269,52512,47201.07,51634.44,67.93,877.56,0.738465,90.70,1
164219,1,31703,1,47271,52460,47201.21,51636.09,69.79,823.91,0.737180,90.73,1
164259,1,31743,1,47216,52343,47201.25,51637.51,14.75,705.49,0.735889,90.75,1
164299,1,31783,1,47173,52294,47201.19,51638.82,-28.19,655.18,0.734594,90.78,1
164339,1,31823,1,47161,52279,47201.11,51640.10,-40.11,638.90,0.733295,90.81,1
164379,1,31863,1,47152,52281,47201.02,51641.38,-49.02,639.62,0.731993,90.83,1
164420,1,31904,1,47152,52293,47200.92,51642.69,-48.92,650.31,0.730688,90.86,1
164460,1,31944,1,47158,52328,47200.83,51644.06,-42.83,683.94,0.729379,90.89,1
164500,1,31984,1,47165,52342,47200.76,51645.46,-35.76,696.54,0.728065,90.91,1
164540,1,32024,1,47167,52352,47200.70,51646.87,-33.70,705.13,0.726747,90.94,1
164580,1,32064,1,47168,52365,47200.63,51648.31,-32.63,716.69,0.725424,90.97,1
164620,1,32104,1,47176,52386,47200.59,51649.79,-24.59,736.21,0.724096,91.00,1
164660,1,32144,1,47178,52404,47200.54,51651.30,-22.54,752.70,0.722763,91.03,1
164700,1,32184,1,47188,52429,47200.52,51652.86,-12.52,776.14,0.721425,91.05,1
164740,1,32224,1,47197,52454,47200.52,51654.46,-3.52,799.54,0.720080,91.08,1
164780,1,32264,1,47201,52469,47200.52,51656.09,0.48,812.91,0.718729,91.11,1
164820,1,32304,1,47210,52482,47200.54,51657.74,9.46,824.26,0.717373,91.14,1
164860,1,32344,1,47204,52493,47200.55,51659.41,3.45,833.59,0.716010,91.17,1
164900,1,32384,1,47203,52517,47200.55,51661.13,2.45,855.87,0.714642,91.20,1
164941,1,32425,1,47210,52493,47200.57,51662.79,9.43,830.21,0.713268,91.23,1
164981,1,32465,1,47169,52380,47200.51,51664.23,-31.51,715.77,0.711891,91.26,1
165021,1,32505,1,47114,52290,47200.34,51665.48,-86.34,624.52,0.710516,91.28,1
165061,1,32545,1,47092,52288,47200.12,51666.73,-108.12,621.27,0.709142,91.31,1
165101,1,32585,1,47112,52365,47199.95,51668.13,-87.95,696.87,0.707768,91.34,1
165141,1,32625,1,47176,52465,47199.90,51669.72,-23.90,795.28,0.706391,91.37,1
165181,1,32665,1,47190,52397,47199.88,51671.18,-9.88,725.82,0.705010,91.40,1
165221,1,32705,1,47145,52396,47199.77,51672.63,-54.77,723.37,0.703629,91.43,1
165261,1,32745,1,47175,52446,47199.73,51674.18,-24.73,771.82,0.702244,91.46,1
165301,1,32785,1,47172,52407,47199.67,51675.64,-27.67,731.36,0.700858,91.49,1
165341,1,32825,1,47144,52378,47199.56,51677.05,-55.56,700.95,0.699470,91.53,1
165381,1,32865,1,47135,52392,47199.43,51678.48,-64.43,713.52,0.698082,91.56,1
165421,1,32905,1,47137,52395,47199.31,51679.91,-62.31,715.09,0.696694,91.59,1
165462,1,32946,1,47128,52407,47199.17,51681.37,-71.17,725.63,0.695304,91.62,1
165502,1,32986,1,47146,52444,47199.06,51682.90,-53.06,761.10,0.693914,91.65,1
165542,1,33026,1,47139,52439,47198.95,51684.41,-59.95,754.59,0.692522,91.68,1
165582,1,33066,1,47127,52423,47198.80,51685.89,-71.80,737.11,0.691129,91.71,1
165622,1,33106,1,47097,52360,47198.60,51687.24,-101.60,672.76,0.689739,91.74,1
165662,1,33146,1,47052,52267,47198.30,51688.40,-146.30,578.60,0.688354,91.77,1
165702,1,33186,1,47022,52176,47197.95,51689.37,-175.95,486.62,0.686979,91.81,1
165742,1,33226,1,46999,52141,47197.55,51690.28,-198.55,450.72,0.685615,91.84,1
165782,1,33266,1,47001,52156,47197.16,51691.21,-196.16,464.79,0.684263,91.87,1
165822,1,33306,1,47014,52166,47196.80,51692.16,-182.80,473.84,0.682919,91.90,1
165862,1,33346,1,47025,52189,47196.46,51693.16,-171.46,495.84,0.681585,91.93,1
165902,1,33386,1,47037,52214,47196.14,51694.20,-159.14,519.80,0.680257,91.96,1
165942,1,33426,1,47034,52206,47195.82,51695.23,-161.82,510.77,0.678936,92.00,1
165983,1,33467,1,47038,52209,47195.50,51696.25,-157.50,512.75,0.677622,92.03,1
166023,1,33507,1,47040,52211,47195.20,51697.29,-155.20,513.71,0.676315,92.06,1
166063,1,33547,1,47047,52231,47194.90,51698.36,-147.90,532.64,0.675014,92.09,1
166103,1,33587,1,47055,52254,47194.62,51699.47,-139.62,554.53,0.673718,92.12,1
166143,1,33627,1,47080,52308,47194.39,51700.69,-114.39,607.31,0.672424,92.16,1
166183,1,33667,1,47100,52323,47194.21,51701.93,-94.21,621.07,0.671132,92.19,1
166223,1,33707,1,47099,52319,47194.02,51703.17,-95.02,615.83,0.669842,92.22,1
166263,1,33747,1,47117,52353,47193.87,51704.47,-76.87,648.53,0.668552,92.25,1
166303,1,33787,1,47124,52355,47193.73,51705.77,-69.73,649.23,0.667262,92.28,1
166343,1,33827,1,47113,52254,47193.57,51706.87,-80.57,547.13,0.665975,92.32,1
166383,1,33867,1,47065,52129,47193.31,51707.71,-128.31,421.29,0.664693,92.35,1
166423,1,33907,1,47016,52022,47192.96,51708.34,-176.96,313.66,0.663421,92.38,1
166464,1,33948,1,46982,51970,47192.54,51708.86,-210.54,261.14,0.662163,92.41,1
166504,1,33988,1,46987,51975,47192.13,51709.40,-205.13,265.60,0.660918,92.44,1
166544,1,34028,1,47008,51990,47191.76,51709.96,-183.76,280.04,0.659684,92.48,1
166584,1,34068,1,47014,51998,47191.41,51710.54,-177.41,287.46,0.658460,92.51,1
166624,1,34108,1,47033,52024,47191.09,51711.17,-158.09,312.83,0.657244,92.54,1
166664,1,34148,1,47052,52046,47190.81,51711.84,-138.81,334.16,0.656035,92.57,1
166704,1,34188,1,47074,52050,47190.58,51712.52,-116.58,337.48,0.654831,92.60,1
166744,1,34228,1,47089,52071,47190.38,51713.23,-101.38,357.77,0.653631,92.63,1
166784,1,34268,1,47113,52107,47190.23,51714.02,-77.23,392.98,0.652435,92.67,1
166824,1,34308,1,47125,52119,47190.10,51714.84,-65.10,404.16,0.651241,92.70,1
166864,1,34348,1,47141,52146,47190.00,51715.70,-49.00,430.30,0.650049,92.73,1
166904,1,34388,1,47158,52168,47189.94,51716.61,-31.94,451.39,0.648858,92.76,1
166944,1,34428,1,47163,52179,47189.89,51717.53,-26.89,461.47,0.647669,92.79,1
166985,1,34469,1,47171,52198,47189.85,51718.49,-18.85,479.51,0.646479,92.82,1
167025,1,34509,1,47175,52132,47189.82,51719.32,-14.82,412.68,0.645292,92.86,1
167065,1,34549,1,47110,51951,47189.66,51719.79,-79.66,231.21,0.644109,92.89,1
167105,1,34589,1,47058,51859,47189.40,51720.07,-131.40,138.93,0.642933,92.92,1
167145,1,34629,1,47054,51855,47189.13,51720.34,-135.13,134.66,0.641765,92.95,1
167185,1,34669,1,47071,51867,47188.90,51720.63,-117.90,146.37,0.640604,92.98,1
167225,1,34709,1,47087,51872,47188.70,51720.93,-101.70,151.07,0.639449,93.01,1
167265,1,34749,1,47109,51901,47188.54,51721.30,-79.54,179.70,0.638298,93.04,1
167305,1,34789,1,47126,51927,47188.41,51721.71,-62.41,205.29,0.637152,93.07,1
167345,1,34829,1,47139,51929,47188.32,51722.12,-49.32,206.87,0.636009,93.10,1
167385,1,34869,1,47152,51935,47188.25,51722.55,-36.25,212.45,0.634868,93.13,1
167425,1,34909,1,47153,51948,47188.18,51723.00,-35.18,225.00,0.633731,93.16,1
167465,1,34949,1,47168,51970,47188.14,51723.50,-20.14,246.50,0.632597,93.20,1
167506,1,34990,1,47178,51997,47188.12,51724.05,-10.12,272.95,0.631465,93.23,1
167546,1,35030,1,47186,52020,47188.11,51724.64,-2.11,295.36,0.630335,93.26,1
167586,1,35070,1,47204,52032,47188.14,51725.26,15.86,306.74,0.629207,93.29,1
167626,1,35110,1,47205,52041,47188.18,51725.89,16.82,315.11,0.628081,93.32,1
167666,1,35150,1,47219,52077,47188.24,51726.59,30.76,350.41,0.626957,93.35,1
167706,1,35190,1,47218,51967,47188.30,51727.07,29.70,239.93,0.625836,93.38,1
167746,1,35230,1,47150,51772,47188.23,51727.16,-38.23,44.84,0.624718,93.41,1
167786,1,35270,1,47089,51700,47188.04,51727.11,-99.04,-27.11,0.623607,93.44,1
167826,1,35310,1,47091,51686,47187.84,51727.03,-96.84,-41.03,0.622502,93.47,1
167866,1,35350,1,47094,51692,47187.66,51726.96,-93.66,-34.96,0.621402,93.50,1
167906,1,35390,1,47105,51713,47187.49,51726.93,-82.49,-13.93,0.620308,93.53,1
167946,1,35430,1,47124,51753,47187.37,51726.98,-63.37,26.02,0.619218,93.56,1
167987,1,35471,1,47140,51762,47187.27,51727.05,-47.27,34.95,0.618132,93.59,1
168027,1,35511,1,47146,51772,47187.19,51727.14,-41.19,44.86,0.617050,93.62,1
168067,1,35551,1,47154,51784,47187.12,51727.26,-33.13,56.74,0.615971,93.65,1
168107,1,35591,1,47164,51806,47187.08,51727.42,-23.08,78.58,0.614896,93.68,1
168147,1,35631,1,47181,51848,47187.07,51727.66,-6.07,120.34,0.613823,93.71,1
168187,1,35671,1,47204,51881,47187.10,51727.97,16.90,153.03,0.612754,93.73,1
168227,1,35711,1,47226,51917,47187.18,51728.35,38.82,188.65,0.611687,93.76,1
168267,1,35751,1,47248,51944,47187.30,51728.78,60.70,215.22,0.610625,93.79,1
168307,1,35791,1,47265,51982,47187.46,51729.29,77.54,252.71,0.609566,93.82,1
168347,1,35831,1,47277,51935,47187.64,51729.70,89.36,205.30,0.608512,93.85,1
168387,1,35871,1,47225,51768,47187.71,51729.78,37.29,38.22,0.607462,93.88,1
168427,1,35911,1,47164,51672,47187.66,51729.67,-23.66,-57.67,0.606415,93.91,1
168467,1,35951,1,47161,51687,47187.61,51729.58,-26.61,-42.58,0.605371,93.94,1
168508,1,35992,1,47180,51722,47187.60,51729.57,-7.60,-7.57,0.604330,93.97,1
168548,1,36032,1,47201,51770,47187.62,51729.65,13.38,40.35,0.603293,93.99,1
168588,1,36072,1,47227,51837,47187.70,51729.86,39.30,107.14,0.602259,94.02,1
168628,1,36112,1,47261,51877,47187.85,51730.16,73.15,146.84,0.601230,94.05,1
168668,1,36152,1,47278,51921,47188.03,51730.54,89.97,190.46,0.600205,94.08,1
168708,1,36192,1,47297,51932,47188.25,51730.95,108.75,201.05,0.599187,94.11,1
168748,1,36232,1,47304,51961,47188.48,51731.41,115.52,229.59,0.598176,94.14,1
168788,1,36272,1,47328,52008,47188.77,51731.96,139.23,276.04,0.597173,94.16,1
168828,1,36312,1,47344,52052,47189.08,51732.60,154.92,319.40,0.596179,94.19,1
168868,1,36352,1,47378,52128,47189.46,51733.39,188.54,394.61,0.595197,94.22,1
168908,1,36392,1,47426,52203,47189.93,51734.34,236.07,468.66,0.594233,94.25,1
168948,1,36432,1,47450,52223,47190.45,51735.32,259.55,487.68,0.593289,94.28,1
168988,1,36472,1,47449,52166,47190.97,51736.18,258.03,429.82,0.592365,94.30,1
169029,1,36513,1,47393,51994,47191.37,51736.70,201.62,257.30,0.591455,94.33,1
169069,1,36553,1,47326,51922,47191.64,51737.07,134.36,184.93,0.590553,94.36,1
169109,1,36593,1,47325,51932,47191.91,51737.46,133.09,194.54,0.589659,94.38,1
169149,1,36633,1,47342,51944,47192.21,51737.87,149.79,206.13,0.588774,94.41,1
169189,1,36673,1,47344,51978,47192.52,51738.35,151.48,239.65,0.587897,94.44,1
169229,1,36713,1,47372,52039,47192.88,51738.95,179.12,300.05,0.587031,94.46,1
169269,1,36753,1,47398,52052,47193.29,51739.58,204.71,312.42,0.586179,94.49,1
169309,1,36793,1,47399,52049,47193.70,51740.20,205.30,308.80,0.585340,94.52,1
169349,1,36833,1,47384,52028,47194.09,51740.78,189.91,287.22,0.584513,94.54,1
169389,1,36873,1,47384,52041,47194.47,51741.38,189.53,299.62,0.583697,94.57,1
169429,1,36913,1,47388,52059,47194.86,51742.02,193.14,316.98,0.582893,94.59,1
169469,1,36953,1,47396,52093,47195.26,51742.72,200.74,350.28,0.582101,94.62,1
169509,1,36993,1,47408,52118,47195.68,51743.47,212.32,374.53,0.581321,94.65,1
169550,1,37034,1,47419,52153,47196.13,51744.29,222.87,408.71,0.580554,94.67,1
169590,1,37074,1,47427,52194,47196.60,51745.20,230.40,448.80,0.579801,94.70,1
169630,1,37114,1,47454,52214,47197.11,51746.13,256.89,467.87,0.579063,94.72,1
169670,1,37154,1,47429,52042,47197.58,51746.73,231.42,295.27,0.578340,94.75,1
169710,1,37194,1,47336,51933,47197.86,51747.10,138.14,185.90,0.577625,94.77,1
169750,1,37234,1,47333,51946,47198.13,51747.50,134.87,198.50,0.576916,94.79,1
169790,1,37274,1,47338,51958,47198.41,51747.92,139.59,210.08,0.576213,94.82,1
169830,1,37314,1,47357,51984,47198.73,51748.39,158.27,235.61,0.575518,94.84,1
169870,1,37354,1,47360,52002,47199.05,51748.90,160.95,253.10,0.574832,94.87,1
169910,1,37394,1,47375,52039,47199.41,51749.48,175.59,289.52,0.574154,94.89,1
169950,1,37434,1,47379,52024,47199.77,51750.04,179.23,273.96,0.573485,94.91,1
169990,1,37474,1,47359,52024,47200.09,51750.59,158.91,273.41,0.572823,94.94,1
170030,1,37514,1,47361,52046,47200.41,51751.18,160.59,294.82,0.572169,94.96,1
170071,1,37555,1,47381,52097,47200.77,51751.87,180.23,345.13,0.571522,94.98,1
170111,1,37595,1,47394,52106,47201.16,51752.58,192.84,353.42,0.570884,95.00,1
170151,1,37635,1,47387,52130,47201.53,51753.34,185.47,376.66,0.570254,95.03,1
170191,1,37675,1,47416,52167,47201.96,51754.17,214.04,412.83,0.569633,95.05,1
170231,1,37715,1,47411,52152,47202.38,51754.96,208.62,397.04,0.569022,95.07,1
170271,1,37755,1,47420,52253,47202.82,51755.96,217.18,497.04,0.568419,95.09,1
170311,1,37795,1,47492,52273,47203.39,51757.00,288.61,516.00,0.567832,95.11,1
170351,1,37835,1,47440,52050,47203.87,51757.58,236.13,292.42,0.567260,95.13,1
170391,1,37875,1,47315,51910,47204.09,51757.89,110.91,152.11,0.566692,95.15,1
170431,1,37915,1,47319,51917,47204.32,51758.21,114.68,158.79,0.566129,95.18,1
170471,1,37955,1,47307,51890,47204.53,51758.47,102.47,131.53,0.565570,95.20,1
170511,1,37995,1,47300,51897,47204.72,51758.75,95.28,138.25,0.565015,95.22,1
170551,1,38035,1,47301,51920,47204.91,51759.07,96.09,160.93,0.564463,95.24,1
170592,1,38076,1,47311,51947,47205.13,51759.45,105.87,187.55,0.563915,95.26,1
170632,1,38116,1,47316,51969,47205.35,51759.87,110.65,209.12,0.563370,95.28,1
170672,1,38156,1,47318,51965,47205.58,51760.29,112.42,204.71,0.562829,95.30,1
170712,1,38196,1,47321,51974,47205.81,51760.71,115.19,213.29,0.562292,95.32,1
170752,1,38236,1,47324,52000,47206.05,51761.20,117.95,238.80,0.561759,95.33,1
170792,1,38276,1,47337,52026,47206.31,51761.73,130.69,264.27,0.561230,95.35,1
170832,1,38316,1,47346,52052,47206.59,51762.31,139.41,289.69,0.560705,95.37,1
170872,1,38356,1,47359,52091,47206.89,51762.97,152.11,328.03,0.560185,95.39,1
170912,1,38396,1,47369,52116,47207.22,51763.68,161.78,352.32,0.559669,95.41,1
170952,1,38436,1,47381,52145,47207.57,51764.44,173.43,380.56,0.559159,95.43,1
170992,1,38476,1,47370,52124,47207.89,51765.16,162.11,358.84,0.558653,95.45,1
171032,1,38516,1,47360,52127,47208.20,51765.89,151.80,361.11,0.558150,95.46,1
171072,1,38556,1,47343,52020,47208.46,51766.39,134.54,253.61,0.557652,95.48,1
171113,1,38597,1,47283,51905,47208.61,51766.67,74.39,138.33,0.557156,95.50,1
171153,1,38637,1,47257,51920,47208.71,51766.98,48.29,153.02,0.556662,95.52,1
171193,1,38677,1,47281,51954,47208.86,51767.36,72.14,186.64,0.556169,95.53,1
171233,1,38717,1,47295,51984,47209.03,51767.79,85.97,216.21,0.555679,95.55,1
171273,1,38757,1,47313,52031,47209.24,51768.32,103.76,262.68,0.555190,95.57,1
171313,1,38797,1,47336,52061,47209.49,51768.90,126.51,292.10,0.554704,95.59,1
171353,1,38837,1,47350,52079,47209.77,51769.52,140.23,309.48,0.554223,95.60,1
171393,1,38877,1,47360,52089,47210.07,51770.16,149.93,318.84,0.553745,95.62,1
171433,1,38917,1,47359,52108,47210.37,51770.84,148.62,337.16,0.553271,95.64,1
171473,1,38957,1,47375,52142,47210.71,51771.58,164.29,370.42,0.552802,95.65,1
171513,1,38997,1,47381,52160,47211.05,51772.36,169.95,387.64,0.552337,95.67,1
171553,1,39037,1,47375,52176,47211.38,51773.17,163.62,402.83,0.551874,95.68,1
171593,1,39077,1,47392,52212,47211.74,51774.05,180.26,437.95,0.551416,95.70,1
171634,1,39118,1,47394,52209,47212.11,51774.92,181.89,434.08,0.550961,95.72,1
171674,1,39158,1,47393,52240,47212.47,51775.85,180.53,464.15,0.550509,95.73,1
171714,1,39198,1,47394,52245,47212.84,51776.79,181.16,468.21,0.550059,95.75,1
171754,1,39238,1,47383,52176,47213.18,51777.59,169.82,398.41,0.549613,95.76,1
171794,1,39278,1,47326,52034,47213.40,51778.11,112.60,255.89,0.549170,95.78,1
171834,1,39318,1,47281,51979,47213.54,51778.51,67.46,200.49,0.548727,95.79,1
171874,1,39358,1,47287,51989,47213.69,51778.93,73.31,210.07,0.548286,95.81,1
171914,1,39398,1,47290,51999,47213.84,51779.37,76.16,219.63,0.547846,95.82,1
171954,1,39438,1,47299,52026,47214.01,51779.87,84.99,246.13,0.547407,95.84,1
171994,1,39478,1,47314,52060,47214.21,51780.43,99.79,279.57,0.546969,95.85,1
172034,1,39518,1,47322,52062,47214.43,51781.00,107.57,281.00,0.546532,95.87,1
172074,1,39558,1,47316,52063,47214.63,51781.56,101.37,281.44,0.546097,95.88,1
172114,1,39598,1,47321,52089,47214.85,51782.18,106.15,306.82,0.545663,95.90,1
172155,1,39639,1,47333,52112,47215.09,51782.84,117.91,329.16,0.545230,95.91,1
172195,1,39679,1,47332,52118,47215.32,51783.51,116.68,334.49,0.544798,95.92,1
172235,1,39719,1,47343,52175,47215.58,51784.30,127.42,390.70,0.544366,95.94,1
172275,1,39759,1,47351,52175,47215.85,51785.08,135.15,389.92,0.543934,95.95,1
172315,1,39799,1,47347,52204,47216.11,51785.92,130.89,418.08,0.543502,95.97,1
172355,1,39839,1,47369,52237,47216.42,51786.82,152.58,450.18,0.543070,95.98,1
172395,1,39879,1,47370,52220,47216.73,51787.69,153.27,432.31,0.542638,95.99,1
172435,1,39919,1,47371,52272,47217.04,51788.66,153.96,483.34,0.542206,96.01,1
172475,1,39959,1,47395,52226,47217.39,51789.53,177.61,436.47,0.541777,96.02,1
172515,1,39999,1,47320,52030,47217.60,51790.01,102.40,239.99,0.541351,96.03,1
172555,1,40039,1,47244,51933,47217.66,51790.30,26.34,142.70,0.540925,96.05,1
172595,1,40079,1,47236,51925,47217.70,51790.57,18.30,134.43,0.540499,96.06,1
172635,1,40119,1,47230,51915,47217.72,51790.82,12.28,124.18,0.540075,96.07,1
172676,1,40160,1,47239,51927,47217.77,51791.09,21.23,135.91,0.539651,96.09,1
172716,1,40200,1,47240,51940,47217.81,51791.39,22.19,148.61,0.539227,96.10,1
172756,1,40240,1,47245,51961,47217.87,51791.73,27.13,169.27,0.538804,96.11,1
172796,1,40280,1,47261,51990,47217.95,51792.13,43.05,197.87,0.538381,96.12,1
172836,1,40320,1,47277,52011,47218.07,51792.57,58.93,218.43,0.537958,96.14,1
172876,1,40360,1,47279,52038,47218.20,51793.06,60.80,244.94,0.537535,96.15,1
172916,1,40400,1,47306,52079,47218.37,51793.64,87.62,285.36,0.537112,96.16,1
172956,1,40440,1,47328,52114,47218.59,51794.28,109.41,319.72,0.536690,96.18,1
172996,1,40480,1,47346,52148,47218.85,51794.98,127.15,353.02,0.536270,96.19,1
173036,1,40520,1,47354,52173,47219.12,51795.74,134.87,377.26,0.535850,96.20,1
173076,1,40560,1,47364,52189,47219.41,51796.53,144.59,392.47,0.535432,96.21,1
173116,1,40600,1,47362,52202,47219.70,51797.34,142.30,404.66,0.535015,96.23,1
173156,1,40640,1,47370,52233,47220.00,51798.21,150.00,434.79,0.534598,96.24,1
173197,1,40681,1,47381,52250,47220.32,51799.12,160.68,450.88,0.534183,96.25,1
173237,1,40721,1,47384,52242,47220.65,51800.01,163.35,441.99,0.533769,96.26,1
173277,1,40761,1,47355,52094,47220.92,51800.60,134.08,293.40,0.533358,96.27,1
173317,1,40801,1,47280,51954,47221.04,51800.91,58.96,153.09,0.532949,96.29,1
173357,1,40841,1,47243,51929,47221.09,51801.16,21.91,127.84,0.532541,96.30,1
173397,1,40881,1,47261,51951,47221.17,51801.46,39.83,149.54,0.532134,96.31,1
173437,1,40921,1,47270,51950,47221.27,51801.76,48.73,148.24,0.531727,96.32,1
173477,1,40961,1,47278,51965,47221.38,51802.09,56.62,162.91,0.531322,96.33,1
173517,1,41001,1,47265,51951,47221.47,51802.39,43.53,148.61,0.530917,96.35,1
173557,1,41041,1,47294,52020,47221.62,51802.83,72.38,217.17,0.530513,96.36,1
173597,1,41081,1,47314,52013,47221.80,51803.25,92.20,209.75,0.530112,96.37,1
173637,1,41121,1,47308,52045,47221.98,51803.73,86.02,241.27,0.529712,96.38,1
173677,1,41161,1,47340,52098,47222.21,51804.32,117.79,293.68,0.529314,96.39,1
173718,1,41202,1,47353,52113,47222.48,51804.94,130.52,308.06,0.528918,96.40,1
173758,1,41242,1,47361,52153,47222.75,51805.64,138.25,347.36,0.528525,96.42,1
173798,1,41282,1,47382,52194,47223.07,51806.42,158.93,387.58,0.528136,96.43,1
173838,1,41322,1,47394,52195,47223.42,51807.20,170.58,387.80,0.527750,96.44,1
173878,1,41362,1,47394,52223,47223.76,51808.03,170.24,414.97,0.527368,96.45,1
173918,1,41402,1,47408,52236,47224.13,51808.88,183.87,427.12,0.526991,96.46,1
173958,1,41442,1,47413,52248,47224.51,51809.76,188.49,438.24,0.526618,96.47,1
173998,1,41482,1,47429,52277,47224.92,51810.70,204.08,466.30,0.526251,96.48,1
174038,1,41522,1,47429,52257,47225.33,51811.59,203.67,445.41,0.525890,96.49,1
174078,1,41562,1,47399,52106,47225.68,51812.18,173.32,293.82,0.525536,96.51,1
174118,1,41602,1,47323,51941,47225.87,51812.44,97.12,128.56,0.525186,96.52,1
174158,1,41642,1,47276,51879,47225.98,51812.57,50.02,66.43,0.524837,96.53,1
174198,1,41682,1,47273,51890,47226.07,51812.73,46.93,77.27,0.524490,96.54,1
174239,1,41723,1,47285,51908,47226.19,51812.92,58.81,95.08,0.524145,96.55,1
174279,1,41763,1,47294,51934,47226.32,51813.16,67.68,120.84,0.523802,96.56,1
174319,1,41803,1,47297,51954,47226.46,51813.45,70.54,140.55,0.523460,96.57,1
174359,1,41843,1,47329,51995,47226.67,51813.81,102.33,181.19,0.523122,96.58,1
174399,1,41883,1,47339,52001,47226.90,51814.18,112.10,186.82,0.522788,96.59,1
174439,1,41923,1,47329,51985,47227.11,51814.53,101.89,170.47,0.522457,96.60,1
174479,1,41963,1,47328,52005,47227.31,51814.91,100.69,190.09,0.522128,96.61,1
174519,1,42003,1,47359,52042,47227.57,51815.37,131.43,226.63,0.521805,96.62,1
174559,1,42043,1,47372,52079,47227.86,51815.89,144.14,263.11,0.521486,96.63,1
174599,1,42083,1,47387,52097,47228.18,51816.46,158.82,280.54,0.521174,96.64,1
174639,1,42123,1,47397,52128,47228.52,51817.08,168.48,310.92,0.520868,96.65,1
174679,1,42163,1,47419,52190,47228.91,51817.83,190.09,372.17,0.520568,96.66,1
174719,1,42203,1,47441,52204,47229.33,51818.60,211.67,385.40,0.520278,96.67,1
174760,1,42244,1,47431,52243,47229.74,51819.45,201.26,423.55,0.519994,96.68,1
174800,1,42284,1,47489,52322,47230.26,51820.46,258.74,501.54,0.519721,96.69,1
174840,1,42324,1,47477,52181,47230.75,51821.18,246.25,359.82,0.519463,96.70,1
174880,1,42364,1,47394,52006,47231.08,51821.55,162.92,184.45,0.519214,96.71,1
174920,1,42404,1,47355,51993,47231.33,51821.90,123.67,171.10,0.518969,96.72,1
174960,1,42444,1,47375,52036,47231.62,51822.33,143.38,213.67,0.518729,96.73,1
175000,1,42484,1,47403,52090,47231.96,51822.86,171.04,267.14,0.518496,96.74,1
175040,1,42524,1,47438,52129,47232.38,51823.48,205.62,305.52,0.518274,96.75,1
175080,1,42564,1,47441,52150,47232.80,51824.13,208.20,325.87,0.518061,96.76,1
175120,1,42604,1,47454,52177,47233.24,51824.84,220.76,352.16,0.517859,96.77,1
175160,1,42644,1,47468,52180,47233.71,51825.55,234.29,354.45,0.517669,96.78,1
175200,1,42684,1,47469,52200,47234.19,51826.30,234.81,373.70,0.517490,96.78,1
175240,1,42724,1,47480,52237,47234.68,51827.12,245.32,409.87,0.517322,96.79,1
175281,1,42765,1,47497,52274,47235.21,51828.02,261.79,445.98,0.517166,96.80,1
175321,1,42805,1,47517,52317,47235.77,51829.00,281.23,488.00,0.517021,96.81,1
175361,1,42845,1,47528,52359,47236.36,51830.06,291.64,528.94,0.516888,96.82,1
175401,1,42885,1,47547,52376,47236.98,51831.16,310.02,544.84,0.516769,96.82,1
175441,1,42925,1,47549,52404,47237.61,51832.30,311.39,571.70,0.516660,96.83,1
175481,1,42965,1,47571,52448,47238.27,51833.54,332.73,614.46,0.516563,96.84,1
175521,1,43005,1,47580,52384,47238.96,51834.64,341.04,549.36,0.516483,96.85,1
175561,1,43045,1,47525,52197,47239.53,51835.37,285.47,361.63,0.516419,96.85,1
175601,1,43085,1,47446,52066,47239.95,51835.83,206.05,230.17,0.516364,96.86,1
175641,1,43125,1,47420,52038,47240.31,51836.23,179.69,201.77,0.516316,96.87,1
175681,1,43165,1,47433,52068,47240.70,51836.70,192.30,231.30,0.516276,96.88,1
175721,1,43205,1,47446,52087,47241.11,51837.20,204.89,249.80,0.516243,96.88,1
175761,1,43245,1,47453,52122,47241.53,51837.77,211.47,284.23,0.516219,96.89,1
175802,1,43286,1,47474,52149,47242.00,51838.39,232.00,310.61,0.516205,96.89,1
175842,1,43326,1,47481,52157,47242.48,51839.03,238.52,317.97,0.516200,96.90,1
175882,1,43366,1,47482,52167,47242.96,51839.69,239.04,327.31,0.516205,96.91,1
175922,1,43406,1,47483,52190,47243.44,51840.39,239.56,349.61,0.516218,96.91,1
175962,1,43446,1,47504,52227,47243.96,51841.16,260.04,385.84,0.516241,96.92,1
176002,1,43486,1,47517,52273,47244.51,51842.03,272.49,430.97,0.516272,96.92,1
176042,1,43526,1,47544,52316,47245.11,51842.98,298.89,473.02,0.516313,96.93,1
176082,1,43566,1,47567,52346,47245.75,51843.98,321.25,502.02,0.516366,96.93,1
176122,1,43606,1,47578,52374,47246.42,51845.05,331.58,528.95,0.516431,96.94,1
176162,1,43646,1,47590,52406,47247.11,51846.17,342.89,559.83,0.516506,96.94,1
176202,1,43686,1,47602,52432,47247.82,51847.34,354.18,584.66,0.516591,96.95,1
176242,1,43726,1,47617,52415,47248.55,51848.48,368.45,566.52,0.516690,96.95,1
176282,1,43766,1,47566,52194,47249.19,51849.17,316.81,344.83,0.516806,96.95,1
176322,1,43806,1,47462,51998,47249.62,51849.47,212.38,148.53,0.516931,96.96,1
176363,1,43847,1,47420,51957,47249.96,51849.69,170.04,107.31,0.517062,96.96,1
176403,1,43887,1,47416,51960,47250.29,51849.91,165.71,110.09,0.517199,96.96,1
176443,1,43927,1,47422,51970,47250.64,51850.15,171.36,119.85,0.517341,96.97,1
176483,1,43967,1,47433,52004,47251.00,51850.46,182.00,153.54,0.517490,96.97,1
176523,1,44007,1,47454,52043,47251.41,51850.85,202.59,192.15,0.517646,96.97,1
176563,1,44047,1,47466,52064,47251.84,51851.27,214.16,212.73,0.517810,96.98,1
176603,1,44087,1,47485,52073,47252.31,51851.72,232.69,221.28,0.517983,96.98,1
176643,1,44127,1,47486,52075,47252.78,51852.17,233.22,222.83,0.518166,96.98,1
176683,1,44167,1,47499,52108,47253.27,51852.68,245.73,255.32,0.518359,96.98,1
176723,1,44207,1,47512,52134,47253.79,51853.24,258.21,280.76,0.518563,96.98,1
176763,1,44247,1,47530,52173,47254.34,51853.88,275.66,319.12,0.518777,96.98,1
176803,1,44287,1,47539,52196,47254.91,51854.57,284.09,341.43,0.519003,96.99,1
176843,1,44327,1,47545,52215,47255.50,51855.29,289.50,359.71,0.519239,96.99,1
176884,1,44368,1,47555,52234,47256.10,51856.05,298.90,377.95,0.519485,96.99,1
176924,1,44408,1,47561,52256,47256.71,51856.85,304.29,399.15,0.519742,96.99,1
176964,1,44448,1,47562,52276,47257.32,51857.69,304.68,418.31,0.520007,96.99,1
177004,1,44488,1,47569,52209,47257.95,51858.39,311.05,350.61,0.520286,96.99,1
177044,1,44528,1,47499,51962,47258.43,51858.60,240.57,103.40,0.520576,96.99,1
177084,1,44568,1,47392,51802,47258.70,51858.49,133.30,-56.49,0.520870,96.99,1
177124,1,44608,1,47372,51774,47258.93,51858.32,113.07,-84.32,0.521165,96.99,1
177164,1,44648,1,47374,51777,47259.16,51858.16,114.84,-81.16,0.521462,96.99,1
177204,1,44688,1,47381,51793,47259.40,51858.03,121.60,-65.03,0.521761,96.99,1
177244,1,44728,1,47391,51826,47259.67,51857.97,131.33,-31.97,0.522064,96.99,1
177284,1,44768,1,47412,51856,47259.97,51857.96,152.03,-1.96,0.522371,96.98,1
177324,1,44808,1,47420,51875,47260.29,51858.00,159.71,17.00,0.522684,96.98,1
177364,1,44848,1,47428,51873,47260.63,51858.03,167.37,14.97,0.523002,96.98,1
177405,1,44889,1,47425,51878,47260.96,51858.07,164.04,19.93,0.523327,96.98,1
177445,1,44929,1,47441,51933,47261.32,51858.23,179.68,74.77,0.523658,96.98,1
177485,1,44969,1,47456,51959,47261.71,51858.43,194.29,100.57,0.523997,96.97,1
177525,1,45009,1,47471,51981,47262.12,51858.68,208.87,122.32,0.524345,96.97,1
177565,1,45049,1,47484,52024,47262.57,51859.01,221.43,164.99,0.524702,96.97,1
177605,1,45089,1,47497,52041,47263.04,51859.37,233.96,181.62,0.525069,96.97,1
177645,1,45129,1,47509,52072,47263.53,51859.80,245.47,212.20,0.525447,96.96,1
177685,1,45169,1,47526,52091,47264.06,51860.27,261.94,230.73,0.525836,96.96,1
177725,1,45209,1,47533,52112,47264.60,51860.77,268.40,251.23,0.526237,96.96,1
177765,1,45249,1,47545,52120,47265.16,51861.29,279.84,258.71,0.526650,96.95,1
177805,1,45289,1,47520,51945,47265.67,51861.46,254.33,83.54,0.527078,96.95,1
177845,1,45329,1,47410,51705,47265.96,51861.14,144.04,-156.14,0.527507,96.94,1
177885,1,45369,1,47331,51602,47266.09,51860.63,64.91,-258.63,0.527930,96.94,1
177926,1,45410,1,47320,51605,47266.20,51860.12,53.80,-255.12,0.528346,96.94,1
177966,1,45450,1,47322,51624,47266.32,51859.64,55.68,-235.64,0.528757,96.93,1
178006,1,45490,1,47327,51651,47266.44,51859.23,60.56,-208.23,0.529163,96.93,1
178046,1,45530,1,47352,51707,47266.61,51858.93,85.39,-151.93,0.529567,96.92,1
178086,1,45570,1,47362,51718,47266.80,51858.64,95.20,-140.64,0.529970,96.92,1
178126,1,45610,1,47375,51741,47267.02,51858.41,107.98,-117.41,0.530374,96.91,1
178166,1,45650,1,47383,51739,47267.25,51858.17,115.75,-119.17,0.530779,96.91,1
178206,1,45690,1,47392,51768,47267.50,51857.99,124.50,-89.99,0.531187,96.90,1
178246,1,45730,1,47405,51799,47267.78,51857.87,137.22,-58.88,0.531598,96.89,1
178286,1,45770,1,47413,51826,47268.07,51857.81,144.93,-31.81,0.532013,96.89,1
178326,1,45810,1,47426,51854,47268.39,51857.80,157.61,-3.80,0.532434,96.88,1
178366,1,45850,1,47435,51884,47268.73,51857.86,166.27,26.14,0.532861,96.88,1
178406,1,45890,1,47447,51902,47269.09,51857.95,177.91,44.05,0.533296,96.87,1
178447,1,45931,1,47448,51930,47269.45,51858.09,178.55,71.91,0.533739,96.86,1
178487,1,45971,1,47463,51977,47269.83,51858.33,193.17,118.67,0.534189,96.86,1
178527,1,46011,1,47461,51867,47270.21,51858.35,190.79,8.65,0.534648,96.85,1
178567,1,46051,1,47368,51631,47270.41,51857.90,97.59,-226.90,0.535102,96.84,1
178607,1,46091,1,47292,51539,47270.45,51857.26,21.55,-318.26,0.535544,96.84,1
178647,1,46131,1,47281,51536,47270.48,51856.62,10.52,-320.62,0.535973,96.83,1
178687,1,46171,1,47291,51565,47270.52,51856.04,20.48,-291.04,0.536391,96.82,1
178727,1,46211,1,47313,51606,47270.61,51855.54,42.39,-249.54,0.536802,96.82,1
178767,1,46251,1,47325,51633,47270.71,51855.09,54.29,-222.09,0.537207,96.81,1
178807,1,46291,1,47330,51638,47270.84,51854.66,59.16,-216.66,0.537606,96.80,1
178847,1,46331,1,47315,51602,47270.93,51854.16,44.07,-252.16,0.537998,96.79,1
178887,1,46371,1,47309,51643,47271.00,51853.73,38.00,-210.73,0.538383,96.79,1
178927,1,46411,1,47339,51670,47271.14,51853.37,67.86,-183.37,0.538766,96.78,1
178968,1,46452,1,47341,51689,47271.28,51853.04,69.72,-164.04,0.539145,96.77,1
179008,1,46492,1,47352,51754,47271.45,51852.84,80.55,-98.84,0.539525,96.76,1
179048,1,46532,1,47381,51808,47271.66,51852.75,109.34,-44.75,0.539906,96.75,1
179088,1,46572,1,47399,51837,47271.92,51852.72,127.08,-15.72,0.540292,96.75,1
179128,1,46612,1,47412,51881,47272.20,51852.78,139.80,28.22,0.540682,96.74,1
179168,1,46652,1,47433,51917,47272.53,51852.91,160.47,64.09,0.541079,96.73,1
179208,1,46692,1,47442,51938,47272.87,51853.08,169.13,84.92,0.541484,96.72,1
179248,1,46732,1,47462,51939,47273.25,51853.25,188.75,85.75,0.541897,96.71,1
179288,1,46772,1,47409,51702,47273.52,51852.95,135.48,-150.95,0.542313,96.71,1
179328,1,46812,1,47295,51487,47273.56,51852.22,21.44,-365.22,0.542710,96.70,1
179368,1,46852,1,47230,51404,47273.48,51851.33,-43.48,-447.33,0.543083,96.69,1
179408,1,46892,1,47212,51418,47273.36,51850.46,-61.36,-432.46,0.543433,96.68,1
179448,1,46932,1,47223,51421,47273.26,51849.60,-50.26,-428.60,0.543763,96.67,1
179489,1,46973,1,47218,51430,47273.15,51848.77,-55.15,-418.77,0.544072,96.67,1
179529,1,47013,1,47231,51471,47273.07,51848.01,-42.07,-377.01,0.544364,96.66,1
179569,1,47053,1,47244,51501,47273.01,51847.32,-29.01,-346.32,0.544643,96.65,1
179609,1,47093,1,47264,51506,47272.99,51846.64,-8.99,-340.64,0.544909,96.64,1
179649,1,47133,1,47260,51522,47272.97,51845.99,-12.97,-323.99,0.545162,96.63,1
179689,1,47173,1,47279,51563,47272.98,51845.43,6.02,-282.43,0.545406,96.62,1
179729,1,47213,1,47306,51600,47273.05,51844.94,32.95,-244.94,0.545643,96.62,1
179769,1,47253,1,47318,51634,47273.14,51844.52,44.86,-210.52,0.545875,96.61,1
179809,1,47293,1,47330,51680,47273.25,51844.19,56.75,-164.19,0.546105,96.60,1
179849,1,47333,1,47347,51721,47273.40,51843.94,73.60,-122.94,0.546334,96.59,1
179889,1,47373,1,47380,51779,47273.61,51843.81,106.39,-64.81,0.546566,96.59,1
179929,1,47413,1,47394,51817,47273.86,51843.76,120.14,-26.76,0.546802,96.58,1
179969,1,47453,1,47415,51869,47274.14,51843.81,140.86,25.19,0.547044,96.57,1
180010,1,47494,1,47441,51911,47274.48,51843.95,166.52,67.05,0.547294,96.56,1
180050,1,47534,1,47436,51771,47274.80,51843.80,161.20,-72.80,0.547552,96.55,1
180090,1,47574,1,47332,51526,47274.92,51843.17,57.08,-317.17,0.547799,96.55,1
180130,1,47614,1,47257,51427,47274.88,51842.34,-17.88,-415.34,0.548025,96.54,1
180170,1,47654,1,47244,51444,47274.82,51841.54,-30.82,-397.54,0.548234,96.53,1
180210,1,47694,1,47264,51481,47274.80,51840.82,-10.80,-359.82,0.548427,96.53,1
180250,1,47734,1,47290,51505,47274.84,51840.15,15.16,-335.15,0.548608,96.52,1
180290,1,47774,1,47306,51536,47274.90,51839.55,31.10,-303.55,0.548778,96.51,1
180330,1,47814,1,47322,51572,47274.99,51839.01,47.01,-267.01,0.548941,96.50,1
180370,1,47854,1,47344,51608,47275.13,51838.55,68.87,-230.55,0.549099,96.50,1
180410,1,47894,1,47359,51611,47275.30,51838.10,83.70,-227.10,0.549254,96.49,1
180450,1,47934,1,47361,51626,47275.47,51837.68,85.53,-211.68,0.549406,96.48,1
180490,1,47974,1,47373,51676,47275.67,51837.36,97.33,-161.36,0.549558,96.48,1
180531,1,48015,1,47389,51708,47275.89,51837.10,113.11,-129.10,0.549712,96.47,1
180571,1,48055,1,47406,51759,47276.16,51836.94,129.84,-77.94,0.549872,96.46,1
180611,1,48095,1,47432,51807,47276.47,51836.88,155.53,-29.88,0.550040,96.46,1
180651,1,48135,1,47445,51834,47276.81,51836.88,168.19,-2.88,0.550218,96.45,1
180691,1,48175,1,47455,51856,47277.17,51836.92,177.83,19.08,0.550407,96.44,1
180731,1,48215,1,47470,51886,47277.55,51837.02,192.45,48.98,0.550610,96.44,1
180771,1,48255,1,47485,51888,47277.97,51837.12,207.03,50.88,0.550827,96.43,1
180811,1,48295,1,47466,51776,47278.35,51837.00,187.65,-61.00,0.551057,96.43,1
180851,1,48335,1,47368,51504,47278.53,51836.33,89.47,-332.33,0.551275,96.42,1
180891,1,48375,1,47261,51344,47278.50,51835.35,-17.50,-491.35,0.551464,96.41,1
180931,1,48415,1,47238,51345,47278.42,51834.37,-40.42,-489.37,0.551625,96.41,1
180971,1,48455,1,47237,51335,47278.34,51833.37,-41.34,-498.37,0.551758,96.40,1
181011,1,48495,1,47223,51348,47278.23,51832.40,-55.23,-484.40,0.551867,96.40,1
181052,1,48536,1,47249,51398,47278.17,51831.54,-29.17,-433.54,0.551956,96.39,1
181092,1,48576,1,47267,51426,47278.15,51830.73,-11.15,-404.73,0.552028,96.38,1
181132,1,48616,1,47279,51427,47278.15,51829.92,0.85,-402.92,0.552084,96.38,1
181172,1,48656,1,47274,51424,47278.14,51829.11,-4.14,-405.11,0.552123,96.37,1
181212,1,48696,1,47273,51436,47278.14,51828.33,-5.14,-392.33,0.552146,96.37,1
181252,1,48736,1,47280,51496,47278.14,51827.66,1.86,-331.66,0.552160,96.36,1
181292,1,48776,1,47322,51569,47278.23,51827.15,43.77,-258.15,0.552167,96.36,1
181332,1,48816,1,47361,51628,47278.40,51826.75,82.60,-198.75,0.552173,96.35,1
181372,1,48856,1,47368,51663,47278.58,51826.43,89.42,-163.43,0.552180,96.35,1
181412,1,48896,1,47388,51718,47278.80,51826.21,109.20,-108.21,0.552190,96.34,1
181452,1,48936,1,47420,51800,47279.08,51826.16,140.92,-26.16,0.552207,96.34,1
181492,1,48976,1,47459,51866,47279.44,51826.24,179.56,39.76,0.552236,96.33,1
181532,1,49016,1,47480,51828,47279.84,51826.25,200.16,1.75,0.552281,96.33,1
181573,1,49057,1,47408,51567,47280.10,51825.73,127.90,-258.73,0.552325,96.33,1
181613,1,49097,1,47296,51410,47280.13,51824.90,15.87,-414.90,0.552352,96.32,1
181653,1,49137,1,47259,51395,47280.09,51824.04,-21.09,-429.04,0.552360,96.32,1
181693,1,49177,1,47266,51441,47280.06,51823.27,-14.06,-382.27,0.552354,96.31,1
181733,1,49217,1,47296,51491,47280.09,51822.61,15.91,-331.61,0.552337,96.31,1
181773,1,49257,1,47328,51576,47280.19,51822.12,47.81,-246.12,0.552316,96.31,1
181813,1,49297,1,47366,51613,47280.36,51821.70,85.64,-208.70,0.552293,96.30,1
181853,1,49337,1,47369,51618,47280.54,51821.29,88.46,-203.29,0.552269,96.30,1
181893,1,49377,1,47380,51648,47280.74,51820.95,99.26,-172.95,0.552246,96.30,1
181933,1,49417,1,47386,51667,47280.95,51820.64,105.05,-153.64,0.552226,96.29,1
181973,1,49457,1,47397,51711,47281.19,51820.43,115.81,-109.43,0.552209,96.29,1
182013,1,49497,1,47419,51764,47281.46,51820.31,137.54,-56.31,0.552200,96.29,1
182053,1,49537,1,47434,51811,47281.77,51820.30,152.23,-9.30,0.552201,96.29,1
182094,1,49578,1,47450,51853,47282.11,51820.36,167.89,32.64,0.552212,96.28,1
182134,1,49618,1,47465,51891,47282.47,51820.51,182.53,70.49,0.552237,96.28,1
182174,1,49658,1,47477,51933,47282.86,51820.73,194.14,112.27,0.552275,96.28,1
182214,1,49698,1,47489,51961,47283.28,51821.02,205.72,139.98,0.552328,96.27,1
182254,1,49738,1,47509,52012,47283.73,51821.40,225.27,190.60,0.552398,96.27,1
182294,1,49778,1,47516,51978,47284.20,51821.71,231.80,156.29,0.552486,96.27,1
182334,1,49818,1,47450,51701,47284.53,51821.48,165.47,-120.48,0.552584,96.27,1
182374,1,49858,1,47329,51482,47284.62,51820.80,44.38,-338.80,0.552669,96.26,1
182414,1,49898,1,47274,51431,47284.60,51820.02,-10.60,-389.02,0.552736,96.26,1
182454,1,49938,1,47271,51461,47284.57,51819.31,-13.57,-358.31,0.552789,96.26,1
182494,1,49978,1,47286,51473,47284.57,51818.62,1.43,-345.62,0.552829,96.26,1
182534,1,50018,1,47291,51501,47284.59,51817.98,6.41,-316.98,0.552858,96.25,1
182574,1,50058,1,47317,51560,47284.66,51817.47,32.34,-257.47,0.552881,96.25,1
182615,1,50099,1,47336,51572,47284.76,51816.98,51.24,-244.98,0.552898,96.25,1
182655,1,50139,1,47334,51580,47284.86,51816.51,49.14,-236.51,0.552909,96.25,1
182695,1,50179,1,47343,51618,47284.98,51816.11,58.02,-198.11,0.552918,96.25,1
182735,1,50219,1,47360,51647,47285.13,51815.78,74.87,-168.78,0.552926,96.24,1
182775,1,50259,1,47372,51699,47285.31,51815.55,86.69,-116.55,0.552936,96.24,1
182815,1,50299,1,47399,51761,47285.54,51815.44,113.46,-54.44,0.552951,96.24,1
182855,1,50339,1,47420,51809,47285.81,51815.43,134.19,-6.43,0.552974,96.24,1
182895,1,50379,1,47439,51841,47286.12,51815.48,152.88,25.52,0.553006,96.24,1
182935,1,50419,1,47457,51881,47286.46,51815.61,170.54,65.39,0.553050,96.23,1
182975,1,50459,1,47473,51915,47286.84,51815.81,186.16,99.19,0.553108,96.23,1
183015,1,50499,1,47482,51948,47287.23,51816.07,194.77,131.93,0.553181,96.23,1
183055,1,50539,1,47498,51968,47287.65,51816.38,210.35,151.62,0.553269,96.23,1
183095,1,50579,1,47475,51799,47288.02,51816.34,186.98,-17.34,0.553372,96.23,1
183135,1,50619,1,47352,51515,47288.15,51815.74,63.85,-300.74,0.553465,96.22,1
183176,1,50660,1,47262,51403,47288.10,51814.92,-26.10,-411.92,0.553537,96.22,1
183216,1,50700,1,47247,51421,47288.02,51814.13,-41.02,-393.13,0.553592,96.22,1
183256,1,50740,1,47264,51449,47287.97,51813.40,-23.97,-364.40,0.553631,96.22,1
183296,1,50780,1,47284,51490,47287.96,51812.76,-3.96,-322.76,0.553659,96.22,1
183336,1,50820,1,47306,51549,47288.00,51812.23,18.00,-263.23,0.553678,96.22,1
183376,1,50860,1,47324,51565,47288.08,51811.74,35.92,-246.74,0.553691,96.21,1
183416,1,50900,1,47335,51570,47288.17,51811.26,46.83,-241.26,0.553698,96.21,1
183456,1,50940,1,47339,51581,47288.27,51810.80,50.73,-229.80,0.553701,96.21,1
183496,1,50980,1,47342,51612,47288.38,51810.40,53.62,-198.40,0.553700,96.21,1
183536,1,51020,1,47361,51653,47288.53,51810.09,72.47,-157.09,0.553699,96.21,1
183576,1,51060,1,47382,51704,47288.71,51809.88,93.29,-105.88,0.553700,96.21,1
183616,1,51100,1,47392,51744,47288.92,51809.75,103.08,-65.75,0.553706,96.20,1
183657,1,51141,1,47406,51783,47289.16,51809.70,116.84,-26.70,0.553718,96.20,1
183697,1,51181,1,47421,51817,47289.42,51809.71,131.58,7.29,0.553738,96.20,1
183737,1,51221,1,47426,51853,47289.70,51809.80,136.30,43.20,0.553765,96.20,1
183777,1,51261,1,47452,51904,47290.02,51810.00,161.98,94.00,0.553804,96.20,1
183817,1,51301,1,47459,51835,47290.36,51810.05,168.64,24.95,0.553856,96.20,1
183857,1,51341,1,47374,51574,47290.53,51809.57,83.47,-235.57,0.553904,96.20,1
183897,1,51381,1,47272,51406,47290.49,51808.77,-18.49,-402.77,0.553932,96.19,1
183937,1,51421,1,47239,51382,47290.39,51807.92,-51.39,-425.92,0.553939,96.19,1
183977,1,51461,1,47246,51423,47290.30,51807.15,-44.30,-384.15,0.553929,96.19,1
184017,1,51501,1,47267,51452,47290.26,51806.44,-23.26,-354.44,0.553905,96.19,1
184057,1,51541,1,47281,51501,47290.24,51805.83,-9.24,-304.83,0.553871,96.19,1
184097,1,51581,1,47303,51539,47290.27,51805.30,12.73,-266.30,0.553828,96.19,1
184137,1,51621,1,47309,51541,47290.31,51804.77,18.69,-263.77,0.553778,96.19,1
184178,1,51662,1,47312,51552,47290.35,51804.27,21.65,-252.27,0.553721,96.19,1
184218,1,51702,1,47314,51582,47290.40,51803.83,23.60,-221.83,0.553659,96.19,1
184258,1,51742,1,47331,51635,47290.48,51803.49,40.52,-168.49,0.553595,96.19,1
184298,1,51782,1,47351,51690,47290.60,51803.27,60.40,-113.27,0.553532,96.18,1
184338,1,51822,1,47376,51740,47290.77,51803.14,85.23,-63.14,0.553471,96.18,1
184378,1,51862,1,47394,51793,47290.98,51803.12,103.02,-10.12,0.553416,96.18,1
184418,1,51902,1,47415,51831,47291.23,51803.18,123.77,27.82,0.553369,96.18,1
184458,1,51942,1,47433,51870,47291.52,51803.32,141.48,66.68,0.553331,96.18,1
184498,1,51982,1,47450,51905,47291.83,51803.52,158.17,101.48,0.553304,96.18,1
184538,1,52022,1,47467,51949,47292.18,51803.81,174.82,145.19,0.553290,96.18,1
184578,1,52062,1,47478,51897,47292.55,51804.00,185.45,93.00,0.553291,96.18,1
184618,1,52102,1,47394,51608,47292.76,51803.61,101.24,-195.61,0.553293,96.18,1
184658,1,52142,1,47266,51406,47292.71,51802.82,-26.71,-396.82,0.553276,96.18,1
184699,1,52183,1,47211,51354,47292.54,51801.92,-81.54,-447.92,0.553237,96.18,1
184739,1,52223,1,47215,51379,47292.39,51801.08,-77.39,-422.08,0.553181,96.18,1
184779,1,52263,1,47217,51392,47292.24,51800.26,-75.24,-408.26,0.553108,96.18,1
184819,1,52303,1,47228,51426,47292.11,51799.52,-64.11,-373.52,0.553021,96.18,1
184859,1,52343,1,47257,51471,47292.04,51798.86,-35.04,-327.86,0.552924,96.18,1
184899,1,52383,1,47268,51493,47292.00,51798.25,-24.00,-305.25,0.552817,96.18,1
184939,1,52423,1,47281,51516,47291.98,51797.69,-10.98,-281.69,0.552702,96.18,1
184979,1,52463,1,47293,51537,47291.98,51797.17,1.02,-260.17,0.552580,96.18,1
185019,1,52503,1,47310,51579,47292.02,51796.73,17.98,-217.73,0.552453,96.18,1
185059,1,52543,1,47325,51626,47292.09,51796.39,32.91,-170.39,0.552324,96.18,1
185099,1,52583,1,47344,51669,47292.19,51796.14,51.81,-127.14,0.552195,96.18,1
185139,1,52623,1,47360,51712,47292.33,51795.97,67.67,-83.97,0.552067,96.18,1
185179,1,52663,1,47373,51745,47292.49,51795.87,80.51,-50.87,0.551944,96.18,1
185219,1,52703,1,47388,51781,47292.68,51795.84,95.32,-14.84,0.551825,96.18,1
185260,1,52744,1,47400,51812,47292.90,51795.88,107.10,16.12,0.551712,96.18,1
185300,1,52784,1,47413,51852,47293.14,51795.99,119.86,56.01,0.551607,96.18,1
185340,1,52824,1,47428,51878,47293.41,51796.16,134.59,81.84,0.551511,96.18,1
185380,1,52864,1,47413,51703,47293.65,51795.97,119.35,-92.97,0.551422,96.19,1
185420,1,52904,1,47288,51431,47293.64,51795.24,-5.64,-364.24,0.551317,96.19,1
185460,1,52944,1,47202,51316,47293.46,51794.29,-91.46,-478.29,0.551191,96.19,1
185500,1,52984,1,47188,51312,47293.25,51793.32,-105.25,-481.32,0.551045,96.19,1
185540,1,53024,1,47200,51328,47293.06,51792.39,-93.06,-464.39,0.550881,96.19,1
185580,1,53064,1,47205,51347,47292.89,51791.50,-87.89,-444.50,0.550700,96.19,1
185620,1,53104,1,47222,51388,47292.75,51790.70,-70.75,-402.70,0.550507,96.19,1
185660,1,53144,1,47239,51413,47292.64,51789.94,-53.64,-376.94,0.550302,96.19,1
185700,1,53184,1,47247,51428,47292.55,51789.22,-45.55,-361.22,0.550085,96.20,1
185740,1,53224,1,47253,51443,47292.47,51788.53,-39.47,-345.53,0.549859,96.20,1
185781,1,53265,1,47267,51471,47292.42,51787.89,-25.42,-316.89,0.549623,96.20,1
185821,1,53305,1,47275,51514,47292.39,51787.35,-17.39,-273.35,0.549382,96.20,1
185861,1,53345,1,47294,51558,47292.39,51786.89,1.61,-228.89,0.549137,96.20,1
185901,1,53385,1,47311,51600,47292.43,51786.52,18.57,-186.52,0.548889,96.21,1
185941,1,53425,1,47327,51642,47292.50,51786.23,34.50,-144.23,0.548640,96.21,1
185981,1,53465,1,47340,51676,47292.60,51786.01,47.40,-110.01,0.548393,96.21,1
186021,1,53505,1,47357,51709,47292.73,51785.86,64.27,-76.86,0.548147,96.21,1
186061,1,53545,1,47373,51733,47292.89,51785.75,80.11,-52.75,0.547906,96.22,1
186101,1,53585,1,47383,51777,47293.07,51785.74,89.93,-8.74,0.547669,96.22,1
186141,1,53625,1,47401,51806,47293.29,51785.78,107.71,20.22,0.547440,96.22,1
186181,1,53665,1,47380,51627,47293.46,51785.46,86.54,-158.46,0.547213,96.22,1
186221,1,53705,1,47263,51365,47293.40,51784.62,-30.40,-419.62,0.546969,96.23,1
186261,1,53745,1,47179,51262,47293.18,51783.58,-114.18,-521.58,0.546707,96.23,1
186302,1,53786,1,47168,51260,47292.93,51782.54,-124.93,-522.54,0.546429,96.23,1
186342,1,53826,1,47171,51278,47292.68,51781.53,-121.68,-503.53,0.546136,96.24,1
186382,1,53866,1,47175,51296,47292.45,51780.56,-117.45,-484.56,0.545831,96.24,1
186422,1,53906,1,47183,51314,47292.23,51779.62,-109.23,-465.62,0.545515,96.24,1
186462,1,53946,1,47186,51310,47292.02,51778.69,-106.02,-468.69,0.545188,96.25,1
186502,1,53986,1,47166,51259,47291.77,51777.65,-125.77,-518.65,0.544849,96.25,1
186542,1,54026,1,47140,51253,47291.47,51776.60,-151.47,-523.60,0.544500,96.26,1
186582,1,54066,1,47167,51327,47291.22,51775.70,-124.22,-448.70,0.544146,96.26,1
186622,1,54106,1,47209,51406,47291.06,51774.96,-82.06,-368.96,0.543785,96.26,1
186662,1,54146,1,47242,51470,47290.96,51774.36,-48.96,-304.36,0.543420,96.27,1
186702,1,54186,1,47276,51537,47290.93,51773.88,-14.93,-236.88,0.543052,96.27,1
186742,1,54226,1,47308,51594,47290.97,51773.52,17.03,-179.52,0.542683,96.28,1
186782,1,54266,1,47329,51634,47291.05,51773.25,37.95,-139.25,0.542314,96.28,1
186823,1,54307,1,47349,51666,47291.16,51773.03,57.84,-107.03,0.541948,96.29,1
186863,1,54347,1,47360,51700,47291.30,51772.89,68.70,-72.89,0.541584,96.29,1
186903,1,54387,1,47373,51738,47291.47,51772.82,81.53,-34.82,0.541225,96.30,1
186943,1,54427,1,47386,51712,47291.66,51772.70,94.34,-60.70,0.540871,96.30,1
186983,1,54467,1,47328,51474,47291.73,51772.10,36.27,-298.10,0.540512,96.31,1
187023,1,54507,1,47218,51290,47291.59,51771.14,-73.59,-481.14,0.540139,96.32,1
187063,1,54547,1,47179,51257,47291.37,51770.11,-112.37,-513.11,0.539755,96.32,1
187103,1,54587,1,47189,51290,47291.16,51769.15,-102.16,-479.15,0.539360,96.33,1
187143,1,54627,1,47210,51319,47291.00,51768.25,-81.00,-449.25,0.538956,96.33,1
187183,1,54667,1,47220,51369,47290.86,51767.46,-70.86,-398.46,0.538545,96.34,1
187223,1,54707,1,47245,51399,47290.77,51766.72,-45.77,-367.72,0.538127,96.35,1
187263,1,54747,1,47248,51394,47290.69,51765.98,-42.69,-371.98,0.537701,96.35,1
187303,1,54787,1,47248,51398,47290.60,51765.25,-42.60,-367.25,0.537269,96.36,1
187344,1,54828,1,47252,51413,47290.53,51764.54,-38.53,-351.54,0.536831,96.36,1
187384,1,54868,1,47263,51459,47290.47,51763.93,-27.47,-304.93,0.536389,96.37,1
187424,1,54908,1,47282,51505,47290.46,51763.42,-8.46,-258.42,0.535944,96.38,1
187464,1,54948,1,47302,51554,47290.48,51763.00,11.52,-209.00,0.535497,96.39,1
187504,1,54988,1,47321,51598,47290.54,51762.67,30.46,-164.67,0.535050,96.39,1
187544,1,55028,1,47336,51631,47290.64,51762.41,45.36,-131.41,0.534605,96.40,1
187584,1,55068,1,47348,51662,47290.75,51762.21,57.25,-100.21,0.534162,96.41,1
187624,1,55108,1,47358,51684,47290.89,51762.05,67.11,-78.05,0.533722,96.41,1
187664,1,55148,1,47375,51722,47291.06,51761.98,83.94,-39.98,0.533287,96.42,1
187704,1,55188,1,47372,51605,47291.22,51761.66,80.78,-156.66,0.532856,96.43,1
187744,1,55228,1,47275,51341,47291.19,51760.82,-16.19,-419.82,0.532413,96.44,1
187784,1,55268,1,47182,51208,47290.97,51759.72,-108.97,-551.72,0.531959,96.45,1
187824,1,55308,1,47154,51203,47290.70,51758.61,-136.70,-555.61,0.531496,96.45,1
187865,1,55349,1,47164,51229,47290.45,51757.55,-126.45,-528.55,0.531025,96.46,1
187905,1,55389,1,47173,51253,47290.21,51756.54,-117.21,-503.54,0.530548,96.47,1
187945,1,55429,1,47188,51307,47290.01,51755.64,-102.01,-448.64,0.530066,96.48,1
187985,1,55469,1,47210,51337,47289.85,51754.80,-79.85,-417.80,0.529578,96.49,1
188025,1,55509,1,47226,51355,47289.72,51754.01,-63.72,-399.01,0.529085,96.50,1
188065,1,55549,1,47232,51378,47289.61,51753.26,-57.61,-375.26,0.528587,96.50,1
188105,1,55589,1,47251,51413,47289.54,51752.58,-38.54,-339.58,0.528084,96.51,1
188145,1,55629,1,47275,51463,47289.51,51752.00,-14.51,-289.00,0.527579,96.52,1
188185,1,55669,1,47298,51515,47289.53,51751.53,8.47,-236.53,0.527072,96.53,1
188225,1,55709,1,47320,51571,47289.59,51751.17,30.41,-180.17,0.526565,96.54,1
188265,1,55749,1,47340,51607,47289.69,51750.88,50.31,-143.88,0.526060,96.55,1
188305,1,55789,1,47359,51651,47289.83,51750.68,69.17,-99.68,0.525558,96.56,1
188345,1,55829,1,47368,51677,47289.99,51750.54,78.01,-73.54,0.525061,96.57,1
188386,1,55870,1,47378,51714,47290.16,51750.47,87.84,-36.47,0.524569,96.58,1
188426,1,55910,1,47395,51760,47290.37,51750.49,104.62,9.51,0.524085,96.59,1
188466,1,55950,1,47407,51754,47290.61,51750.50,116.39,3.50,0.523610,96.60,1
188506,1,55990,1,47357,51515,47290.74,51750.03,66.26,-235.03,0.523135,96.61,1
188546,1,56030,1,47236,51296,47290.63,51749.12,-54.63,-453.12,0.522650,96.62,1
188586,1,56070,1,47185,51245,47290.42,51748.11,-105.42,-503.11,0.522159,96.63,1
188626,1,56110,1,47189,51268,47290.22,51747.16,-101.22,-479.16,0.521661,96.64,1
188666,1,56150,1,47201,51283,47290.04,51746.23,-89.04,-463.23,0.521156,96.65,1
188706,1,56190,1,47212,51316,47289.89,51745.37,-77.89,-429.37,0.520647,96.66,1
188746,1,56230,1,47232,51367,47289.77,51744.62,-57.77,-377.62,0.520132,96.67,1
188786,1,56270,1,47258,51399,47289.71,51743.93,-31.71,-344.93,0.519614,96.68,1
188826,1,56310,1,47269,51424,47289.67,51743.29,-20.67,-319.29,0.519092,96.69,1
188866,1,56350,1,47276,51454,47289.64,51742.71,-13.64,-288.71,0.518567,96.70,1
188907,1,56391,1,47294,51496,47289.66,51742.22,4.34,-246.22,0.518040,96.71,1
188947,1,56431,1,47312,51546,47289.70,51741.83,22.30,-195.83,0.517513,96.72,1
188987,1,56471,1,47326,51603,47289.78,51741.55,36.22,-138.55,0.516987,96.73,1
189027,1,56511,1,47350,51657,47289.90,51741.38,60.10,-84.38,0.516465,96.74,1
189067,1,56551,1,47374,51708,47290.07,51741.32,83.93,-33.32,0.515948,96.75,1
189107,1,56591,1,47391,51754,47290.27,51741.34,100.73,12.66,0.515438,96.76,1
189147,1,56631,1,47407,51794,47290.50,51741.45,116.50,52.55,0.514937,96.77,1
189187,1,56671,1,47433,51842,47290.79,51741.65,142.21,100.35,0.514449,96.78,1
189227,1,56711,1,47448,51895,47291.11,51741.96,156.89,153.04,0.513974,96.80,1
189267,1,56751,1,47471,51934,47291.46,51742.35,179.54,191.65,0.513517,96.81,1
189307,1,56791,1,47457,51780,47291.80,51742.43,165.20,37.57,0.513076,96.82,1
189347,1,56831,1,47351,51553,47291.92,51742.05,59.08,-189.05,0.512636,96.83,1
189387,1,56871,1,47279,51482,47291.89,51741.53,-12.89,-259.53,0.512193,96.84,1
189428,1,56912,1,47269,51493,47291.85,51741.03,-22.85,-248.03,0.511748,96.85,1
189468,1,56952,1,47285,51533,47291.84,51740.62,-6.84,-207.62,0.511302,96.86,1
189508,1,56992,1,47292,51563,47291.84,51740.26,0.16,-177.26,0.510855,96.87,1
189548,1,57032,1,47317,51622,47291.89,51740.03,25.11,-118.03,0.510408,96.88,1
189588,1,57072,1,47346,51673,47292.00,51739.89,54.00,-66.89,0.509965,96.89,1
189628,1,57112,1,47362,51704,47292.14,51739.82,69.86,-35.82,0.509526,96.91,1
189668,1,57152,1,47380,51737,47292.32,51739.82,87.68,-2.82,0.509092,96.92,1
189708,1,57192,1,47400,51776,47292.53,51739.89,107.47,36.11,0.508667,96.93,1
189748,1,57232,1,47417,51820,47292.78,51740.05,124.22,79.95,0.508251,96.94,1
189788,1,57272,1,47436,51879,47293.07,51740.33,142.93,138.67,0.507848,96.95,1
189828,1,57312,1,47462,51934,47293.41,51740.72,168.59,193.28,0.507460,96.96,1
189868,1,57352,1,47483,51982,47293.79,51741.21,189.21,240.79,0.507089,96.97,1
189908,1,57392,1,47498,52025,47294.20,51741.78,203.80,283.22,0.506739,96.98,1
189949,1,57433,1,47515,52072,47294.64,51742.44,220.36,329.56,0.506408,96.99,1
189989,1,57473,1,47534,52111,47295.12,51743.18,238.88,367.82,0.506101,97.00,1
190029,1,57513,1,47542,52161,47295.62,51744.01,246.38,416.99,0.505813,97.01,1
190069,1,57553,1,47565,52204,47296.16,51744.93,268.84,459.07,0.505549,97.02,1
190109,1,57593,1,47571,52145,47296.71,51745.73,274.29,399.27,0.505312,97.03,1
190149,1,57633,1,47499,51944,47297.11,51746.13,201.89,197.87,0.505093,97.04,1
190189,1,57673,1,47427,51825,47297.37,51746.29,129.62,78.71,0.504882,97.05,1
190229,1,57713,1,47402,51817,47297.59,51746.44,104.41,70.56,0.504677,97.06,1
190269,1,57753,1,47416,51852,47297.82,51746.65,118.18,105.35,0.504479,97.07,1
190309,1,57793,1,47425,51883,47298.08,51746.92,126.92,136.08,0.504287,97.08,1
190349,1,57833,1,47443,51927,47298.37,51747.29,144.63,179.71,0.504105,97.09,1
190389,1,57873,1,47455,51953,47298.69,51747.70,156.31,205.30,0.503931,97.10,1
190429,1,57913,1,47463,51965,47299.02,51748.14,163.98,216.86,0.503768,97.11,1
190470,1,57954,1,47464,51969,47299.35,51748.58,164.65,220.42,0.503614,97.12,1
190510,1,57994,1,47470,51998,47299.69,51749.08,170.31,248.92,0.503471,97.13,1
190550,1,58034,1,47480,52041,47300.05,51749.66,179.95,291.34,0.503336,97.14,1
190590,1,58074,1,47500,52080,47300.46,51750.32,199.54,329.68,0.503212,97.15,1
190630,1,58114,1,47521,52134,47300.90,51751.09,220.10,382.91,0.503099,97.15,1
190670,1,58154,1,47538,52178,47301.37,51751.95,236.62,426.05,0.502997,97.16,1
190710,1,58194,1,47557,52209,47301.89,51752.86,255.11,456.14,0.502908,97.17,1
190750,1,58234,1,47573,52244,47302.43,51753.85,270.57,490.15,0.502831,97.18,1
190790,1,58274,1,47592,52284,47303.01,51754.91,288.99,529.09,0.502768,97.19,1
190830,1,58314,1,47603,52300,47303.61,51756.00,299.39,544.00,0.502719,97.19,1
190870,1,58354,1,47582,52157,47304.17,51756.80,277.83,400.20,0.502689,97.20,1
190910,1,58394,1,47494,51977,47304.55,51757.25,189.45,219.75,0.502669,97.21,1
190950,1,58434,1,47435,51913,47304.82,51757.56,130.18,155.44,0.502654,97.21,1
190991,1,58475,1,47424,51921,47305.05,51757.89,118.95,163.11,0.502643,97.22,1
191031,1,58515,1,47436,51946,47305.32,51758.27,130.68,187.73,0.502636,97.23,1
191071,1,58555,1,47445,51985,47305.60,51758.72,139.40,226.28,0.502633,97.23,1
191111,1,58595,1,47466,52033,47305.92,51759.27,160.08,273.73,0.502634,97.24,1
191151,1,58635,1,47482,52059,47306.27,51759.87,175.73,299.13,0.502639,97.25,1
191191,1,58675,1,47487,52080,47306.63,51760.51,180.37,319.49,0.502649,97.25,1
191231,1,58715,1,47503,52105,47307.03,51761.20,195.97,343.80,0.502665,97.26,1
191271,1,58755,1,47525,52139,47307.46,51761.96,217.54,377.04,0.502687,97.26,1
191311,1,58795,1,47543,52185,47307.94,51762.81,235.06,422.19,0.502716,97.27,1
191351,1,58835,1,47564,52229,47308.45,51763.74,255.55,465.26,0.502751,97.27,1
191391,1,58875,1,47576,52262,47308.98,51764.74,267.02,497.26,0.502793,97.28,1
191431,1,58915,1,47591,52299,47309.55,51765.81,281.45,533.19,0.502840,97.28,1
191471,1,58955,1,47603,52330,47310.14,51766.94,292.86,563.06,0.502893,97.29,1
191511,1,58995,1,47612,52357,47310.75,51768.12,301.25,588.88,0.502950,97.29,1
191552,1,59036,1,47624,52393,47311.37,51769.37,312.62,623.63,0.503010,97.29,1
191592,1,59076,1,47635,52426,47312.02,51770.68,322.98,655.32,0.503071,97.30,1
191632,1,59116,1,47616,52275,47312.63,51771.70,303.37,503.30,0.503144,97.30,1
191672,1,59156,1,47526,52066,47313.06,51772.29,212.94,293.71,0.503224,97.31,1
191712,1,59196,1,47456,51978,47313.35,51772.70,142.65,205.30,0.503308,97.31,1
191752,1,59236,1,47444,51979,47313.61,51773.11,130.39,205.89,0.503394,97.31,1
191792,1,59276,1,47458,51996,47313.90,51773.56,144.10,222.44,0.503482,97.31,1
191832,1,59316,1,47470,52013,47314.21,51774.04,155.79,238.96,0.503574,97.32,1
191872,1,59356,1,47489,52082,47314.56,51774.66,174.44,307.34,0.503667,97.32,1
191912,1,59396,1,47520,52102,47314.97,51775.31,205.03,326.69,0.503766,97.32,1
191952,1,59436,1,47526,52132,47315.39,51776.03,210.61,355.97,0.503870,97.33,1
191992,1,59476,1,47541,52156,47315.85,51776.79,225.15,379.21,0.503978,97.33,1
192032,1,59516,1,47560,52175,47316.34,51777.59,243.66,397.41,0.504092,97.33,1
192073,1,59557,1,47556,52194,47316.82,51778.42,239.18,415.58,0.504211,97.33,1
192113,1,59597,1,47579,52252,47317.34,51779.37,261.66,472.63,0.504333,97.33,1
192153,1,59637,1,47586,52282,47317.88,51780.38,268.12,501.62,0.504458,97.34,1
192193,1,59677,1,47605,52332,47318.46,51781.48,286.54,550.52,0.504585,97.34,1
192233,1,59717,1,47635,52392,47319.09,51782.71,315.91,609.29,0.504713,97.34,1
192273,1,59757,1,47652,52424,47319.76,51783.99,332.24,640.01,0.504843,97.34,1
192313,1,59797,1,47678,52484,47320.48,51785.39,357.52,698.61,0.504975,97.34,1
192353,1,59837,1,47716,52536,47321.27,51786.90,394.73,749.10,0.505110,97.34,1
192393,1,59877,1,47723,52479,47322.07,51788.29,400.93,690.71,0.505255,97.34,1
192433,1,59917,1,47662,52283,47322.75,51789.28,339.25,493.72,0.505412,97.34,1
192473,1,59957,1,47582,52126,47323.27,51789.95,258.73,336.05,0.505579,97.34,1
192513,1,59997,1,47546,52116,47323.72,51790.61,222.28,325.39,0.505751,97.34,1
192553,1,60037,1,47567,52131,47324.21,51791.29,242.79,339.71,0.505929,97.34,1
192594,1,60078,1,47569,52144,47324.70,51792.00,244.30,352.00,0.506113,97.34,1
192634,1,60118,1,47601,52208,47325.25,51792.83,275.75,415.17,0.506304,97.34,1
192674,1,60158,1,47626,52267,47325.86,51793.78,300.14,473.22,0.506502,97.34,1
192714,1,60198,1,47653,52294,47326.51,51794.78,326.49,499.22,0.506708,97.34,1
192754,1,60238,1,47678,52334,47327.21,51795.86,350.79,538.14,0.506924,97.34,1
192794,1,60278,1,47703,52392,47327.97,51797.05,375.03,594.95,0.507149,97.34,1
192834,1,60318,1,47740,52442,47328.79,51798.34,411.21,643.66,0.507385,97.34,1
192874,1,60358,1,47756,52436,47329.65,51799.62,426.35,636.38,0.507634,97.34,1
192914,1,60398,1,47782,52539,47330.55,51801.10,451.45,737.90,0.507893,97.34,1
192954,1,60438,1,47811,52556,47331.52,51802.61,479.48,753.39,0.508163,97.34,1
192994,1,60478,1,47820,52554,47332.49,51804.12,487.51,749.88,0.508447,97.34,1
193034,1,60518,1,47785,52493,47333.40,51805.50,451.60,687.50,0.508741,97.33,1
193074,1,60558,1,47779,52576,47334.29,51807.04,444.71,768.96,0.509037,97.33,1
193114,1,60598,1,47825,52611,47335.27,51808.65,489.73,802.35,0.509340,97.33,1
193155,1,60639,1,47837,52583,47336.28,51810.20,500.72,772.80,0.509654,97.33,1
193195,1,60679,1,47768,52371,47337.14,51811.32,430.86,559.68,0.509981,97.33,1
193235,1,60719,1,47668,52171,47337.80,51812.04,330.20,358.96,0.510319,97.32,1
193275,1,60759,1,47603,52106,47338.34,51812.63,264.66,293.37,0.510663,97.32,1
193315,1,60799,1,47617,52159,47338.89,51813.32,278.11,345.68,0.511013,97.32,1
193355,1,60839,1,47647,52177,47339.51,51814.05,307.49,362.95,0.511371,97.32,1
193395,1,60879,1,47637,52140,47340.11,51814.71,296.89,325.29,0.511736,97.31,1
193435,1,60919,1,47672,52304,47340.77,51815.69,331.23,488.31,0.512105,97.31,1
193475,1,60959,1,47800,52491,47341.69,51817.04,458.31,673.96,0.512483,97.31,1
193515,1,60999,1,47888,52621,47342.79,51818.65,545.21,802.35,0.512872,97.30,1
193555,1,61039,1,47953,52713,47344.01,51820.44,608.99,892.56,0.513275,97.30,1
193595,1,61079,1,47926,52677,47345.17,51822.15,580.83,854.85,0.513688,97.29,1
193636,1,61120,1,47903,52773,47346.29,51824.05,556.71,948.95,0.514100,97.29,1
193676,1,61160,1,48010,53064,47347.62,51826.54,662.38,1237.46,0.514496,97.28,1
193716,1,61200,1,48144,53337,47349.21,51829.56,794.79,1507.44,0.514871,97.28,1
193756,1,61240,1,48227,53525,47350.97,51832.95,876.03,1692.05,0.515223,97.27,1
193796,1,61280,1,48318,53683,47352.90,51836.65,965.10,1846.35,0.515552,97.27,1
193836,1,61320,1,48348,53704,47354.89,51840.39,993.11,1863.61,0.515868,97.26,1
193876,1,61360,1,48348,53465,47356.88,51843.64,991.12,1621.36,0.516194,97.26,1
193916,1,61400,1,48205,53127,47358.58,51846.20,846.42,1280.80,0.516534,97.25,1
193956,1,61440,1,48016,52858,47359.90,51848.23,656.10,1009.77,0.516881,97.25,1
193996,1,61480,1,47926,52799,47361.03,51850.13,564.97,948.87,0.517227,97.24,1
194036,1,61520,1,47969,52781,47362.25,51851.99,606.75,929.01,0.517579,97.24,1
194076,1,61560,1,47944,52635,47363.41,51853.56,580.59,781.44,0.517940,97.23,1
194116,1,61600,1,47876,52495,47364.44,51854.84,511.56,640.16,0.518309,97.23,1
194157,1,61641,1,47843,52424,47365.40,51855.98,477.60,568.02,0.518686,97.22,1
194197,1,61681,1,47812,52322,47366.29,51856.92,445.71,465.08,0.519071,97.22,1
194237,1,61721,1,47732,52128,47367.03,51857.46,364.97,270.54,0.519463,97.21,1
