t_ms,trial_id,t_trial_ms,phase,red_raw,ir_raw,red_dc,ir_dc,red_ac,ir_ac,R,spo2,spo2_valid
2444946,3,0,0,48183,52718,47890.6,51689.48,292.4,1028.52,0.49925,97.36,1
2444986,3,40,0,48181,52733,47891.18,51691.57,289.82,1041.43,0.498835,97.36,1
2445026,3,80,0,48191,52751,47891.79,51693.69,299.21,1057.31,0.498417,97.37,1
2445066,3,120,0,48192,52756,47892.39,51695.82,299.61,1060.18,0.497997,97.37,1
2445106,3,160,0,48191,52752,47892.98,51697.93,298.02,1054.07,0.497574,97.38,1
2445147,3,201,0,48187,52754,47893.57,51700.04,293.43,1053.96,0.497149,97.39,1
2445187,3,241,0,48188,52763,47894.16,51702.17,293.84,1060.83,0.496721,97.39,1
2445227,3,281,0,48189,52784,47894.75,51704.34,294.25,1079.66,0.49629,97.4,1
2445267,3,321,0,48200,52819,47895.37,51706.57,304.63,1112.43,0.495857,97.4,1
2445307,3,361,0,48210,52844,47896,51708.84,314,1135.16,0.49542,97.41,1
2445347,3,401,0,48219,52921,47896.64,51711.27,322.36,1209.73,0.49498,97.42,1
2445387,3,441,0,48225,53036,47897.3,51713.92,327.7,1322.08,0.494534,97.42,1
2445427,3,481,0,48230,52902,47897.97,51716.3,332.03,1185.7,0.494086,97.43,1
2445467,3,521,0,48239,52925,47898.65,51718.72,340.35,1206.28,0.493636,97.44,1
2445507,3,561,0,48244,52904,47899.34,51721.09,344.66,1182.91,0.493185,97.44,1
2445547,3,601,0,48219,53238,47899.98,51724.12,319.02,1513.88,0.492724,97.45,1
2445587,3,641,0,48170,53248,47900.53,51727.18,269.47,1520.82,0.492249,97.46,1
2445627,3,681,0,48146,52679,47901.02,51729.08,244.98,949.92,0.491774,97.47,1
2445667,3,721,0,48132,52664,47901.48,51730.95,230.52,933.05,0.491297,97.47,1
2445707,3,761,0,48120,52651,47901.92,51732.79,218.08,918.21,0.490819,97.48,1
2445747,3,801,0,48118,52314,47902.36,51733.96,215.64,580.04,0.490343,97.49,1
2445787,3,841,0,48116,52189,47902.79,51734.87,213.21,454.13,0.489872,97.5,1
2445827,3,881,0,48118,52659,47903.22,51736.71,214.78,922.29,0.489398,97.5,1
2445867,3,921,0,48116,52658,47903.64,51738.56,212.36,919.44,0.488923,97.51,1
2445907,3,961,0,48114,52659,47904.07,51740.4,209.93,918.6,0.488446,97.52,1
2445947,3,1001,0,48115,52670,47904.49,51742.26,210.51,927.74,0.487967,97.53,1
2445988,3,1042,0,48119,52697,47904.92,51744.17,214.08,952.83,0.487486,97.54,1
2446028,3,1082,0,48128,52722,47905.37,51746.13,222.63,975.87,0.487004,97.55,1
2446068,3,1122,0,48135,52750,47905.83,51748.14,229.17,1001.86,0.486519,97.56,1
2446108,3,1162,0,48148,52782,47906.31,51750.21,241.69,1031.79,0.486032,97.56,1
2446148,3,1202,0,48158,52809,47906.82,51752.32,251.18,1056.68,0.485543,97.57,1
2446188,3,1242,0,48171,52838,47907.35,51754.5,263.65,1083.5,0.485052,97.58,1
2446228,3,1282,0,48183,52862,47907.9,51756.71,275.1,1105.29,0.484561,97.59,1
2446268,3,1322,0,48420,52896,47908.93,51758.99,511.07,1137.01,0.484083,97.6,1
2446308,3,1362,0,48529,52926,47910.17,51761.33,618.83,1164.67,0.483629,97.61,1
2446348,3,1402,0,48214,52909,47910.78,51763.62,303.22,1145.38,0.483174,97.62,1
2446388,3,1442,0,48183,52808,47911.32,51765.71,271.68,1042.29,0.482717,97.63,1
2446428,3,1482,0,48136,52726,47911.77,51767.64,224.23,958.36,0.48226,97.64,1
2446468,3,1522,0,48042,52696,47912.04,51769.5,129.96,926.5,0.481798,97.65,1
2446508,3,1562,0,47912,52678,47912.04,51771.31,-0.04,906.69,0.481331,97.66,1
2446548,3,1602,0,48094,52667,47912.4,51773.11,181.6,893.89,0.480863,97.67,1
2446588,3,1642,0,48089,52666,47912.75,51774.89,176.25,891.11,0.480392,97.68,1
2446628,3,1682,0,48088,52674,47913.11,51776.7,174.89,897.3,0.47992,97.69,1
2446668,3,1722,0,47512,52683,47912.3,51778.51,-400.3,904.49,0.479456,97.7,1
2446708,3,1762,0,47253,52679,47910.99,51780.31,-657.99,898.69,0.479023,97.71,1
2446749,3,1803,0,48083,52673,47911.33,51782.09,171.67,890.91,0.478587,97.72,1
2446789,3,1843,0,48083,52688,47911.68,51783.91,171.32,904.09,0.478149,97.73,1
2446829,3,1883,0,48087,52706,47912.03,51785.75,174.97,920.25,0.477709,97.74,1
2446869,3,1923,0,48092,52730,47912.39,51787.64,179.61,942.36,0.477265,97.75,1
2446909,3,1963,0,48104,52754,47912.77,51789.57,191.23,964.43,0.476819,97.76,1
2446949,3,2003,0,48113,52783,47913.17,51791.56,199.83,991.44,0.47637,97.77,1
2446989,3,2043,0,48122,52814,47913.59,51793.61,208.41,1020.39,0.475919,97.78,1
2447029,3,2083,0,48134,52837,47914.03,51795.7,219.97,1041.3,0.475464,97.79,1
2447069,3,2123,0,48142,52858,47914.49,51797.82,227.51,1060.18,0.475007,97.8,1
2447109,3,2163,0,48156,52881,47914.97,51799.99,241.03,1081.01,0.474548,97.81,1
2447149,3,2203,0,48164,52904,47915.47,51802.2,248.53,1101.8,0.474087,97.82,1
2447189,3,2243,0,48174,52930,47915.99,51804.46,258.01,1125.54,0.473623,97.83,1
2447229,3,2283,0,48184,52958,47916.53,51806.77,267.47,1151.23,0.473158,97.84,1
2447269,3,2323,0,48193,52964,47917.09,51809.09,275.91,1154.91,0.472691,97.85,1
2447309,3,2363,0,48177,52874,47917.61,51811.22,259.39,1062.78,0.472223,97.86,1
2447349,3,2403,0,48124,52763,47918.02,51813.12,205.98,949.87,0.471753,97.87,1
2447389,3,2443,0,48078,52699,47918.34,51814.9,159.66,884.1,0.471282,97.88,1
2447429,3,2483,0,48060,52683,47918.62,51816.64,141.37,866.36,0.470809,97.89,1
2447470,3,2524,0,48053,52666,47918.89,51818.34,134.11,847.66,0.470334,97.9,1
2447510,3,2564,0,48048,52661,47919.15,51820.02,128.85,840.98,0.469857,97.91,1
2447550,3,2604,0,48050,52673,47919.41,51821.73,130.59,851.27,0.469378,97.92,1
2447590,3,2644,0,48046,52678,47919.67,51823.45,126.33,854.55,0.468897,97.93,1
2447630,3,2684,0,48042,52668,47919.91,51825.14,122.09,842.86,0.468415,97.94,1
2447670,3,2724,0,48041,52660,47920.16,51826.81,120.84,833.19,0.46793,97.95,1
2447710,3,2764,0,48041,52673,47920.4,51828.5,120.6,844.5,0.467443,97.96,1
2447750,3,2804,0,48041,52693,47920.64,51830.23,120.36,862.77,0.466954,97.98,1
2447790,3,2844,0,48050,52715,47920.9,51832,129.1,883,0.466463,97.99,1
2447830,3,2884,0,48066,52733,47921.2,51833.81,144.8,899.19,0.465971,98,1
2447870,3,2924,0,48076,52756,47921.51,51835.66,154.49,920.34,0.465476,98.01,1
2447910,3,2964,0,48089,52780,47921.84,51837.55,167.16,942.45,0.464979,98.02,1
2447950,3,3004,0,48098,52802,47922.2,51839.48,175.8,962.52,0.464481,98.03,1
2447990,3,3044,0,48104,52823,47922.56,51841.45,181.44,981.55,0.463981,98.04,1
2448030,3,3084,0,48113,52835,47922.95,51843.43,190.05,991.57,0.463479,98.05,1
2448070,3,3124,0,48118,52857,47923.34,51845.46,194.66,1011.54,0.462975,98.06,1
2448110,3,3164,0,48125,52872,47923.74,51847.52,201.26,1024.48,0.46247,98.07,1
2448150,3,3204,0,48130,52899,47924.16,51849.62,205.84,1049.38,0.461964,98.09,1
2448190,3,3244,0,48136,52926,47924.58,51851.77,211.42,1074.23,0.461456,98.1,1
2448231,3,3285,0,48146,52932,47925.03,51853.93,220.97,1078.07,0.460946,98.11,1
2448271,3,3325,0,48131,52840,47925.44,51855.91,205.56,984.09,0.460435,98.12,1
2448311,3,3365,0,48076,52724,47925.74,51857.64,150.26,866.36,0.459924,98.13,1
2448351,3,3405,0,48025,52659,47925.94,51859.25,99.06,799.75,0.459411,98.14,1
2448391,3,3445,0,48014,52631,47926.12,51860.79,87.88,770.21,0.458897,98.15,1
2448431,3,3485,0,48011,52629,47926.29,51862.33,84.71,766.67,0.458382,98.17,1
2448471,3,3525,0,48010,52645,47926.46,51863.9,83.54,781.1,0.457865,98.18,1
2448511,3,3565,0,48017,52661,47926.64,51865.49,90.36,795.51,0.457347,98.19,1
2448551,3,3605,0,48021,52661,47926.83,51867.09,94.17,793.91,0.456828,98.2,1
2448591,3,3645,0,48016,52647,47927.01,51868.65,88.99,778.35,0.456307,98.21,1
2448631,3,3685,0,48014,52630,47927.19,51870.17,86.81,759.83,0.455785,98.22,1
2448671,3,3725,0,48005,52633,47927.34,51871.7,77.66,761.3,0.455262,98.24,1
2448711,3,3765,0,48013,52650,47927.52,51873.26,85.48,776.74,0.454738,98.25,1
2448751,3,3805,0,48017,52663,47927.7,51874.84,89.3,788.16,0.454212,98.26,1
2448791,3,3845,0,48029,52684,47927.9,51876.46,101.1,807.54,0.453685,98.27,1
2448831,3,3885,0,48032,52702,47928.11,51878.11,103.89,823.89,0.453157,98.28,1
2448871,3,3925,0,48041,52725,47928.34,51879.81,112.66,845.19,0.452627,98.3,1
2448911,3,3965,0,48044,52738,47928.57,51881.53,115.43,856.47,0.452096,98.31,1
2448951,3,4005,0,48054,52890,47928.82,51883.55,125.18,1006.45,0.451562,98.32,1
2448992,3,4046,0,48060,53006,47929.09,51885.79,130.91,1120.21,0.451024,98.33,1
2449032,3,4086,0,48065,52787,47929.36,51887.6,135.64,899.4,0.450486,98.34,1
2449072,3,4126,0,48071,52813,47929.64,51889.45,141.36,923.55,0.449945,98.36,1
2449112,3,4166,0,48075,52831,47929.94,51891.33,145.06,939.67,0.449404,98.37,1
2449152,3,4206,0,48071,53268,47930.22,51894.09,140.78,1373.91,0.448855,98.38,1
2449192,3,4246,0,48018,52529,47930.4,51895.36,87.6,633.64,0.448307,98.39,1
2449232,3,4286,0,47964,52516,47930.47,51896.6,33.53,619.4,0.447759,98.41,1
2449272,3,4326,0,47934,52473,47930.48,51897.75,3.52,575.25,0.44721,98.42,1
2449312,3,4366,0,47926,52456,47930.47,51898.87,-4.47,557.13,0.446662,98.43,1
2449352,3,4406,0,47921,51968,47930.45,51899.01,-9.45,68.99,0.446115,98.44,1
2449392,3,4446,0,47920,51831,47930.43,51898.87,-10.43,-67.87,0.445569,98.46,1
2449432,3,4486,0,47926,52457,47930.42,51899.99,-4.42,557.01,0.445024,98.47,1
2449472,3,4526,0,47924,52444,47930.41,51901.08,-6.41,542.92,0.444479,98.48,1
2449512,3,4566,0,47913,52432,47930.37,51902.14,-17.37,529.86,0.443933,98.49,1
2449552,3,4606,0,47912,52427,47930.34,51903.2,-18.34,523.8,0.443388,98.51,1
2449592,3,4646,0,47916,52434,47930.31,51904.26,-14.31,529.74,0.442843,98.52,1
2449632,3,4686,0,47920,52454,47930.29,51905.36,-10.29,548.64,0.442298,98.53,1
2449672,3,4726,0,47924,52475,47930.28,51906.5,-6.28,568.5,0.441753,98.54,1
2449712,3,4766,0,48023,52498,47930.47,51907.68,92.53,590.32,0.441208,98.56,1
2449753,3,4807,0,47946,52519,47930.5,51908.91,15.5,610.09,0.440663,98.57,1
2449793,3,4847,0,47953,52544,47930.55,51910.18,22.45,633.82,0.440118,98.58,1
2449833,3,4887,0,47962,52572,47930.61,51911.5,31.39,660.5,0.439571,98.6,1
2449873,3,4927,0,48404,52594,47931.56,51912.87,472.44,681.13,0.439046,98.61,1
2449913,3,4967,0,48495,52614,47932.69,51914.27,562.31,699.73,0.43855,98.62,1
2449953,3,5007,0,47989,52644,47932.8,51915.73,56.2,728.27,0.438052,98.63,1
2449993,3,5047,0,48005,52673,47932.95,51917.25,72.05,755.75,0.437554,98.65,1
2450033,3,5087,0,48016,52699,47933.11,51918.82,82.89,780.18,0.437053,98.66,1
2450073,3,5127,0,47657,52666,47932.56,51920.31,-275.56,745.69,0.436558,98.67,1
2450113,3,5167,0,47517,52525,47931.73,51921.52,-414.73,603.48,0.436079,98.69,1
2450153,3,5207,0,47922,52383,47931.71,51922.45,-9.71,460.55,0.4356,98.7,1
2450193,3,5247,0,47873,52306,47931.6,51923.22,-58.6,382.78,0.435122,98.71,1
2450233,3,5287,0,47847,52268,47931.43,51923.91,-84.43,344.09,0.434645,98.72,1
2450273,3,5327,0,47836,52243,47931.24,51924.55,-95.24,318.45,0.43417,98.74,1
2450313,3,5367,0,47826,52231,47931.03,51925.16,-105.03,305.84,0.433697,98.75,1
2450353,3,5407,0,47827,52237,47930.82,51925.79,-103.82,311.21,0.433226,98.76,1
2450393,3,5447,0,47827,52238,47930.61,51926.41,-103.61,311.59,0.432757,98.77,1
2450434,3,5488,0,47821,52220,47930.39,51927,-109.39,293,0.432289,98.79,1
2450474,3,5528,0,47817,52211,47930.17,51927.57,-113.17,283.43,0.431824,98.8,1
2450514,3,5568,0,47814,52217,47929.94,51928.16,-115.94,288.84,0.431361,98.81,1
2450554,3,5608,0,47815,52235,47929.71,51928.77,-114.71,306.23,0.4309,98.82,1
2450594,3,5648,0,47828,52262,47929.5,51929.44,-101.5,332.56,0.430441,98.84,1
2450634,3,5688,0,47841,52295,47929.33,51930.17,-88.33,364.83,0.429984,98.85,1
2450674,3,5728,0,47857,52327,47929.18,51930.97,-72.18,396.03,0.429527,98.86,1
2450714,3,5768,0,47867,52357,47929.06,51931.82,-62.06,425.18,0.42907,98.87,1
2450754,3,5808,0,47887,52386,47928.98,51932.73,-41.98,453.27,0.428614,98.89,1
2450794,3,5848,0,47900,52407,47928.92,51933.68,-28.92,473.32,0.428158,98.9,1
2450834,3,5888,0,47910,52432,47928.88,51934.68,-18.88,497.32,0.427701,98.91,1
2450874,3,5928,0,47924,52462,47928.87,51935.73,-4.87,526.27,0.427244,98.92,1
2450914,3,5968,0,47934,52485,47928.89,51936.83,5.11,548.17,0.426786,98.94,1
2450954,3,6008,0,47943,52514,47928.92,51937.99,14.08,576.01,0.426327,98.95,1
2450994,3,6048,0,47956,52546,47928.97,51939.21,27.03,606.79,0.425866,98.96,1
2451034,3,6088,0,47970,52573,47929.05,51940.48,40.95,632.52,0.425405,98.97,1
2451074,3,6128,0,47968,52514,47929.13,51941.62,38.87,572.37,0.424943,98.98,1
2451115,3,6169,0,47916,52359,47929.11,51942.46,-13.11,416.54,0.42448,99,1
2451155,3,6209,0,47847,52220,47928.95,51943.02,-81.95,276.98,0.42402,99.01,1
2451195,3,6249,0,47803,52158,47928.7,51943.45,-125.7,214.55,0.423562,99.02,1
2451235,3,6289,0,47782,52133,47928.4,51943.82,-146.4,189.18,0.423108,99.03,1
2451275,3,6329,0,47777,52120,47928.1,51944.18,-151.1,175.82,0.422658,99.04,1
2451315,3,6369,0,47777,52125,47927.8,51944.54,-150.8,180.46,0.422212,99.06,1
2451355,3,6409,0,47780,52142,47927.51,51944.94,-147.51,197.06,0.42177,99.07,1
2451395,3,6449,0,47785,52141,47927.22,51945.33,-142.22,195.67,0.421331,99.08,1
2451435,3,6489,0,47782,52128,47926.93,51945.7,-144.93,182.3,0.420895,99.09,1
2451475,3,6529,0,47779,52118,47926.64,51946.05,-147.64,171.95,0.420463,99.1,1
2451515,3,6569,0,47785,52126,47926.36,51946.41,-141.36,179.59,0.420035,99.12,1
2451555,3,6609,0,47795,52155,47926.1,51946.82,-131.1,208.18,0.41961,99.13,1
2451595,3,6649,0,47801,52178,47925.85,51947.29,-124.85,230.71,0.419188,99.14,1
2451635,3,6689,0,47818,52209,47925.63,51947.81,-107.63,261.19,0.418768,99.15,1
2451675,3,6729,0,47832,52236,47925.45,51948.39,-93.45,287.61,0.418349,99.16,1
2451715,3,6769,0,47843,52261,47925.28,51949.02,-82.28,311.98,0.417932,99.17,1
2451755,3,6809,0,47853,52290,47925.14,51949.7,-72.14,340.3,0.417516,99.19,1
2451795,3,6849,0,47864,52313,47925.02,51950.43,-61.02,362.57,0.4171,99.2,1
2451836,3,6890,0,47872,52334,47924.91,51951.2,-52.91,382.8,0.416685,99.21,1
2451876,3,6930,0,47877,52356,47924.82,51952.01,-47.82,403.99,0.41627,99.22,1
2451916,3,6970,0,47888,52388,47924.74,51952.88,-36.74,435.12,0.415855,99.23,1
2451956,3,7010,0,47902,52419,47924.7,51953.82,-22.7,465.18,0.415439,99.24,1
2451996,3,7050,0,47915,52445,47924.68,51954.8,-9.68,490.2,0.415022,99.26,1
2452036,3,7090,0,47915,52389,47924.66,51955.67,-9.66,433.33,0.414605,99.27,1
2452076,3,7130,0,47867,52243,47924.55,51956.25,-57.55,286.75,0.414189,99.28,1
2452116,3,7170,0,47806,52124,47924.31,51956.58,-118.31,167.42,0.413776,99.29,1
2452156,3,7210,0,47770,52059,47924,51956.79,-154,102.21,0.413367,99.3,1
2452196,3,7250,0,47762,52043,47923.68,51956.96,-161.68,86.04,0.412963,99.31,1
2452236,3,7290,0,47759,52124,47923.35,51957.3,-164.35,166.7,0.412564,99.32,1
2452276,3,7330,0,47759,52059,47923.02,51957.5,-164.02,101.5,0.41217,99.33,1
2452316,3,7370,0,47761,52072,47922.7,51957.73,-161.7,114.27,0.411781,99.35,1
2452356,3,7410,0,47768,52063,47922.39,51957.94,-154.39,105.06,0.411396,99.36,1
2452396,3,7450,0,47763,52419,47922.07,51958.86,-159.07,460.14,0.411014,99.37,1
2452436,3,7490,0,47760,52505,47921.75,51959.96,-161.75,545.04,0.410634,99.38,1
2452476,3,7530,0,47759,52058,47921.43,51960.16,-162.43,97.84,0.410258,99.39,1
2452516,3,7570,0,47769,52082,47921.12,51960.4,-152.12,121.6,0.409887,99.4,1
2452557,3,7611,0,47781,52112,47920.84,51960.71,-139.84,151.29,0.40952,99.41,1
2452597,3,7651,0,47792,51852,47920.59,51960.49,-128.59,-108.49,0.409157,99.42,1
2452637,3,7691,0,47807,51781,47920.36,51960.13,-113.36,-179.13,0.408796,99.43,1
2452677,3,7731,0,47814,52209,47920.15,51960.63,-106.15,248.37,0.408437,99.44,1
2452717,3,7771,0,47834,52236,47919.98,51961.18,-85.98,274.82,0.408079,99.45,1
2452757,3,7811,0,47846,52266,47919.83,51961.79,-73.83,304.21,0.407723,99.46,1
2452797,3,7851,0,47859,52292,47919.71,51962.45,-60.71,329.55,0.407367,99.48,1
2452837,3,7891,0,47869,52326,47919.61,51963.18,-50.61,362.82,0.407011,99.49,1
2452877,3,7931,0,47884,52353,47919.54,51963.96,-35.54,389.04,0.406654,99.5,1
2452917,3,7971,0,47902,52389,47919.5,51964.81,-17.5,424.19,0.406297,99.51,1
2452957,3,8011,0,47916,52378,47919.5,51965.64,-3.5,412.36,0.405939,99.52,1
2452997,3,8051,0,47885,52245,47919.43,51966.2,-34.43,278.8,0.405581,99.53,1
2453037,3,8091,0,47809,52067,47919.21,51966.4,-110.21,100.6,0.405226,99.54,1
2453077,3,8131,0,47742,51948,47918.86,51966.37,-176.86,-18.37,0.404878,99.55,1
2453117,3,8171,0,47953,51891,47918.93,51966.22,34.07,-75.22,0.40453,99.56,1
2453157,3,8211,0,48061,51860,47919.21,51966.01,141.79,-106.01,0.404187,99.57,1
2453197,3,8251,0,47684,51846,47918.75,51965.77,-234.75,-119.77,0.403854,99.58,1
2453237,3,8291,0,47680,51855,47918.27,51965.55,-238.27,-110.55,0.403531,99.59,1
2453277,3,8331,0,47688,51858,47917.81,51965.34,-229.81,-107.34,0.403217,99.6,1
2453318,3,8372,0,47555,51854,47917.09,51965.11,-362.09,-111.11,0.402926,99.61,1
2453358,3,8412,0,47384,51842,47916.02,51964.87,-532.02,-122.87,0.402681,99.62,1
2453398,3,8452,0,47676,51846,47915.54,51964.63,-239.54,-118.63,0.402445,99.63,1
2453438,3,8492,0,47681,51867,47915.07,51964.43,-234.07,-97.43,0.402219,99.64,1
2453478,3,8532,0,47697,51892,47914.64,51964.29,-217.64,-72.29,0.402,99.65,1
2453518,3,8572,0,46249,51933,47911.31,51964.23,-1662.31,-31.23,0.402151,99.66,1
2453558,3,8612,0,47724,51968,47910.93,51964.23,-186.93,3.77,0.402306,99.66,1
2453598,3,8652,0,47740,52001,47910.59,51964.31,-170.59,36.69,0.402463,99.67,1
2453638,3,8692,0,47760,52030,47910.29,51964.44,-150.29,65.56,0.402623,99.68,1
2453678,3,8732,0,47777,52060,47910.03,51964.63,-133.03,95.37,0.402784,99.69,1
2453718,3,8772,0,47790,52089,47909.79,51964.88,-119.79,124.12,0.402946,99.69,1
2453758,3,8812,0,47800,52119,47909.57,51965.19,-109.57,153.81,0.403108,99.7,1
2453798,3,8852,0,47814,52148,47909.38,51965.56,-95.38,182.44,0.403271,99.71,1
2453838,3,8892,0,47829,52175,47909.22,51965.98,-80.22,209.02,0.403433,99.71,1
2453878,3,8932,0,47842,52207,47909.09,51966.46,-67.09,240.54,0.403593,99.72,1
2453918,3,8972,0,47852,52246,47908.97,51967.02,-56.97,278.98,0.403752,99.73,1
2453958,3,9012,0,47863,52233,47908.88,51967.56,-45.88,265.44,0.403909,99.73,1
2453998,3,9052,0,47832,52089,47908.73,51967.8,-76.73,121.2,0.404066,99.74,1
2454039,3,9093,0,47759,51913,47908.43,51967.7,-149.43,-54.7,0.404225,99.74,1
2454079,3,9133,0,47690,51793,47908,51967.35,-218,-174.35,0.40439,99.75,1
2454119,3,9173,0,47659,51748,47907.5,51966.91,-248.5,-218.91,0.40456,99.75,1
2454159,3,9213,0,47647,51725,47906.98,51966.43,-259.98,-241.43,0.404738,99.75,1
2454199,3,9253,0,47642,51717,47906.45,51965.93,-264.45,-248.93,0.404923,99.76,1
2454239,3,9293,0,47649,51737,47905.94,51965.47,-256.94,-228.47,0.405114,99.76,1
2454279,3,9333,0,47656,51752,47905.44,51965.05,-249.44,-213.05,0.405312,99.76,1
2454319,3,9373,0,47659,51750,47904.95,51964.62,-245.95,-214.62,0.405517,99.77,1
2454359,3,9413,0,47664,51742,47904.47,51964.17,-240.47,-222.17,0.405727,99.77,1
2454399,3,9453,0,47666,51749,47903.99,51963.74,-237.99,-214.74,0.405943,99.77,1
2454439,3,9493,0,47677,51768,47903.54,51963.35,-226.54,-195.35,0.406164,99.77,1
2454479,3,9533,0,47688,51801,47903.11,51963.03,-215.11,-162.03,0.40639,99.78,1
2454519,3,9573,0,47700,51837,47902.7,51962.78,-202.7,-125.78,0.40662,99.78,1
2454559,3,9613,0,47720,51867,47902.34,51962.59,-182.34,-95.59,0.406854,99.78,1
2454599,3,9653,0,47736,51901,47902.01,51962.46,-166.01,-61.46,0.407091,99.78,1
2454639,3,9693,0,47750,51934,47901.7,51962.41,-151.7,-28.41,0.407331,99.78,1
2454679,3,9733,0,47762,51958,47901.43,51962.4,-139.43,-4.4,0.407572,99.78,1
2454719,3,9773,0,47776,51988,47901.18,51962.45,-125.18,25.55,0.407815,99.78,1
2454760,3,9814,0,47783,52013,47900.94,51962.55,-117.94,50.45,0.408059,99.78,1
2454800,3,9854,0,47795,52038,47900.73,51962.71,-105.73,75.29,0.408304,99.78,1
2454840,3,9894,0,47808,52070,47900.55,51962.92,-92.55,107.08,0.408549,99.78,1
2454880,3,9934,0,47817,52110,47900.38,51963.22,-83.38,146.78,0.408793,99.78,1
2454920,3,9974,0,47836,52138,47900.25,51963.57,-64.25,174.43,0.409037,99.78,1
2454960,3,10014,0,47844,52080,47900.14,51963.8,-56.14,116.2,0.40928,99.78,1
2455000,3,10054,0,47791,51914,47899.93,51963.71,-108.93,-49.71,0.409524,99.78,1
2455040,3,10094,0,47722,51769,47899.57,51963.32,-177.57,-194.32,0.409771,99.78,1
2455080,3,10134,0,47678,51699,47899.13,51962.79,-221.13,-263.79,0.410022,99.78,1
2455120,3,10174,0,47668,51684,47898.67,51962.24,-230.67,-278.24,0.410278,99.78,1
2455160,3,10214,0,47673,51683,47898.22,51961.68,-225.22,-278.68,0.410538,99.78,1
2455200,3,10254,0,47680,51705,47897.79,51961.17,-217.79,-256.17,0.410803,99.78,1
2455240,3,10294,0,47689,51721,47897.37,51960.69,-208.37,-239.69,0.411072,99.78,1
2455280,3,10334,0,47693,51717,47896.96,51960.2,-203.96,-243.2,0.411345,99.77,1
2455320,3,10374,0,47692,51701,47896.55,51959.69,-204.55,-258.69,0.411621,99.77,1
2455360,3,10414,0,47692,51698,47896.14,51959.16,-204.14,-261.16,0.4119,99.77,1
2455400,3,10454,0,47694,51714,47895.74,51958.68,-201.74,-244.68,0.412183,99.77,1
2455440,3,10494,0,47705,51745,47895.36,51958.25,-190.36,-213.25,0.412469,99.76,1
2455480,3,10534,0,47719,51779,47895.01,51957.89,-176.01,-178.89,0.412758,99.76,1
2455521,3,10575,0,47735,51814,47894.69,51957.61,-159.69,-143.61,0.413049,99.76,1
2455561,3,10615,0,47752,51847,47894.41,51957.39,-142.41,-110.39,0.413343,99.76,1
2455601,3,10655,0,47767,51880,47894.15,51957.24,-127.15,-77.24,0.413637,99.75,1
2455641,3,10695,0,47776,51913,47893.92,51957.15,-117.92,-44.15,0.413934,99.75,1
2455681,3,10735,0,47793,51940,47893.72,51957.12,-100.72,-17.12,0.414231,99.75,1
2455721,3,10775,0,47807,51967,47893.55,51957.14,-86.55,9.86,0.414528,99.74,1
2455761,3,10815,0,47822,51996,47893.41,51957.22,-71.41,38.78,0.414825,99.74,1
2455801,3,10855,0,47833,52289,47893.29,51957.88,-60.29,331.12,0.415118,99.74,1
2455841,3,10895,0,47854,52420,47893.21,51958.81,-39.21,461.19,0.415402,99.73,1
2455881,3,10935,0,47870,52078,47893.16,51959.05,-23.16,118.95,0.415685,99.73,1
2455921,3,10975,0,47853,51948,47893.08,51959.03,-40.08,-11.03,0.415968,99.73,1
2455961,3,11015,0,47780,51748,47892.86,51958.61,-112.86,-210.61,0.41625,99.72,1
2456001,3,11055,0,47704,51482,47892.48,51957.65,-188.48,-475.65,0.416528,99.72,1
2456041,3,11095,0,47665,51288,47892.03,51956.31,-227.03,-668.31,0.416798,99.71,1
2456081,3,11135,0,47651,51501,47891.55,51955.4,-240.55,-454.4,0.417069,99.71,1
2456121,3,11175,0,47648,51484,47891.06,51954.46,-243.06,-470.46,0.417342,99.71,1
2456161,3,11215,0,47642,51493,47890.57,51953.54,-248.57,-460.54,0.417615,99.7,1
2456201,3,11255,0,47649,50804,47890.09,51951.24,-241.09,-1147.24,0.417851,99.7,1
2456241,3,11295,0,47655,51502,47889.62,51950.34,-234.62,-448.34,0.418087,99.69,1
2456282,3,11336,0,47654,51487,47889.15,51949.42,-235.15,-462.42,0.418325,99.69,1
2456322,3,11376,0,47648,51488,47888.67,51948.5,-240.67,-460.5,0.418564,99.68,1
2456362,3,11416,0,47655,51509,47888.2,51947.62,-233.2,-438.62,0.418804,99.68,1
2456402,3,11456,0,47667,51538,47887.76,51946.8,-220.76,-408.8,0.419047,99.67,1
2456442,3,11496,0,47683,51578,47887.35,51946.07,-204.35,-368.07,0.41929,99.67,1
2456482,3,11536,0,47704,51611,47886.98,51945.4,-182.98,-334.4,0.419535,99.66,1
2456522,3,11576,0,47879,51653,47886.97,51944.82,-7.97,-291.82,0.419775,99.66,1
2456562,3,11616,0,48024,51686,47887.24,51944.3,136.76,-258.3,0.420016,99.65,1
2456602,3,11656,0,47756,51719,47886.98,51943.85,-130.98,-224.85,0.420257,99.65,1
2456642,3,11696,0,47773,51743,47886.75,51943.45,-113.75,-200.45,0.420498,99.65,1
2456682,3,11736,0,47789,51773,47886.56,51943.11,-97.56,-170.11,0.420739,99.64,1
2456722,3,11776,0,47766,51801,47886.32,51942.83,-120.32,-141.83,0.420981,99.64,1
2456762,3,11816,0,47624,51832,47885.8,51942.61,-261.8,-110.61,0.421234,99.63,1
2456802,3,11856,0,47830,51866,47885.69,51942.46,-55.69,-76.46,0.421486,99.63,1
2456842,3,11896,0,47848,51907,47885.61,51942.39,-37.61,-35.39,0.421738,99.62,1
2456882,3,11936,0,47863,51918,47885.57,51942.34,-22.57,-24.34,0.421989,99.62,1
2456922,3,11976,0,47285,51795,47884.37,51942.05,-599.37,-147.05,0.422303,99.61,1
2456963,3,12017,0,47775,51587,47884.15,51941.34,-109.15,-354.34,0.422612,99.6,1
2457003,3,12057,0,47693,51421,47883.77,51940.3,-190.77,-519.3,0.422916,99.6,1
2457043,3,12097,0,47646,51349,47883.3,51939.12,-237.3,-590.12,0.423215,99.59,1
2457083,3,12137,0,47626,51318,47882.79,51937.88,-256.79,-619.88,0.423508,99.59,1
2457123,3,12177,0,47619,51299,47882.26,51936.61,-263.26,-637.61,0.423797,99.58,1
2457163,3,12217,0,47624,51310,47881.74,51935.36,-257.74,-625.36,0.42408,99.58,1
2457203,3,12257,0,47632,51333,47881.24,51934.15,-249.24,-601.15,0.42436,99.57,1
2457243,3,12297,0,47640,51341,47880.76,51932.97,-240.76,-591.97,0.424635,99.57,1
2457283,3,12337,0,47643,51324,47880.29,51931.75,-237.29,-607.75,0.424904,99.56,1
2457323,3,12377,0,47645,51322,47879.82,51930.54,-234.82,-608.54,0.425168,99.55,1
2457363,3,12417,0,47654,51343,47879.37,51929.36,-225.37,-586.36,0.425427,99.55,1
2457403,3,12457,0,47664,51378,47878.94,51928.26,-214.94,-550.26,0.425681,99.54,1
2457443,3,12497,0,47684,51416,47878.55,51927.24,-194.55,-511.24,0.425932,99.54,1
2457483,3,12537,0,47697,51456,47878.19,51926.3,-181.19,-470.3,0.426179,99.53,1
2457523,3,12577,0,47715,51485,47877.87,51925.41,-162.87,-440.41,0.426422,99.53,1
2457563,3,12617,0,47728,51519,47877.57,51924.6,-149.57,-405.6,0.426663,99.52,1
2457603,3,12657,0,47745,51549,47877.3,51923.85,-132.3,-374.85,0.4269,99.51,1
2457643,3,12697,0,47756,51575,47877.06,51923.16,-121.06,-348.16,0.427135,99.51,1
2457683,3,12737,0,47772,51604,47876.86,51922.52,-104.86,-318.52,0.427367,99.5,1
2457724,3,12778,0,47785,51633,47876.67,51921.94,-91.67,-288.94,0.427597,99.5,1
2457764,3,12818,0,47795,51666,47876.51,51921.43,-81.51,-255.43,0.427825,99.49,1
2457804,3,12858,0,47808,51707,47876.37,51921,-68.37,-214,0.428052,99.49,1
2457844,3,12898,0,47830,51746,47876.29,51920.66,-46.29,-174.66,0.428277,99.48,1
2457884,3,12938,0,47845,51730,47876.22,51920.28,-31.22,-190.28,0.4285,99.47,1
2457924,3,12978,0,47805,51580,47876.08,51919.6,-71.08,-339.6,0.428718,99.47,1
2457964,3,13018,0,47732,51385,47875.8,51918.53,-143.8,-533.53,0.428929,99.46,1
2458004,3,13058,0,47674,51271,47875.39,51917.24,-201.39,-646.24,0.429131,99.46,1
2458044,3,13098,0,47650,51233,47874.95,51915.87,-224.95,-682.87,0.429324,99.45,1
2458084,3,13138,0,47647,51230,47874.49,51914.5,-227.49,-684.5,0.429509,99.45,1
2458124,3,13178,0,47649,51244,47874.04,51913.16,-225.04,-669.16,0.429686,99.44,1
2458164,3,13218,0,47660,51273,47873.62,51911.88,-213.62,-638.88,0.429856,99.43,1
2458204,3,13258,0,47670,51278,47873.21,51910.62,-203.21,-632.62,0.430018,99.43,1
2458244,3,13298,0,47667,51260,47872.8,51909.32,-205.8,-649.32,0.430173,99.42,1
2458284,3,13338,0,47668,51253,47872.39,51908,-204.39,-655,0.430321,99.42,1
2458324,3,13378,0,47664,51269,47871.98,51906.73,-207.98,-637.73,0.430461,99.41,1
2458364,3,13418,0,47672,51295,47871.58,51905.5,-199.58,-610.5,0.430596,99.41,1
2458405,3,13459,0,47688,51336,47871.21,51904.37,-183.21,-568.37,0.430726,99.4,1
2458445,3,13499,0,47705,51375,47870.88,51903.31,-165.88,-528.31,0.430851,99.4,1
2458485,3,13539,0,47726,51419,47870.59,51902.34,-144.59,-483.34,0.430971,99.39,1
2458525,3,13579,0,47738,51454,47870.32,51901.45,-132.32,-447.45,0.431088,99.39,1
2458565,3,13619,0,47752,51483,47870.09,51900.61,-118.09,-417.61,0.431201,99.38,1
2458605,3,13659,0,47769,51519,47869.89,51899.85,-100.89,-380.85,0.431311,99.38,1
2458645,3,13699,0,47782,51553,47869.71,51899.16,-87.71,-346.16,0.431418,99.37,1
2458685,3,13739,0,47799,51587,47869.57,51898.54,-70.57,-311.54,0.431522,99.37,1
2458725,3,13779,0,47820,51620,47869.48,51897.98,-49.48,-277.98,0.431624,99.36,1
2458765,3,13819,0,47834,51662,47869.41,51897.51,-35.41,-235.51,0.431725,99.36,1
2458805,3,13859,0,47855,51676,47869.38,51897.07,-14.38,-221.07,0.431823,99.35,1
2458845,3,13899,0,47838,51559,47869.32,51896.39,-31.32,-337.39,0.431917,99.35,1
2458885,3,13939,0,47763,51335,47869.11,51895.27,-106.11,-560.27,0.432003,99.34,1
2458925,3,13979,0,47679,51156,47868.73,51893.8,-189.73,-737.8,0.432078,99.34,1
2458965,3,14019,0,47632,51072,47868.25,51892.16,-236.25,-820.16,0.432141,99.34,1
2459005,3,14059,0,47607,51035,47867.73,51890.44,-260.73,-855.44,0.432193,99.33,1
2459045,3,14099,0,47596,51023,47867.19,51888.71,-271.19,-865.71,0.432236,99.33,1
2459085,3,14139,0,47594,51131,47866.64,51887.19,-272.64,-756.19,0.432276,99.32,1
2459125,3,14179,0,47603,51057,47866.12,51885.53,-263.12,-828.53,0.432307,99.32,1
2459166,3,14220,0,47612,51061,47865.61,51883.88,-253.61,-822.88,0.43233,99.32,1
2459206,3,14260,0,47611,51051,47865.1,51882.22,-254.1,-831.22,0.432345,99.31,1
2459246,3,14300,0,47608,51435,47864.59,51881.32,-256.59,-446.32,0.432365,99.31,1
2459286,3,14340,0,47614,51535,47864.09,51880.63,-250.09,-345.63,0.432392,99.3,1
2459326,3,14380,0,47624,51115,47863.61,51879.1,-239.61,-764.1,0.432413,99.3,1
2459366,3,14420,0,47649,51159,47863.18,51877.66,-214.18,-718.66,0.432428,99.3,1
2459406,3,14460,0,47669,51204,47862.79,51876.32,-193.79,-672.32,0.432437,99.29,1
2459446,3,14500,0,47686,50978,47862.44,51874.52,-176.44,-896.52,0.43243,99.29,1
2459486,3,14540,0,47706,50922,47862.13,51872.62,-156.13,-950.62,0.432405,99.29,1
2459526,3,14580,0,47723,51318,47861.85,51871.51,-138.85,-553.51,0.432376,99.29,1
2459566,3,14620,0,47741,51351,47861.61,51870.47,-120.61,-519.47,0.432342,99.28,1
2459606,3,14660,0,47755,51386,47861.4,51869.5,-106.4,-483.5,0.432305,99.28,1
2459646,3,14700,0,47769,51418,47861.21,51868.6,-92.21,-450.6,0.432265,99.28,1
2459686,3,14740,0,47782,51451,47861.06,51867.77,-79.06,-416.77,0.432222,99.27,1
2459726,3,14780,0,47802,51491,47860.94,51867.01,-58.94,-376.01,0.432176,99.27,1
2459766,3,14820,0,47822,51531,47860.86,51866.34,-38.86,-335.34,0.432127,99.27,1
2459806,3,14860,0,47831,51523,47860.8,51865.66,-29.8,-342.66,0.432076,99.27,1
2459846,3,14900,0,47802,51367,47860.69,51864.66,-58.69,-497.66,0.43202,99.27,1
2459886,3,14940,0,47716,51133,47860.4,51863.2,-144.4,-730.2,0.431955,99.26,1
2459927,3,14981,0,47638,50979,47859.95,51861.43,-221.95,-882.43,0.43188,99.26,1
2459967,3,15021,0,47807,50909,47859.85,51859.53,-52.85,-950.53,0.431785,99.26,1
2460007,3,15061,0,47890,50881,47859.91,51857.57,30.09,-976.57,0.43167,99.26,1
2460047,3,15101,0,47565,50880,47859.32,51855.62,-294.32,-975.62,0.43155,99.26,1
2460087,3,15141,0,47572,50901,47858.75,51853.71,-286.75,-952.71,0.431424,99.26,1
2460127,3,15181,0,47588,50925,47858.21,51851.86,-270.21,-926.86,0.431293,99.25,1
2460167,3,15221,0,47578,50931,47857.65,51850.02,-279.65,-919.02,0.431157,99.25,1
2460207,3,15261,0,47453,50931,47856.84,51848.18,-403.84,-917.18,0.431031,99.25,1
2460247,3,15301,0,47597,50944,47856.32,51846.37,-259.32,-902.37,0.430899,99.25,1
2460287,3,15341,0,47610,50977,47855.83,51844.64,-245.83,-867.64,0.430763,99.25,1
2460327,3,15381,0,47632,51020,47855.38,51842.99,-223.38,-822.99,0.430622,99.25,1
2460367,3,15421,0,47117,51059,47853.91,51841.42,-736.91,-782.42,0.430545,99.25,1
2460407,3,15461,0,47005,51107,47852.21,51839.95,-847.21,-732.95,0.43055,99.25,1
2460447,3,15501,0,47689,51148,47851.89,51838.57,-162.89,-690.57,0.430549,99.25,1
2460487,3,15541,0,47708,51185,47851.6,51837.27,-143.6,-652.27,0.430543,99.25,1
2460527,3,15581,0,47725,51212,47851.35,51836.02,-126.35,-624.02,0.43053,99.25,1
2460567,3,15621,0,47741,51244,47851.13,51834.83,-110.13,-590.83,0.430513,99.25,1
2460607,3,15661,0,47754,51275,47850.94,51833.71,-96.94,-558.71,0.430491,99.25,1
2460647,3,15701,0,47764,51315,47850.77,51832.68,-86.77,-517.68,0.430465,99.25,1
2460687,3,15741,0,47783,51348,47850.63,51831.71,-67.63,-483.71,0.430435,99.25,1
2460728,3,15782,0,47798,51393,47850.53,51830.84,-52.53,-437.84,0.430401,99.25,1
2460768,3,15822,0,47816,51431,47850.46,51830.04,-34.46,-399.04,0.430365,99.25,1
2460808,3,15862,0,47833,51432,47850.43,51829.25,-17.43,-397.25,0.430326,99.25,1
2460848,3,15902,0,47798,51264,47850.32,51828.12,-52.32,-564.12,0.430281,99.25,1
2460888,3,15942,0,47715,51042,47850.05,51826.55,-135.05,-784.55,0.430227,99.25,1
2460928,3,15982,0,47643,50899,47849.64,51824.69,-206.64,-925.69,0.430162,99.25,1
2460968,3,16022,0,47605,50853,47849.15,51822.75,-244.15,-969.75,0.430089,99.25,1
2461008,3,16062,0,47597,50850,47848.64,51820.8,-251.64,-970.8,0.430007,99.25,1
2461048,3,16102,0,47598,50859,47848.14,51818.88,-250.14,-959.88,0.429917,99.25,1
2461088,3,16142,0,47614,50896,47847.68,51817.04,-233.68,-921.04,0.429819,99.25,1
2461128,3,16182,0,47632,50909,47847.25,51815.22,-215.25,-906.22,0.429714,99.25,1
2461168,3,16222,0,47636,50905,47846.82,51813.4,-210.82,-908.4,0.429601,99.25,1
2461208,3,16262,0,47633,50890,47846.4,51811.56,-213.4,-921.56,0.429481,99.25,1
2461248,3,16302,0,47630,50908,47845.97,51809.75,-215.97,-901.75,0.429354,99.25,1
2461288,3,16342,0,47642,50932,47845.56,51808,-203.56,-876,0.42922,99.25,1
2461328,3,16382,0,47657,50972,47845.19,51806.33,-188.19,-834.33,0.429081,99.25,1
2461368,3,16422,0,47675,51013,47844.85,51804.74,-169.85,-791.74,0.428936,99.25,1
2461408,3,16462,0,47694,51053,47844.55,51803.24,-150.55,-750.24,0.428785,99.25,1
2461448,3,16502,0,47708,51092,47844.27,51801.82,-136.27,-709.82,0.42863,99.25,1
2461488,3,16542,0,47724,51119,47844.04,51800.45,-120.04,-681.45,0.428471,99.25,1
2461529,3,16583,0,47739,51149,47843.83,51799.15,-104.83,-650.15,0.428307,99.26,1
2461569,3,16623,0,47749,51173,47843.64,51797.9,-94.64,-624.9,0.428139,99.26,1
2461609,3,16663,0,47760,51209,47843.47,51796.73,-83.47,-587.73,0.427967,99.26,1
2461649,3,16703,0,47775,51248,47843.34,51795.63,-68.34,-547.63,0.427792,99.26,1
2461689,3,16743,0,47793,51290,47843.24,51794.62,-50.24,-504.62,0.427614,99.26,1
2461729,3,16783,0,47813,51293,47843.18,51793.62,-30.18,-500.62,0.427434,99.26,1
2461769,3,16823,0,47783,51136,47843.06,51792.3,-60.06,-656.3,0.427248,99.26,1
2461809,3,16863,0,47703,50919,47842.79,51790.56,-139.79,-871.56,0.427054,99.27,1
2461849,3,16903,0,47630,50769,47842.36,51788.52,-212.36,-1019.52,0.426852,99.27,1
2461889,3,16943,0,47598,50719,47841.87,51786.38,-243.87,-1067.38,0.426642,99.27,1
2461929,3,16983,0,47591,50710,47841.37,51784.23,-250.37,-1074.23,0.426426,99.27,1
2461969,3,17023,0,47588,50716,47840.87,51782.09,-252.87,-1066.09,0.426203,99.27,1
2462009,3,17063,0,47599,50758,47840.38,51780.04,-241.38,-1022.04,0.425975,99.28,1
2462049,3,17103,0,47614,50782,47839.93,51778.05,-225.93,-996.05,0.425741,99.28,1
2462089,3,17143,0,47620,50774,47839.49,51776.04,-219.49,-1002.04,0.425501,99.28,1
2462129,3,17183,0,47617,50769,47839.05,51774.03,-222.05,-1005.03,0.425256,99.28,1
2462169,3,17223,0,47618,50781,47838.61,51772.04,-220.61,-991.04,0.425006,99.29,1
2462209,3,17263,0,47622,50814,47838.17,51770.13,-216.17,-956.13,0.424751,99.29,1
2462249,3,17303,0,47639,50858,47837.77,51768.3,-198.77,-910.3,0.424492,99.29,1
2462290,3,17344,0,47663,50909,47837.43,51766.59,-174.43,-857.59,0.42423,99.3,1
2462330,3,17384,0,47681,50949,47837.11,51764.95,-156.11,-815.95,0.423963,99.3,1
2462370,3,17424,0,47699,50991,47836.84,51763.41,-137.84,-772.41,0.423693,99.3,1
2462410,3,17464,0,47712,51033,47836.59,51761.95,-124.59,-728.95,0.42342,99.31,1
2462450,3,17504,0,47730,51065,47836.38,51760.55,-106.38,-695.55,0.423143,99.31,1
2462490,3,17544,0,47746,51101,47836.2,51759.24,-90.2,-658.24,0.422864,99.31,1
2462530,3,17584,0,47762,51135,47836.05,51757.99,-74.05,-622.99,0.422582,99.32,1
2462570,3,17624,0,47777,51177,47835.93,51756.83,-58.93,-579.83,0.422297,99.32,1
2462610,3,17664,0,47797,51227,47835.86,51755.77,-38.86,-528.77,0.422011,99.32,1
2462650,3,17704,0,47818,51267,47835.82,51754.8,-17.82,-487.8,0.421723,99.33,1
2462690,3,17744,0,47830,51220,47835.81,51753.73,-5.81,-533.73,0.421432,99.33,1
2462730,3,17784,0,47780,51006,47835.7,51752.24,-55.7,-746.24,0.421137,99.34,1
2462770,3,17824,0,47684,50768,47835.4,51750.27,-151.4,-982.27,0.420836,99.34,1
2462810,3,17864,0,47604,50632,47834.94,51748.04,-230.94,-1116.04,0.420528,99.34,1
2462850,3,17904,0,47569,50842,47834.41,51746.22,-265.41,-904.22,0.420222,99.35,1
2462890,3,17944,0,47557,50887,47833.85,51744.5,-276.85,-857.5,0.419917,99.35,1
2462930,3,17984,0,47549,50549,47833.28,51742.11,-284.28,-1193.11,0.419609,99.36,1
2462970,3,18024,0,47553,50584,47832.72,51739.8,-279.72,-1155.8,0.419298,99.36,1
2463010,3,18064,0,47568,50603,47832.2,51737.52,-264.2,-1134.52,0.418983,99.37,1
2463050,3,18104,0,47569,50490,47831.67,51735.03,-262.67,-1245.03,0.418662,99.37,1
2463091,3,18145,0,47567,50375,47831.14,51732.31,-264.14,-1357.31,0.418333,99.38,1
2463131,3,18185,0,47571,50614,47830.62,51730.08,-259.62,-1116.08,0.418001,99.38,1
2463171,3,18225,0,47583,50653,47830.13,51727.93,-247.13,-1074.93,0.417667,99.39,1
2463211,3,18265,0,47596,50704,47829.66,51725.88,-233.66,-1021.88,0.417331,99.39,1
2463251,3,18305,0,47618,50139,47829.24,51722.71,-211.24,-1583.71,0.41698,99.4,1
2463291,3,18345,0,47644,50797,47828.87,51720.86,-184.87,-923.86,0.416626,99.4,1
2463331,3,18385,0,47660,50846,47828.54,51719.11,-168.54,-873.11,0.41627,99.41,1
2463371,3,18425,0,47678,50885,47828.23,51717.44,-150.23,-832.44,0.415913,99.42,1
2463411,3,18465,0,47699,50922,47827.98,51715.85,-128.98,-793.85,0.415553,99.42,1
2463451,3,18505,0,47719,50960,47827.76,51714.34,-108.76,-754.34,0.415191,99.43,1
2463491,3,18545,0,47735,51000,47827.58,51712.91,-92.58,-712.91,0.414827,99.43,1
2463531,3,18585,0,47753,51033,47827.43,51711.55,-74.43,-678.55,0.414461,99.44,1
2463571,3,18625,0,47843,51073,47827.46,51710.27,15.54,-637.27,0.414093,99.45,1
2463611,3,18665,0,47964,51123,47827.73,51709.1,136.27,-586.1,0.413725,99.45,1
2463651,3,18705,0,47807,51145,47827.7,51707.98,-20.7,-562.98,0.413356,99.46,1
2463691,3,18745,0,47794,51015,47827.63,51706.59,-33.63,-691.59,0.412984,99.47,1
2463731,3,18785,0,47709,50768,47827.39,51704.72,-118.39,-936.72,0.412609,99.47,1
2463771,3,18825,0,48083,50573,47827.91,51702.46,255.09,-1129.46,0.412231,99.48,1
2463811,3,18865,0,47558,50484,47827.37,51700.02,-269.37,-1216.02,0.411852,99.49,1
2463851,3,18905,0,47537,50460,47826.79,51697.54,-289.79,-1237.54,0.411471,99.49,1
2463892,3,18946,0,47530,50447,47826.2,51695.04,-296.2,-1248.04,0.411089,99.5,1
2463932,3,18986,0,47532,50476,47825.61,51692.6,-293.61,-1216.6,0.410707,99.51,1
2463972,3,19026,0,47200,50510,47824.36,51690.24,-624.36,-1180.24,0.410355,99.51,1
2464012,3,19066,0,47062,50520,47822.84,51687.9,-760.84,-1167.9,0.410048,99.52,1
2464052,3,19106,0,47555,50515,47822.3,51685.55,-267.3,-1170.55,0.409739,99.53,1
2464092,3,19146,0,47554,50518,47821.77,51683.22,-267.77,-1165.22,0.409427,99.53,1
2464132,3,19186,0,47563,50550,47821.25,51680.96,-258.25,-1130.96,0.409114,99.54,1
2464172,3,19226,0,47576,50599,47820.76,51678.79,-244.76,-1079.79,0.408798,99.55,1
2464212,3,19266,0,47599,50653,47820.32,51676.74,-221.32,-1023.74,0.40848,99.56,1
2464252,3,19306,0,47627,50700,47819.93,51674.79,-192.93,-974.79,0.408159,99.56,1
2464292,3,19346,0,47650,50745,47819.59,51672.93,-169.59,-927.93,0.407836,99.57,1
2464332,3,19386,0,47669,50780,47819.29,51671.14,-150.29,-891.14,0.407511,99.58,1
2464372,3,19426,0,47684,50819,47819.02,51669.44,-135.02,-850.44,0.407183,99.59,1
2464412,3,19466,0,47695,50847,47818.78,51667.8,-123.78,-820.8,0.406853,99.59,1
2464452,3,19506,0,47706,50873,47818.55,51666.21,-112.55,-793.21,0.406521,99.6,1
2464492,3,19546,0,47720,50905,47818.36,51664.69,-98.36,-759.69,0.406187,99.61,1
2464532,3,19586,0,47735,50951,47818.2,51663.26,-83.2,-712.26,0.405851,99.61,1
2464572,3,19626,0,47756,50993,47818.07,51661.92,-62.07,-668.92,0.405514,99.62,1
2464612,3,19666,0,47755,50934,47817.95,51660.47,-62.95,-726.47,0.405174,99.63,1
2464653,3,19707,0,47702,50722,47817.71,51658.59,-115.71,-936.59,0.40483,99.64,1
2464693,3,19747,0,47608,50499,47817.3,51656.28,-209.3,-1157.28,0.404483,99.64,1
2464733,3,19787,0,47536,50390,47816.73,51653.75,-280.73,-1263.75,0.404133,99.65,1
2464773,3,19827,0,47505,50358,47816.11,51651.16,-311.11,-1293.16,0.403783,99.66,1
2464813,3,19867,0,47502,50355,47815.48,51648.57,-313.48,-1293.57,0.403432,99.67,1
2464853,3,19907,0,47504,50382,47814.86,51646.04,-310.86,-1264.04,0.40308,99.67,1
2464893,3,19947,0,47525,50429,47814.29,51643.6,-289.29,-1214.6,0.402728,99.68,1
2464933,3,19987,0,47536,50451,47813.73,51641.22,-277.73,-1190.22,0.402375,99.69,1
2464973,3,20027,0,47542,50451,47813.19,51638.84,-271.19,-1187.84,0.402021,99.7,1
2465013,3,20067,0,47544,50450,47812.65,51636.46,-268.65,-1186.46,0.401665,99.71,1
2465053,3,20107,0,47553,50482,47812.13,51634.16,-259.13,-1152.16,0.401309,99.71,1
2465093,3,20147,0,47571,50521,47811.65,51631.93,-240.65,-1110.93,0.400951,99.72,1
2465133,3,20187,0,47591,50575,47811.21,51629.82,-220.21,-1054.82,0.400593,99.73,1
2465173,3,20227,0,47615,50635,47810.82,51627.83,-195.82,-992.83,0.400233,99.74,1
2465213,3,20267,0,47634,50676,47810.46,51625.93,-176.46,-949.93,0.399871,99.75,1
2465253,3,20307,0,47651,50715,47810.15,51624.11,-159.15,-909.11,0.399508,99.75,1
2465293,3,20347,0,47668,50751,47809.87,51622.36,-141.87,-871.36,0.399144,99.76,1
2465333,3,20387,0,47680,50789,47809.61,51620.7,-129.61,-831.7,0.398778,99.77,1
2465373,3,20427,0,47693,50825,47809.38,51619.11,-116.38,-794.11,0.398411,99.77,1
2465413,3,20467,0,47711,50857,47809.18,51617.58,-98.18,-760.58,0.398042,99.78,1
2465454,3,20508,0,47727,50895,47809.02,51616.14,-82.02,-721.14,0.397673,99.79,1
2465494,3,20548,0,47739,50943,47808.88,51614.79,-69.88,-671.79,0.397302,99.79,1
2465534,3,20588,0,47761,50987,47808.79,51613.54,-47.79,-626.54,0.39693,99.8,1
2465574,3,20628,0,47761,50902,47808.69,51612.12,-47.69,-710.12,0.396557,99.81,1
2465614,3,20668,0,47687,50650,47808.45,51610.2,-121.45,-960.2,0.396181,99.81,1
2465654,3,20708,0,47587,50406,47808.01,51607.79,-221.01,-1201.79,0.395803,99.82,1
2465694,3,20748,0,47506,50291,47807.41,51605.16,-301.41,-1314.16,0.395424,99.82,1
2465734,3,20788,0,47475,50246,47806.74,51602.44,-331.74,-1356.44,0.395046,99.83,1
2465774,3,20828,0,47466,50229,47806.06,51599.69,-340.06,-1370.69,0.394669,99.83,1
2465814,3,20868,0,47468,50240,47805.39,51596.97,-337.39,-1356.97,0.394293,99.84,1
2465854,3,20908,0,47481,50276,47804.74,51594.33,-323.74,-1318.33,0.393918,99.84,1
2465894,3,20948,0,47490,50304,47804.11,51591.75,-314.11,-1287.75,0.393543,99.85,1
2465934,3,20988,0,47501,50303,47803.5,51589.18,-302.5,-1286.18,0.393169,99.85,1
2465974,3,21028,0,47498,50309,47802.89,51586.62,-304.89,-1277.62,0.392795,99.86,1
2466014,3,21068,0,47505,50334,47802.3,51584.11,-297.3,-1250.11,0.392421,99.86,1
2466054,3,21108,0,47521,50375,47801.74,51581.7,-280.74,-1206.7,0.392048,99.87,1
2466094,3,21148,0,47537,50432,47801.21,51579.4,-264.21,-1147.4,0.391675,99.87,1
2466134,3,21188,0,47559,50487,47800.73,51577.21,-241.73,-1090.21,0.391302,99.87,1
2466174,3,21228,0,47586,50533,47800.3,51575.13,-214.3,-1042.13,0.390928,99.88,1
2466215,3,21269,0,47601,50573,47799.9,51573.12,-198.9,-1000.12,0.390554,99.88,1
2466255,3,21309,0,47615,50617,47799.53,51571.21,-184.53,-954.21,0.39018,99.88,1
2466295,3,21349,0,47635,50659,47799.2,51569.39,-164.2,-910.39,0.389804,99.89,1
2466335,3,21389,0,47648,50719,47798.9,51567.69,-150.9,-848.69,0.389428,99.89,1
2466375,3,21429,0,47662,50740,47798.63,51566.04,-136.63,-826.04,0.389052,99.89,1
2466415,3,21469,0,47688,50781,47798.41,51564.47,-110.41,-783.47,0.388674,99.9,1
2466455,3,21509,0,47706,50831,47798.23,51563,-92.23,-732,0.388296,99.9,1
2466495,3,21549,0,47723,51176,47798.08,51562.23,-75.08,-386.23,0.387919,99.9,1
2466535,3,21589,0,47745,51313,47797.97,51561.73,-52.97,-248.73,0.387543,99.91,1
2466575,3,21629,0,47736,50775,47797.85,51560.16,-61.85,-785.16,0.387165,99.91,1
2466615,3,21669,0,47649,50503,47797.55,51558.05,-148.55,-1055.05,0.386785,99.91,1
2466655,3,21709,0,47549,50300,47797.06,51555.54,-248.06,-1255.54,0.386403,99.92,1
2466695,3,21749,0,47489,50070,47796.45,51552.57,-307.45,-1482.57,0.38602,99.92,1
2466735,3,21789,0,47466,49891,47795.79,51549.25,-329.79,-1658.25,0.385634,99.92,1
2466775,3,21829,0,47460,50182,47795.11,51546.51,-335.11,-1364.51,0.38525,99.92,1
2466815,3,21869,0,47463,50213,47794.45,51543.85,-331.45,-1330.85,0.384868,99.92,1
2466855,3,21909,0,47475,50245,47793.81,51541.25,-318.81,-1296.25,0.384487,99.93,1
2466895,3,21949,0,47485,49640,47793.2,51537.45,-308.2,-1897.45,0.384099,99.93,1
2466935,3,21989,0,47482,50245,47792.57,51534.87,-310.57,-1289.87,0.383713,99.93,1
2466976,3,22030,0,47480,50251,47791.95,51532.3,-311.95,-1281.3,0.383328,99.93,1
2467016,3,22070,0,47488,50283,47791.34,51529.8,-303.34,-1246.8,0.382944,99.94,1
2467056,3,22110,0,47502,50331,47790.77,51527.41,-288.77,-1196.41,0.382562,99.94,1
2467096,3,22150,0,47524,50391,47790.23,51525.14,-266.23,-1134.14,0.382181,99.94,1
2467136,3,22190,0,47549,50444,47789.75,51522.98,-240.75,-1078.98,0.3818,99.94,1
2467176,3,22230,0,47568,50491,47789.31,51520.91,-221.31,-1029.91,0.38142,99.94,1
2467216,3,22270,0,47734,50539,47789.2,51518.95,-55.2,-979.95,0.381037,99.94,1
2467256,3,22310,0,47844,50578,47789.31,51517.07,54.69,-939.07,0.380652,99.95,1
2467296,3,22350,0,47622,50613,47788.98,51515.27,-166.98,-902.27,0.380267,99.95,1
2467336,3,22390,0,47642,50653,47788.69,51513.54,-146.69,-860.54,0.379882,99.95,1
2467376,3,22430,0,47658,50694,47788.43,51511.91,-130.43,-817.91,0.379496,99.95,1
2467416,3,22470,0,48231,50743,47789.31,51510.37,441.69,-767.37,0.379124,99.95,1
2467456,3,22510,0,47652,50792,47789.04,51508.94,-137.04,-716.94,0.378752,99.95,1
2467496,3,22550,0,47712,50753,47788.89,51507.43,-76.89,-754.43,0.378379,99.96,1
2467536,3,22590,0,47659,50533,47788.63,51505.48,-129.63,-972.48,0.378004,99.96,1
2467576,3,22630,0,47559,50282,47788.17,51503.03,-229.17,-1221.03,0.377629,99.96,1
2467616,3,22670,0,47034,50151,47786.66,51500.33,-752.66,-1349.33,0.377287,99.96,1
2467656,3,22710,0,46910,50120,47784.91,51497.57,-874.91,-1377.57,0.376991,99.96,1
2467696,3,22750,0,47433,50119,47784.21,51494.82,-351.21,-1375.82,0.376695,99.96,1
2467736,3,22790,0,47442,50152,47783.52,51492.13,-341.52,-1340.13,0.376399,99.96,1
2467777,3,22831,0,47454,50200,47782.87,51489.55,-328.87,-1289.55,0.376105,99.96,1
2467817,3,22871,0,47473,50215,47782.25,51487,-309.25,-1272,0.37581,99.96,1
2467857,3,22911,0,47471,50219,47781.63,51484.47,-310.63,-1265.47,0.375516,99.97,1
2467897,3,22951,0,47470,50224,47781.01,51481.95,-311.01,-1257.95,0.375222,99.97,1
2467937,3,22991,0,47477,50253,47780.4,51479.49,-303.4,-1226.49,0.374928,99.97,1
2467977,3,23031,0,47494,50299,47779.83,51477.13,-285.83,-1178.13,0.374635,99.97,1
2468017,3,23071,0,47520,50354,47779.31,51474.89,-259.31,-1120.89,0.374341,99.97,1
2468057,3,23111,0,47544,50421,47778.84,51472.78,-234.84,-1051.78,0.374047,99.97,1
2468097,3,23151,0,47569,50474,47778.43,51470.79,-209.43,-996.79,0.373753,99.97,1
2468137,3,23191,0,47595,50522,47778.06,51468.89,-183.06,-946.89,0.373458,99.97,1
2468177,3,23231,0,47614,50561,47777.73,51467.07,-163.73,-906.07,0.373162,99.97,1
2468217,3,23271,0,47634,50597,47777.45,51465.34,-143.45,-868.34,0.372865,99.97,1
2468257,3,23311,0,47649,50636,47777.19,51463.68,-128.19,-827.68,0.372568,99.97,1
2468297,3,23351,0,47663,50677,47776.96,51462.11,-113.96,-785.11,0.372269,99.98,1
2468337,3,23391,0,47678,50712,47776.77,51460.61,-98.77,-748.61,0.37197,99.98,1
2468377,3,23431,0,47698,50759,47776.61,51459.21,-78.61,-700.21,0.37167,99.98,1
2468417,3,23471,0,47716,50802,47776.49,51457.89,-60.49,-655.89,0.371369,99.98,1
2468457,3,23511,0,47730,50793,47776.4,51456.57,-46.4,-663.57,0.371068,99.98,1
2468497,3,23551,0,47690,50589,47776.23,51454.83,-86.23,-865.83,0.370764,99.98,1
2468537,3,23591,0,47574,50300,47775.83,51452.52,-201.83,-1152.52,0.370459,99.98,1
2468578,3,23632,0,47473,50103,47775.22,51449.82,-302.22,-1346.82,0.370153,99.98,1
2468618,3,23672,0,47415,50025,47774.5,51446.98,-359.5,-1421.98,0.369849,99.98,1
2468658,3,23712,0,47393,49997,47773.74,51444.08,-380.74,-1447.08,0.369546,99.98,1
2468698,3,23752,0,47384,50001,47772.96,51441.19,-388.96,-1440.19,0.369245,99.98,1
2468738,3,23792,0,47392,50036,47772.2,51438.38,-380.2,-1402.38,0.368947,99.98,1
2468778,3,23832,0,47412,50069,47771.48,51435.64,-359.48,-1366.64,0.36865,99.98,1
2468818,3,23872,0,47423,50081,47770.79,51432.94,-347.79,-1351.94,0.368355,99.98,1
2468858,3,23912,0,47421,50078,47770.09,51430.23,-349.09,-1352.23,0.368061,99.98,1
2468898,3,23952,0,47424,50096,47769.4,51427.56,-345.4,-1331.56,0.367768,99.98,1
2468938,3,23992,0,47431,50141,47768.72,51424.99,-337.72,-1283.99,0.367476,99.99,1
2468978,3,24032,0,47463,50186,47768.11,51422.52,-305.11,-1236.52,0.367185,99.99,1
2469018,3,24072,0,47486,50242,47767.55,51420.16,-281.55,-1178.16,0.366895,99.99,1
2469058,3,24112,0,47509,50291,47767.04,51417.9,-258.04,-1126.9,0.366604,99.99,1
2469098,3,24152,0,47525,50333,47766.55,51415.73,-241.55,-1082.73,0.366314,99.99,1
2469138,3,24192,0,47542,50370,47766.1,51413.64,-224.1,-1043.64,0.366023,99.99,1
2469178,3,24232,0,47559,50410,47765.69,51411.63,-206.69,-1001.63,0.365732,99.99,1
2469218,3,24272,0,47572,50442,47765.3,51409.7,-193.3,-967.7,0.36544,99.99,1
2469258,3,24312,0,47591,50477,47764.95,51407.83,-173.95,-930.83,0.365148,99.99,1
2469298,3,24352,0,47601,50518,47764.62,51406.05,-163.62,-888.05,0.364856,99.99,1
2469338,3,24392,0,47618,50563,47764.33,51404.37,-146.33,-841.37,0.364562,99.99,1
2469379,3,24433,0,47640,50611,47764.09,51402.79,-124.09,-791.79,0.364269,99.99,1
2469419,3,24473,0,47651,50601,47763.86,51401.18,-112.86,-800.18,0.363974,99.99,1
2469459,3,24513,0,47610,50395,47763.55,51399.17,-153.55,-1004.17,0.363678,99.99,1
2469499,3,24553,0,47503,50127,47763.04,51396.63,-260.04,-1269.63,0.363381,99.99,1
2469539,3,24593,0,47406,49957,47762.32,51393.75,-356.32,-1436.75,0.363085,99.99,1
2469579,3,24633,0,47361,49906,47761.52,51390.78,-400.52,-1484.78,0.362792,99.99,1
2469619,3,24673,0,47356,49898,47760.71,51387.79,-404.71,-1489.79,0.362501,99.99,1
2469659,3,24713,0,47355,49914,47759.91,51384.85,-404.91,-1470.85,0.362213,99.99,1
2469699,3,24753,0,47368,49962,47759.12,51382,-391.12,-1420,0.361927,99.99,1
2469739,3,24793,0,47385,49989,47758.38,51379.22,-373.38,-1390.22,0.361643,99.99,1
2469779,3,24833,0,47393,49983,47757.65,51376.43,-364.65,-1393.43,0.361361,99.99,1
2469819,3,24873,0,47391,49977,47756.92,51373.63,-365.92,-1396.63,0.361081,99.99,1
2469859,3,24913,0,47393,49998,47756.19,51370.88,-363.19,-1372.88,0.360802,99.99,1
2469899,3,24953,0,47402,50036,47755.48,51368.21,-353.48,-1332.21,0.360525,99.99,1
2469939,3,24993,0,47428,50092,47754.83,51365.66,-326.83,-1273.66,0.360249,99.99,1
2469979,3,25033,0,47449,50134,47754.22,51363.2,-305.22,-1229.2,0.359973,99.99,1
2470019,3,25073,0,47467,50177,47753.65,51360.83,-286.65,-1183.83,0.359698,99.99,1
2470059,3,25113,0,47481,50220,47753.11,51358.55,-272.11,-1138.55,0.359424,99.99,1
2470099,3,25153,0,47495,50407,47752.59,51356.64,-257.59,-949.64,0.359151,99.99,1
2470139,3,25193,0,47509,50537,47752.11,51355.01,-243.11,-818.01,0.35888,99.99,1
2470180,3,25234,0,47520,50309,47751.64,51352.92,-231.64,-1043.92,0.358608,99.99,1
2470220,3,25274,0,47535,50347,47751.21,51350.91,-216.21,-1003.91,0.358337,99.99,1
2470260,3,25314,0,47552,50395,47750.81,51349,-198.81,-954,0.358065,99.99,1
2470300,3,25354,0,47562,50367,47750.43,51347.04,-188.43,-980.04,0.357793,99.99,1
2470340,3,25394,0,47512,50067,47749.96,51344.48,-237.96,-1277.48,0.357519,99.99,1
2470380,3,25434,0,47409,49900,47749.28,51341.59,-340.28,-1441.59,0.357246,100,1
2470420,3,25474,0,47327,49765,47748.43,51338.44,-421.43,-1573.44,0.356974,100,1
2470460,3,25514,0,47288,49724,47747.52,51335.21,-459.52,-1611.21,0.356706,100,1
2470500,3,25554,0,47280,49306,47746.58,51331.15,-466.58,-2025.15,0.356437,100,1
2470540,3,25594,0,47283,49149,47745.66,51326.79,-462.66,-2177.79,0.356165,100,1
2470580,3,25634,0,47303,49795,47744.77,51323.73,-441.77,-1528.73,0.355896,100,1
2470620,3,25674,0,47324,49823,47743.93,51320.73,-419.93,-1497.73,0.355629,100,1
2470660,3,25714,0,47328,49819,47743.1,51317.72,-415.1,-1498.72,0.355366,100,1
2470700,3,25754,0,47326,49828,47742.27,51314.75,-416.27,-1486.75,0.355105,100,1
2470740,3,25794,0,47333,49849,47741.45,51311.82,-408.45,-1462.82,0.354846,100,1
2470780,3,25834,0,47348,49895,47740.67,51308.98,-392.67,-1413.98,0.354589,100,1
2470820,3,25874,0,47370,49951,47739.93,51306.27,-369.93,-1355.27,0.354334,100,1
2470860,3,25914,0,47430,50000,47739.31,51303.66,-309.31,-1303.66,0.35408,100,1
2470900,3,25954,0,47412,50051,47738.66,51301.16,-326.66,-1250.16,0.353826,100,1
2470940,3,25994,0,47431,50095,47738.05,51298.75,-307.05,-1203.75,0.353574,100,1
2470981,3,26035,0,47450,50131,47737.47,51296.41,-287.47,-1165.41,0.353321,100,1
2471021,3,26075,0,47820,50166,47737.64,51294.15,82.36,-1128.15,0.353067,100,1
2471061,3,26115,0,47916,50197,47738,51291.96,178,-1094.96,0.35281,100,1
2471101,3,26155,0,47491,50235,47737.51,51289.85,-246.51,-1054.85,0.352554,100,1
2471141,3,26195,0,47503,50281,47737.04,51287.83,-234.04,-1006.83,0.352299,100,1
2471181,3,26235,0,47529,50332,47736.62,51285.92,-207.62,-953.92,0.352043,100,1
2471221,3,26275,0,47334,50325,47735.82,51284,-401.82,-959,0.351794,100,1
2471261,3,26315,0,47186,50128,47734.72,51281.69,-548.72,-1153.69,0.351556,100,1
2471301,3,26355,0,47399,49844,47734.05,51278.81,-335.05,-1434.81,0.351317,100,1
2471341,3,26395,0,47299,49659,47733.18,51275.57,-434.18,-1616.57,0.35108,100,1
2471381,3,26435,0,47248,49583,47732.21,51272.19,-484.21,-1689.19,0.350847,100,1
2471421,3,26475,0,46484,49551,47729.72,51268.75,-1245.72,-1717.75,0.350675,100,1
2471461,3,26515,0,47213,49549,47728.69,51265.31,-515.69,-1716.31,0.350505,100,1
2471501,3,26555,0,47223,49590,47727.68,51261.96,-504.68,-1671.96,0.350338,100,1
2471541,3,26595,0,47242,49633,47726.71,51258.71,-484.71,-1625.71,0.350172,100,1
2471581,3,26635,0,47253,49642,47725.76,51255.48,-472.76,-1613.48,0.350009,100,1
2471621,3,26675,0,47251,49640,47724.81,51252.25,-473.81,-1612.25,0.349847,100,1
2471661,3,26715,0,47255,49661,47723.87,51249.07,-468.87,-1588.07,0.349686,100,1
2471701,3,26755,0,47263,49700,47722.95,51245.97,-459.95,-1545.97,0.349527,100,1
2471742,3,26796,0,47289,49756,47722.09,51242.99,-433.09,-1486.99,0.349369,100,1
2471782,3,26836,0,47312,49814,47721.27,51240.13,-409.27,-1426.13,0.349213,100,1
2471822,3,26876,0,47332,49865,47720.49,51237.38,-388.49,-1372.38,0.349057,100,1
2471862,3,26916,0,47351,49910,47719.75,51234.73,-368.75,-1324.73,0.348901,100,1
2471902,3,26956,0,47374,49953,47719.06,51232.17,-345.06,-1279.17,0.348746,100,1
2471942,3,26996,0,47396,49982,47718.41,51229.67,-322.41,-1247.67,0.34859,100,1
2471982,3,27036,0,47410,50023,47717.8,51227.26,-307.8,-1204.26,0.348434,100,1
2472022,3,27076,0,47424,50066,47717.21,51224.94,-293.21,-1158.94,0.348278,100,1
2472062,3,27116,0,47441,50106,47716.66,51222.7,-275.66,-1116.7,0.348122,100,1
2472102,3,27156,0,47464,50158,47716.16,51220.57,-252.16,-1062.57,0.347965,100,1
2472142,3,27196,0,47487,50207,47715.7,51218.54,-228.7,-1011.54,0.347808,100,1
2472182,3,27236,0,47509,50225,47715.29,51216.56,-206.29,-991.56,0.34765,100,1
2472222,3,27276,0,47488,50068,47714.83,51214.26,-226.83,-1146.26,0.34749,100,1
2472262,3,27316,0,47382,49778,47714.17,51211.39,-332.17,-1433.39,0.347329,100,1
2472302,3,27356,0,47267,49564,47713.27,51208.1,-446.27,-1644.1,0.347168,100,1
2472342,3,27396,0,47206,49471,47712.26,51204.62,-506.26,-1733.63,0.347009,100,1
2472382,3,27436,0,47181,49446,47711.2,51201.11,-530.2,-1755.11,0.346853,100,1
2472422,3,27476,0,47171,49436,47710.12,51197.58,-539.12,-1761.58,0.346699,100,1
2472462,3,27516,0,47178,49472,47709.06,51194.13,-531.06,-1722.13,0.346547,100,1
2472502,3,27556,0,47195,49524,47708.03,51190.79,-513.03,-1666.79,0.346398,100,1
2472543,3,27597,0,47210,49544,47707.04,51187.5,-497.04,-1643.5,0.346251,100,1
2472583,3,27637,0,47217,49547,47706.05,51184.22,-489.05,-1637.22,0.346105,100,1
2472623,3,27677,0,47219,49566,47705.08,51180.98,-486.08,-1614.98,0.345961,100,1
2472663,3,27717,0,47227,49608,47704.13,51177.84,-477.13,-1569.84,0.345819,100,1
2472703,3,27757,0,47251,49662,47703.22,51174.81,-452.22,-1512.81,0.345679,100,1
2472743,3,27797,0,47275,49721,47702.37,51171.9,-427.37,-1450.9,0.345539,100,1
2472783,3,27837,0,47299,49780,47701.56,51169.12,-402.56,-1389.12,0.3454,100,1
2472823,3,27877,0,47326,49832,47700.81,51166.45,-374.81,-1334.45,0.345262,100,1
2472863,3,27917,0,47347,49877,47700.11,51163.87,-353.11,-1286.87,0.345124,100,1
2472903,3,27957,0,47366,49915,47699.44,51161.37,-333.44,-1246.38,0.344986,100,1
2472943,3,27997,0,47385,49953,47698.81,51158.96,-313.81,-1205.96,0.344847,100,1
2472983,3,28037,0,47403,49982,47698.22,51156.61,-295.22,-1174.61,0.344709,100,1
2473023,3,28077,0,47419,50028,47697.66,51154.35,-278.66,-1126.35,0.34457,100,1
2473063,3,28117,0,47438,50078,47697.14,51152.2,-259.14,-1074.2,0.34443,100,1
2473103,3,28157,0,47456,50123,47696.66,51150.14,-240.66,-1027.14,0.344291,100,1
2473143,3,28197,0,47472,50117,47696.21,51148.07,-224.21,-1031.07,0.34415,100,1
2473183,3,28237,0,47433,49912,47695.69,51145.6,-262.69,-1233.6,0.344008,100,1
2473223,3,28277,0,47320,49634,47694.94,51142.58,-374.94,-1508.58,0.343865,100,1
2473263,3,28317,0,47221,49460,47693.99,51139.21,-472.99,-1679.21,0.343723,100,1
2473303,3,28357,0,47172,49404,47692.95,51135.75,-520.95,-1731.75,0.343583,100,1
2473344,3,28398,0,47155,49380,47691.87,51132.23,-536.87,-1752.23,0.343445,100,1
2473384,3,28438,0,47151,49395,47690.79,51128.76,-539.79,-1733.76,0.343309,100,1
2473424,3,28478,0,47161,49451,47689.73,51125.41,-528.73,-1674.41,0.343176,100,1
2473464,3,28518,0,47179,49499,47688.71,51122.16,-509.71,-1623.16,0.343046,100,1
2473504,3,28558,0,47192,49506,47687.72,51118.93,-495.72,-1612.93,0.342917,100,1
2473544,3,28598,0,47199,49510,47686.75,51115.71,-487.75,-1605.71,0.342789,100,1
2473584,3,28638,0,47204,49537,47685.78,51112.55,-481.78,-1575.55,0.342664,100,1
2473624,3,28678,0,47221,49586,47684.85,51109.5,-463.85,-1523.5,0.342539,100,1
2473664,3,28718,0,47247,49645,47683.98,51106.58,-436.98,-1461.58,0.342416,100,1
2473704,3,28758,0,47275,49697,47683.16,51103.76,-408.16,-1406.76,0.342294,100,1
2473744,3,28798,0,47294,49846,47682.38,51101.25,-388.38,-1255.25,0.342172,100,1
2473784,3,28838,0,47320,49978,47681.66,51099,-361.66,-1121,0.342052,100,1
2473824,3,28878,0,47335,49835,47680.97,51096.47,-345.97,-1261.47,0.341932,100,1
2473864,3,28918,0,47351,49868,47680.31,51094.02,-329.31,-1226.02,0.341813,100,1
2473904,3,28958,0,47373,49900,47679.7,51091.63,-306.7,-1191.63,0.341692,100,1
2473944,3,28998,0,47385,50414,47679.11,51090.27,-294.11,-676.27,0.341574,100,1
2473984,3,29038,0,47397,49970,47678.54,51088.04,-281.54,-1118.04,0.341456,100,1
2474024,3,29078,0,47414,50023,47678.02,51085.91,-264.02,-1062.91,0.341337,100,1
2474064,3,29118,0,47438,50053,47677.54,51083.84,-239.54,-1030.84,0.341217,100,1
2474104,3,29158,0,47429,49948,47677.04,51081.57,-248.04,-1133.57,0.341097,100,1
2474145,3,29199,0,47343,49295,47676.37,51078,-333.37,-1783,0.340972,100,1
2474185,3,29239,0,47226,48936,47675.47,51073.72,-449.47,-2137.72,0.340842,100,1
2474225,3,29279,0,47155,49341,47674.43,51070.25,-519.43,-1729.25,0.340714,100,1
2474265,3,29319,0,47127,49317,47673.34,51066.75,-546.34,-1749.75,0.340588,100,1
2474305,3,29359,0,47119,49311,47672.23,51063.24,-553.23,-1752.24,0.340465,100,1
2474345,3,29399,0,47125,49351,47671.14,51059.82,-546.14,-1708.82,0.340344,100,1
2474385,3,29439,0,47150,49407,47670.09,51056.51,-520.09,-1649.51,0.340225,100,1
2474425,3,29479,0,47163,49432,47669.08,51053.27,-506.08,-1621.27,0.340109,100,1
2474465,3,29519,0,47171,49441,47668.09,51050.04,-497.09,-1609.04,0.339994,100,1
2474505,3,29559,0,47180,49463,47667.11,51046.87,-487.11,-1583.87,0.33988,100,1
2474545,3,29599,0,47194,49503,47666.16,51043.79,-472.16,-1540.79,0.339768,100,1
2474585,3,29639,0,47219,49559,47665.27,51040.82,-446.27,-1481.82,0.339657,100,1
2474625,3,29679,0,47244,49616,47664.43,51037.97,-420.43,-1421.97,0.339547,100,1
2474665,3,29719,0,47523,49663,47664.15,51035.22,-141.15,-1372.22,0.339433,100,1
2474705,3,29759,0,47631,49711,47664.08,51032.57,-33.08,-1321.57,0.339315,100,1
2474745,3,29799,0,47306,49746,47663.37,51030,-357.37,-1284,0.339197,100,1
2474785,3,29839,0,47316,49779,47662.67,51027.5,-346.67,-1248.5,0.339079,100,1
2474825,3,29879,0,47330,49811,47662.01,51025.07,-332.01,-1214.07,0.338962,100,1
2474865,3,29919,0,47263,49846,47661.21,51022.71,-398.21,-1176.71,0.338846,100,1
2474905,3,29959,0,47171,49894,47660.23,51020.45,-489.23,-1126.45,0.338735,100,1
2474946,3,30000,0,47381,49934,47659.67,51018.28,-278.67,-1084.28,0.338624,100,1
2474986,3,30040,1,47400,49949,47659.15,51016.14,-259.15,-1067.14,0.338513,100,1
2475026,3,30080,1,47372,49798,47658.58,51013.71,-286.58,-1215.71,0.338401,100,1
2475066,3,30120,1,46717,49526,47656.7,51010.74,-939.7,-1484.74,0.338311,100,1
2475106,3,30160,1,47126,49343,47655.64,51007.4,-529.64,-1664.4,0.338224,100,1
2475146,3,30200,1,47117,49277,47654.56,51003.94,-537.56,-1726.94,0.338137,100,1
2475186,3,30240,1,47104,49272,47653.46,51000.48,-549.46,-1728.48,0.338053,100,1
2475226,3,30280,1,47102,49285,47652.36,50997.05,-550.36,-1712.05,0.337971,100,1
2475266,3,30320,1,47118,49342,47651.29,50993.74,-533.29,-1651.74,0.33789,100,1
2475306,3,30360,1,47148,49394,47650.29,50990.54,-502.29,-1596.54,0.337811,100,1
2475346,3,30400,1,47162,49409,47649.31,50987.38,-487.31,-1578.38,0.337732,100,1
2475386,3,30440,1,47169,49420,47648.35,50984.25,-479.35,-1564.25,0.337655,100,1
2475426,3,30480,1,47176,49446,47647.41,50981.18,-471.41,-1535.18,0.337578,100,1
2475466,3,30520,1,47193,49497,47646.5,50978.21,-453.5,-1481.21,0.337503,100,1
2475506,3,30560,1,47216,49562,47645.64,50975.37,-429.64,-1413.38,0.337427,100,1
2475546,3,30600,1,47248,49619,47644.85,50972.66,-396.85,-1353.66,0.337352,100,1
2475586,3,30640,1,47272,49675,47644.1,50970.07,-372.1,-1295.07,0.337277,100,1
2475626,3,30680,1,47293,49725,47643.4,50967.58,-350.4,-1242.58,0.337202,100,1
2475666,3,30720,1,47311,49771,47642.74,50965.19,-331.74,-1194.19,0.337127,100,1
2475706,3,30760,1,47326,49806,47642.11,50962.87,-316.11,-1156.88,0.337052,100,1
2475747,3,30801,1,47342,49848,47641.51,50960.65,-299.51,-1112.65,0.336976,100,1
2475787,3,30841,1,47363,49894,47640.95,50958.52,-277.95,-1064.52,0.3369,100,1
2475827,3,30881,1,47380,49956,47640.43,50956.51,-260.43,-1000.51,0.336824,100,1
2475867,3,30921,1,47405,50005,47639.96,50954.61,-234.96,-949.61,0.336747,100,1
2475907,3,30961,1,47413,49949,47639.51,50952.6,-226.51,-1003.6,0.33667,100,1
2475947,3,31001,1,47355,49717,47638.95,50950.13,-283.95,-1233.13,0.336591,100,1
2475987,3,31041,1,47246,49490,47638.16,50947.21,-392.16,-1457.21,0.336511,100,1
2476027,3,31081,1,47168,49382,47637.22,50944.08,-469.22,-1562.08,0.336433,100,1
2476067,3,31121,1,47150,49362,47636.25,50940.92,-486.25,-1578.92,0.336355,100,1
2476107,3,31161,1,47147,49365,47635.27,50937.77,-488.27,-1572.77,0.336278,100,1
2476147,3,31201,1,47156,49407,47634.32,50934.71,-478.32,-1527.71,0.336203,100,1
2476187,3,31241,1,47185,49471,47633.42,50931.78,-448.42,-1460.78,0.336128,100,1
2476227,3,31281,1,47207,49503,47632.57,50928.93,-425.57,-1425.93,0.336054,100,1
2476267,3,31321,1,47207,49505,47631.71,50926.08,-424.71,-1421.08,0.33598,100,1
2476307,3,31361,1,47212,49512,47630.87,50923.25,-418.87,-1411.25,0.335906,100,1
2476347,3,31401,1,47223,49544,47630.06,50920.49,-407.06,-1376.49,0.335833,100,1
2476387,3,31441,1,47240,49593,47629.28,50917.84,-389.28,-1324.84,0.33576,100,1
2476427,3,31481,1,47260,49651,47628.54,50915.31,-368.54,-1264.31,0.335688,100,1
2476467,3,31521,1,47283,49699,47627.85,50912.88,-344.85,-1213.88,0.335615,100,1
2476507,3,31561,1,47301,49741,47627.2,50910.54,-326.2,-1169.54,0.335542,100,1
2476548,3,31602,1,47317,49777,47626.58,50908.27,-309.58,-1131.27,0.335469,100,1
2476588,3,31642,1,47334,49818,47626,50906.09,-292,-1088.09,0.335396,100,1
2476628,3,31682,1,47343,49850,47625.43,50903.98,-282.43,-1053.98,0.335323,100,1
2476668,3,31722,1,47357,49890,47624.89,50901.95,-267.89,-1011.95,0.335249,100,1
2476708,3,31762,1,47377,49936,47624.4,50900.02,-247.4,-964.02,0.335175,100,1
2476748,3,31802,1,47402,49991,47623.95,50898.21,-221.95,-907.21,0.3351,100,1
2476788,3,31842,1,47425,50043,47623.55,50896.5,-198.55,-853.5,0.335025,100,1
2476828,3,31882,1,47439,50032,47623.19,50894.77,-184.19,-862.77,0.33495,100,1
2476868,3,31922,1,47389,49816,47622.72,50892.61,-233.72,-1076.61,0.334873,100,1
2476908,3,31962,1,47288,49564,47622.05,50889.96,-334.05,-1325.96,0.334795,100,1
2476948,3,32002,1,47206,49428,47621.22,50887.04,-415.22,-1459.04,0.334717,100,1
2476988,3,32042,1,47178,49394,47620.33,50884.05,-442.33,-1490.05,0.33464,100,1
2477028,3,32082,1,47166,49378,47619.43,50881.04,-453.43,-1503.04,0.334564,100,1
2477068,3,32122,1,47159,49393,47618.51,50878.06,-459.51,-1485.06,0.334488,100,1
2477108,3,32162,1,47175,49448,47617.62,50875.2,-442.62,-1427.2,0.334414,100,1
2477148,3,32202,1,47197,49477,47616.78,50872.41,-419.78,-1395.41,0.33434,100,1
2477188,3,32242,1,47200,49478,47615.95,50869.62,-415.95,-1391.62,0.334266,100,1
2477228,3,32282,1,47203,49487,47615.12,50866.85,-412.12,-1379.85,0.334193,100,1
2477268,3,32322,1,47210,49517,47614.32,50864.15,-404.32,-1347.15,0.334121,100,1
2477308,3,32362,1,47227,49566,47613.54,50861.56,-386.54,-1295.56,0.334049,100,1
2477349,3,32403,1,47247,49615,47612.81,50859.07,-365.81,-1244.07,0.333977,100,1
2477389,3,32443,1,47268,49675,47612.12,50856.7,-344.12,-1181.7,0.333906,100,1
2477429,3,32483,1,47292,49723,47611.48,50854.43,-319.48,-1131.43,0.333834,100,1
2477469,3,32523,1,47308,49771,47610.88,50852.27,-302.88,-1081.27,0.333763,100,1
2477509,3,32563,1,47332,49808,47610.32,50850.18,-278.32,-1042.18,0.333691,100,1
2477549,3,32603,1,47349,50130,47609.8,50848.75,-260.8,-718.75,0.33362,100,1
2477589,3,32643,1,47361,50266,47609.31,50847.58,-248.31,-581.58,0.333551,100,1
2477629,3,32683,1,47377,49921,47608.84,50845.73,-231.84,-924.73,0.333481,100,1
2477669,3,32723,1,47398,49968,47608.42,50843.98,-210.42,-875.98,0.33341,100,1
2477709,3,32763,1,47422,50012,47608.05,50842.31,-186.05,-830.31,0.333339,100,1
2477749,3,32803,1,47446,49930,47607.73,50840.49,-161.73,-910.49,0.333267,100,1
2477789,3,32843,1,47452,49763,47607.42,50838.34,-155.42,-1075.34,0.333193,100,1
2477829,3,32883,1,47399,49802,47607,50836.27,-208,-1034.27,0.333117,100,1
2477869,3,32923,1,47291,49549,47606.37,50833.69,-315.37,-1284.69,0.33304,100,1
2477909,3,32963,1,47208,49419,47605.58,50830.86,-397.58,-1411.86,0.332963,100,1
2477949,3,33003,1,47175,48732,47604.72,50826.67,-429.72,-2094.67,0.332881,100,1
2477989,3,33043,1,47166,49372,47603.84,50823.76,-437.84,-1451.76,0.332799,100,1
2478029,3,33083,1,47161,49392,47602.96,50820.9,-441.96,-1428.9,0.332718,100,1
2478069,3,33123,1,47177,49452,47602.11,50818.16,-425.11,-1366.16,0.332639,100,1
2478110,3,33164,1,47199,49480,47601.3,50815.48,-402.3,-1335.48,0.33256,100,1
2478150,3,33204,1,47204,49491,47600.51,50812.84,-396.51,-1321.84,0.332482,100,1
2478190,3,33244,1,47207,49508,47599.73,50810.23,-392.73,-1302.23,0.332404,100,1
2478230,3,33284,1,47214,49546,47598.96,50807.7,-384.96,-1261.7,0.332328,100,1
2478270,3,33324,1,47348,49599,47598.46,50805.28,-250.46,-1206.28,0.332249,100,1
2478310,3,33364,1,47469,49664,47598.2,50803,-129.2,-1139,0.332168,100,1
2478350,3,33404,1,47297,49729,47597.6,50800.85,-300.6,-1071.85,0.332087,100,1
2478390,3,33444,1,47318,49784,47597.04,50798.82,-279.04,-1014.82,0.332006,100,1
2478430,3,33484,1,47343,49830,47596.53,50796.88,-253.53,-966.88,0.331925,100,1
2478470,3,33524,1,47859,49878,47597.06,50795.05,261.94,-917.05,0.331844,100,1
2478510,3,33564,1,47371,49916,47596.61,50793.29,-225.61,-877.29,0.331763,100,1
2478550,3,33604,1,47409,49957,47596.23,50791.62,-187.23,-834.62,0.331681,100,1
2478590,3,33644,1,47424,49999,47595.89,50790.04,-171.89,-791.04,0.331599,100,1
2478630,3,33684,1,47440,50049,47595.58,50788.55,-155.58,-739.55,0.331516,100,1
2478670,3,33724,1,47096,50102,47594.58,50787.18,-498.58,-685.18,0.331441,100,1
2478710,3,33764,1,47023,50149,47593.44,50785.91,-570.44,-636.91,0.331376,100,1
2478750,3,33804,1,47505,50155,47593.27,50784.65,-88.27,-629.65,0.33131,100,1
2478790,3,33844,1,47474,49989,47593.03,50783.06,-119.03,-794.06,0.331243,100,1
2478830,3,33884,1,47379,49749,47592.6,50780.99,-213.6,-1031.99,0.331175,100,1
2478870,3,33924,1,47293,49624,47592,50778.68,-299,-1154.68,0.331106,100,1
2478911,3,33965,1,47265,49598,47591.35,50776.32,-326.35,-1178.32,0.331037,100,1
2478951,3,34005,1,47260,49603,47590.69,50773.98,-330.69,-1170.98,0.330968,100,1
2478991,3,34045,1,47264,49628,47590.04,50771.69,-326.04,-1143.69,0.330899,100,1
2479031,3,34085,1,47273,49688,47589.41,50769.52,-316.41,-1081.52,0.330831,100,1
2479071,3,34125,1,47300,49738,47588.83,50767.46,-288.83,-1029.46,0.330762,100,1
2479111,3,34165,1,47317,49759,47588.29,50765.44,-271.29,-1006.44,0.330693,100,1
2479151,3,34205,1,47327,49777,47587.77,50763.46,-260.77,-986.46,0.330624,100,1
2479191,3,34245,1,47337,49827,47587.27,50761.59,-250.27,-934.59,0.330555,100,1
2479231,3,34285,1,47363,49889,47586.82,50759.85,-223.82,-870.85,0.330485,100,1
2479271,3,34325,1,47392,49962,47586.43,50758.26,-194.43,-796.26,0.330416,100,1
2479311,3,34365,1,47426,50031,47586.11,50756.8,-160.11,-725.8,0.330345,100,1
2479351,3,34405,1,47456,50094,47585.85,50755.48,-129.85,-661.48,0.330274,100,1
2479391,3,34445,1,47483,50165,47585.65,50754.3,-102.65,-589.3,0.330203,100,1
2479431,3,34485,1,47511,50232,47585.5,50753.26,-74.5,-521.26,0.330131,100,1
2479471,3,34525,1,47539,50290,47585.41,50752.33,-46.41,-462.33,0.330059,100,1
2479511,3,34565,1,47566,50351,47585.37,50751.53,-19.37,-400.53,0.329987,100,1
2479551,3,34605,1,47589,50408,47585.38,50750.84,3.62,-342.84,0.329914,100,1
2479591,3,34645,1,47609,50468,47585.43,50750.28,23.57,-282.28,0.329841,100,1
2479631,3,34685,1,47637,50538,47585.53,50749.86,51.47,-211.86,0.329769,100,1
2479671,3,34725,1,47665,50611,47585.69,50749.58,79.31,-138.58,0.329697,100,1
2479712,3,34766,1,47691,50663,47585.9,50749.41,105.1,-86.41,0.329625,100,1
2479752,3,34806,1,47692,50580,47586.12,50749.07,105.88,-169.07,0.329554,100,1
2479792,3,34846,1,47623,50386,47586.19,50748.35,36.81,-362.35,0.329483,100,1
2479832,3,34886,1,47543,50242,47586.11,50747.34,-43.11,-505.34,0.329412,100,1
2479872,3,34926,1,47507,50195,47585.95,50746.23,-78.95,-551.23,0.329339,100,1
2479912,3,34966,1,47500,50198,47585.78,50745.14,-85.78,-547.14,0.329267,100,1
2479952,3,35006,1,47501,50214,47585.61,50744.08,-84.61,-530.08,0.329193,100,1
2479992,3,35046,1,47513,50270,47585.46,50743.13,-72.46,-473.13,0.32912,100,1
2480032,3,35086,1,47545,50326,47585.39,50742.3,-40.39,-416.3,0.329046,100,1
2480072,3,35126,1,47568,50363,47585.35,50741.54,-17.35,-378.54,0.328972,100,1
2480112,3,35166,1,47579,50383,47585.34,50740.83,-6.34,-357.83,0.328897,100,1
2480152,3,35206,1,47585,50420,47585.34,50740.19,-0.34,-320.19,0.328823,100,1
2480192,3,35246,1,47605,50476,47585.38,50739.66,19.62,-263.66,0.328748,100,1
2480232,3,35286,1,47631,50542,47585.47,50739.27,45.53,-197.27,0.328674,100,1
2480272,3,35326,1,47661,50608,47585.62,50739,75.37,-131,0.3286,100,1
2480312,3,35366,1,47687,50674,47585.83,50738.87,101.17,-64.87,0.328526,100,1
2480352,3,35406,1,47713,50736,47586.08,50738.87,126.92,-2.87,0.328454,100,1
2480392,3,35446,1,47737,50797,47586.39,50738.99,150.61,58.01,0.328383,100,1
2480432,3,35486,1,47763,50855,47586.74,50739.22,176.26,115.78,0.328313,100,1
2480473,3,35527,1,47781,50906,47587.13,50739.56,193.87,166.44,0.328245,100,1
2480513,3,35567,1,47804,50964,47587.57,50740.01,216.43,223.99,0.32818,100,1
2480553,3,35607,1,47826,51030,47588.04,50740.59,237.96,289.41,0.328117,100,1
2480593,3,35647,1,47856,51099,47588.58,50741.31,267.42,357.69,0.328058,100,1
2480633,3,35687,1,47879,51165,47589.16,50742.16,289.84,422.84,0.328002,100,1
2480673,3,35727,1,47908,51203,47589.8,50743.08,318.2,459.92,0.32795,100,1
2480713,3,35767,1,47901,51117,47590.43,50743.83,310.57,373.17,0.327902,100,1
2480753,3,35807,1,47840,50961,47590.93,50744.27,249.07,216.73,0.327858,100,1
2480793,3,35847,1,47779,50858,47591.31,50744.5,187.69,113.5,0.327815,100,1
2480833,3,35887,1,47759,50829,47591.64,50744.67,167.36,84.33,0.327774,100,1
2480873,3,35927,1,47752,50832,47591.96,50744.84,160.04,87.16,0.327734,100,1
2480913,3,35967,1,47761,50850,47592.3,50745.05,168.7,104.95,0.327696,100,1
2480953,3,36007,1,47776,50895,47592.67,50745.36,183.33,149.64,0.327659,100,1
2480993,3,36047,1,47791,50937,47593.07,50745.74,197.93,191.26,0.327625,100,1
2481033,3,36087,1,47805,50962,47593.5,50746.17,211.5,215.83,0.327592,100,1
2481073,3,36127,1,47811,50970,47593.93,50746.62,217.07,223.38,0.327562,100,1
2481113,3,36167,1,47817,51004,47594.38,50747.14,222.62,256.86,0.327535,100,1
2481153,3,36207,1,47835,51049,47594.87,50747.74,240.13,301.26,0.32751,100,1
2481193,3,36247,1,47853,51341,47595.38,50748.93,257.62,592.07,0.327487,100,1
2481233,3,36287,1,47878,51483,47595.95,50750.4,282.05,732.6,0.327466,100,1
2481274,3,36328,1,47904,51218,47596.57,50751.34,307.43,466.66,0.327449,100,1
2481314,3,36368,1,47929,51273,47597.23,50752.38,331.77,520.62,0.327437,100,1
2481354,3,36408,1,47947,51332,47597.93,50753.54,349.07,578.46,0.327429,100,1
2481394,3,36448,1,47970,51308,47598.68,50754.65,371.32,553.35,0.327428,100,1
2481434,3,36488,1,47985,51232,47599.45,50755.61,385.55,476.39,0.327434,100,1
2481474,3,36528,1,48008,51480,47600.27,50757.05,407.73,722.95,0.327446,100,1
2481514,3,36568,1,48031,51534,47601.13,50758.61,429.87,775.39,0.327464,100,1
2481554,3,36608,1,48050,51592,47602.03,50760.28,447.97,831.72,0.32749,100,1
2481594,3,36648,1,48074,51048,47602.98,50760.86,471.02,287.14,0.327528,100,1
2481634,3,36688,1,48102,50998,47603.98,50761.33,498.02,236.67,0.327578,100,1
2481674,3,36728,1,48090,51579,47604.95,50762.97,485.05,816.03,0.327637,100,1
2481714,3,36768,1,48026,51417,47605.79,50764.28,420.21,652.72,0.327703,100,1
2481754,3,36808,1,47970,51321,47606.52,50765.39,363.48,555.61,0.327774,100,1
2481794,3,36848,1,47945,51298,47607.2,50766.46,337.8,531.54,0.327849,100,1
2481834,3,36888,1,47941,51297,47607.87,50767.52,333.13,529.48,0.327928,100,1
2481874,3,36928,1,47944,51306,47608.54,50768.6,335.46,537.4,0.328011,100,1
2481914,3,36968,1,47975,51334,47609.28,50769.73,365.72,564.27,0.3281,100,1
2481954,3,37008,1,48083,51358,47610.23,50770.91,472.77,587.09,0.328198,100,1
2481994,3,37048,1,47970,51368,47610.95,50772.11,359.05,595.89,0.3283,100,1
2482034,3,37088,1,47970,51371,47611.67,50773.3,358.33,597.7,0.328407,100,1
2482075,3,37129,1,47973,51389,47612.39,50774.54,360.61,614.46,0.328518,100,1
2482115,3,37169,1,48367,51421,47613.9,50775.83,753.1,645.17,0.328657,100,1
2482155,3,37209,1,48517,51467,47615.71,50777.21,901.29,689.79,0.328834,100,1
2482195,3,37249,1,48018,51519,47616.52,50778.7,401.48,740.3,0.329016,100,1
2482235,3,37289,1,48036,51570,47617.36,50780.28,418.64,789.72,0.329201,100,1
2482275,3,37329,1,48057,51609,47618.23,50781.94,438.77,827.06,0.329391,100,1
2482315,3,37369,1,47845,51659,47618.69,50783.7,226.31,875.3,0.329578,100,1
2482355,3,37409,1,47701,51702,47618.85,50785.54,82.15,916.46,0.329759,100,1
2482395,3,37449,1,48113,51741,47619.84,50787.45,493.16,953.55,0.329946,100,1
2482435,3,37489,1,48133,51782,47620.87,50789.44,512.13,992.56,0.330139,100,1
2482475,3,37529,1,48151,51823,47621.93,50791.51,529.07,1031.49,0.330338,100,1
2482515,3,37569,1,48170,51869,47623.03,50793.67,546.97,1075.33,0.330543,100,1
2482555,3,37609,1,48193,51914,47624.17,50795.91,568.83,1118.09,0.330755,100,1
2482595,3,37649,1,48202,51895,47625.32,50798.11,576.68,1096.89,0.330975,100,1
2482635,3,37689,1,48162,51749,47626.4,50800.01,535.6,948.99,0.331201,100,1
2482675,3,37729,1,48091,51602,47627.33,50801.62,463.67,800.38,0.331433,100,1
2482715,3,37769,1,48049,51527,47628.17,50803.07,420.83,723.93,0.331669,100,1
2482755,3,37809,1,48030,51511,47628.98,50804.49,401.02,706.51,0.331908,100,1
2482795,3,37849,1,48026,51505,47629.77,50805.89,396.23,699.11,0.332151,100,1
2482835,3,37889,1,48024,51518,47630.56,50807.32,393.44,710.68,0.332397,100,1
2482875,3,37929,1,48033,51538,47631.37,50808.78,401.63,729.22,0.332646,100,1
2482916,3,37970,1,48039,51547,47632.18,50810.25,406.82,736.75,0.332899,100,1
2482956,3,38010,1,48041,51544,47633,50811.72,408,732.28,0.333155,100,1
2482996,3,38050,1,48033,51549,47633.8,50813.2,399.2,735.8,0.333413,100,1
2483036,3,38090,1,48038,51571,47634.61,50814.71,403.39,756.29,0.333675,100,1
2483076,3,38130,1,48053,51604,47635.45,50816.29,417.55,787.71,0.33394,100,1
2483116,3,38170,1,48067,51641,47636.32,50817.95,430.68,823.05,0.334208,100,1
2483156,3,38210,1,48088,51685,47637.22,50819.68,450.78,865.32,0.334479,100,1
2483196,3,38250,1,48100,51731,47638.15,50821.5,461.85,909.5,0.334753,100,1
2483236,3,38290,1,48118,51767,47639.11,50823.39,478.89,943.61,0.335031,100,1
2483276,3,38330,1,48135,51803,47640.1,50825.36,494.9,977.64,0.335312,100,1
2483316,3,38370,1,48147,51830,47641.12,50827.37,505.88,1002.63,0.335597,100,1
2483356,3,38410,1,48165,51867,47642.17,50829.45,522.83,1037.55,0.335886,100,1
2483396,3,38450,1,48179,51898,47643.24,50831.59,535.76,1066.41,0.336179,100,1
2483436,3,38490,1,48197,51935,47644.35,50833.79,552.65,1101.21,0.336475,100,1
2483476,3,38530,1,48211,51976,47645.48,50836.08,565.52,1139.92,0.336776,100,1
2483516,3,38570,1,48229,52013,47646.65,50838.43,582.35,1174.57,0.337081,100,1
2483556,3,38610,1,48240,51974,47647.84,50840.71,592.16,1133.29,0.337391,100,1
2483596,3,38650,1,48188,51817,47648.92,50842.66,539.08,974.34,0.337706,100,1
2483636,3,38690,1,48119,51673,47649.86,50844.32,469.14,828.68,0.338024,100,1
2483676,3,38730,1,48072,51602,47650.71,50845.84,421.29,756.16,0.338345,100,1
2483716,3,38770,1,48056,51586,47651.52,50847.32,404.48,738.68,0.338668,100,1
2483757,3,38811,1,48052,51573,47652.32,50848.77,399.68,724.23,0.338994,100,1
2483797,3,38851,1,48046,51580,47653.11,50850.23,392.89,729.77,0.339321,100,1
2483837,3,38891,1,48055,51601,47653.91,50851.74,401.09,749.26,0.33965,100,1
2483877,3,38931,1,48060,51598,47654.73,50853.23,405.27,744.77,0.339981,100,1
2483917,3,38971,1,48055,51594,47655.53,50854.71,399.47,739.29,0.340314,100,1
2483957,3,39011,1,48059,51588,47656.34,50856.18,402.66,731.82,0.340649,100,1
2483997,3,39051,1,48055,51610,47657.13,50857.69,397.87,752.31,0.340985,100,1
2484037,3,39091,1,48067,51643,47657.95,50859.26,409.05,783.74,0.341323,100,1
2484077,3,39131,1,48083,51680,47658.8,50860.91,424.2,819.09,0.341663,100,1
2484117,3,39171,1,48103,51712,47659.7,50862.61,443.3,849.39,0.342005,100,1
2484157,3,39211,1,48123,51747,47660.62,50864.38,462.37,882.62,0.342349,100,1
2484197,3,39251,1,48136,51780,47661.58,50866.21,474.42,913.79,0.342695,100,1
2484237,3,39291,1,48146,51805,47662.55,50868.09,483.45,936.91,0.343044,100,1
2484277,3,39331,1,48154,51835,47663.53,50870.02,490.47,964.98,0.343394,100,1
2484317,3,39371,1,48168,51865,47664.54,50872.02,503.46,992.98,0.343747,100,1
2484357,3,39411,1,48181,51889,47665.58,50874.05,515.42,1014.95,0.344102,100,1
2484397,3,39451,1,48195,51920,47666.64,50876.14,528.36,1043.86,0.344459,100,1
2484437,3,39491,1,48209,51958,47667.72,50878.31,541.28,1079.69,0.344819,100,1
2484477,3,39531,1,48216,51991,47668.82,50880.54,547.18,1110.46,0.34518,100,1
2484517,3,39571,1,48219,51931,47669.92,50882.64,549.08,1048.36,0.345544,100,1
2484558,3,39612,1,48169,51753,47670.92,50884.38,498.08,868.62,0.345912,100,1
2484598,3,39652,1,48089,51599,47671.76,50885.81,417.24,713.19,0.346282,100,1
2484638,3,39692,1,48042,51525,47672.5,50887.09,369.5,637.91,0.346653,100,1
2484678,3,39732,1,48022,51496,47673.2,50888.31,348.8,607.69,0.347026,100,1
2484718,3,39772,1,48012,51466,47673.88,50889.46,338.12,576.54,0.347399,100,1
2484758,3,39812,1,48010,51466,47674.55,50890.62,335.45,575.38,0.347774,100,1
2484798,3,39852,1,48011,51477,47675.23,50891.8,335.77,585.2,0.348149,100,1
2484838,3,39892,1,48012,51493,47675.9,50893,336.1,600,0.348525,100,1
2484878,3,39932,1,48013,51466,47676.58,50894.15,336.42,571.85,0.348903,100,1
2484918,3,39972,1,48012,51454,47677.25,50895.27,334.75,558.73,0.349281,100,1
2484958,3,40012,1,48018,51467,47677.93,50896.41,340.07,570.59,0.349661,100,1
2484998,3,40052,1,48025,51805,47678.63,50898.23,346.37,906.77,0.350037,100,1
2485038,3,40092,1,48038,51925,47679.35,50900.29,358.65,1024.71,0.350409,100,1
2485078,3,40132,1,48046,51555,47680.08,50901.6,365.92,653.4,0.350782,100,1
2485118,3,40172,1,48057,51577,47680.84,50902.95,376.16,674.05,0.351157,100,1
2485158,3,40212,1,48072,51607,47681.62,50904.36,390.38,702.64,0.351532,100,1
2485198,3,40252,1,48085,51456,47682.43,50905.47,402.57,550.53,0.351912,100,1
2485238,3,40292,1,48093,51374,47683.25,50906.41,409.75,467.59,0.352295,100,1
2485278,3,40332,1,48099,51680,47684.09,50907.95,414.91,772.05,0.35268,100,1
2485319,3,40373,1,48107,51706,47684.93,50909.55,422.07,796.45,0.353067,100,1
2485359,3,40413,1,48120,51734,47685.8,50911.2,434.2,822.8,0.353454,100,1
2485399,3,40453,1,48134,51043,47686.7,50911.46,447.3,131.54,0.353849,100,1
2485439,3,40493,1,48143,51807,47687.62,50913.26,455.38,893.74,0.354245,100,1
2485479,3,40533,1,48157,51787,47688.56,50915.01,468.44,871.99,0.354643,100,1
2485519,3,40573,1,48118,51617,47689.42,50916.41,428.58,700.59,0.355043,100,1
2485559,3,40613,1,48036,51425,47690.11,50917.43,345.89,507.57,0.355445,100,1
2485599,3,40653,1,47968,51307,47690.67,50918.21,277.33,388.79,0.355848,100,1
2485639,3,40693,1,47936,51257,47691.16,50918.89,244.84,338.11,0.356252,100,1
2485679,3,40733,1,47928,51227,47691.64,50919.51,236.36,307.49,0.356656,100,1
2485719,3,40773,1,48044,51208,47692.35,50920.09,351.65,287.91,0.357064,100,1
2485759,3,40813,1,48145,51219,47693.25,50920.69,451.75,298.31,0.357479,100,1
2485799,3,40853,1,47923,51222,47693.71,50921.29,229.29,300.71,0.357895,100,1
2485839,3,40893,1,47920,51206,47694.17,50921.86,225.83,284.14,0.358311,100,1
2485879,3,40933,1,47915,51194,47694.61,50922.41,220.39,271.59,0.358727,100,1
2485919,3,40973,1,48406,51201,47696.04,50922.97,709.96,278.03,0.359166,100,1
2485959,3,41013,1,47889,51224,47696.42,50923.57,192.58,300.43,0.359605,100,1
2485999,3,41053,1,47933,51256,47696.89,50924.24,236.11,331.76,0.360043,100,1
2486039,3,41093,1,47946,51291,47697.39,50924.97,248.61,366.03,0.360482,100,1
2486079,3,41133,1,47958,51325,47697.92,50925.77,260.08,399.23,0.360921,100,1
2486120,3,41174,1,47592,51352,47697.71,50926.63,-105.71,425.37,0.361358,100,1
2486160,3,41214,1,47430,51377,47697.17,50927.53,-267.17,449.47,0.361794,100,1
2486200,3,41254,1,47996,51411,47697.77,50928.5,298.23,482.5,0.362231,100,1
2486240,3,41294,1,48005,51435,47698.39,50929.52,306.61,505.48,0.362669,100,1
2486280,3,41334,1,48018,51464,47699.03,50930.59,318.97,533.41,0.363107,100,1
2486320,3,41374,1,48030,51492,47699.69,50931.71,330.31,560.29,0.363546,100,1
2486360,3,41414,1,48046,51531,47700.39,50932.91,345.61,598.09,0.363985,100,1
2486400,3,41454,1,48060,51574,47701.11,50934.2,358.89,639.8,0.364425,100,1
2486440,3,41494,1,48075,51597,47701.86,50935.52,373.14,661.48,0.364866,100,1
2486480,3,41534,1,48071,51490,47702.59,50936.63,368.41,553.37,0.365308,100,1
2486520,3,41574,1,47995,51269,47703.18,50937.3,291.82,331.7,0.365753,100,1
2486560,3,41614,1,47911,51099,47703.6,50937.62,207.4,161.37,0.366198,100,1
2486600,3,41654,1,47861,51020,47703.91,50937.79,157.09,82.21,0.366643,100,1
2486640,3,41694,1,47842,50979,47704.19,50937.87,137.81,41.13,0.367088,100,1
2486680,3,41734,1,47824,50952,47704.43,50937.91,119.57,14.09,0.367532,100,1
2486720,3,41774,1,47822,50952,47704.67,50937.94,117.33,14.06,0.367976,100,1
2486760,3,41814,1,47822,50971,47704.91,50938,117.09,33,0.368419,100,1
2486800,3,41854,1,47825,50963,47705.15,50938.05,119.85,24.95,0.368861,100,1
2486840,3,41894,1,47821,50951,47705.38,50938.08,115.62,12.92,0.369303,100,1
2486881,3,41935,1,47812,50945,47705.6,50938.1,106.4,6.9,0.369745,100,1
2486921,3,41975,1,47817,50965,47705.82,50938.15,111.18,26.85,0.370185,100,1
2486961,3,42015,1,47835,51003,47706.08,50938.29,128.92,64.71,0.370625,100,1
2487001,3,42055,1,47843,51044,47706.35,50938.5,136.65,105.5,0.371065,100,1
2487041,3,42095,1,47860,51085,47706.66,50938.79,153.34,146.21,0.371505,100,1
2487081,3,42135,1,47877,51115,47707,50939.14,170,175.86,0.371944,100,1
2487121,3,42175,1,47891,51147,47707.37,50939.56,183.62,207.44,0.372384,100,1
2487161,3,42215,1,47907,51189,47707.78,50940.06,199.22,248.94,0.372824,100,1
2487201,3,42255,1,47918,51223,47708.2,50940.63,209.8,282.37,0.373264,100,1
2487241,3,42295,1,47937,51258,47708.66,50941.27,228.34,316.73,0.373704,100,1
2487281,3,42335,1,47953,51286,47709.14,50941.96,243.86,344.04,0.374145,100,1
2487321,3,42375,1,47968,51317,47709.66,50942.71,258.34,374.29,0.374587,100,1
2487361,3,42415,1,47986,51361,47710.22,50943.55,275.78,417.45,0.37503,100,1
2487401,3,42455,1,47999,51397,47710.8,50944.46,288.2,452.54,0.375473,100,1
2487441,3,42495,1,48008,51361,47711.39,50945.29,296.61,415.71,0.375919,100,1
2487481,3,42535,1,47957,51163,47711.88,50945.73,245.12,217.27,0.376366,100,1
2487521,3,42575,1,47869,50957,47712.2,50945.75,156.8,11.25,0.376813,100,1
2487561,3,42615,1,47804,50846,47712.38,50945.55,91.62,-99.55,0.377259,100,1
2487601,3,42655,1,47770,50802,47712.5,50945.27,57.5,-143.27,0.377704,100,1
2487641,3,42695,1,47761,50778,47712.6,50944.94,48.4,-166.94,0.378147,100,1
2487682,3,42736,1,47751,50778,47712.68,50944.61,38.32,-166.61,0.378588,100,1
2487722,3,42776,1,47757,50803,47712.77,50944.32,44.23,-141.32,0.379028,100,1
2487762,3,42816,1,47766,50809,47712.87,50944.05,53.13,-135.05,0.379466,100,1
2487802,3,42856,1,47758,50808,47712.96,50943.79,45.04,-135.79,0.379903,100,1
2487842,3,42896,1,47760,50807,47713.06,50943.51,46.94,-136.51,0.380339,100,1
2487882,3,42936,1,47763,50824,47713.16,50943.27,49.84,-119.27,0.380773,100,1
2487922,3,42976,1,47779,50864,47713.29,50943.12,65.71,-79.12,0.381206,100,1
2487962,3,43016,1,47793,50913,47713.45,50943.06,79.55,-30.06,0.381638,100,1
2488002,3,43056,1,47821,50960,47713.67,50943.09,107.33,16.91,0.382069,100,1
2488042,3,43096,1,47839,51002,47713.92,50943.21,125.08,58.79,0.382501,100,1
2488082,3,43136,1,47857,51035,47714.21,50943.39,142.79,91.61,0.382932,100,1
2488122,3,43176,1,47874,51066,47714.53,50943.64,159.47,122.36,0.383364,100,1
2488162,3,43216,1,47885,51104,47714.87,50943.96,170.13,160.04,0.383796,100,1
2488202,3,43256,1,47898,51135,47715.24,50944.34,182.76,190.66,0.384229,100,1
2488242,3,43296,1,47908,51163,47715.62,50944.78,192.37,218.22,0.384662,100,1
2488282,3,43336,1,47925,51198,47716.05,50945.29,208.95,252.71,0.385096,100,1
2488322,3,43376,1,47938,51236,47716.49,50945.87,221.51,290.13,0.385531,100,1
2488362,3,43416,1,47950,51275,47716.96,50946.53,233.04,328.47,0.385967,100,1
2488402,3,43456,1,47966,51304,47717.46,50947.25,248.54,356.75,0.386404,100,1
2488443,3,43497,1,47959,51192,47717.95,50947.74,241.05,244.26,0.386843,100,1
2488483,3,43537,1,47880,51042,47718.27,50947.93,161.73,94.07,0.387283,100,1
2488523,3,43577,1,47790,50794,47718.41,50947.62,71.59,-153.62,0.387721,100,1
2488563,3,43617,1,47739,50723,47718.46,50947.18,20.54,-224.18,0.388157,100,1
2488603,3,43657,1,47725,50692,47718.47,50946.67,6.53,-254.67,0.38859,100,1
2488643,3,43697,1,47716,51067,47718.47,50946.91,-2.47,120.09,0.389022,100,1
2488683,3,43737,1,47715,51176,47718.46,50947.37,-3.46,228.63,0.389451,100,1
2488723,3,43777,1,47727,50730,47718.48,50946.94,8.52,-216.94,0.389879,100,1
2488763,3,43817,1,47734,50737,47718.52,50946.52,15.48,-209.52,0.390303,100,1
2488803,3,43857,1,47737,50723,47718.55,50946.07,18.45,-223.07,0.390726,100,1
2488843,3,43897,1,47738,50471,47718.59,50945.12,19.41,-474.12,0.391142,100,1
2488883,3,43937,1,47741,50405,47718.64,50944.05,22.36,-539.05,0.391552,100,1
2488923,3,43977,1,47758,50805,47718.72,50943.77,39.28,-138.77,0.391959,100,1
2488963,3,44017,1,47776,50846,47718.84,50943.57,57.16,-97.57,0.392366,100,1
2489003,3,44057,1,47793,50885,47718.98,50943.46,74.02,-58.46,0.392771,100,1
2489043,3,44097,1,47811,50926,47719.17,50943.42,91.83,-17.42,0.393176,100,1
2489083,3,44137,1,47826,50953,47719.38,50943.44,106.62,9.56,0.393581,100,1
2489123,3,44177,1,47836,50990,47719.62,50943.54,116.38,46.46,0.393986,100,1
2489163,3,44217,1,47848,51022,47719.87,50943.7,128.12,78.3,0.394392,100,1
2489204,3,44258,1,47860,51054,47720.16,50943.92,139.84,110.08,0.394797,100,1
2489244,3,44298,1,47873,51084,47720.46,50944.2,152.54,139.8,0.395203,100,1
2489284,3,44338,1,47887,51126,47720.8,50944.56,166.2,181.44,0.39561,100,1
2489324,3,44378,1,47902,51172,47721.16,50945.02,180.84,226.98,0.396017,100,1
2489364,3,44418,1,48104,51213,47721.93,50945.56,382.07,267.44,0.396435,100,1
2489404,3,44458,1,48220,51218,47722.93,50946.11,497.07,271.89,0.396874,100,1
2489444,3,44498,1,47913,51069,47723.31,50946.35,189.69,122.65,0.397315,100,1
2489484,3,44538,1,47824,50838,47723.51,50946.14,100.49,-108.14,0.397755,100,1
2489524,3,44578,1,47739,50682,47723.54,50945.61,15.46,-263.61,0.398191,100,1
2489564,3,44618,1,47695,50624,47723.49,50944.97,-28.49,-320.97,0.398624,100,1
2489604,3,44658,1,47594,50600,47723.23,50944.28,-129.23,-344.28,0.399055,100,1
2489644,3,44698,1,47674,50587,47723.13,50943.57,-49.13,-356.57,0.399481,100,1
2489684,3,44738,1,47680,50612,47723.05,50942.91,-43.05,-330.91,0.399903,100,1
2489724,3,44778,1,47691,50630,47722.98,50942.28,-31.98,-312.28,0.400321,100,1
2489764,3,44818,1,47212,50625,47721.96,50941.65,-509.96,-316.65,0.400762,100,1
2489804,3,44858,1,47071,50617,47720.66,50941,-649.66,-324,0.401241,100,1
2489844,3,44898,1,47684,50624,47720.59,50940.37,-36.59,-316.37,0.401716,100,1
2489884,3,44938,1,47692,50662,47720.54,50939.81,-28.54,-277.81,0.402187,100,1
2489924,3,44978,1,47707,50704,47720.51,50939.34,-13.51,-235.34,0.402656,99.99,1
2489964,3,45018,1,47726,50748,47720.52,50938.96,5.48,-190.96,0.403122,99.99,1
2490004,3,45058,1,47745,50788,47720.57,50938.66,24.43,-150.66,0.403586,99.99,1
2490045,3,45099,1,47757,50825,47720.65,50938.43,36.35,-113.43,0.404048,99.99,1
2490085,3,45139,1,47769,50858,47720.75,50938.27,48.25,-80.27,0.40451,99.98,1
2490125,3,45179,1,47783,50893,47720.87,50938.18,62.13,-45.18,0.40497,99.98,1
2490165,3,45219,1,47791,50932,47721.01,50938.17,69.99,-6.17,0.405429,99.98,1
2490205,3,45259,1,47811,50969,47721.19,50938.23,89.81,30.77,0.405887,99.97,1
2490245,3,45299,1,47827,50998,47721.4,50938.36,105.6,59.64,0.406346,99.97,1
2490285,3,45339,1,47839,51042,47721.64,50938.56,117.36,103.44,0.406804,99.96,1
2490325,3,45379,1,47857,51092,47721.91,50938.87,135.09,153.13,0.407262,99.96,1
2490365,3,45419,1,47879,51135,47722.23,50939.27,156.77,195.73,0.407721,99.96,1
2490405,3,45459,1,47889,51090,47722.57,50939.57,166.43,150.43,0.40818,99.95,1
2490445,3,45499,1,47841,50880,47722.8,50939.45,118.2,-59.45,0.40864,99.95,1
2490485,3,45539,1,47742,50660,47722.84,50938.89,19.16,-278.89,0.409095,99.94,1
2490525,3,45579,1,47671,50552,47722.74,50938.12,-51.74,-386.12,0.409545,99.94,1
2490565,3,45619,1,47639,50513,47722.57,50937.27,-83.57,-424.27,0.409989,99.93,1
2490605,3,45659,1,47631,50496,47722.39,50936.39,-91.39,-440.39,0.410426,99.92,1
2490645,3,45699,1,47625,50502,47722.2,50935.52,-97.2,-433.52,0.410856,99.92,1
2490685,3,45739,1,47635,50537,47722.02,50934.73,-87.02,-397.73,0.411281,99.91,1
2490725,3,45779,1,47638,50549,47721.86,50933.96,-83.86,-384.96,0.411702,99.91,1
2490765,3,45819,1,47638,50544,47721.69,50933.18,-83.69,-389.18,0.412116,99.9,1
2490806,3,45860,1,47635,50541,47721.52,50932.4,-86.52,-391.4,0.412526,99.89,1
2490846,3,45900,1,47639,50563,47721.35,50931.66,-82.35,-368.66,0.41293,99.89,1
2490886,3,45940,1,47653,50607,47721.21,50931.01,-68.21,-324.01,0.413331,99.88,1
2490926,3,45980,1,47670,50664,47721.11,50930.48,-51.11,-266.48,0.413729,99.87,1
2490966,3,46020,1,47692,50714,47721.05,50930.05,-29.05,-216.05,0.414123,99.87,1
2491006,3,46060,1,47710,50757,47721.04,50929.7,-11.04,-172.7,0.414516,99.86,1
2491046,3,46100,1,47733,50796,47721.06,50929.44,11.94,-133.44,0.414907,99.85,1
2491086,3,46140,1,47748,50834,47721.11,50929.25,26.89,-95.25,0.415296,99.85,1
2491126,3,46180,1,47764,50879,47721.2,50929.15,42.8,-50.15,0.415685,99.84,1
2491166,3,46220,1,47779,50911,47721.32,50929.11,57.68,-18.11,0.416073,99.83,1
2491206,3,46260,1,47796,50947,47721.47,50929.15,74.53,17.85,0.41646,99.82,1
2491246,3,46300,1,47811,50985,47721.65,50929.26,89.35,55.74,0.416847,99.82,1
2491286,3,46340,1,47830,51026,47721.87,50929.46,108.13,96.54,0.417234,99.81,1
2491326,3,46380,1,47843,51064,47722.11,50929.73,120.89,134.27,0.417621,99.8,1
2491366,3,46420,1,47857,51084,47722.38,50930.04,134.62,153.96,0.418009,99.79,1
2491406,3,46460,1,47837,50938,47722.61,50930.05,114.39,7.95,0.418398,99.79,1
2491446,3,46500,1,47749,50693,47722.66,50929.58,26.34,-236.58,0.418783,99.78,1
2491486,3,46540,1,47657,50526,47722.54,50928.77,-65.54,-402.77,0.419162,99.77,1
2491526,3,46580,1,47607,50460,47722.3,50927.84,-115.3,-467.84,0.419533,99.76,1
2491566,3,46620,1,47590,50437,47722.04,50926.86,-132.04,-489.86,0.419897,99.76,1
2491606,3,46660,1,47580,50430,47721.76,50925.86,-141.76,-495.86,0.420254,99.75,1
2491647,3,46701,1,47579,50460,47721.48,50924.93,-142.48,-464.93,0.420605,99.74,1
2491687,3,46741,1,47593,50489,47721.22,50924.06,-128.22,-435.06,0.42095,99.73,1
2491727,3,46781,1,47599,50499,47720.98,50923.21,-121.98,-424.21,0.42129,99.72,1
2491767,3,46821,1,47595,50496,47720.73,50922.36,-125.73,-426.36,0.421624,99.72,1
2491807,3,46861,1,47597,50505,47720.48,50921.53,-123.48,-416.53,0.421954,99.71,1
2491847,3,46901,1,47606,50544,47720.26,50920.78,-114.26,-376.78,0.422279,99.7,1
2491887,3,46941,1,47625,50596,47720.07,50920.13,-95.07,-324.13,0.4226,99.69,1
2491927,3,46981,1,47645,50646,47719.92,50919.58,-74.92,-273.58,0.422919,99.68,1
2491967,3,47021,1,47664,50694,47719.81,50919.13,-55.81,-225.13,0.423235,99.68,1
2492007,3,47061,1,47691,50735,47719.76,50918.77,-28.76,-183.77,0.42355,99.67,1
2492047,3,47101,1,47705,50769,47719.73,50918.47,-14.73,-149.47,0.423862,99.66,1
2492087,3,47141,1,47721,50803,47719.73,50918.24,1.27,-115.24,0.424173,99.65,1
2492127,3,47181,1,47737,50841,47719.77,50918.09,17.23,-77.09,0.424483,99.64,1
2492167,3,47221,1,47747,50868,47719.82,50917.99,27.18,-49.99,0.424793,99.64,1
2492207,3,47261,1,47758,50905,47719.9,50917.96,38.1,-12.96,0.425101,99.63,1
2492247,3,47301,1,47774,51082,47720.01,50918.29,53.99,163.71,0.425408,99.62,1
2492287,3,47341,1,47792,51215,47720.16,50918.89,71.84,296.11,0.425711,99.61,1
2492327,3,47381,1,47806,51020,47720.33,50919.09,85.67,100.91,0.426014,99.61,1
2492367,3,47421,1,47808,50959,47720.5,50919.17,87.5,39.83,0.426318,99.6,1
2492407,3,47461,1,47744,50734,47720.55,50918.8,23.45,-184.8,0.426619,99.59,1
2492448,3,47502,1,47636,51019,47720.38,50919.01,-84.38,99.99,0.42692,99.58,1
2492488,3,47542,1,47563,50337,47720.07,50917.84,-157.07,-580.84,0.427211,99.57,1
2492528,3,47582,1,47531,50363,47719.7,50916.73,-188.7,-553.73,0.427495,99.57,1
2492568,3,47622,1,47517,50349,47719.29,50915.6,-202.29,-566.6,0.427771,99.56,1
2492608,3,47662,1,47514,50360,47718.88,50914.49,-204.88,-554.49,0.428042,99.55,1
2492648,3,47702,1,47530,49976,47718.51,50912.62,-188.51,-936.62,0.428284,99.54,1
2492688,3,47742,1,47542,49895,47718.16,50910.58,-176.16,-1015.58,0.428493,99.53,1
2492728,3,47782,1,47535,50409,47717.79,50909.58,-182.79,-500.58,0.428698,99.53,1
2492768,3,47822,1,47537,50417,47717.43,50908.6,-180.43,-491.6,0.428899,99.52,1
2492808,3,47862,1,47547,50441,47717.09,50907.66,-170.09,-466.66,0.429097,99.51,1
2492848,3,47902,1,47567,50482,47716.79,50906.81,-149.79,-424.81,0.429292,99.51,1
2492888,3,47942,1,47585,50530,47716.53,50906.06,-131.53,-376.06,0.429484,99.5,1
2492928,3,47982,1,47605,50579,47716.31,50905.41,-111.31,-326.41,0.429673,99.49,1
2492968,3,48022,1,47623,50615,47716.12,50904.83,-93.12,-289.83,0.429861,99.48,1
2493008,3,48062,1,47674,50655,47716.04,50904.33,-42.04,-249.33,0.430046,99.48,1
2493048,3,48102,1,47650,50686,47715.91,50903.89,-65.91,-217.89,0.430229,99.47,1
2493088,3,48142,1,47665,50717,47715.81,50903.52,-50.81,-186.52,0.430411,99.46,1
2493128,3,48182,1,47673,50746,47715.73,50903.21,-42.73,-157.21,0.430592,99.46,1
2493168,3,48222,1,48017,50780,47716.33,50902.96,300.67,-122.96,0.430787,99.45,1
2493208,3,48262,1,48130,50816,47717.16,50902.79,412.84,-86.79,0.431011,99.44,1
2493249,3,48303,1,47715,50856,47717.16,50902.7,-2.16,-46.7,0.431233,99.44,1
2493289,3,48343,1,47725,50893,47717.17,50902.68,7.83,-9.68,0.431455,99.43,1
2493329,3,48383,1,47730,50847,47717.2,50902.57,12.8,-55.57,0.431676,99.42,1
2493369,3,48423,1,47500,50624,47716.77,50902.02,-216.77,-278.02,0.431902,99.42,1
2493409,3,48463,1,47264,50382,47715.86,50900.98,-451.86,-518.98,0.432151,99.41,1
2493449,3,48503,1,47485,50259,47715.4,50899.7,-230.4,-640.7,0.432393,99.4,1
2493489,3,48543,1,47451,50221,47714.87,50898.34,-263.87,-677.34,0.432628,99.4,1
2493529,3,48583,1,47435,50205,47714.32,50896.95,-279.32,-691.95,0.432857,99.39,1
2493569,3,48623,1,46759,50213,47712.41,50895.59,-953.41,-682.59,0.433211,99.38,1
2493609,3,48663,1,47446,50252,47711.87,50894.3,-265.87,-642.3,0.433559,99.38,1
2493649,3,48703,1,47461,50268,47711.37,50893.05,-250.37,-625.05,0.433899,99.37,1
2493689,3,48743,1,47460,50250,47710.87,50891.77,-250.87,-641.77,0.434231,99.36,1
2493729,3,48783,1,47452,50246,47710.36,50890.48,-258.36,-644.48,0.434557,99.36,1
2493769,3,48823,1,47453,50275,47709.85,50889.25,-256.85,-614.25,0.434876,99.35,1
2493809,3,48863,1,47465,50311,47709.36,50888.09,-244.36,-577.09,0.435191,99.34,1
2493849,3,48903,1,47486,50355,47708.91,50887.02,-222.91,-532.02,0.435502,99.34,1
2493889,3,48943,1,47503,50393,47708.5,50886.04,-205.5,-493.04,0.435809,99.33,1
2493929,3,48983,1,47518,50425,47708.12,50885.11,-190.12,-460.11,0.436112,99.32,1
2493969,3,49023,1,47528,50462,47707.77,50884.27,-179.77,-422.27,0.436412,99.31,1
2494009,3,49063,1,47536,50488,47707.42,50883.48,-171.42,-395.48,0.43671,99.31,1
2494050,3,49104,1,47552,50510,47707.11,50882.73,-155.11,-372.73,0.437006,99.3,1
2494090,3,49144,1,47558,50538,47706.82,50882.04,-148.82,-344.04,0.437299,99.29,1
2494130,3,49184,1,47568,50572,47706.54,50881.43,-138.54,-309.43,0.437591,99.29,1
2494170,3,49224,1,47577,50613,47706.28,50880.89,-129.28,-267.89,0.437882,99.28,1
2494210,3,49264,1,47600,50657,47706.07,50880.45,-106.07,-223.45,0.438171,99.27,1
2494250,3,49304,1,47612,50652,47705.88,50879.99,-93.88,-227.99,0.438459,99.27,1
2494290,3,49344,1,47580,50485,47705.63,50879.2,-125.63,-394.2,0.438743,99.26,1
2494330,3,49384,1,47476,50231,47705.18,50877.9,-229.18,-646.9,0.439018,99.25,1
2494370,3,49424,1,47382,50073,47704.53,50876.29,-322.53,-803.29,0.439283,99.24,1
2494410,3,49464,1,47333,50016,47703.79,50874.57,-370.79,-858.57,0.439542,99.24,1
2494450,3,49504,1,47324,49988,47703.03,50872.8,-379.03,-884.8,0.439793,99.23,1
2494490,3,49544,1,47313,49981,47702.25,50871.02,-389.25,-890.02,0.440037,99.22,1
2494530,3,49584,1,47321,50025,47701.49,50869.33,-380.49,-844.33,0.440278,99.22,1
2494570,3,49624,1,47337,50053,47700.77,50867.7,-363.77,-814.7,0.440514,99.21,1
2494610,3,49664,1,47337,50056,47700.04,50866.07,-363.04,-810.07,0.440746,99.2,1
2494650,3,49704,1,47337,50061,47699.31,50864.46,-362.31,-803.46,0.440974,99.2,1
2494690,3,49744,1,47340,50082,47698.59,50862.9,-358.59,-780.9,0.4412,99.19,1
2494730,3,49784,1,47353,50128,47697.9,50861.43,-344.9,-733.43,0.441424,99.18,1
2494770,3,49824,1,47373,50181,47697.25,50860.07,-324.25,-679.07,0.441648,99.18,1
2494810,3,49864,1,47395,50236,47696.65,50858.83,-301.65,-622.83,0.44187,99.17,1
2494850,3,49904,1,47416,50281,47696.09,50857.67,-280.09,-576.67,0.442092,99.16,1
2494891,3,49945,1,47434,50327,47695.57,50856.61,-261.57,-529.61,0.442314,99.16,1
2494931,3,49985,1,47450,50370,47695.08,50855.64,-245.08,-485.64,0.442535,99.15,1
2494971,3,50025,1,47467,50415,47694.63,50854.76,-227.63,-439.76,0.442757,99.14,1
2495011,3,50065,1,47478,50457,47694.2,50853.97,-216.2,-396.97,0.44298,99.14,1
2495051,3,50105,1,47501,50513,47693.81,50853.29,-192.81,-340.29,0.443202,99.13,1
2495091,3,50145,1,47527,50570,47693.48,50852.72,-166.48,-282.72,0.443426,99.12,1
2495131,3,50185,1,47550,50627,47693.19,50852.27,-143.19,-225.27,0.44365,99.12,1
2495171,3,50225,1,47566,50619,47692.94,50851.81,-126.94,-232.81,0.443873,99.11,1
2495211,3,50265,1,47527,50455,47692.61,50851.02,-165.61,-396.02,0.444095,99.1,1
2495251,3,50305,1,47444,50276,47692.11,50849.87,-248.11,-573.87,0.444314,99.1,1
2495291,3,50345,1,47386,50183,47691.5,50848.54,-305.5,-665.54,0.444531,99.09,1
2495331,3,50385,1,47360,50152,47690.84,50847.14,-330.84,-695.14,0.444746,99.09,1
2495371,3,50425,1,47345,50140,47690.15,50845.73,-345.15,-705.73,0.444961,99.08,1
2495411,3,50465,1,47342,50164,47689.45,50844.37,-347.45,-680.37,0.445177,99.07,1
2495451,3,50505,1,47362,50218,47688.8,50843.12,-326.8,-625.12,0.445395,99.07,1
2495491,3,50545,1,47380,50251,47688.18,50841.93,-308.18,-590.93,0.445613,99.06,1
2495531,3,50585,1,47386,50269,47687.58,50840.79,-301.58,-571.79,0.445832,99.05,1
2495571,3,50625,1,47394,50294,47687,50839.7,-293,-545.7,0.446053,99.05,1
2495611,3,50665,1,47404,50342,47686.43,50838.7,-282.43,-496.7,0.446275,99.04,1
2495652,3,50706,1,47429,50397,47685.92,50837.82,-256.92,-440.82,0.4465,99.04,1
2495692,3,50746,1,47451,50461,47685.45,50837.07,-234.45,-376.07,0.446726,99.03,1
2495732,3,50786,1,47477,50525,47685.04,50836.45,-208.04,-311.45,0.446954,99.02,1
2495772,3,50826,1,47500,50586,47684.67,50835.95,-184.67,-249.95,0.447184,99.02,1
2495812,3,50866,1,47527,50642,47684.36,50835.56,-157.36,-193.56,0.447415,99.01,1
2495852,3,50906,1,47546,50694,47684.08,50835.28,-138.08,-141.28,0.447648,99.01,1
2495892,3,50946,1,47573,50748,47683.86,50835.11,-110.86,-87.11,0.447881,99,1
2495932,3,50986,1,47592,50885,47683.67,50835.21,-91.67,49.79,0.448114,98.99,1
2495972,3,51026,1,47619,50875,47683.54,50835.29,-64.54,39.71,0.448347,98.99,1
2496012,3,51066,1,47648,50946,47683.47,50835.51,-35.47,110.49,0.44858,98.98,1
2496052,3,51106,1,47680,51003,47683.47,50835.85,-3.47,167.15,0.44881,98.97,1
2496092,3,51146,1,47697,51326,47683.5,50836.83,13.5,489.17,0.449032,98.97,1
2496132,3,51186,1,47653,51302,47683.44,50837.76,-30.44,464.24,0.449247,98.96,1
2496172,3,51226,1,47582,50717,47683.23,50837.52,-101.23,-120.52,0.449462,98.96,1
2496212,3,51266,1,47540,50666,47682.95,50837.18,-142.95,-171.18,0.449678,98.95,1
2496252,3,51306,1,47526,50640,47682.64,50836.79,-156.64,-196.79,0.449896,98.95,1
2496292,3,51346,1,47509,50430,47682.29,50835.98,-173.29,-405.98,0.450111,98.94,1
2496332,3,51386,1,47510,50304,47681.95,50834.91,-171.95,-530.91,0.450321,98.93,1
2496372,3,51426,1,47529,50712,47681.64,50834.67,-152.64,-122.67,0.450532,98.93,1
2496412,3,51466,1,47546,50737,47681.37,50834.47,-135.37,-97.47,0.450746,98.92,1
2496453,3,51507,1,47552,50759,47681.11,50834.32,-129.11,-75.32,0.450961,98.92,1
2496493,3,51547,1,47560,50227,47680.87,50833.11,-120.87,-606.11,0.451165,98.91,1
2496533,3,51587,1,47578,50844,47680.67,50833.13,-102.67,10.87,0.451369,98.9,1
2496573,3,51627,1,47593,50907,47680.49,50833.28,-87.49,73.72,0.451574,98.9,1
2496613,3,51667,1,47620,50965,47680.37,50833.55,-60.37,131.45,0.451779,98.89,1
2496653,3,51707,1,47640,51019,47680.29,50833.92,-40.29,185.08,0.451981,98.89,1
2496693,3,51747,1,47668,51083,47680.27,50834.42,-12.27,248.58,0.452181,98.88,1
2496733,3,51787,1,47692,51143,47680.29,50835.04,11.71,307.96,0.452377,98.88,1
2496773,3,51827,1,47714,51195,47680.36,50835.76,33.64,359.24,0.452568,98.87,1
2496813,3,51867,1,47881,51248,47680.77,50836.58,200.23,411.42,0.452759,98.86,1
2496853,3,51907,1,47996,51301,47681.4,50837.51,314.6,463.49,0.452956,98.86,1
2496893,3,51947,1,47783,51356,47681.6,50838.55,101.4,517.45,0.453145,98.85,1
2496933,3,51987,1,47808,51414,47681.86,50839.7,126.14,574.3,0.453323,98.85,1
2496973,3,52027,1,47832,51472,47682.16,50840.97,149.84,631.03,0.453491,98.84,1
2497013,3,52067,1,48392,51474,47683.58,50842.23,708.42,631.77,0.453719,98.84,1
2497053,3,52107,1,47767,51371,47683.75,50843.29,83.25,527.71,0.453938,98.83,1
2497093,3,52147,1,47762,51267,47683.9,50844.14,78.1,422.86,0.45415,98.82,1
2497133,3,52187,1,47727,51221,47683.99,50844.89,43.01,376.11,0.454357,98.82,1
2497173,3,52227,1,47705,51208,47684.03,50845.62,20.97,362.38,0.454559,98.81,1
2497213,3,52267,1,47242,51189,47683.15,50846.31,-441.15,342.69,0.454785,98.81,1
2497254,3,52308,1,47153,51209,47682.09,50847.04,-529.09,361.96,0.455047,98.8,1
2497294,3,52348,1,47704,51248,47682.14,50847.84,21.86,400.16,0.455302,98.8,1
2497334,3,52388,1,47718,51271,47682.21,50848.69,35.79,422.31,0.45555,98.79,1
2497374,3,52428,1,47715,51289,47682.28,50849.57,32.72,439.43,0.45579,98.79,1
2497414,3,52468,1,47724,51317,47682.36,50850.51,41.64,466.49,0.456021,98.78,1
2497454,3,52508,1,47741,51348,47682.48,50851.5,58.52,496.5,0.456243,98.77,1
2497494,3,52548,1,47755,51400,47682.62,50852.6,72.37,547.4,0.456454,98.77,1
2497534,3,52588,1,47777,51457,47682.82,50853.81,94.18,603.19,0.456653,98.76,1
2497574,3,52628,1,47796,51508,47683.04,50855.12,112.96,652.88,0.456838,98.76,1
2497614,3,52668,1,47818,51549,47683.31,50856.51,134.69,692.49,0.457008,98.75,1
2497654,3,52708,1,47837,51590,47683.62,50857.98,153.38,732.02,0.457163,98.75,1
2497694,3,52748,1,47854,51635,47683.96,50859.54,170.04,775.46,0.457302,98.74,1
2497734,3,52788,1,47870,51680,47684.34,50861.18,185.66,818.82,0.457423,98.74,1
2497774,3,52828,1,47885,51723,47684.74,50862.9,200.26,860.1,0.457527,98.73,1
2497814,3,52868,1,47905,51766,47685.18,50864.71,219.82,901.29,0.457613,98.73,1
2497854,3,52908,1,47921,51812,47685.66,50866.61,235.34,945.39,0.45768,98.72,1
2497894,3,52948,1,47941,51852,47686.17,50868.58,254.83,983.42,0.457729,98.72,1
2497934,3,52988,1,47953,51882,47686.7,50870.61,266.3,1011.39,0.45776,98.71,1
2497974,3,53028,1,47949,51825,47687.23,50872.52,261.77,952.48,0.457777,98.71,1
2498015,3,53069,1,47901,51724,47687.66,50874.22,213.34,849.78,0.457782,98.7,1
2498055,3,53109,1,47858,51668,47688,50875.81,170,792.19,0.457775,98.7,1
2498095,3,53149,1,47840,51647,47688.31,50877.35,151.69,769.65,0.457756,98.69,1
2498135,3,53189,1,47831,51632,47688.59,50878.86,142.41,753.14,0.457728,98.69,1
2498175,3,53229,1,47824,51628,47688.87,50880.36,135.13,747.64,0.457688,98.69,1
2498215,3,53269,1,47827,51659,47689.14,50881.92,137.86,777.08,0.457638,98.68,1
2498255,3,53309,1,47844,51687,47689.46,50883.54,154.54,803.46,0.457576,98.68,1
2498295,3,53349,1,47846,51692,47689.77,50885.15,156.23,806.85,0.457504,98.67,1
2498335,3,53389,1,47846,51706,47690.08,50886.8,155.92,819.2,0.45742,98.67,1
2498375,3,53429,1,47853,51726,47690.41,50888.48,162.59,837.52,0.457325,98.67,1
2498415,3,53469,1,47866,51760,47690.76,50890.22,175.24,869.78,0.457219,98.67,1
2498455,3,53509,1,47882,51798,47691.14,50892.04,190.86,905.96,0.457102,98.66,1
2498495,3,53549,1,47895,51840,47691.55,50893.94,203.45,946.06,0.456973,98.66,1
2498535,3,53589,1,47910,51871,47691.99,50895.89,218.01,975.11,0.456832,98.66,1
2498575,3,53629,1,47928,51905,47692.46,50897.91,235.54,1007.09,0.45668,98.66,1
2498615,3,53669,1,47936,51935,47692.95,50899.99,243.05,1035.01,0.456517,98.65,1
2498655,3,53709,1,47947,51967,47693.46,50902.12,253.54,1064.88,0.456342,98.65,1
2498695,3,53749,1,47956,52000,47693.99,50904.32,262.01,1095.68,0.456156,98.65,1
2498736,3,53790,1,47967,52033,47694.54,50906.58,272.46,1126.42,0.455959,98.65,1
2498776,3,53830,1,47982,52073,47695.11,50908.91,286.89,1164.09,0.455751,98.65,1
2498816,3,53870,1,47998,52112,47695.71,50911.32,302.29,1200.68,0.455533,98.65,1
2498856,3,53910,1,48009,52155,47696.34,50913.81,312.66,1241.19,0.455304,98.65,1
2498896,3,53950,1,48023,52137,47697,50916.26,326,1220.74,0.455067,98.64,1
2498936,3,53990,1,47991,52048,47697.59,50918.52,293.41,1129.48,0.454823,98.64,1
2498976,3,54030,1,47946,51969,47698.09,50920.62,247.91,1048.38,0.454571,98.64,1
2499016,3,54070,1,47920,51941,47698.54,50922.67,221.46,1018.33,0.454312,98.64,1
2499056,3,54110,1,47910,51927,47698.96,50924.68,211.04,1002.32,0.454047,98.64,1
2499096,3,54150,1,47909,51910,47699.38,50926.65,209.62,983.35,0.453774,98.64,1
2499136,3,54190,1,47906,51912,47699.8,50928.62,206.2,983.37,0.453495,98.64,1
2499176,3,54230,1,47910,51935,47700.22,50930.64,209.78,1004.36,0.45321,98.65,1
2499216,3,54270,1,47914,51943,47700.65,50932.67,213.35,1010.33,0.452918,98.65,1
2499256,3,54310,1,47911,51938,47701.07,50934.68,209.93,1003.32,0.45262,98.65,1
2499296,3,54350,1,47911,51948,47701.49,50936.71,209.51,1011.29,0.452316,98.65,1
2499336,3,54390,1,47915,51966,47701.92,50938.77,213.08,1027.23,0.452006,98.65,1
2499376,3,54430,1,47921,51999,47702.36,50940.89,218.64,1058.11,0.45169,98.65,1
2499416,3,54470,1,47934,52029,47702.82,50943.06,231.18,1085.94,0.451367,98.65,1
2499457,3,54511,1,47947,52056,47703.31,50945.29,243.69,1110.71,0.451039,98.66,1
2499497,3,54551,1,47958,52228,47703.82,50947.86,254.18,1280.14,0.450701,98.66,1
2499537,3,54591,1,47969,52368,47704.36,50950.7,264.64,1417.3,0.450352,98.66,1
2499577,3,54631,1,47979,52153,47704.91,50953.1,274.09,1199.9,0.449998,98.66,1
2499617,3,54671,1,47993,52179,47705.48,50955.55,287.52,1223.45,0.449638,98.67,1
2499657,3,54711,1,48006,52215,47706.09,50958.07,299.91,1256.93,0.449274,98.67,1
2499697,3,54751,1,48019,52252,47706.71,50960.66,312.29,1291.34,0.448906,98.67,1
2499737,3,54791,1,48034,52168,47707.37,50963.08,326.63,1204.92,0.448536,98.68,1
2499777,3,54831,1,48049,52330,47708.05,50965.81,340.95,1364.19,0.448162,98.68,1
2499817,3,54871,1,48063,52301,47708.77,50968.48,354.23,1332.52,0.447786,98.68,1
2499857,3,54911,1,48028,52198,47709.41,50970.95,318.59,1227.05,0.447408,98.69,1
2499897,3,54951,1,47976,51650,47709.94,50972.3,266.06,677.7,0.447034,98.69,1
2499937,3,54991,1,47949,51419,47710.42,50973.2,238.58,445.8,0.446664,98.7,1
2499977,3,55031,1,47941,52070,47710.88,50975.39,230.12,1094.61,0.44629,98.7,1
2500017,3,55071,1,47933,52048,47711.33,50977.54,221.67,1070.46,0.445913,98.7,1
2500057,3,55111,1,47927,52060,47711.76,50979.71,215.24,1080.29,0.445532,98.71,1
2500097,3,55151,1,47937,52079,47712.21,50981.91,224.79,1097.09,0.445147,98.71,1
2500137,3,55191,1,47939,52084,47712.67,50984.12,226.33,1099.88,0.444759,98.72,1
2500177,3,55231,1,47936,52081,47713.12,50986.31,222.88,1094.69,0.444367,98.72,1
2500218,3,55272,1,47959,52091,47713.61,50988.52,245.39,1102.48,0.443972,98.73,1
2500258,3,55312,1,48063,52111,47714.31,50990.77,348.69,1120.23,0.44358,98.74,1
2500298,3,55352,1,47946,52148,47714.77,50993.09,231.23,1154.91,0.443184,98.74,1
2500338,3,55392,1,47965,52182,47715.27,50995.46,249.73,1186.54,0.442785,98.75,1
2500378,3,55432,1,47974,52212,47715.79,50997.9,258.21,1214.1,0.442381,98.75,1
2500418,3,55472,1,48438,52244,47717.24,51000.39,720.76,1243.61,0.442011,98.76,1
2500458,3,55512,1,48525,52279,47718.86,51002.95,806.14,1276.05,0.44168,98.76,1
2500498,3,55552,1,48017,52310,47719.45,51005.57,297.55,1304.43,0.441345,98.77,1
2500538,3,55592,1,48026,52337,47720.07,51008.23,305.93,1328.77,0.441005,98.78,1
2500578,3,55632,1,48046,52369,47720.72,51010.95,325.28,1358.05,0.440662,98.78,1
2500618,3,55672,1,47727,52403,47720.73,51013.74,6.27,1389.26,0.440306,98.79,1
2500658,3,55712,1,47632,52442,47720.56,51016.6,-88.56,1425.4,0.439939,98.8,1
2500698,3,55752,1,48091,52474,47721.3,51019.52,369.7,1454.48,0.43957,98.8,1
2500738,3,55792,1,48093,52421,47722.05,51022.32,370.95,1398.68,0.439199,98.81,1
2500778,3,55832,1,48044,52314,47722.69,51024.91,321.31,1289.09,0.438826,98.81,1
2500818,3,55872,1,47998,52246,47723.24,51027.35,274.76,1218.65,0.438451,98.82,1
2500858,3,55912,1,47979,52227,47723.75,51029.75,255.25,1197.25,0.438073,98.83,1
2500898,3,55952,1,47978,52215,47724.26,51032.12,253.74,1182.88,0.437693,98.84,1
2500938,3,55992,1,47971,52204,47724.76,51034.47,246.24,1169.53,0.43731,98.84,1
2500979,3,56033,1,47965,52219,47725.24,51036.84,239.76,1182.16,0.436924,98.85,1
2501019,3,56073,1,47972,52244,47725.73,51039.25,246.27,1204.75,0.436535,98.86,1
2501059,3,56113,1,47978,52247,47726.24,51041.67,251.76,1205.33,0.436143,98.86,1
2501099,3,56153,1,47973,52249,47726.73,51044.09,246.27,1204.91,0.435749,98.87,1
2501139,3,56193,1,47978,52262,47727.24,51046.52,250.76,1215.48,0.435352,98.88,1
2501179,3,56233,1,47988,52293,47727.76,51049.02,260.24,1243.98,0.434952,98.89,1
2501219,3,56273,1,48002,52328,47728.31,51051.58,273.69,1276.42,0.43455,98.89,1
2501259,3,56313,1,48019,52368,47728.89,51054.21,290.11,1313.79,0.434146,98.9,1
2501299,3,56353,1,48035,52400,47729.51,51056.9,305.49,1343.1,0.43374,98.91,1
2501339,3,56393,1,48053,52424,47730.16,51059.64,322.84,1364.36,0.433332,98.92,1
2501379,3,56433,1,48061,52450,47730.82,51062.42,330.18,1387.58,0.432923,98.92,1
2501419,3,56473,1,48075,52478,47731.51,51065.25,343.49,1412.75,0.432513,98.93,1
2501459,3,56513,1,48078,52505,47732.21,51068.13,345.79,1436.87,0.432102,98.94,1
2501499,3,56553,1,48090,52538,47732.93,51071.07,357.07,1466.93,0.43169,98.95,1
2501539,3,56593,1,48110,52566,47733.68,51074.06,376.32,1491.94,0.431277,98.96,1
2501579,3,56633,1,48121,52598,47734.46,51077.11,386.54,1520.89,0.430864,98.96,1
2501619,3,56673,1,48132,52621,47735.25,51080.2,396.75,1540.8,0.430452,98.97,1
2501659,3,56713,1,48124,52558,47736.03,51083.16,387.97,1474.84,0.430039,98.98,1
2501699,3,56753,1,48078,52448,47736.71,51085.89,341.29,1362.11,0.429627,98.99,1
2501740,3,56794,1,48037,52392,47737.32,51088.5,299.68,1303.5,0.429213,99,1
2501780,3,56834,1,48018,52376,47737.88,51091.08,280.12,1284.92,0.428798,99.01,1
2501820,3,56874,1,48015,52368,47738.43,51093.64,276.57,1274.36,0.428382,99.01,1
2501860,3,56914,1,48010,52371,47738.98,51096.19,271.02,1274.81,0.427965,99.02,1
2501900,3,56954,1,48014,52388,47739.53,51098.78,274.47,1289.22,0.427546,99.03,1
2501940,3,56994,1,48027,52406,47740.11,51101.39,286.89,1304.61,0.427126,99.04,1
2501980,3,57034,1,48030,52409,47740.69,51104.01,289.31,1304.99,0.426705,99.05,1
2502020,3,57074,1,48025,52418,47741.26,51106.64,283.74,1311.36,0.426283,99.06,1
2502060,3,57114,1,48032,52431,47741.84,51109.29,290.16,1321.71,0.42586,99.07,1
2502100,3,57154,1,48043,52457,47742.45,51111.98,300.55,1345.02,0.425436,99.08,1
2502140,3,57194,1,48058,52486,47743.08,51114.73,314.92,1371.27,0.425012,99.08,1
2502180,3,57234,1,48073,52513,47743.74,51117.53,329.26,1395.47,0.424587,99.09,1
2502220,3,57274,1,48083,52545,47744.42,51120.39,338.58,1424.61,0.424162,99.1,1
2502260,3,57314,1,48090,52572,47745.11,51123.29,344.89,1448.71,0.423736,99.11,1
2502300,3,57354,1,48108,52595,47745.84,51126.24,362.16,1468.76,0.423311,99.12,1
2502340,3,57394,1,48119,52617,47746.58,51129.22,372.42,1487.78,0.422886,99.13,1
2502380,3,57434,1,48124,52641,47747.34,51132.25,376.66,1508.75,0.422462,99.14,1
2502420,3,57474,1,48131,52666,47748.11,51135.32,382.89,1530.68,0.422039,99.15,1
2502460,3,57514,1,48139,52697,47748.89,51138.44,390.11,1558.56,0.421616,99.16,1
2502501,3,57555,1,48154,52722,47749.7,51141.61,404.3,1580.39,0.421193,99.17,1
2502541,3,57595,1,48160,52719,47750.52,51144.77,409.48,1574.23,0.420772,99.18,1
2502581,3,57635,1,48135,52619,47751.29,51147.71,383.71,1471.29,0.420352,99.19,1
2502621,3,57675,1,48079,52524,47751.95,51150.47,327.05,1373.53,0.419932,99.2,1
2502661,3,57715,1,48048,52480,47752.54,51153.13,295.46,1326.87,0.419512,99.21,1
2502701,3,57755,1,48040,52470,47753.12,51155.77,286.88,1314.23,0.419091,99.21,1
2502741,3,57795,1,48037,52456,47753.69,51158.37,283.31,1297.63,0.41867,99.22,1
2502781,3,57835,1,48029,52462,47754.24,51160.98,274.76,1301.02,0.418248,99.23,1
2502821,3,57875,1,48039,52484,47754.81,51163.62,284.19,1320.38,0.417826,99.24,1
2502861,3,57915,1,48050,52490,47755.4,51166.28,294.6,1323.72,0.417403,99.25,1
2502901,3,57955,1,48050,52485,47755.99,51168.92,294.01,1316.08,0.41698,99.26,1
2502941,3,57995,1,48047,52483,47756.57,51171.55,290.43,1311.45,0.416557,99.27,1
2502981,3,58035,1,48052,52501,47757.16,51174.21,294.84,1326.79,0.416134,99.28,1
2503021,3,58075,1,48059,52524,47757.77,51176.91,301.23,1347.09,0.415711,99.29,1
2503061,3,58115,1,48069,52547,47758.39,51179.65,310.61,1367.35,0.415287,99.3,1
2503101,3,58155,1,48080,52570,47759.04,51182.43,320.96,1387.57,0.414864,99.31,1
2503141,3,58195,1,48093,52891,47759.71,51185.85,333.29,1705.15,0.414438,99.32,1
2503181,3,58235,1,48093,53011,47760.37,51189.5,332.62,1821.5,0.414008,99.33,1
2503221,3,58275,1,48105,52638,47761.07,51192.4,343.93,1445.6,0.413579,99.34,1
2503261,3,58315,1,48116,52656,47761.78,51195.33,354.22,1460.67,0.413151,99.35,1
2503302,3,58356,1,48120,52680,47762.5,51198.3,357.5,1481.7,0.412723,99.36,1
2503342,3,58396,1,48130,52557,47763.23,51201.02,366.77,1355.98,0.412297,99.37,1
2503382,3,58436,1,48144,52457,47763.99,51203.53,380.01,1253.47,0.411875,99.38,1
2503422,3,58476,1,48148,52747,47764.76,51206.62,383.24,1540.38,0.411454,99.39,1
2503462,3,58516,1,48131,52653,47765.5,51209.51,365.5,1443.49,0.411035,99.4,1
2503502,3,58556,1,48078,52540,47766.12,51212.18,311.88,1327.82,0.410615,99.41,1
2503542,3,58596,1,48041,51816,47766.67,51213.38,274.33,602.62,0.4102,99.42,1
2503582,3,58636,1,48025,52474,47767.19,51215.91,257.81,1258.09,0.409784,99.43,1
2503622,3,58676,1,48024,52459,47767.71,51218.39,256.29,1240.61,0.409368,99.44,1
2503662,3,58716,1,48023,52447,47768.22,51220.85,254.78,1226.15,0.408952,99.45,1
2503702,3,58756,1,48028,52463,47768.74,51223.34,259.26,1239.66,0.408535,99.46,1
2503742,3,58796,1,48031,52465,47769.27,51225.82,261.73,1239.18,0.408118,99.47,1
2503782,3,58836,1,48028,52460,47769.79,51228.29,258.21,1231.71,0.407702,99.48,1
2503822,3,58876,1,48021,52454,47770.29,51230.74,250.71,1223.26,0.407285,99.49,1
2503862,3,58916,1,48117,52465,47770.98,51233.21,346.02,1231.79,0.40687,99.5,1
2503902,3,58956,1,48212,52485,47771.87,51235.71,440.13,1249.29,0.406462,99.51,1
2503942,3,58996,1,48038,52504,47772.4,51238.25,265.6,1265.75,0.406053,99.52,1
2503982,3,59036,1,48043,52530,47772.95,51240.84,270.05,1289.16,0.405643,99.53,1
2504022,3,59076,1,48057,52552,47773.52,51243.46,283.48,1308.54,0.405234,99.54,1
2504062,3,59116,1,48558,52569,47775.09,51246.12,782.91,1322.88,0.404849,99.55,1
2504103,3,59157,1,48052,52588,47775.64,51248.8,276.36,1339.2,0.404464,99.56,1
2504143,3,59197,1,48078,52613,47776.25,51251.53,301.75,1361.47,0.404078,99.57,1
2504183,3,59237,1,48085,52635,47776.86,51254.3,308.14,1380.7,0.403692,99.58,1
2504223,3,59277,1,48096,52659,47777.5,51257.11,318.5,1401.89,0.403306,99.59,1
2504263,3,59317,1,47674,52688,47777.3,51259.98,-103.3,1428.02,0.402915,99.6,1
2504303,3,59357,1,47578,52651,47776.9,51262.76,-198.9,1388.24,0.402522,99.61,1
2504343,3,59397,1,48068,52535,47777.48,51265.31,290.52,1269.69,0.402129,99.62,1
2504383,3,59437,1,48019,52440,47777.96,51267.66,241.04,1172.34,0.401736,99.63,1
2504423,3,59477,1,47996,52394,47778.4,51269.91,217.6,1124.09,0.401343,99.64,1
2504463,3,59517,1,47983,52361,47778.81,51272.1,204.19,1088.9,0.40095,99.65,1
2504503,3,59557,1,47975,52343,47779.21,51274.24,195.79,1068.76,0.400556,99.66,1
2504543,3,59597,1,47962,52348,47779.57,51276.39,182.43,1071.61,0.400161,99.67,1
2504583,3,59637,1,47968,52357,47779.95,51278.55,188.05,1078.45,0.399766,99.68,1
2504623,3,59677,1,47971,52347,47780.34,51280.69,190.66,1066.31,0.399371,99.69,1
2504663,3,59717,1,47961,52333,47780.7,51282.8,180.3,1050.2,0.398975,99.7,1
2504703,3,59757,1,47954,52335,47781.05,51284.9,172.95,1050.1,0.398578,99.71,1
2504743,3,59797,1,47958,52346,47781.4,51287.03,176.6,1058.97,0.398181,99.72,1
2504784,3,59838,1,47968,52370,47781.78,51289.2,186.22,1080.8,0.397783,99.73,1
2504824,3,59878,1,47975,52389,47782.16,51291.39,192.84,1097.61,0.397385,99.74,1
2504864,3,59918,1,47986,52413,47782.57,51293.64,203.43,1119.36,0.396987,99.74,1
2504904,3,59958,1,47993,52436,47783,51295.93,210,1140.07,0.396588,99.75,1
2504944,3,59998,1,48000,52455,47783.43,51298.25,216.57,1156.75,0.396188,99.76,1
2504984,3,60038,2,48009,52469,47783.88,51300.59,225.12,1168.41,0.395789,99.77,1
2505024,3,60078,2,48018,52496,47784.35,51302.98,233.65,1193.02,0.395389,99.77,1
2505064,3,60118,2,48027,52527,47784.84,51305.43,242.16,1221.57,0.394989,99.78,1
2505104,3,60158,2,48042,52551,47785.36,51307.92,256.64,1243.08,0.394589,99.79,1
2505144,3,60198,2,48047,52511,47785.88,51310.33,261.12,1200.67,0.394189,99.79,1
2505184,3,60238,2,48006,52377,47786.32,51312.46,219.68,1064.54,0.393789,99.8,1
2505224,3,60278,2,47948,52276,47786.64,51314.39,161.36,961.61,0.39339,99.8,1
2505264,3,60318,2,47917,52231,47786.91,51316.23,130.09,914.77,0.39299,99.81,1
2505304,3,60358,2,47902,52207,47787.14,51318.01,114.86,888.99,0.392589,99.82,1
2505344,3,60398,2,47894,52185,47787.35,51319.74,106.65,865.26,0.392189,99.82,1
2505384,3,60438,2,47886,52184,47787.55,51321.47,98.45,862.53,0.391787,99.83,1
2505424,3,60478,2,47889,52201,47787.75,51323.23,101.25,877.77,0.391386,99.83,1
2505464,3,60518,2,47891,52192,47787.96,51324.97,103.04,867.03,0.390984,99.84,1
2505504,3,60558,2,47889,52183,47788.16,51326.69,100.84,856.31,0.390581,99.84,1
2505545,3,60599,2,47883,52190,47788.36,51328.42,94.64,861.58,0.390178,99.85,1
2505585,3,60639,2,47890,52212,47788.56,51330.19,101.44,881.81,0.389775,99.85,1
2505625,3,60679,2,47900,52240,47788.78,51332.01,111.22,907.99,0.389371,99.86,1
2505665,3,60719,2,47910,52274,47789.02,51333.89,120.98,940.11,0.388966,99.86,1
2505705,3,60759,2,47924,52300,47789.29,51335.83,134.71,964.17,0.388561,99.86,1
2505745,3,60799,2,47938,52325,47789.59,51337.81,148.41,987.19,0.388156,99.87,1
2505785,3,60839,2,47951,52350,47789.91,51339.84,161.09,1010.16,0.38775,99.87,1
2505825,3,60879,2,47958,52383,47790.25,51341.92,167.75,1041.08,0.387343,99.88,1
2505865,3,60919,2,47969,52408,47790.61,51344.05,178.39,1063.95,0.386937,99.88,1
2505905,3,60959,2,47989,52435,47791.01,51346.24,197.99,1088.76,0.38653,99.88,1
