t_ms,trial_id,t_trial_ms,phase,red_raw,ir_raw,red_dc,ir_dc,red_ac,ir_ac,R,spo2,spo2_valid
1310265,1,0,0,48526,49641,48449.02,49398.61,76.98,242.39,0.494068,97.73,1
1310305,1,40,0,48565,49711,48449.25,49399.24,115.75,311.76,0.49417,97.73,1
1310345,1,80,0,48575,49634,48449.5,49399.71,125.5,234.29,0.494271,97.72,1
1310385,1,120,0,48470,49303,48449.55,49399.52,20.45,-96.52,0.494371,97.72,1
1310425,1,160,0,48308,49031,48449.27,49398.79,-141.27,-367.79,0.494469,97.72,1
1310465,1,200,0,48238,48995,48448.84,49397.98,-210.84,-402.98,0.494567,97.72,1
1310505,1,240,0,48257,49083,48448.46,49397.35,-191.46,-314.35,0.494666,97.71,1
1310545,1,280,0,48305,49210,48448.18,49396.98,-143.18,-186.98,0.494766,97.71,1
1310585,1,320,0,48366,49325,48448.01,49396.83,-82.01,-71.83,0.494867,97.71,1
1310626,1,361,0,48405,49369,48447.93,49396.78,-42.93,-27.78,0.494968,97.71,1
1310666,1,401,0,48402,49344,48447.84,49396.67,-45.84,-52.67,0.495069,97.7,1
1310706,1,441,0,48385,49320,48447.71,49396.52,-62.71,-76.52,0.49517,97.7,1
1310746,1,481,0,48376,49341,48447.57,49396.41,-71.57,-55.41,0.495271,97.7,1
1310786,1,521,0,48399,49394,48447.47,49396.41,-48.47,-2.41,0.495372,97.7,1
1310826,1,561,0,48431,49463,48447.44,49396.54,-16.44,66.46,0.495473,97.69,1
1310866,1,601,0,48466,49535,48447.48,49396.82,18.52,138.18,0.495573,97.69,1
1310906,1,641,0,48496,49604,48447.58,49397.23,48.42,206.77,0.495671,97.69,1
1310946,1,681,0,48529,49675,48447.74,49397.79,81.26,277.21,0.495766,97.69,1
1310986,1,721,0,48565,49728,48447.98,49398.45,117.02,329.55,0.495859,97.68,1
1311026,1,761,0,48571,49660,48448.22,49398.97,122.78,261.03,0.49595,97.68,1
1311066,1,801,0,48482,49347,48448.29,49398.87,33.71,-51.87,0.496042,97.68,1
1311106,1,841,0,48318,49089,48448.04,49398.25,-130.04,-309.25,0.496131,97.68,1
1311146,1,881,0,48251,49062,48447.64,49397.58,-196.64,-335.58,0.496222,97.67,1
1311186,1,921,0,48280,49148,48447.3,49397.09,-167.3,-249.09,0.496315,97.67,1
1311226,1,961,0,48325,49262,48447.06,49396.82,-122.06,-134.82,0.496409,97.67,1
1311266,1,1001,0,48381,49382,48446.93,49396.79,-65.93,-14.79,0.496504,97.67,1
1311306,1,1041,0,48417,49418,48446.87,49396.83,-29.87,21.17,0.496598,97.66,1
1311346,1,1081,0,48416,49397,48446.81,49396.83,-30.81,0.17,0.496693,97.66,1
1311387,1,1122,0,48404,49379,48446.73,49396.8,-42.73,-17.8,0.496787,97.66,1
1311427,1,1162,0,48403,49404,48446.64,49396.81,-43.64,7.19,0.496881,97.66,1
1311467,1,1202,0,48424,49469,48446.6,49396.96,-22.6,72.04,0.496975,97.65,1
1311507,1,1242,0,48459,49541,48446.62,49397.25,12.38,143.75,0.497068,97.65,1
1311547,1,1282,0,48491,49606,48446.71,49397.66,44.29,208.34,0.497159,97.65,1
1311587,1,1322,0,48519,49670,48446.86,49398.21,72.14,271.79,0.497246,97.65,1
1311627,1,1362,0,48550,49744,48447.07,49398.9,102.93,345.1,0.49733,97.64,1
1311667,1,1402,0,48563,49665,48447.3,49399.44,115.7,265.56,0.497412,97.64,1
1311707,1,1442,0,48462,49329,48447.33,49399.3,14.67,-70.3,0.497493,97.64,1
1311747,1,1482,0,48304,49073,48447.05,49398.64,-143.05,-325.64,0.497573,97.64,1
1311787,1,1522,0,48240,49036,48446.63,49397.92,-206.63,-361.92,0.497654,97.64,1
1311827,1,1562,0,48254,49096,48446.25,49397.32,-192.25,-301.32,0.497738,97.63,1
1311867,1,1602,0,48285,49172,48445.93,49396.87,-160.93,-224.87,0.497824,97.63,1
1311907,1,1642,0,48328,49267,48445.7,49396.61,-117.7,-129.61,0.497911,97.63,1
1311947,1,1682,0,48364,49324,48445.53,49396.47,-81.53,-72.47,0.497999,97.63,1
1311987,1,1722,0,48373,49322,48445.39,49396.32,-72.39,-74.32,0.498087,97.62,1
1312027,1,1762,0,48370,49314,48445.24,49396.16,-75.24,-82.16,0.498176,97.62,1
1312067,1,1802,0,48370,49341,48445.09,49396.05,-75.09,-55.05,0.498266,97.62,1
1312108,1,1843,0,48394,49402,48444.99,49396.06,-50.99,5.94,0.498356,97.62,1
1312148,1,1883,0,48427,49484,48444.95,49396.23,-17.95,87.77,0.498446,97.61,1
1312188,1,1923,0,48459,49570,48444.98,49396.58,14.02,173.42,0.498533,97.61,1
1312228,1,1963,0,48499,49650,48445.09,49397.09,53.91,252.91,0.498617,97.61,1
1312268,1,2003,0,48532,49698,48445.27,49397.69,86.73,300.31,0.498698,97.61,1
1312308,1,2043,0,48523,49525,48445.43,49397.95,77.57,127.05,0.498779,97.6,1
1312348,1,2083,0,48379,49178,48445.29,49397.51,-66.29,-219.51,0.498857,97.6,1
1312388,1,2123,0,48242,49005,48444.89,49396.73,-202.89,-391.73,0.498935,97.6,1
1312428,1,2163,0,48217,49021,48444.43,49395.98,-227.43,-374.98,0.499017,97.6,1
1312468,1,2203,0,48244,49231,48444.04,49395.65,-200.04,-164.65,0.499105,97.6,1
1312508,1,2243,0,48278,49415,48443.7,49395.69,-165.7,19.31,0.499199,97.59,1
1312548,1,2283,0,48334,49294,48443.48,49395.48,-109.48,-101.48,0.499295,97.59,1
1312588,1,2323,0,48374,49345,48443.35,49395.38,-69.35,-50.38,0.499391,97.59,1
1312628,1,2363,0,48379,49331,48443.22,49395.25,-64.22,-64.25,0.499487,97.59,1
1312668,1,2403,0,48377,49332,48443.09,49395.13,-66.09,-63.13,0.499585,97.58,1
1312708,1,2443,0,48389,49289,48442.98,49394.92,-53.98,-105.92,0.499681,97.58,1
1312748,1,2483,0,48412,49440,48442.92,49395.01,-30.92,44.99,0.499778,97.58,1
1312788,1,2523,0,48445,49513,48442.92,49395.25,2.08,117.75,0.499874,97.58,1
1312828,1,2563,0,48477,49586,48442.99,49395.63,34.01,190.37,0.499967,97.58,1
1312869,1,2604,0,48511,49237,48443.13,49395.31,67.87,-158.31,0.500059,97.57,1
1312909,1,2644,0,48541,49181,48443.32,49394.89,97.68,-213.89,0.50015,97.57,1
1312949,1,2684,0,48526,49546,48443.49,49395.19,82.51,150.81,0.500242,97.57,1
1312989,1,2724,0,48397,49221,48443.4,49394.84,-46.4,-173.84,0.500331,97.57,1
1313029,1,2764,0,48263,49055,48443.04,49394.16,-180.04,-339.16,0.500421,97.56,1
1313069,1,2804,0,48251,49077,48442.66,49393.53,-191.66,-316.53,0.500512,97.56,1
1313109,1,2844,0,48271,49144,48442.32,49393.04,-171.32,-249.04,0.500607,97.56,1
1313149,1,2884,0,48308,49239,48442.05,49392.73,-134.05,-153.73,0.500704,97.56,1
1313189,1,2924,0,48357,49335,48441.88,49392.61,-84.88,-57.61,0.500802,97.55,1
1313229,1,2964,0,48460,49383,48441.92,49392.59,18.08,-9.59,0.5009,97.55,1
1313269,1,3004,0,48409,49387,48441.86,49392.58,-32.86,-5.58,0.500998,97.55,1
1313309,1,3044,0,48411,49391,48441.8,49392.58,-30.8,-1.58,0.501096,97.55,1
1313349,1,3084,0,48420,49436,48441.75,49392.67,-21.75,43.33,0.501193,97.55,1
1313389,1,3124,0,48691,49498,48442.25,49392.88,248.75,105.12,0.501306,97.54,1
1313429,1,3164,0,48805,49571,48442.98,49393.24,362.02,177.76,0.501449,97.54,1
1313469,1,3204,0,48507,49638,48443.11,49393.73,63.89,244.27,0.501589,97.54,1
1313509,1,3244,0,48538,49700,48443.3,49394.35,94.7,305.65,0.501724,97.54,1
1313549,1,3284,0,48558,49673,48443.53,49394.91,114.47,278.09,0.501856,97.53,1
1313589,1,3324,0,48352,49410,48443.35,49394.94,-91.35,15.06,0.50199,97.53,1
1313630,1,3365,0,48125,49152,48442.71,49394.45,-317.71,-242.45,0.502145,97.53,1
1313670,1,3405,0,48276,49105,48442.38,49393.87,-166.38,-288.87,0.5023,97.53,1
1313710,1,3445,0,48285,49169,48442.07,49393.43,-157.07,-224.43,0.502458,97.52,1
1313750,1,3485,0,48321,49261,48441.82,49393.16,-120.82,-132.16,0.502618,97.52,1
1313790,1,3525,0,48373,49376,48441.69,49393.13,-68.69,-17.13,0.502778,97.52,1
1313830,1,3565,0,48422,49449,48441.65,49393.25,-19.65,55.75,0.502938,97.51,1
1313870,1,3605,0,48440,49467,48441.64,49393.39,-1.64,73.61,0.503096,97.51,1
1313910,1,3645,0,48443,49475,48441.65,49393.56,1.35,81.44,0.503254,97.51,1
1313950,1,3685,0,48453,49508,48441.67,49393.79,11.33,114.21,0.503411,97.51,1
1313990,1,3725,0,48482,49574,48441.75,49394.15,40.25,179.85,0.503564,97.5,1
1314030,1,3765,0,48515,49646,48441.9,49394.66,73.1,251.34,0.503714,97.5,1
1314070,1,3805,0,48544,49714,48442.11,49395.3,101.89,318.7,0.503857,97.5,1
1314110,1,3845,0,48577,49783,48442.38,49396.07,134.62,386.93,0.503993,97.49,1
1314150,1,3885,0,48606,49836,48442.71,49396.96,163.29,439.04,0.504121,97.49,1
1314190,1,3925,0,48612,49740,48443.05,49397.64,168.95,342.36,0.504247,97.49,1
1314230,1,3965,0,48508,49440,48443.18,49397.73,64.82,42.27,0.504373,97.49,1
1314270,1,4005,0,48374,49252,48443.04,49397.44,-69.04,-145.44,0.504499,97.48,1
1314310,1,4045,0,48337,49261,48442.83,49397.17,-105.83,-136.17,0.504626,97.48,1
1314351,1,4086,0,48366,49338,48442.68,49397.05,-76.68,-59.05,0.504754,97.48,1
1314391,1,4126,0,48406,49445,48442.61,49397.15,-36.61,47.85,0.504882,97.47,1
1314431,1,4166,0,48452,49549,48442.63,49397.45,9.37,151.55,0.505007,97.47,1
1314471,1,4206,0,48488,49611,48442.72,49397.88,45.28,213.12,0.505129,97.47,1
1314511,1,4246,0,48495,49617,48442.83,49398.32,52.17,218.68,0.505247,97.47,1
1314551,1,4286,0,48508,49638,48442.96,49398.8,65.04,239.2,0.505361,97.46,1
1314591,1,4326,0,48529,49701,48443.13,49399.41,85.87,301.59,0.50547,97.46,1
1314631,1,4366,0,48557,49786,48443.36,49400.18,113.64,385.82,0.505569,97.46,1
1314671,1,4406,0,48600,49865,48443.68,49401.11,156.32,463.89,0.505658,97.45,1
1314711,1,4446,0,48634,49942,48444.06,49402.2,189.94,539.8,0.505733,97.45,1
1314751,1,4486,0,48671,50017,48444.52,49403.43,226.48,613.57,0.505794,97.45,1
1314791,1,4526,0,48706,50090,48445.04,49404.8,260.96,685.2,0.505839,97.44,1
1314831,1,4566,0,48733,50130,48445.62,49406.25,287.38,723.75,0.505868,97.44,1
1314871,1,4606,0,48711,49971,48446.15,49407.38,264.85,563.62,0.505895,97.44,1
1314911,1,4646,0,48598,49702,48446.46,49407.97,151.54,294.03,0.505921,97.44,1
1314951,1,4686,0,48507,49599,48446.58,49408.36,60.42,190.64,0.505947,97.43,1
1314991,1,4726,0,48498,49649,48446.68,49408.84,51.32,240.16,0.505968,97.43,1
1315031,1,4766,0,48533,49745,48446.86,49409.51,86.14,335.49,0.505984,97.43,1
1315071,1,4806,0,48576,49850,48447.12,49410.39,128.88,439.61,0.505992,97.43,1
1315112,1,4847,0,48618,49919,48447.46,49411.41,170.54,507.59,0.505989,97.42,1
1315152,1,4887,0,48634,49932,48447.84,49412.46,186.16,519.54,0.505978,97.42,1
1315192,1,4927,0,48630,49928,48448.2,49413.49,181.8,514.51,0.505959,97.42,1
1315232,1,4967,0,48628,49957,48448.56,49414.58,179.44,542.42,0.50593,97.42,1
1315272,1,5007,0,48646,50013,48448.96,49415.78,197.04,597.22,0.505889,97.42,1
1315312,1,5047,0,48680,50087,48449.42,49417.12,230.58,669.88,0.505834,97.41,1
1315352,1,5087,0,48707,50153,48449.94,49418.59,257.06,734.41,0.505766,97.41,1
1315392,1,5127,0,48729,50219,48450.5,49420.2,278.5,798.8,0.505682,97.41,1
1315432,1,5167,0,48762,50286,48451.12,49421.93,310.88,864.07,0.505582,97.41,1
1315472,1,5207,0,48796,50352,48451.81,49423.79,344.19,928.21,0.505467,97.41,1
1315512,1,5247,0,48822,50370,48452.55,49425.69,369.45,944.31,0.505342,97.41,1
1315552,1,5287,0,48795,50214,48453.24,49427.27,341.76,786.73,0.505215,97.41,1
1315592,1,5327,0,48685,49972,48453.71,49428.36,231.29,543.64,0.505087,97.4,1
1315632,1,5367,0,48599,49873,48454,49429.25,145,443.75,0.504955,97.4,1
1315672,1,5407,0,48597,49921,48454.29,49430.23,142.71,490.77,0.504817,97.4,1
1315712,1,5447,0,48634,50019,48454.65,49431.41,179.35,587.59,0.504672,97.4,1
1315752,1,5487,0,48674,50114,48455.09,49432.78,218.91,681.22,0.504517,97.4,1
1315792,1,5527,0,48711,50177,48455.6,49434.27,255.4,742.73,0.504355,97.4,1
1315832,1,5567,0,48721,50189,48456.13,49435.78,264.87,753.22,0.504185,97.4,1
1315872,1,5607,0,48717,50184,48456.66,49437.27,260.34,746.73,0.504008,97.4,1
1315913,1,5648,0,48716,50201,48457.18,49438.8,258.82,762.2,0.503822,97.4,1
1315953,1,5688,0,48730,50257,48457.72,49440.44,272.28,816.56,0.503628,97.4,1
1315993,1,5728,0,48755,50332,48458.32,49442.22,296.68,889.78,0.503423,97.4,1
1316033,1,5768,0,48784,50391,48458.97,49444.12,325.03,946.88,0.503209,97.4,1
1316073,1,5808,0,48810,50689,48459.68,49446.61,350.32,1242.39,0.502969,97.4,1
1316113,1,5848,0,48839,50840,48460.44,49449.4,378.56,1390.6,0.502699,97.4,1
1316153,1,5888,0,48866,50562,48461.25,49451.63,404.75,1110.37,0.502424,97.41,1
1316193,1,5928,0,48850,50435,48462.03,49453.6,387.97,981.4,0.502148,97.41,1
1316233,1,5968,0,48756,50201,48462.62,49455.09,293.38,745.91,0.501873,97.41,1
1316273,1,6008,0,48674,50008,48463.04,49456.2,210.96,551.8,0.501598,97.41,1
1316313,1,6048,0,48656,49928,48463.43,49457.14,192.57,470.86,0.501325,97.41,1
1316353,1,6088,0,48686,50187,48463.87,49458.61,222.12,728.39,0.501046,97.41,1
1316393,1,6128,0,48721,50278,48464.39,49460.25,256.61,817.75,0.500762,97.42,1
1316433,1,6168,0,48755,50349,48464.97,49462.02,290.03,886.98,0.500473,97.42,1
1316473,1,6208,0,48779,49851,48465.6,49462.8,313.4,388.2,0.500196,97.42,1
1316513,1,6248,0,48781,50370,48466.23,49464.62,314.77,905.38,0.499916,97.42,1
1316553,1,6288,0,48775,50386,48466.85,49466.46,308.15,919.54,0.49963,97.42,1
1316593,1,6328,0,48788,50431,48467.5,49468.39,320.5,962.61,0.49934,97.43,1
1316633,1,6368,0,48808,50492,48468.18,49470.44,339.82,1021.56,0.499044,97.43,1
1316674,1,6409,0,48833,50550,48468.91,49472.6,364.09,1077.4,0.498742,97.43,1
1316714,1,6449,0,48861,50611,48469.7,49474.87,391.3,1136.13,0.498437,97.44,1
1316754,1,6489,0,48884,50672,48470.52,49477.27,413.48,1194.73,0.498126,97.44,1
1316794,1,6529,0,48959,50667,48471.5,49479.65,487.5,1187.35,0.49782,97.44,1
1316834,1,6569,0,48989,50485,48472.54,49481.66,516.46,1003.34,0.497528,97.45,1
1316874,1,6609,0,48753,50265,48473.1,49483.23,279.9,781.77,0.497235,97.45,1
1316914,1,6649,0,48684,50200,48473.52,49484.66,210.48,715.34,0.496939,97.45,1
1316954,1,6689,0,48680,50244,48473.93,49486.18,206.07,757.82,0.496639,97.46,1
1316994,1,6729,0,49029,50316,48475.05,49487.84,553.95,828.16,0.496363,97.46,1
1317034,1,6769,0,48740,50396,48475.58,49489.66,264.42,906.34,0.496081,97.47,1
1317074,1,6809,0,48784,50457,48476.2,49491.59,307.8,965.41,0.495795,97.47,1
1317114,1,6849,0,48802,50473,48476.85,49493.56,325.15,979.44,0.495504,97.47,1
1317154,1,6889,0,48801,50483,48477.5,49495.54,323.5,987.46,0.49521,97.48,1
1317194,1,6929,0,48606,50500,48477.75,49497.55,128.25,1002.45,0.494903,97.48,1
1317234,1,6969,0,48546,50542,48477.89,49499.64,68.11,1042.36,0.49458,97.49,1
1317274,1,7009,0,48839,50598,48478.61,49501.84,360.39,1096.16,0.494254,97.49,1
1317314,1,7049,0,48860,50656,48479.38,49504.15,380.62,1151.85,0.493924,97.5,1
1317354,1,7089,0,48884,50711,48480.19,49506.56,403.81,1204.44,0.493591,97.5,1
1317394,1,7129,0,48905,50763,48481.04,49509.08,423.96,1253.92,0.493255,97.51,1
1317435,1,7170,0,48919,50752,48481.92,49511.57,437.08,1240.43,0.492918,97.51,1
1317475,1,7210,0,48873,50565,48482.7,49513.68,390.3,1051.32,0.492581,97.52,1
1317515,1,7250,0,48768,50358,48483.27,49515.37,284.73,842.63,0.492244,97.52,1
1317555,1,7290,0,48697,50282,48483.7,49516.9,213.3,765.1,0.491905,97.53,1
1317595,1,7330,0,48697,50311,48484.13,49518.49,212.87,792.51,0.491563,97.53,1
1317635,1,7370,0,48718,50371,48484.6,49520.2,233.4,850.8,0.491218,97.54,1
1317675,1,7410,0,48745,50448,48485.12,49522.05,259.87,925.95,0.490869,97.55,1
1317715,1,7450,0,48774,50510,48485.7,49524.03,288.3,985.97,0.490518,97.55,1
1317755,1,7490,0,48792,50528,48486.32,49526.04,305.68,1001.96,0.490163,97.56,1
1317795,1,7530,0,48795,50527,48486.93,49528.04,308.07,998.96,0.489806,97.56,1
1317835,1,7570,0,48803,50546,48487.57,49530.08,315.43,1015.92,0.489447,97.57,1
1317875,1,7610,0,48819,50594,48488.23,49532.21,330.77,1061.79,0.489086,97.57,1
1317915,1,7650,0,48837,50648,48488.93,49534.45,348.07,1113.55,0.488723,97.58,1
1317955,1,7690,0,48859,50693,48489.67,49536.77,369.33,1156.23,0.488357,97.59,1
1317995,1,7730,0,48878,50735,48490.45,49539.16,387.55,1195.84,0.487989,97.59,1
1318035,1,7770,0,48894,50777,48491.26,49541.64,402.74,1235.36,0.48762,97.6,1
1318075,1,7810,0,48915,50816,48492.11,49544.19,422.89,1271.81,0.48725,97.61,1
1318115,1,7850,0,48911,50750,48492.95,49546.61,418.05,1203.39,0.48688,97.61,1
1318155,1,7890,0,48841,50535,48493.64,49548.58,347.36,986.42,0.486511,97.62,1
1318196,1,7931,0,48738,50349,48494.13,49550.18,243.87,798.82,0.486142,97.63,1
1318236,1,7971,0,48687,50308,48494.52,49551.7,192.48,756.3,0.485771,97.63,1
1318276,1,8011,0,48689,50356,48494.91,49553.31,194.09,802.69,0.485397,97.64,1
1318316,1,8051,0,48709,50412,48495.34,49555.03,213.66,856.97,0.485021,97.65,1
1318356,1,8091,0,48741,50476,48495.83,49556.87,245.17,919.13,0.484643,97.65,1
1318396,1,8131,0,48761,50515,48496.36,49558.79,264.64,956.21,0.484262,97.66,1
1318436,1,8171,0,48771,50516,48496.91,49560.7,274.09,955.3,0.48388,97.67,1
1318476,1,8211,0,48768,50520,48497.46,49562.62,270.54,957.38,0.483496,97.68,1
1318516,1,8251,0,48776,50546,48498.02,49564.59,277.98,981.41,0.483109,97.68,1
1318556,1,8291,0,48796,50594,48498.61,49566.65,297.39,1027.35,0.482722,97.69,1
1318596,1,8331,0,48820,50640,48499.26,49568.8,320.74,1071.2,0.482332,97.7,1
1318636,1,8371,0,48840,50683,48499.94,49571.03,340.06,1111.97,0.481941,97.71,1
1318676,1,8411,0,48855,50727,48500.65,49573.34,354.35,1153.66,0.481549,97.71,1
1318716,1,8451,0,48875,50769,48501.4,49575.73,373.6,1193.27,0.481157,97.72,1
1318756,1,8491,0,48892,50810,48502.18,49578.2,389.82,1231.8,0.480763,97.73,1
1318796,1,8531,0,48909,50826,48503,49580.7,406,1245.3,0.480369,97.74,1
1318836,1,8571,0,48884,50705,48503.76,49582.95,380.24,1122.05,0.479977,97.75,1
1318876,1,8611,0,48798,50486,48504.35,49584.76,293.65,901.24,0.479585,97.75,1
1318917,1,8652,0,48716,50364,48504.78,49586.32,211.22,777.68,0.479192,97.76,1
1318957,1,8692,0,48690,50365,48505.15,49587.87,184.85,777.12,0.478798,97.77,1
1318997,1,8732,0,48703,50416,48505.55,49589.53,197.45,826.47,0.478402,97.78,1
1319037,1,8772,0,48724,50486,48505.98,49591.32,218.02,894.68,0.478004,97.79,1
1319077,1,8812,0,48756,50536,48506.48,49593.21,249.52,942.79,0.477605,97.79,1
1319117,1,8852,0,48769,50540,48507.01,49595.11,261.99,944.89,0.477204,97.8,1
1319157,1,8892,0,48766,50531,48507.53,49596.98,258.47,934.02,0.476802,97.81,1
1319197,1,8932,0,48763,50532,48508.04,49598.86,254.96,933.14,0.476399,97.82,1
1319237,1,8972,0,48772,50560,48508.57,49600.78,263.43,959.22,0.475995,97.83,1
1319277,1,9012,0,48798,50604,48509.15,49602.79,288.85,1001.21,0.475591,97.84,1
1319317,1,9052,0,48817,50650,48509.77,49604.88,307.23,1045.12,0.475185,97.84,1
1319357,1,9092,0,48835,50697,48510.42,49607.07,324.58,1089.93,0.474779,97.85,1
1319397,1,9132,0,48850,50734,48511.1,49609.32,338.9,1124.68,0.474372,97.86,1
1319437,1,9172,0,48867,50770,48511.82,49611.64,355.18,1158.36,0.473965,97.87,1
1319477,1,9212,0,48885,50810,48512.56,49614.04,372.44,1195.96,0.473558,97.88,1
1319517,1,9252,0,48904,50946,48513.35,49616.71,390.65,1329.29,0.47315,97.89,1
1319557,1,9292,0,48899,50917,48514.12,49619.31,384.88,1297.69,0.472741,97.9,1
1319597,1,9332,0,48826,50557,48514.75,49621.18,311.25,935.82,0.472332,97.91,1
1319637,1,9372,0,48732,50387,48515.18,49622.71,216.82,764.29,0.471924,97.91,1
1319678,1,9413,0,48686,50347,48515.53,49624.16,170.47,722.84,0.471516,97.92,1
1319718,1,9453,0,48693,50889,48515.88,49626.7,177.12,1262.3,0.471099,97.93,1
1319758,1,9493,0,48715,50417,48516.28,49628.28,198.72,788.72,0.470682,97.94,1
1319798,1,9533,0,48743,50519,48516.73,49630.06,226.27,888.94,0.470264,97.95,1
1319838,1,9573,0,48762,50525,48517.23,49631.85,244.77,893.15,0.469845,97.96,1
1319878,1,9613,0,48758,50504,48517.71,49633.6,240.29,870.4,0.469427,97.97,1
1319918,1,9653,0,48748,50070,48518.17,49634.47,229.83,435.53,0.469012,97.98,1
1319958,1,9693,0,48756,50204,48518.65,49635.61,237.35,568.39,0.468599,97.99,1
1319998,1,9733,0,48775,50566,48519.16,49637.48,255.84,928.52,0.468187,98,1
1320038,1,9773,0,48799,50606,48519.73,49639.41,279.27,966.59,0.467774,98.01,1
1320078,1,9813,0,48822,50646,48520.33,49641.43,301.67,1004.57,0.467361,98.01,1
1320118,1,9853,0,48832,50677,48520.96,49643.5,311.04,1033.5,0.466949,98.02,1
1320158,1,9893,0,48845,50712,48521.61,49645.64,323.39,1066.36,0.466537,98.03,1
1320198,1,9933,0,48867,50754,48522.3,49647.86,344.7,1106.14,0.466126,98.04,1
1320238,1,9973,0,48900,50753,48523.05,49650.07,376.95,1102.93,0.465717,98.05,1
1320278,1,10013,0,48977,50604,48523.96,49651.98,453.04,952.02,0.465317,98.06,1
1320318,1,10053,0,48752,50363,48524.42,49653.4,227.58,709.6,0.464918,98.07,1
1320358,1,10093,0,48664,50240,48524.7,49654.58,139.3,585.42,0.464519,98.08,1
1320399,1,10134,0,48643,50243,48524.94,49655.76,118.06,587.24,0.464119,98.09,1
1320439,1,10174,0,48955,50291,48525.8,49657.03,429.2,633.97,0.463731,98.1,1
1320479,1,10214,0,48683,50358,48526.12,49658.43,156.88,699.57,0.463341,98.11,1
1320519,1,10254,0,48710,50406,48526.49,49659.93,183.51,746.07,0.462952,98.12,1
1320559,1,10294,0,48716,50402,48526.87,49661.41,189.13,740.59,0.462561,98.13,1
1320599,1,10334,0,48714,50386,48527.24,49662.86,186.76,723.14,0.462171,98.14,1
1320639,1,10374,0,48520,50395,48527.23,49664.33,-7.23,730.67,0.461778,98.15,1
1320679,1,10414,0,48291,50438,48526.76,49665.87,-235.76,772.12,0.461386,98.16,1
1320719,1,10454,0,48751,50486,48527.21,49667.52,223.79,818.48,0.460994,98.17,1
1320759,1,10494,0,48777,50528,48527.71,49669.24,249.29,858.76,0.460602,98.18,1
1320799,1,10534,0,48795,50571,48528.24,49671.04,266.76,899.96,0.46021,98.19,1
1320839,1,10574,0,48815,50609,48528.82,49672.92,286.18,936.08,0.459818,98.2,1
1320879,1,10614,0,48833,50653,48529.43,49674.88,303.57,978.12,0.459428,98.2,1
1320919,1,10654,0,48851,50661,48530.07,49676.86,320.93,984.14,0.459039,98.21,1
1320959,1,10694,0,48825,50491,48530.66,49678.48,294.34,812.52,0.458652,98.22,1
1320999,1,10734,0,48714,50223,48531.03,49679.57,182.97,543.43,0.458266,98.23,1
1321039,1,10774,0,48615,50095,48531.2,49680.41,83.8,414.59,0.457881,98.24,1
1321079,1,10814,0,48592,50087,48531.32,49681.22,60.68,405.78,0.457497,98.25,1
1321120,1,10855,0,48600,50129,48531.45,49682.12,68.55,446.88,0.457112,98.26,1
1321160,1,10895,0,48624,50194,48531.64,49683.14,92.36,510.86,0.456727,98.27,1
1321200,1,10935,0,48655,50248,48531.89,49684.28,123.11,563.72,0.456342,98.28,1
1321240,1,10975,0,48667,50260,48532.16,49685.43,134.84,574.57,0.455958,98.29,1
1321280,1,11015,0,48669,50244,48532.43,49686.55,136.57,557.45,0.455573,98.3,1
1321320,1,11055,0,48670,50249,48532.71,49687.67,137.29,561.33,0.455189,98.31,1
1321360,1,11095,0,48681,50289,48533,49688.87,148,600.12,0.454804,98.32,1
1321400,1,11135,0,48703,50347,48533.34,49690.19,169.66,656.81,0.45442,98.33,1
1321440,1,11175,0,48735,50404,48533.75,49691.62,201.25,712.38,0.454036,98.34,1
1321480,1,11215,0,48765,50448,48534.21,49693.14,230.79,754.86,0.453653,98.35,1
1321520,1,11255,0,48784,50485,48534.71,49694.72,249.29,790.28,0.453271,98.36,1
1321560,1,11295,0,48802,50529,48535.25,49696.39,266.75,832.61,0.45289,98.37,1
1321600,1,11335,0,48817,50539,48535.82,49698.08,281.18,840.92,0.452511,98.38,1
1321640,1,11375,0,48792,50375,48536.33,49699.43,255.67,675.57,0.452135,98.39,1
1321680,1,11415,0,48680,50081,48536.62,49700.2,143.38,380.8,0.45176,98.4,1
1321720,1,11455,0,48565,49916,48536.68,49700.63,28.32,215.37,0.451386,98.41,1
1321760,1,11495,0,48530,49891,48536.66,49701.02,-6.66,189.98,0.451012,98.42,1
1321800,1,11535,0,48534,49925,48536.66,49701.46,-2.66,223.54,0.45064,98.43,1
1321841,1,11576,0,48555,49980,48536.7,49702.02,18.3,277.98,0.450268,98.43,1
1321881,1,11616,0,48590,50037,48536.81,49702.7,53.19,334.3,0.449896,98.44,1
1321921,1,11656,0,48611,50062,48536.96,49703.41,74.04,358.59,0.449525,98.45,1
1321961,1,11696,0,48611,50048,48537.11,49704.11,73.89,343.89,0.449155,98.46,1
1322001,1,11736,0,48609,50047,48537.25,49704.79,71.75,342.21,0.448785,98.47,1
1322041,1,11776,0,48621,50083,48537.42,49705.55,83.58,377.45,0.448416,98.48,1
1322081,1,11816,0,48645,50146,48537.63,49706.43,107.37,439.57,0.448047,98.49,1
1322121,1,11856,0,48677,50211,48537.91,49707.45,139.09,503.55,0.447679,98.5,1
1322161,1,11896,0,48706,50264,48538.25,49708.56,167.75,555.44,0.447312,98.51,1
1322201,1,11936,0,48729,50301,48538.63,49709.75,190.37,591.25,0.446946,98.52,1
1322241,1,11976,0,48751,50333,48539.06,49710.99,211.94,622.01,0.446581,98.53,1
1322281,1,12016,0,48764,50374,48539.51,49712.32,224.49,661.68,0.446218,98.54,1
1322321,1,12056,0,48781,50401,48539.99,49713.7,241.01,687.3,0.445858,98.55,1
1322361,1,12096,0,48770,50285,48540.45,49714.84,229.55,570.16,0.445499,98.56,1
1322401,1,12136,0,48674,49989,48540.72,49715.39,133.28,273.61,0.445143,98.57,1
1322441,1,12176,0,48541,49784,48540.72,49715.53,0.28,68.47,0.444788,98.58,1
1322481,1,12216,0,48493,49738,48540.63,49715.58,-47.63,22.42,0.444434,98.59,1
1322521,1,12256,0,48494,49766,48540.54,49715.68,-46.54,50.32,0.444081,98.6,1
1322562,1,12297,0,48514,49813,48540.48,49715.87,-26.48,97.12,0.443729,98.6,1
1322602,1,12337,0,48544,49880,48540.49,49716.2,3.51,163.8,0.443379,98.61,1
1322642,1,12377,0,48571,49906,48540.55,49716.59,30.45,189.41,0.443029,98.62,1
1322682,1,12417,0,48571,49894,48540.62,49716.94,30.38,177.06,0.442679,98.63,1
1322722,1,12457,0,48565,49882,48540.67,49717.27,24.33,164.73,0.442331,98.64,1
1322762,1,12497,0,48575,49915,48540.74,49717.67,34.26,197.33,0.441983,98.65,1
1322802,1,12537,0,48592,49977,48540.84,49718.19,51.16,258.81,0.441637,98.66,1
1322842,1,12577,0,48627,50043,48541.02,49718.84,85.98,324.16,0.44129,98.67,1
1322882,1,12617,0,48661,50097,48541.26,49719.6,119.74,377.4,0.440945,98.68,1
1322922,1,12657,0,48686,50292,48541.55,49720.75,144.45,571.25,0.4406,98.69,1
1322962,1,12697,0,48708,50357,48541.88,49722.02,166.12,634.98,0.440255,98.7,1
1323002,1,12737,0,48721,50214,48542.24,49723,178.76,491,0.439911,98.71,1
1323042,1,12777,0,48740,50259,48542.64,49724.08,197.36,534.92,0.43957,98.72,1
1323082,1,12817,0,48758,50298,48543.07,49725.23,214.93,572.77,0.43923,98.72,1
1323122,1,12857,0,48780,50321,48543.55,49726.42,236.45,594.58,0.438894,98.73,1
1323162,1,12897,0,48793,50284,48544.05,49727.54,248.95,556.46,0.438561,98.74,1
1323202,1,12937,0,48805,50409,48544.57,49728.9,260.43,680.1,0.438232,98.75,1
1323242,1,12977,0,48830,50426,48545.14,49730.29,284.86,695.71,0.437906,98.76,1
1323283,1,13018,0,48800,50258,48545.66,49731.35,254.34,526.65,0.437585,98.77,1
1323323,1,13058,0,48676,49462,48545.92,49730.81,130.08,-268.81,0.437266,98.78,1
1323363,1,13098,0,48545,49405,48545.92,49730.16,-0.92,-325.16,0.436946,98.79,1
1323403,1,13138,0,48503,49739,48545.83,49730.18,-42.83,8.82,0.436628,98.8,1
1323443,1,13178,0,48521,49778,48545.79,49730.28,-24.79,47.72,0.436311,98.81,1
1323483,1,13218,0,48547,49835,48545.79,49730.49,1.21,104.51,0.435994,98.81,1
1323523,1,13258,0,48574,49887,48545.85,49730.8,28.15,156.2,0.435679,98.82,1
1323563,1,13298,0,48592,49900,48545.94,49731.14,46.06,168.86,0.435364,98.83,1
1323603,1,13338,0,48584,49868,48546.02,49731.42,37.98,136.58,0.43505,98.84,1
1323643,1,13378,0,48637,49854,48546.2,49731.66,90.8,122.34,0.434737,98.85,1
1323683,1,13418,0,48756,49880,48546.62,49731.96,209.37,148.04,0.43443,98.86,1
1323723,1,13458,0,48609,49936,48546.75,49732.37,62.25,203.63,0.434124,98.87,1
1323763,1,13498,0,48636,49991,48546.93,49732.89,89.07,258.11,0.433819,98.88,1
1323803,1,13538,0,48657,50035,48547.15,49733.5,109.85,301.5,0.433515,98.88,1
1323843,1,13578,0,49011,50072,48548.08,49734.18,462.92,337.82,0.433234,98.89,1
1323883,1,13618,0,48671,50102,48548.33,49734.91,122.67,367.09,0.432953,98.9,1
1323923,1,13658,0,48703,50126,48548.64,49735.7,154.36,390.3,0.432674,98.91,1
1323963,1,13698,0,48712,50152,48548.97,49736.53,163.03,415.47,0.432396,98.92,1
1324004,1,13739,0,48724,50182,48549.32,49737.42,174.68,444.58,0.43212,98.93,1
1324044,1,13779,0,48509,50225,48549.24,49738.4,-40.24,486.6,0.431843,98.93,1
1324084,1,13819,0,48251,50203,48548.65,49739.33,-297.65,463.67,0.431573,98.94,1
1324124,1,13859,0,48704,49990,48548.96,49739.83,155.04,250.17,0.431306,98.95,1
1324164,1,13899,0,48577,49721,48549.02,49739.8,27.98,-18.8,0.43104,98.96,1
1324204,1,13939,0,48490,49623,48548.9,49739.57,-58.9,-116.57,0.430775,98.97,1
1324244,1,13979,0,48480,49642,48548.77,49739.37,-68.77,-97.37,0.430511,98.98,1
1324284,1,14019,0,48501,49704,48548.67,49739.3,-47.67,-35.3,0.430249,98.98,1
1324324,1,14059,0,48538,49779,48548.65,49739.38,-10.65,39.62,0.429987,98.99,1
1324364,1,14099,0,48572,49822,48548.7,49739.55,23.3,82.45,0.429725,99,1
1324404,1,14139,0,48586,49823,48548.77,49739.72,37.23,83.28,0.429465,99.01,1
1324444,1,14179,0,48580,49804,48548.84,49739.85,31.16,64.15,0.429205,99.02,1
1324484,1,14219,0,48580,49821,48548.9,49740.01,31.1,80.99,0.428947,99.02,1
1324524,1,14259,0,48592,49859,48548.98,49740.25,43.02,118.75,0.428689,99.03,1
1324564,1,14299,0,48619,49924,48549.12,49740.62,69.87,183.38,0.428432,99.04,1
1324604,1,14339,0,48648,49976,48549.32,49741.09,98.68,234.91,0.428176,99.05,1
1324644,1,14379,0,48672,50028,48549.57,49741.66,122.43,286.34,0.427921,99.05,1
1324684,1,14419,0,48690,50076,48549.85,49742.34,140.15,333.66,0.427669,99.06,1
1324724,1,14459,0,48710,50111,48550.17,49743.07,159.83,367.93,0.427418,99.07,1
1324765,1,14500,0,48726,50136,48550.52,49743.86,175.48,392.14,0.42717,99.08,1
1324805,1,14540,0,48735,50165,48550.89,49744.71,184.11,420.29,0.426924,99.08,1
1324845,1,14580,0,48751,50212,48551.3,49745.64,199.7,466.36,0.426681,99.09,1
1324885,1,14620,0,48772,50263,48551.74,49746.68,220.26,516.32,0.426441,99.1,1
1324925,1,14660,0,48788,50230,48552.21,49747.65,235.79,482.35,0.426205,99.11,1
1324965,1,14700,0,48725,49971,48552.56,49748.1,172.44,222.9,0.425973,99.11,1
1325005,1,14740,0,48582,49695,48552.62,49747.99,29.38,-52.99,0.425742,99.12,1
1325045,1,14780,0,48493,49592,48552.5,49747.68,-59.5,-155.68,0.425512,99.13,1
1325085,1,14820,0,48484,49600,48552.36,49747.39,-68.36,-147.39,0.425282,99.14,1
1325125,1,14860,0,48503,49636,48552.27,49747.16,-49.27,-111.16,0.425054,99.14,1
1325165,1,14900,0,48526,49694,48552.21,49747.06,-26.21,-53.06,0.424826,99.15,1
1325205,1,14940,0,48550,49747,48552.21,49747.06,-2.21,-0.06,0.424599,99.16,1
1325245,1,14980,0,48564,49742,48552.23,49747.05,11.77,-5.05,0.424372,99.16,1
1325285,1,15020,0,48560,49727,48552.25,49747.01,7.75,-20.01,0.424146,99.17,1
1325325,1,15060,0,48555,49732,48552.26,49746.98,2.74,-14.98,0.423921,99.18,1
1325365,1,15100,0,48570,49781,48552.29,49747.05,17.71,33.95,0.423697,99.18,1
1325405,1,15140,0,48596,49851,48552.38,49747.27,43.62,103.73,0.423473,99.19,1
1325445,1,15180,0,48625,49913,48552.53,49747.6,72.47,165.4,0.423251,99.2,1
1325486,1,15221,0,48653,49964,48552.73,49748.03,100.27,215.97,0.423029,99.21,1
1325526,1,15261,0,48675,50008,48552.98,49748.55,122.02,259.45,0.422809,99.21,1
1325566,1,15301,0,48692,50046,48553.26,49749.15,138.74,296.85,0.422592,99.22,1
1325606,1,15341,0,48703,50082,48553.56,49749.82,149.44,332.18,0.422376,99.23,1
1325646,1,15381,0,48726,50120,48553.91,49750.56,172.09,369.44,0.422163,99.23,1
1325686,1,15421,0,48738,50163,48554.28,49751.38,183.72,411.62,0.421953,99.24,1
1325726,1,15461,0,48761,50224,48554.69,49752.33,206.31,471.67,0.421745,99.25,1
1325766,1,15501,0,48791,50255,48555.16,49753.34,235.84,501.66,0.421542,99.25,1
1325806,1,15541,0,48776,50098,48555.61,49754.03,220.39,343.97,0.421345,99.26,1
1325846,1,15581,0,48657,49784,48555.81,49754.09,101.19,29.91,0.42115,99.26,1
1325886,1,15621,0,48528,49606,48555.75,49753.8,-27.75,-147.8,0.420955,99.27,1
1325926,1,15661,0,48491,49582,48555.62,49753.45,-64.62,-171.45,0.420761,99.28,1
1325966,1,15701,0,48495,49616,48555.5,49753.18,-60.5,-137.18,0.420568,99.28,1
1326006,1,15741,0,48515,49668,48555.43,49753.01,-40.43,-85.01,0.420375,99.29,1
1326046,1,15781,0,48548,49726,48555.41,49752.96,-7.41,-26.96,0.420183,99.3,1
1326086,1,15821,0,48565,49750,48555.43,49752.95,9.57,-2.95,0.419991,99.3,1
1326126,1,15861,0,48563,49735,48555.45,49752.92,7.55,-17.92,0.4198,99.31,1
1326166,1,15901,0,48556,49730,48555.45,49752.87,0.55,-22.87,0.41961,99.31,1
1326207,1,15942,0,48563,49765,48555.47,49752.9,7.53,12.1,0.41942,99.32,1
1326247,1,15982,0,48587,49823,48555.53,49753.04,31.47,69.96,0.419231,99.33,1
1326287,1,16022,0,48610,49888,48555.64,49753.31,54.36,134.69,0.419042,99.33,1
1326327,1,16062,0,48635,49946,48555.8,49753.7,79.2,192.3,0.418855,99.34,1
1326367,1,16102,0,48664,50150,48556.02,49754.49,107.98,395.51,0.418666,99.34,1
1326407,1,16142,0,48687,50269,48556.28,49755.52,130.72,513.48,0.418476,99.35,1
1326447,1,16182,0,48710,50093,48556.59,49756.2,153.41,336.8,0.418288,99.36,1
1326487,1,16222,0,48727,50139,48556.93,49756.96,170.07,382.04,0.418103,99.36,1
1326527,1,16262,0,48747,50182,48557.32,49757.82,189.68,424.18,0.41792,99.37,1
1326567,1,16302,0,48775,50194,48557.75,49758.69,217.25,435.31,0.417743,99.37,1
1326607,1,16342,0,48798,50174,48558.23,49759.52,239.77,414.48,0.417571,99.38,1
1326647,1,16382,0,48808,50213,48558.73,49760.43,249.27,452.57,0.417407,99.38,1
1326687,1,16422,0,48722,49946,48559.06,49760.8,162.94,185.2,0.417247,99.39,1
1326727,1,16462,0,48591,49725,48559.13,49760.73,31.87,-35.73,0.417087,99.39,1
1326767,1,16502,0,48533,49380,48559.08,49759.97,-26.08,-379.97,0.416925,99.4,1
1326807,1,16542,0,48534,49709,48559.03,49759.87,-25.03,-50.87,0.416763,99.41,1
1326847,1,16582,0,48552,49764,48559.02,49759.88,-7.02,4.12,0.416602,99.41,1
1326887,1,16622,0,48580,49829,48559.06,49760.02,20.94,68.98,0.416441,99.42,1
1326927,1,16662,0,48606,49845,48559.15,49760.19,46.85,84.81,0.416281,99.42,1
1326968,1,16703,0,48600,49825,48559.23,49760.32,40.77,64.68,0.416122,99.43,1
1327008,1,16743,0,48589,49808,48559.3,49760.42,29.7,47.58,0.415963,99.43,1
1327048,1,16783,0,48588,49833,48559.36,49760.57,28.64,72.43,0.415805,99.44,1
1327088,1,16823,0,48727,49887,48559.69,49760.82,167.31,126.18,0.415652,99.44,1
1327128,1,16863,0,48849,49938,48560.27,49761.18,288.73,176.82,0.415514,99.45,1
1327168,1,16903,0,48661,49992,48560.47,49761.64,100.53,230.36,0.415378,99.45,1
1327208,1,16943,0,48679,50034,48560.71,49762.19,118.29,271.81,0.415242,99.46,1
1327248,1,16983,0,48700,50072,48560.99,49762.81,139.01,309.19,0.415108,99.46,1
1327288,1,17023,0,48717,50094,48561.3,49763.47,155.7,330.53,0.414976,99.47,1
1327328,1,17063,0,48645,50117,48561.47,49764.18,83.53,352.82,0.414843,99.47,1
1327368,1,17103,0,48743,50163,48561.84,49764.98,181.16,398.02,0.414713,99.48,1
1327408,1,17143,0,48760,50200,48562.23,49765.85,197.77,434.15,0.414586,99.48,1
1327448,1,17183,0,48769,50145,48562.65,49766.61,206.35,378.39,0.414464,99.49,1
1327488,1,17223,0,48237,49897,48562,49766.87,-325,130.13,0.414361,99.49,1
1327528,1,17263,0,48005,49673,48560.89,49766.68,-555.89,-93.68,0.414316,99.5,1
1327568,1,17303,0,48505,49620,48560.78,49766.39,-55.78,-146.39,0.41427,99.5,1
1327608,1,17343,0,48509,49659,48560.68,49766.18,-51.68,-107.18,0.414225,99.5,1
1327649,1,17384,0,48532,49724,48560.62,49766.09,-28.62,-42.09,0.41418,99.51,1
1327689,1,17424,0,48562,49792,48560.62,49766.15,1.37,25.85,0.414135,99.51,1
1327729,1,17464,0,48586,49817,48560.68,49766.25,25.32,50.75,0.414091,99.52,1
1327769,1,17504,0,48582,49800,48560.72,49766.32,21.28,33.68,0.414046,99.52,1
1327809,1,17544,0,48576,49791,48560.75,49766.37,15.25,24.63,0.414002,99.52,1
1327849,1,17584,0,48581,49818,48560.79,49766.48,20.21,51.52,0.413958,99.53,1
1327889,1,17624,0,48604,49879,48560.88,49766.7,43.12,112.3,0.413914,99.53,1
1327929,1,17664,0,48632,49948,48561.02,49767.07,70.98,180.93,0.41387,99.54,1
1327969,1,17704,0,48660,49994,48561.22,49767.52,98.78,226.48,0.413827,99.54,1
1328009,1,17744,0,48683,50035,48561.47,49768.06,121.53,266.94,0.413784,99.54,1
1328049,1,17784,0,48701,50068,48561.75,49768.66,139.25,299.34,0.413743,99.55,1
1328089,1,17824,0,48716,50095,48562.06,49769.31,153.94,325.69,0.413704,99.55,1
1328129,1,17864,0,48733,50134,48562.4,49770.04,170.6,363.96,0.413666,99.55,1
1328169,1,17904,0,48750,50168,48562.78,49770.84,187.22,397.16,0.413631,99.56,1
1328209,1,17944,0,48762,50137,48563.18,49771.57,198.82,365.43,0.4136,99.56,1
1328249,1,17984,0,48702,49892,48563.45,49771.82,138.55,120.18,0.413572,99.56,1
1328289,1,18024,0,48562,49618,48563.45,49771.51,-1.45,-153.51,0.413544,99.57,1
1328329,1,18064,0,48473,49527,48563.27,49771.02,-90.27,-244.02,0.413515,99.57,1
1328369,1,18104,0,48462,49538,48563.07,49770.56,-101.07,-232.56,0.413487,99.57,1
1328410,1,18145,0,48472,49567,48562.89,49770.15,-90.89,-203.15,0.41346,99.57,1
1328450,1,18185,0,48488,49628,48562.74,49769.87,-74.74,-141.87,0.413433,99.58,1
1328490,1,18225,0,48520,49684,48562.66,49769.7,-42.66,-85.7,0.413406,99.58,1
1328530,1,18265,0,48533,49698,48562.6,49769.56,-29.6,-71.56,0.413379,99.58,1
1328570,1,18305,0,48532,49682,48562.54,49769.38,-30.54,-87.38,0.413353,99.58,1
1328610,1,18345,0,48531,49701,48562.48,49769.25,-31.48,-68.25,0.413326,99.59,1
1328650,1,18385,0,48548,49762,48562.45,49769.23,-14.45,-7.23,0.4133,99.59,1
1328690,1,18425,0,48578,49828,48562.48,49769.35,15.52,58.65,0.413273,99.59,1
1328730,1,18465,0,48615,49892,48562.59,49769.6,52.41,122.4,0.413247,99.59,1
1328770,1,18505,0,48645,49940,48562.75,49769.94,82.25,170.06,0.413221,99.6,1
1328810,1,18545,0,48663,49977,48562.96,49770.36,100.04,206.64,0.413197,99.6,1
1328850,1,18585,0,48678,50006,48563.19,49770.83,114.81,235.17,0.413173,99.6,1
1328890,1,18625,0,48693,50042,48563.45,49771.37,129.55,270.63,0.413151,99.6,1
1328930,1,18665,0,48708,50075,48563.74,49771.98,144.26,303.02,0.41313,99.6,1
1328970,1,18705,0,48726,50115,48564.06,49772.67,161.94,342.33,0.413111,99.61,1
1329010,1,18745,0,48723,50010,48564.38,49773.14,158.62,236.86,0.413096,99.61,1
1329050,1,18785,0,48626,49706,48564.51,49773.01,61.49,-67.01,0.413082,99.61,1
1329090,1,18825,0,48478,49465,48564.34,49772.4,-86.34,-307.4,0.413066,99.61,1
1329130,1,18865,0,48414,49402,48564.04,49771.66,-150.04,-369.66,0.41305,99.61,1
1329171,1,18906,0,48404,49404,48563.71,49770.93,-159.71,-366.93,0.413036,99.62,1
1329211,1,18946,0,48407,49422,48563.4,49770.23,-156.4,-348.23,0.413022,99.62,1
1329251,1,18986,0,48422,49484,48563.12,49769.66,-141.12,-285.66,0.413011,99.62,1
1329291,1,19026,0,48455,49548,48562.91,49769.22,-107.91,-221.22,0.413,99.62,1
1329331,1,19066,0,48478,49561,48562.74,49768.8,-84.74,-207.8,0.412989,99.62,1
1329371,1,19106,0,48476,49560,48562.57,49768.39,-86.57,-208.39,0.412979,99.62,1
1329411,1,19146,0,48477,49593,48562.4,49768.04,-85.4,-175.04,0.412969,99.63,1
1329451,1,19186,0,48507,49653,48562.29,49767.81,-55.29,-114.81,0.412959,99.63,1
1329491,1,19226,0,48543,49722,48562.25,49767.72,-19.25,-45.72,0.41295,99.63,1
1329531,1,19266,0,48576,49784,48562.28,49767.75,13.72,16.25,0.41294,99.63,1
1329571,1,19306,0,48603,49834,48562.36,49767.89,40.64,66.11,0.412931,99.63,1
1329611,1,19346,0,48625,49881,48562.48,49768.11,62.52,112.89,0.412922,99.63,1
1329651,1,19386,0,48638,49915,48562.64,49768.41,75.36,146.59,0.412914,99.63,1
1329691,1,19426,0,48655,49945,48562.82,49768.77,92.18,176.23,0.412907,99.64,1
1329731,1,19466,0,48671,49982,48563.04,49769.2,107.96,212.8,0.412901,99.64,1
1329771,1,19506,0,48691,50137,48563.3,49769.93,127.7,367.07,0.412894,99.64,1
1329811,1,19546,0,48710,50249,48563.59,49770.89,146.41,478.11,0.412883,99.64,1
1329851,1,19586,0,48694,49917,48563.86,49771.19,130.14,145.81,0.412875,99.64,1
1329892,1,19627,0,48570,49588,48563.87,49770.82,6.13,-182.82,0.412866,99.64,1
1329932,1,19667,0,48430,49389,48563.6,49770.06,-133.6,-381.06,0.412855,99.64,1
1329972,1,19707,0,48378,49355,48563.23,49769.23,-185.23,-414.23,0.412847,99.64,1
1330012,1,19747,0,48381,49302,48562.87,49768.3,-181.87,-466.3,0.412838,99.65,1
1330052,1,19787,0,48394,49408,48562.53,49767.58,-168.53,-359.58,0.412831,99.65,1
1330092,1,19827,0,48420,49492,48562.25,49767.03,-142.25,-275.03,0.412826,99.65,1
1330132,1,19867,0,48456,49550,48562.04,49766.6,-106.04,-216.6,0.412822,99.65,1
1330172,1,19907,0,48475,49283,48561.86,49765.63,-86.86,-482.63,0.41281,99.65,1
1330212,1,19947,0,48482,49196,48561.7,49764.5,-79.7,-568.5,0.412786,99.65,1
1330252,1,19987,0,48492,49606,48561.57,49764.18,-69.57,-158.18,0.412763,99.65,1
1330292,1,20027,0,48520,49668,48561.48,49763.99,-41.48,-95.99,0.412739,99.65,1
1330332,1,20067,0,48551,49735,48561.46,49763.93,-10.46,-28.93,0.412716,99.65,1
1330372,1,20107,0,48573,49794,48561.49,49763.99,11.51,30.01,0.412693,99.65,1
1330412,1,20147,0,48606,49851,48561.58,49764.17,44.42,86.83,0.41267,99.65,1
1330452,1,20187,0,48629,49891,48561.71,49764.42,67.29,126.58,0.412647,99.66,1
1330492,1,20227,0,48727,49931,48562.05,49764.76,164.95,166.24,0.412632,99.66,1
1330532,1,20267,0,48844,49972,48562.61,49765.17,281.39,206.83,0.412636,99.66,1
1330572,1,20307,0,48674,50014,48562.84,49765.67,111.16,248.33,0.412642,99.66,1
1330613,1,20348,0,48696,50057,48563.11,49766.25,132.89,290.75,0.412648,99.66,1
1330653,1,20388,0,48713,50115,48563.41,49766.95,149.59,348.05,0.412656,99.66,1
1330693,1,20428,0,49217,50089,48564.71,49767.6,652.29,321.4,0.412774,99.66,1
1330733,1,20468,0,48605,49830,48564.8,49767.72,40.2,62.28,0.412891,99.66,1
1330773,1,20508,0,48519,49544,48564.71,49767.28,-45.71,-223.28,0.413007,99.66,1
1330813,1,20548,0,48435,49462,48564.45,49766.67,-129.45,-304.67,0.413122,99.66,1
1330853,1,20588,0,48429,49492,48564.18,49766.12,-135.18,-274.12,0.413237,99.66,1
1330893,1,20628,0,48014,49533,48563.08,49765.66,-549.08,-232.66,0.413428,99.66,1
1330933,1,20668,0,47928,49598,48561.81,49765.32,-633.81,-167.32,0.413716,99.66,1
1330973,1,20708,0,48507,49648,48561.7,49765.09,-54.7,-117.09,0.414004,99.66,1
1331013,1,20748,0,48522,49659,48561.62,49764.87,-39.63,-105.87,0.41429,99.66,1
1331053,1,20788,0,48517,49656,48561.54,49764.66,-44.54,-108.66,0.414575,99.66,1
1331093,1,20828,0,48518,49670,48561.45,49764.47,-43.45,-94.47,0.414859,99.66,1
1331133,1,20868,0,48536,49719,48561.4,49764.38,-25.4,-45.38,0.415143,99.66,1
1331173,1,20908,0,48571,49784,48561.42,49764.42,9.58,19.58,0.415425,99.66,1
1331213,1,20948,0,48595,49845,48561.49,49764.59,33.51,80.41,0.415707,99.66,1
1331253,1,20988,0,48619,49892,48561.61,49764.84,57.39,127.16,0.415987,99.65,1
1331293,1,21028,0,48635,49928,48561.75,49765.17,73.25,162.83,0.416267,99.65,1
1331334,1,21069,0,48651,49963,48561.93,49765.57,89.07,197.43,0.416545,99.65,1
1331374,1,21109,0,48660,49989,48562.13,49766.02,97.87,222.98,0.416822,99.65,1
1331414,1,21149,0,48677,50031,48562.36,49766.55,114.64,264.45,0.417096,99.65,1
1331454,1,21189,0,48689,50077,48562.62,49767.17,126.38,309.83,0.417368,99.64,1
1331494,1,21229,0,48714,50095,48562.92,49767.83,151.08,327.17,0.417638,99.64,1
1331534,1,21269,0,48690,49931,48563.18,49768.16,126.82,162.84,0.41791,99.64,1
1331574,1,21309,0,48567,49636,48563.18,49767.89,3.82,-131.89,0.41818,99.64,1
1331614,1,21349,0,48459,49505,48562.98,49767.37,-103.98,-262.37,0.418447,99.63,1
1331654,1,21389,0,48448,49515,48562.75,49766.87,-114.75,-251.87,0.418713,99.63,1
1331694,1,21429,0,48469,49573,48562.56,49766.48,-93.56,-193.48,0.418978,99.63,1
1331734,1,21469,0,48493,49642,48562.42,49766.23,-69.42,-124.23,0.419243,99.62,1
1331774,1,21509,0,48527,49703,48562.35,49766.11,-35.35,-63.11,0.419507,99.62,1
1331814,1,21549,0,48543,49708,48562.31,49766,-19.31,-58,0.41977,99.62,1
1331854,1,21589,0,48540,49686,48562.27,49765.84,-22.27,-79.84,0.420031,99.61,1
1331894,1,21629,0,48535,49695,48562.21,49765.7,-27.21,-70.7,0.420292,99.61,1
1331934,1,21669,0,48542,49746,48562.18,49765.66,-20.18,-19.66,0.420553,99.61,1
1331974,1,21709,0,48572,49809,48562.2,49765.75,9.8,43.25,0.420812,99.6,1
1332015,1,21750,0,48604,49870,48562.28,49765.96,41.72,104.04,0.42107,99.6,1
1332055,1,21790,0,48626,49926,48562.41,49766.28,63.59,159.72,0.421327,99.59,1
1332095,1,21830,0,48649,49970,48562.59,49766.69,86.41,203.31,0.421582,99.59,1
1332135,1,21870,0,48662,50002,48562.79,49767.16,99.21,234.84,0.421836,99.59,1
1332175,1,21910,0,48683,50037,48563.03,49767.7,119.97,269.3,0.422087,99.58,1
1332215,1,21950,0,48702,50095,48563.3,49768.36,138.7,326.64,0.422336,99.58,1
1332255,1,21990,0,48725,50144,48563.63,49769.11,161.37,374.89,0.422582,99.57,1
1332295,1,22030,0,48736,50085,48563.98,49769.74,172.02,315.26,0.422828,99.57,1
1332335,1,22070,0,48657,49793,48564.16,49769.79,92.84,23.21,0.423077,99.56,1
1332375,1,22110,0,48517,49547,48564.07,49769.34,-47.07,-222.34,0.423322,99.56,1
1332415,1,22150,0,48448,49489,48563.84,49768.79,-115.84,-279.79,0.423564,99.56,1
1332455,1,22190,0,48452,49532,48563.62,49768.31,-111.62,-236.31,0.423805,99.55,1
1332495,1,22230,0,48473,49579,48563.44,49767.93,-90.44,-188.93,0.424045,99.55,1
1332535,1,22270,0,48501,49657,48563.31,49767.71,-62.31,-110.71,0.424285,99.54,1
1332575,1,22310,0,48537,49715,48563.26,49767.61,-26.26,-52.61,0.424524,99.54,1
1332615,1,22350,0,48551,49719,48563.24,49767.51,-12.24,-48.51,0.424763,99.53,1
1332655,1,22390,0,48543,49713,48563.2,49767.4,-20.2,-54.4,0.425,99.53,1
1332696,1,22431,0,48546,49734,48563.17,49767.34,-17.17,-33.34,0.425237,99.52,1
1332736,1,22471,0,48563,49793,48563.17,49767.39,-0.17,25.61,0.425473,99.52,1
1332776,1,22511,0,48597,49862,48563.24,49767.58,33.76,94.42,0.425708,99.51,1
1332816,1,22551,0,48630,49934,48563.37,49767.91,66.62,166.09,0.425942,99.51,1
1332856,1,22591,0,48653,49978,48563.55,49768.34,89.45,209.66,0.426174,99.5,1
1332896,1,22631,0,48681,50025,48563.79,49768.85,117.21,256.15,0.426404,99.5,1
1332936,1,22671,0,48697,50067,48564.06,49769.45,132.94,297.55,0.426633,99.49,1
1332976,1,22711,0,48714,50109,48564.36,49770.13,149.64,338.87,0.426859,99.49,1
1333016,1,22751,0,48736,50179,48564.7,49770.95,171.3,408.05,0.427081,99.48,1
1333056,1,22791,0,48753,50244,48565.08,49771.9,187.92,472.1,0.427296,99.48,1
1333096,1,22831,0,48689,49845,48565.33,49772.05,123.67,72.95,0.427516,99.47,1
1333136,1,22871,0,48536,49561,48565.27,49771.62,-29.27,-210.62,0.427731,99.47,1
1333176,1,22911,0,48447,49475,48565.04,49771.03,-118.04,-296.03,0.427943,99.46,1
1333216,1,22951,0,48438,49793,48564.79,49771.08,-126.79,21.92,0.428161,99.46,1
1333256,1,22991,0,48463,49533,48564.58,49770.6,-101.58,-237.6,0.428376,99.45,1
1333296,1,23031,0,48482,49600,48564.42,49770.26,-82.42,-170.26,0.428591,99.45,1
1333336,1,23071,0,48515,49665,48564.32,49770.05,-49.32,-105.05,0.428805,99.44,1
1333376,1,23111,0,48536,49687,48564.27,49769.89,-28.27,-82.89,0.429018,99.44,1
1333417,1,23152,0,48534,49475,48564.21,49769.3,-30.21,-294.3,0.429224,99.43,1
1333457,1,23192,0,48533,49230,48564.14,49768.22,-31.14,-538.22,0.429405,99.43,1
1333497,1,23232,0,48546,49748,48564.11,49768.18,-18.11,-20.18,0.429586,99.42,1
1333537,1,23272,0,48578,49824,48564.14,49768.29,13.86,55.71,0.429766,99.42,1
1333577,1,23312,0,48608,49890,48564.23,49768.54,43.77,121.46,0.429946,99.41,1
1333617,1,23352,0,48647,49951,48564.39,49768.91,82.61,182.09,0.430124,99.41,1
1333657,1,23392,0,48672,50009,48564.61,49769.39,107.39,239.61,0.430301,99.4,1
1333697,1,23432,0,48695,50055,48564.87,49769.96,130.13,285.04,0.430477,99.4,1
1333737,1,23472,0,48719,50095,48565.18,49770.61,153.82,324.39,0.430653,99.39,1
1333777,1,23512,0,48773,50132,48565.6,49771.34,207.4,360.66,0.430833,99.39,1
1333817,1,23552,0,48751,50170,48565.97,49772.13,185.03,397.87,0.431011,99.38,1
1333857,1,23592,0,48772,50222,48566.38,49773.04,205.62,448.96,0.431188,99.38,1
1333897,1,23632,0,48796,50273,48566.84,49774.04,229.16,498.96,0.431363,99.37,1
1333937,1,23672,0,49155,50200,48568.02,49774.89,586.98,425.11,0.431639,99.37,1
1333977,1,23712,0,49033,49880,48568.95,49775.1,464.05,104.9,0.431982,99.36,1
1334017,1,23752,0,48550,49599,48568.91,49774.75,-18.91,-175.75,0.432321,99.36,1
1334057,1,23792,0,48467,49533,48568.71,49774.27,-101.71,-241.27,0.432658,99.35,1
1334097,1,23832,0,48469,49570,48568.51,49773.86,-99.51,-203.86,0.432992,99.35,1
1334138,1,23873,0,48249,49616,48567.87,49773.55,-318.87,-157.55,0.433356,99.34,1
1334178,1,23913,0,48300,49680,48567.34,49773.36,-267.34,-93.36,0.433741,99.34,1
1334218,1,23953,0,48546,49732,48567.3,49773.28,-21.3,-41.28,0.434125,99.33,1
1334258,1,23993,0,48558,49742,48567.28,49773.21,-9.28,-31.21,0.434507,99.33,1
1334298,1,24033,0,48551,49734,48567.25,49773.14,-16.25,-39.14,0.434889,99.32,1
1334338,1,24073,0,48558,49756,48567.23,49773.11,-9.23,-17.11,0.435269,99.31,1
1334378,1,24113,0,48577,49811,48567.25,49773.18,9.75,37.82,0.435648,99.31,1
1334418,1,24153,0,48604,49888,48567.33,49773.41,36.67,114.59,0.436024,99.3,1
1334458,1,24193,0,48642,49958,48567.48,49773.79,74.52,184.21,0.436399,99.29,1
1334498,1,24233,0,48674,50012,48567.7,49774.26,106.3,237.74,0.43677,99.29,1
1334538,1,24273,0,48702,50058,48567.96,49774.83,134.04,283.17,0.437138,99.28,1
1334578,1,24313,0,48717,50097,48568.27,49775.48,148.73,321.52,0.437502,99.28,1
1334618,1,24353,0,48732,50122,48568.59,49776.17,163.41,345.83,0.437862,99.27,1
1334658,1,24393,0,48748,50153,48568.95,49776.93,179.05,376.07,0.438217,99.26,1
1334698,1,24433,0,48766,50197,48569.35,49777.77,196.65,419.23,0.438568,99.26,1
1334738,1,24473,0,48783,50241,48569.78,49778.7,213.22,462.3,0.438911,99.25,1
1334778,1,24513,0,48789,50191,48570.22,49779.52,218.78,411.48,0.439253,99.24,1
1334818,1,24553,0,48709,49899,48570.5,49779.76,138.5,119.24,0.439599,99.23,1
1334858,1,24593,0,48563,49627,48570.48,49779.46,-7.48,-152.46,0.439942,99.23,1
1334899,1,24634,0,48479,49559,48570.3,49779.02,-91.3,-220.02,0.440281,99.22,1
1334939,1,24674,0,48481,49605,48570.12,49778.67,-89.12,-173.67,0.44062,99.21,1
1334979,1,24714,0,48501,49668,48569.98,49778.45,-68.98,-110.45,0.440957,99.21,1
1335019,1,24754,0,48534,49738,48569.91,49778.37,-35.91,-40.37,0.441294,99.2,1
1335059,1,24794,0,48567,49783,48569.91,49778.38,-2.91,4.62,0.44163,99.19,1
1335099,1,24834,0,48575,49774,48569.92,49778.37,5.08,-4.37,0.441965,99.18,1
1335139,1,24874,0,48561,49761,48569.91,49778.34,-8.91,-17.34,0.442299,99.18,1
1335179,1,24914,0,48562,49780,48569.89,49778.34,-7.89,1.66,0.442632,99.17,1
1335219,1,24954,0,48584,49834,48569.92,49778.46,14.08,55.54,0.442964,99.16,1
1335259,1,24994,0,48618,49896,48570.02,49778.7,47.98,117.3,0.443294,99.16,1
1335299,1,25034,0,48649,49951,48570.18,49779.04,78.82,171.96,0.443623,99.15,1
1335339,1,25074,0,48666,49990,48570.37,49779.46,95.63,210.54,0.443949,99.14,1
1335379,1,25114,0,48681,50025,48570.59,49779.96,110.41,245.04,0.444272,99.13,1
1335419,1,25154,0,48697,50053,48570.85,49780.5,126.15,272.5,0.444592,99.13,1
1335459,1,25194,0,48711,50091,48571.13,49781.12,139.87,309.87,0.444908,99.12,1
1335499,1,25234,0,48727,50129,48571.44,49781.82,155.56,347.18,0.445219,99.11,1
1335539,1,25274,0,48736,50096,48571.77,49782.45,164.23,313.55,0.445529,99.1,1
1335579,1,25314,0,48666,49842,48571.96,49782.57,94.04,59.43,0.445841,99.1,1
1335620,1,25355,0,48531,49574,48571.88,49782.16,-40.88,-208.16,0.446148,99.09,1
1335660,1,25395,0,48450,49507,48571.64,49781.61,-121.64,-274.61,0.446452,99.08,1
1335700,1,25435,0,48448,49558,48571.39,49781.16,-123.39,-223.16,0.446755,99.07,1
1335740,1,25475,0,48478,49632,48571.21,49780.86,-93.21,-148.86,0.447058,99.07,1
1335780,1,25515,0,48518,49710,48571.11,49780.72,-53.11,-70.72,0.44736,99.06,1
1335820,1,25555,0,48550,49747,48571.07,49780.66,-21.07,-33.66,0.447662,99.05,1
1335860,1,25595,0,48555,49735,48571.04,49780.57,-16.04,-45.57,0.447963,99.04,1
1335900,1,25635,0,48539,49718,48570.97,49780.44,-31.97,-62.44,0.448262,99.04,1
1335940,1,25675,0,48540,49737,48570.91,49780.36,-30.91,-43.36,0.448561,99.03,1
1335980,1,25715,0,48564,49794,48570.9,49780.38,-6.9,13.62,0.448859,99.02,1
1336020,1,25755,0,48592,49856,48570.94,49780.54,21.06,75.46,0.449156,99.01,1
1336060,1,25795,0,48624,49911,48571.05,49780.8,52.95,130.2,0.449451,99.01,1
1336100,1,25835,0,48645,49949,48571.2,49781.13,73.8,167.87,0.449744,99,1
1336140,1,25875,0,48659,49991,48571.37,49781.55,87.63,209.45,0.450035,98.99,1
1336180,1,25915,0,48677,50026,48571.58,49782.04,105.42,243.96,0.450322,98.98,1
1336220,1,25955,0,48698,50060,48571.84,49782.6,126.16,277.4,0.450605,98.98,1
1336260,1,25995,0,48697,49977,48572.09,49782.99,124.91,194.01,0.45089,98.97,1
1336300,1,26035,0,48599,49675,48572.14,49782.78,26.86,-107.78,0.451173,98.96,1
1336340,1,26075,0,48450,49430,48571.9,49782.07,-121.9,-352.07,0.451447,98.95,1
1336381,1,26116,0,48382,49381,48571.52,49781.27,-189.52,-400.27,0.451716,98.95,1
1336421,1,26156,0,48390,49425,48571.16,49780.56,-181.16,-355.56,0.451984,98.94,1
1336461,1,26196,0,48412,49491,48570.84,49779.98,-158.84,-288.98,0.452251,98.93,1
1336501,1,26236,0,48436,49554,48570.57,49779.54,-134.57,-225.54,0.452519,98.92,1
1336541,1,26276,0,48467,49593,48570.36,49779.16,-103.36,-186.16,0.452787,98.92,1
1336581,1,26316,0,48474,49581,48570.17,49778.77,-96.17,-197.77,0.453053,98.91,1
1336621,1,26356,0,48466,49789,48569.96,49778.79,-103.96,10.21,0.453323,98.9,1
1336661,1,26396,0,48463,49996,48569.75,49779.23,-106.75,216.77,0.453592,98.9,1
1336701,1,26436,0,48495,49672,48569.61,49779.02,-74.61,-107.02,0.453861,98.89,1
1336741,1,26476,0,48531,49743,48569.53,49778.95,-38.53,-35.95,0.454129,98.88,1
1336781,1,26516,0,48564,49796,48569.52,49778.98,-5.52,17.02,0.454396,98.87,1
1336821,1,26556,0,48586,49727,48569.55,49778.88,16.45,-51.88,0.454663,98.87,1
1336861,1,26596,0,48604,49583,48569.62,49778.49,34.38,-195.49,0.454924,98.86,1
1336901,1,26636,0,48622,49927,48569.73,49778.79,52.27,148.21,0.455184,98.85,1
1336941,1,26676,0,48640,49904,48569.87,49779.04,70.13,124.96,0.455442,98.84,1
1336981,1,26716,0,48580,49644,48569.89,49778.77,10.11,-134.77,0.455698,98.84,1
1337021,1,26756,0,48421,49325,48569.6,49777.86,-148.6,-452.86,0.455938,98.83,1
1337061,1,26796,0,48307,49206,48569.07,49776.72,-262.07,-570.72,0.456168,98.82,1
1337101,1,26836,0,48288,49209,48568.51,49775.59,-280.51,-566.59,0.456394,98.82,1
1337142,1,26877,0,48297,49237,48567.97,49774.51,-270.97,-537.51,0.456618,98.81,1
1337182,1,26917,0,48316,49295,48567.46,49773.55,-251.46,-478.55,0.456842,98.8,1
1337222,1,26957,0,48349,49378,48567.03,49772.77,-218.03,-394.77,0.457067,98.8,1
1337262,1,26997,0,48380,49417,48566.66,49772.05,-186.66,-355.05,0.457292,98.79,1
1337302,1,27037,0,48387,49413,48566.3,49771.34,-179.3,-358.34,0.457515,98.78,1
1337342,1,27077,0,48626,49435,48566.42,49770.66,59.58,-335.66,0.457728,98.78,1
1337382,1,27117,0,48642,49495,48566.57,49770.11,75.43,-275.11,0.457934,98.77,1
1337422,1,27157,0,48440,49569,48566.32,49769.71,-126.32,-200.71,0.458142,98.76,1
1337462,1,27197,0,48478,49637,48566.14,49769.45,-88.14,-132.45,0.45835,98.76,1
1337502,1,27237,0,48511,49691,48566.04,49769.29,-55.04,-78.29,0.458558,98.75,1
1337542,1,27277,0,48423,49727,48565.75,49769.21,-142.75,-42.21,0.458773,98.74,1
1337582,1,27317,0,48415,49777,48565.45,49769.22,-150.45,7.78,0.458997,98.74,1
1337622,1,27357,0,48572,49826,48565.46,49769.34,6.54,56.66,0.45922,98.73,1
1337662,1,27397,0,48597,49868,48565.53,49769.54,31.47,98.46,0.459441,98.72,1
1337702,1,27437,0,48598,49781,48565.59,49769.56,32.41,11.44,0.459663,98.72,1
1337742,1,27477,0,47923,49462,48564.31,49768.95,-641.31,-306.95,0.460033,98.71,1
1337782,1,27517,0,48342,49227,48563.86,49767.86,-221.86,-540.86,0.460385,98.7,1
1337822,1,27557,0,48280,49179,48563.3,49766.69,-283.3,-587.69,0.460727,98.7,1
1337863,1,27598,0,48275,49195,48562.72,49765.55,-287.72,-570.55,0.46106,98.69,1
1337903,1,27638,0,48286,49227,48562.17,49764.47,-276.17,-537.47,0.461388,98.68,1
1337943,1,27678,0,48311,49314,48561.67,49763.57,-250.67,-449.57,0.461715,98.68,1
1337983,1,27718,0,48356,49395,48561.26,49762.84,-205.26,-367.84,0.462041,98.67,1
1338023,1,27758,0,48374,49408,48560.89,49762.13,-186.89,-354.13,0.462365,98.66,1
1338063,1,27798,0,48381,49413,48560.53,49761.44,-179.53,-348.44,0.462686,98.66,1
1338103,1,27838,0,48388,49452,48560.18,49760.82,-172.18,-308.82,0.463006,98.65,1
1338143,1,27878,0,48418,49529,48559.9,49760.36,-141.9,-231.36,0.463326,98.64,1
1338183,1,27918,0,48455,49606,48559.7,49760.05,-104.7,-154.05,0.463647,98.64,1
1338223,1,27958,0,48493,49675,48559.56,49759.88,-66.56,-84.88,0.463967,98.63,1
1338263,1,27998,0,48526,49728,48559.5,49759.82,-33.5,-31.82,0.464287,98.62,1
1338303,1,28038,0,48554,49784,48559.49,49759.87,-5.49,24.13,0.464606,98.61,1
1338343,1,28078,0,48570,49834,48559.51,49760.02,10.49,73.98,0.464923,98.61,1
1338383,1,28118,0,48592,49878,48559.58,49760.26,32.42,117.74,0.465238,98.6,1
1338423,1,28158,0,48617,49925,48559.7,49760.59,57.3,164.41,0.46555,98.59,1
1338463,1,28198,0,48637,49969,48559.85,49761.01,77.15,207.99,0.465859,98.59,1
1338503,1,28238,0,48653,50012,48560.04,49761.51,92.96,250.49,0.466163,98.58,1
1338543,1,28278,0,48675,50065,48560.27,49762.12,114.73,302.88,0.466461,98.57,1
1338584,1,28319,0,48695,50118,48560.54,49762.84,134.46,355.16,0.466751,98.56,1
1338624,1,28359,0,48720,50146,48560.86,49763.61,159.14,382.39,0.467034,98.56,1
1338664,1,28399,0,48695,49971,48561.13,49764.02,133.87,206.98,0.467318,98.55,1
1338704,1,28439,0,48552,49603,48561.11,49763.7,-9.11,-160.7,0.467598,98.54,1
1338744,1,28479,0,48407,49408,48560.8,49762.99,-153.8,-354.99,0.467872,98.54,1
1338784,1,28519,0,48370,49396,48560.43,49762.26,-190.43,-366.26,0.468144,98.53,1
1338824,1,28559,0,48381,49436,48560.07,49761.61,-179.07,-325.61,0.468415,98.52,1
1338864,1,28599,0,48397,49483,48559.74,49761.05,-162.74,-278.05,0.468687,98.51,1
1338904,1,28639,0,48430,49563,48559.48,49760.66,-129.48,-197.66,0.46896,98.51,1
1338944,1,28679,0,48463,49603,48559.29,49760.34,-96.29,-157.34,0.469233,98.5,1
1338984,1,28719,0,48474,49598,48559.12,49760.02,-85.12,-162.02,0.469504,98.49,1
1339024,1,28759,0,48471,49598,48558.95,49759.7,-87.95,-161.7,0.469775,98.49,1
1339064,1,28799,0,48482,49641,48558.8,49759.46,-76.8,-118.46,0.470046,98.48,1
1339104,1,28839,0,48508,49702,48558.7,49759.35,-50.7,-57.35,0.470316,98.47,1
1339144,1,28879,0,48537,49770,48558.65,49759.37,-21.65,10.63,0.470586,98.46,1
1339184,1,28919,0,48566,49820,48558.67,49759.49,7.33,60.51,0.470854,98.46,1
1339224,1,28959,0,48592,49870,48558.73,49759.71,33.27,110.29,0.471121,98.45,1
1339264,1,28999,0,48610,49906,48558.84,49760.01,51.16,145.99,0.471385,98.44,1
1339304,1,29039,0,48630,49940,48558.98,49760.37,71.02,179.63,0.471647,98.44,1
1339345,1,29080,0,48635,49966,48559.14,49760.78,75.86,205.22,0.471906,98.43,1
1339385,1,29120,0,48651,50003,48559.32,49761.27,91.68,241.73,0.472161,98.42,1
1339425,1,29160,0,48669,50058,48559.54,49761.86,109.46,296.14,0.472409,98.41,1
1339465,1,29200,0,48687,50115,48559.8,49762.57,127.2,352.43,0.472649,98.41,1
1339505,1,29240,0,48706,50060,48560.09,49763.16,145.91,296.84,0.472886,98.4,1
1339545,1,29280,0,48627,49762,48560.23,49763.16,66.77,-1.16,0.473125,98.39,1
1339585,1,29320,0,48473,49502,48560.05,49762.64,-87.05,-260.64,0.473358,98.39,1
1339625,1,29360,0,48405,49460,48559.75,49762.04,-154.75,-302.04,0.473589,98.38,1
1339665,1,29400,0,48416,49507,48559.46,49761.53,-143.46,-254.53,0.473821,98.37,1
1339705,1,29440,0,48439,49562,48559.22,49761.13,-120.22,-199.13,0.474053,98.37,1
1339745,1,29480,0,48476,49638,48559.06,49760.89,-83.06,-122.89,0.474285,98.36,1
1339785,1,29520,0,48512,49691,48558.96,49760.75,-46.96,-69.75,0.474517,98.35,1
1339825,1,29560,0,48516,49681,48558.88,49760.59,-42.88,-79.59,0.474748,98.35,1
1339865,1,29600,0,48506,49665,48558.77,49760.4,-52.77,-95.4,0.474979,98.34,1
1339905,1,29640,0,48515,49738,48558.69,49760.36,-43.69,-22.36,0.475209,98.33,1
1339945,1,29680,0,48538,49759,48558.65,49760.36,-20.65,-1.36,0.475439,98.33,1
1339985,1,29720,0,48563,49826,48558.66,49760.49,4.34,65.51,0.475668,98.32,1
1340025,1,29760,0,48597,49886,48558.74,49760.74,38.26,125.26,0.475895,98.31,1
1340066,1,29801,0,48620,50265,48558.86,49761.75,61.14,503.25,0.476093,98.31,1
1340106,1,29841,0,48641,50398,48559.03,49763.03,81.97,634.97,0.476247,98.3,1
1340146,1,29881,0,48652,50005,48559.21,49763.51,92.79,241.49,0.476398,98.29,1
1340186,1,29921,0,48662,50039,48559.42,49764.06,102.58,274.94,0.476545,98.29,1
1340226,1,29961,0,48684,50082,48559.67,49764.7,124.33,317.3,0.476687,98.28,1
1340266,1,30001,1,48708,49928,48559.97,49765.03,148.03,162.97,0.476835,98.28,1
1340306,1,30041,1,48727,49815,48560.3,49765.13,166.7,49.87,0.476993,98.27,1
1340346,1,30081,1,48677,49881,48560.54,49765.36,116.46,115.64,0.477156,98.26,1
1340386,1,30121,1,48520,49573,48560.46,49764.98,-40.46,-191.98,0.477314,98.26,1
1340426,1,30161,1,48423,49470,48560.19,49764.39,-137.19,-294.39,0.47747,98.25,1
1340466,1,30201,1,48421,49504,48559.91,49763.87,-138.91,-259.87,0.477626,98.25,1
1340506,1,30241,1,48442,49545,48559.68,49763.43,-117.68,-218.43,0.477782,98.24,1
1340546,1,30281,1,48463,49612,48559.48,49763.13,-96.48,-151.13,0.477939,98.24,1
1340586,1,30321,1,48498,49684,48559.36,49762.98,-61.36,-78.98,0.478096,98.23,1
1340626,1,30361,1,48519,49697,48559.29,49762.85,-40.29,-65.85,0.478253,98.22,1
1340666,1,30401,1,48519,49686,48559.21,49762.7,-40.21,-76.7,0.478409,98.22,1
1340706,1,30441,1,48514,49699,48559.12,49762.57,-45.12,-63.57,0.478566,98.21,1
1340746,1,30481,1,48528,49753,48559.05,49762.55,-31.05,-9.55,0.478722,98.21,1
1340786,1,30521,1,48694,49822,48559.32,49762.67,134.68,59.33,0.478886,98.2,1
1340827,1,30562,1,48801,49891,48559.81,49762.93,241.19,128.07,0.479073,98.2,1
1340867,1,30602,1,48620,49953,48559.93,49763.31,60.07,189.69,0.479256,98.19,1
1340907,1,30642,1,48649,50003,48560.11,49763.79,88.89,239.21,0.479435,98.19,1
1340947,1,30682,1,48666,50046,48560.32,49764.36,105.68,281.64,0.479609,98.18,1
1340987,1,30722,1,48664,50079,48560.53,49764.99,103.47,314.01,0.479776,98.18,1
1341027,1,30762,1,48615,50117,48560.64,49765.7,54.36,351.3,0.479928,98.17,1
1341067,1,30802,1,48720,50163,48560.96,49766.49,159.04,396.51,0.480072,98.17,1
1341107,1,30842,1,48741,50223,48561.32,49767.41,179.68,455.59,0.480206,98.16,1
1341147,1,30882,1,48761,50208,48561.73,49768.29,199.27,439.71,0.480336,98.16,1
1341187,1,30922,1,48420,49925,48561.45,49768.61,-141.45,156.39,0.48047,98.15,1
1341227,1,30962,1,48185,49585,48560.7,49768.24,-375.7,-183.24,0.48066,98.15,1
1341267,1,31002,1,48421,49455,48560.42,49767.61,-139.42,-312.61,0.480846,98.14,1
1341307,1,31042,1,48404,49461,48560.11,49767,-156.11,-306,0.481031,98.14,1
1341347,1,31082,1,48414,49489,48559.82,49766.45,-145.82,-277.45,0.481215,98.13,1
1341387,1,31122,1,48428,49539,48559.55,49765.99,-131.55,-226.99,0.4814,98.13,1
1341427,1,31162,1,48460,49594,48559.36,49765.65,-99.36,-171.65,0.481585,98.12,1
1341467,1,31202,1,48473,49592,48559.18,49765.3,-86.18,-173.3,0.481769,98.12,1
1341507,1,31242,1,48460,49547,48558.99,49764.87,-98.99,-217.87,0.481951,98.11,1
1341547,1,31282,1,48442,49554,48558.75,49764.45,-116.75,-210.45,0.482133,98.11,1
1341587,1,31322,1,48470,49673,48558.58,49764.27,-88.58,-91.27,0.482316,98.1,1
1341628,1,31363,1,48534,49822,48558.53,49764.38,-24.53,57.62,0.482499,98.1,1
1341668,1,31403,1,48605,49953,48558.62,49764.76,46.38,188.24,0.482678,98.09,1
1341708,1,31443,1,48654,50039,48558.82,49765.31,95.18,273.69,0.482852,98.09,1
1341748,1,31483,1,48682,50093,48559.06,49765.97,122.94,327.03,0.483018,98.08,1
1341788,1,31523,1,48697,50114,48559.34,49766.67,137.66,347.33,0.483178,98.08,1
1341828,1,31563,1,48707,50129,48559.64,49767.39,147.36,361.61,0.483331,98.07,1
1341868,1,31603,1,48715,50151,48559.95,49768.16,155.05,382.84,0.483478,98.07,1
1341908,1,31643,1,48724,50174,48560.28,49768.98,163.72,405.02,0.483616,98.06,1
1341948,1,31683,1,48736,50177,48560.63,49769.79,175.37,407.21,0.483749,98.06,1
1341988,1,31723,1,48730,50128,48560.97,49770.51,169.03,357.49,0.483879,98.05,1
1342028,1,31763,1,48687,49947,48561.22,49770.87,125.78,176.13,0.484011,98.05,1
1342068,1,31803,1,48555,49623,48561.21,49770.57,-6.21,-147.57,0.484141,98.04,1
1342108,1,31843,1,48426,49456,48560.94,49769.95,-134.94,-313.95,0.484267,98.04,1
1342148,1,31883,1,48391,49464,48560.6,49769.34,-169.6,-305.34,0.484395,98.03,1
1342188,1,31923,1,48422,49526,48560.32,49768.85,-138.32,-242.85,0.484524,98.03,1
1342228,1,31963,1,48448,49593,48560.1,49768.5,-112.1,-175.5,0.484654,98.03,1
1342268,1,32003,1,48482,49680,48559.95,49768.32,-77.95,-88.32,0.484785,98.02,1
1342308,1,32043,1,48520,49752,48559.87,49768.29,-39.87,-16.29,0.484917,98.02,1
1342348,1,32083,1,48538,49754,48559.82,49768.27,-21.82,-14.27,0.485048,98.01,1
1342389,1,32124,1,48535,49729,48559.78,49768.19,-24.78,-39.19,0.485179,98.01,1
1342429,1,32164,1,48519,49715,48559.7,49768.08,-40.7,-53.08,0.48531,98,1
1342469,1,32204,1,48513,49711,48559.6,49767.97,-46.6,-56.97,0.485442,98,1
1342509,1,32244,1,48509,49715,48559.5,49767.86,-50.5,-52.86,0.485574,98,1
1342549,1,32284,1,48522,49750,48559.43,49767.83,-37.43,-17.83,0.485705,97.99,1
1342589,1,32324,1,48550,49829,48559.41,49767.95,-9.41,61.05,0.485837,97.99,1
1342629,1,32364,1,48588,49922,48559.46,49768.26,28.54,153.74,0.485965,97.98,1
1342669,1,32404,1,48623,49976,48559.59,49768.68,63.41,207.32,0.486089,97.98,1
1342709,1,32444,1,48648,50022,48559.77,49769.19,88.23,252.81,0.486209,97.98,1
1342749,1,32484,1,48679,50079,48560.01,49769.81,118.99,309.19,0.486323,97.97,1
1342789,1,32524,1,48707,50140,48560.31,49770.55,146.69,369.45,0.486431,97.97,1
1342829,1,32564,1,48724,50106,48560.64,49771.22,163.36,334.78,0.486537,97.96,1
1342869,1,32604,1,48645,49815,48560.81,49771.31,84.19,43.69,0.486646,97.96,1
1342909,1,32644,1,48492,49528,48560.67,49770.83,-68.67,-242.83,0.48675,97.96,1
1342949,1,32684,1,48400,49432,48560.35,49770.15,-160.35,-338.15,0.486851,97.95,1
1342989,1,32724,1,48394,49467,48560.02,49769.55,-166.02,-302.55,0.486954,97.95,1
1343029,1,32764,1,48412,49527,48559.73,49769.06,-147.73,-242.06,0.48706,97.94,1
1343069,1,32804,1,48453,49618,48559.52,49768.76,-106.52,-150.76,0.487168,97.94,1
1343110,1,32845,1,48485,49665,48559.37,49768.55,-74.37,-103.55,0.487277,97.94,1
1343150,1,32885,1,48489,49642,48559.23,49768.3,-70.23,-126.3,0.487385,97.93,1
1343190,1,32925,1,48468,49601,48559.05,49767.97,-91.05,-166.97,0.487495,97.93,1
1343230,1,32965,1,48458,49616,48558.85,49767.67,-100.85,-151.67,0.487605,97.93,1
1343270,1,33005,1,48476,49671,48558.68,49767.48,-82.68,-96.48,0.487718,97.92,1
1343310,1,33045,1,48508,49727,48558.58,49767.4,-50.58,-40.4,0.487831,97.92,1
1343350,1,33085,1,48530,49759,48558.53,49767.39,-28.53,-8.39,0.487944,97.92,1
1343390,1,33125,1,48534,49760,48558.48,49767.37,-24.48,-7.37,0.488057,97.91,1
1343430,1,33165,1,48539,49759,48558.44,49767.36,-19.44,-8.36,0.48817,97.91,1
1343470,1,33205,1,48547,49896,48558.42,49767.62,-11.42,128.38,0.48828,97.91,1
1343510,1,33245,1,48562,50037,48558.43,49768.16,3.57,268.84,0.488381,97.9,1
1343550,1,33285,1,48582,49846,48558.47,49768.31,23.53,77.69,0.488481,97.9,1
1343590,1,33325,1,48548,49639,48558.45,49768.05,-10.45,-129.05,0.488579,97.89,1
1343630,1,33365,1,48408,49338,48558.15,49767.2,-150.15,-429.2,0.488663,97.89,1
1343670,1,33405,1,48305,49227,48557.65,49766.12,-252.65,-539.12,0.488743,97.89,1
1343710,1,33445,1,48296,49178,48557.12,49764.94,-261.12,-586.94,0.488813,97.89,1
1343750,1,33485,1,48317,49319,48556.64,49764.05,-239.64,-445.05,0.488887,97.88,1
1343790,1,33525,1,48340,49366,48556.21,49763.26,-216.21,-397.26,0.488964,97.88,1
1343831,1,33566,1,48362,49403,48555.82,49762.54,-193.82,-359.54,0.489043,97.88,1
1343871,1,33606,1,48365,48953,48555.45,49760.92,-190.45,-807.92,0.489068,97.87,1
1343911,1,33646,1,48347,48818,48555.03,49759.04,-208.03,-941.04,0.489028,97.87,1
1343951,1,33686,1,48338,49379,48554.6,49758.28,-216.6,-379.28,0.488994,97.87,1
1343991,1,33726,1,48369,49458,48554.23,49757.68,-185.23,-299.68,0.488967,97.86,1
1344031,1,33766,1,48414,49541,48553.95,49757.25,-139.95,-216.25,0.488943,97.86,1
1344071,1,33806,1,48445,49607,48553.73,49756.95,-108.73,-149.95,0.488922,97.86,1
1344111,1,33846,1,48466,49645,48553.56,49756.73,-87.56,-111.73,0.488902,97.86,1
1344151,1,33886,1,48484,49661,48553.42,49756.54,-69.42,-95.54,0.488885,97.85,1
1344191,1,33926,1,48524,49692,48553.36,49756.41,-29.36,-64.41,0.488867,97.85,1
1344231,1,33966,1,48606,49702,48553.47,49756.3,52.53,-54.3,0.48885,97.85,1
1344271,1,34006,1,48493,49536,48553.35,49755.86,-60.35,-219.86,0.48883,97.85,1
1344311,1,34046,1,48350,49207,48552.94,49754.76,-202.94,-547.76,0.4888,97.85,1
1344351,1,34086,1,48224,49071,48552.29,49753.39,-328.29,-682.39,0.488772,97.84,1
1344391,1,34126,1,48484,49078,48552.15,49752.05,-68.15,-674.05,0.488709,97.84,1
1344431,1,34166,1,48222,49131,48551.49,49750.8,-329.49,-619.8,0.488657,97.84,1
1344471,1,34206,1,48252,49243,48550.89,49749.79,-298.89,-506.79,0.488617,97.84,1
1344511,1,34246,1,48308,49339,48550.41,49748.97,-242.41,-409.97,0.488585,97.84,1
1344552,1,34287,1,48341,49363,48549.99,49748.2,-208.99,-385.2,0.488558,97.84,1
1344592,1,34327,1,48135,49329,48549.16,49747.36,-414.16,-418.36,0.488575,97.83,1
1344632,1,34367,1,48045,49311,48548.15,49746.49,-503.15,-435.49,0.48866,97.83,1
1344672,1,34407,1,48302,49324,48547.66,49745.65,-245.66,-421.65,0.488749,97.83,1
1344712,1,34447,1,48320,49348,48547.21,49744.86,-227.21,-396.86,0.488842,97.83,1
1344752,1,34487,1,48332,49378,48546.78,49744.12,-214.78,-366.12,0.488938,97.83,1
1344792,1,34527,1,48343,49430,48546.37,49743.5,-203.37,-313.5,0.489038,97.83,1
1344832,1,34567,1,48371,49502,48546.02,49743.02,-175.02,-241.02,0.489143,97.82,1
1344872,1,34607,1,48414,49595,48545.76,49742.72,-131.76,-147.72,0.489252,97.82,1
1344912,1,34647,1,48451,49665,48545.57,49742.57,-94.57,-77.57,0.489362,97.82,1
1344952,1,34687,1,48467,49559,48545.42,49742.2,-78.42,-183.2,0.489471,97.82,1
1344992,1,34727,1,48359,49315,48545.05,49741.35,-186.05,-426.35,0.489575,97.82,1
1345032,1,34767,1,48261,49196,48544.48,49740.26,-283.48,-544.26,0.489681,97.82,1
1345072,1,34807,1,48236,49185,48543.86,49739.15,-307.86,-554.15,0.48979,97.81,1
1345112,1,34847,1,48243,49210,48543.26,49738.09,-300.26,-528.09,0.489903,97.81,1
1345152,1,34887,1,48251,49240,48542.68,49737.1,-291.68,-497.1,0.490022,97.81,1
1345192,1,34927,1,48256,49245,48542.11,49736.11,-286.11,-491.11,0.490145,97.81,1
1345232,1,34967,1,48258,49258,48541.54,49735.16,-283.54,-477.16,0.490274,97.81,1
1345273,1,35008,1,48273,49304,48541.01,49734.3,-268.01,-430.3,0.490408,97.8,1
1345313,1,35048,1,48296,49361,48540.52,49733.55,-244.52,-372.55,0.490547,97.8,1
1345353,1,35088,1,48318,49427,48540.07,49732.94,-222.07,-305.94,0.490693,97.8,1
1345393,1,35128,1,48341,49477,48539.68,49732.43,-198.68,-255.43,0.490844,97.8,1
1345433,1,35168,1,48359,49511,48539.32,49731.99,-180.32,-220.99,0.491,97.8,1
1345473,1,35208,1,48379,49546,48539,49731.62,-160,-185.62,0.491159,97.79,1
1345513,1,35248,1,48384,49563,48538.69,49731.28,-154.69,-168.28,0.491323,97.79,1
1345553,1,35288,1,48390,49598,48538.39,49731.02,-148.39,-133.02,0.49149,97.79,1
1345593,1,35328,1,48409,49635,48538.13,49730.82,-129.13,-95.82,0.491661,97.79,1
1345633,1,35368,1,48422,49643,48537.9,49730.65,-115.9,-87.65,0.491835,97.78,1
1345673,1,35408,1,48418,49628,48537.66,49730.45,-119.66,-102.45,0.492012,97.78,1
1345713,1,35448,1,48413,49648,48537.41,49730.28,-124.41,-82.28,0.492192,97.78,1
1345753,1,35488,1,48427,49693,48537.2,49730.21,-110.2,-37.21,0.492374,97.78,1
1345793,1,35528,1,48451,49752,48537.02,49730.25,-86.02,21.75,0.492558,97.77,1
1345833,1,35568,1,48472,49811,48536.89,49730.41,-64.89,80.59,0.492743,97.77,1
1345873,1,35608,1,48494,49856,48536.81,49730.67,-42.81,125.33,0.492926,97.77,1
1345913,1,35648,1,48504,49885,48536.75,49730.98,-32.75,154.02,0.493106,97.77,1
1345953,1,35688,1,48517,49919,48536.71,49731.36,-19.71,187.64,0.493284,97.76,1
1345994,1,35729,1,48529,49951,48536.69,49731.8,-7.69,219.2,0.493456,97.76,1
1346034,1,35769,1,48537,49970,48536.69,49732.27,0.31,237.73,0.493623,97.76,1
1346074,1,35809,1,48535,49994,48536.69,49732.8,-1.69,261.2,0.493784,97.75,1
1346114,1,35849,1,48547,50024,48536.71,49733.38,10.29,290.62,0.493936,97.75,1
1346154,1,35889,1,48554,50027,48536.75,49733.97,17.25,293.03,0.494081,97.75,1
1346194,1,35929,1,48551,50018,48536.78,49734.54,14.22,283.46,0.494219,97.74,1
1346234,1,35969,1,48546,50048,48536.8,49735.17,9.2,312.83,0.494348,97.74,1
1346274,1,36009,1,48562,50108,48536.85,49735.91,25.15,372.09,0.494464,97.74,1
1346314,1,36049,1,48584,50154,48536.94,49736.75,47.06,417.25,0.494567,97.73,1
1346354,1,36089,1,48608,50187,48537.09,49737.65,70.91,449.35,0.494653,97.73,1
1346394,1,36129,1,48622,50224,48537.26,49738.62,84.74,485.37,0.494723,97.73,1
1346434,1,36169,1,48635,50258,48537.45,49739.66,97.55,518.34,0.494774,97.73,1
1346474,1,36209,1,48639,50274,48537.66,49740.73,101.34,533.27,0.494807,97.72,1
1346514,1,36249,1,48647,50282,48537.87,49741.82,109.12,540.18,0.494822,97.72,1
1346554,1,36289,1,48647,50279,48538.09,49742.89,108.91,536.11,0.494819,97.72,1
1346594,1,36329,1,48639,50270,48538.3,49743.95,100.7,526.05,0.4948,97.71,1
1346634,1,36369,1,48626,50254,48538.47,49744.96,87.53,509.04,0.494766,97.71,1
1346674,1,36409,1,48618,50264,48538.63,49746,79.37,518,0.494716,97.71,1
1346714,1,36449,1,48622,50290,48538.8,49747.09,83.2,542.91,0.494649,97.71,1
1346755,1,36490,1,48634,50328,48538.99,49748.26,95.01,579.74,0.494564,97.71,1
1346795,1,36530,1,48645,50370,48539.21,49749.5,105.79,620.5,0.494459,97.7,1
1346835,1,36570,1,48654,50391,48539.44,49750.79,114.56,640.21,0.494335,97.7,1
1346875,1,36610,1,48658,50412,48539.68,49752.11,118.32,659.89,0.494191,97.7,1
1346915,1,36650,1,48666,50630,48539.93,49753.87,126.07,876.13,0.494011,97.7,1
1346955,1,36690,1,48665,50635,48540.18,49755.63,124.82,879.37,0.493798,97.7,1
1346995,1,36730,1,48659,50422,48540.42,49756.97,118.58,665.03,0.493569,97.7,1
1347035,1,36770,1,48656,50402,48540.65,49758.26,115.35,643.74,0.493326,97.7,1
1347075,1,36810,1,48643,50383,48540.86,49759.51,102.14,623.49,0.49307,97.69,1
1347115,1,36850,1,48638,50281,48541.05,49760.55,96.95,520.45,0.492806,97.69,1
1347155,1,36890,1,48633,50265,48541.23,49761.57,91.77,503.43,0.492534,97.69,1
1347195,1,36930,1,48636,50417,48541.43,49762.88,94.57,654.12,0.492248,97.69,1
1347235,1,36970,1,48648,50450,48541.64,49764.25,106.36,685.75,0.491947,97.69,1
1347275,1,37010,1,48664,50483,48541.89,49765.69,122.11,717.31,0.491632,97.69,1
1347315,1,37050,1,48672,49964,48542.15,49766.09,129.85,197.91,0.49132,97.7,1
1347355,1,37090,1,48677,50516,48542.42,49767.59,134.58,748.41,0.490993,97.7,1
1347395,1,37130,1,48671,50519,48542.68,49769.09,128.32,749.91,0.490652,97.7,1
1347435,1,37170,1,48675,50532,48542.94,49770.62,132.06,761.38,0.490296,97.7,1
1347476,1,37211,1,48672,50526,48543.2,49772.13,128.8,753.87,0.489927,97.7,1
1347516,1,37251,1,48662,50496,48543.44,49773.58,118.56,722.42,0.489546,97.7,1
1347556,1,37291,1,48639,50479,48543.63,49775,95.37,704,0.489153,97.7,1
1347596,1,37331,1,48634,50491,48543.81,49776.43,90.19,714.57,0.488748,97.71,1
1347636,1,37371,1,48726,50507,48544.18,49777.89,181.82,729.11,0.488336,97.71,1
1347676,1,37411,1,48864,50523,48544.82,49779.38,319.18,743.62,0.487935,97.71,1
1347716,1,37451,1,48641,50531,48545.02,49780.89,95.98,750.11,0.487522,97.71,1
1347756,1,37491,1,48646,50561,48545.22,49782.45,100.78,778.55,0.487095,97.72,1
1347796,1,37531,1,48654,50567,48545.44,49784.02,108.56,782.98,0.486657,97.72,1
1347836,1,37571,1,48997,50555,48546.34,49785.56,450.66,769.44,0.486251,97.73,1
1347876,1,37611,1,48573,50543,48546.4,49787.08,26.6,755.92,0.485832,97.73,1
1347916,1,37651,1,48643,50540,48546.59,49788.59,96.41,751.41,0.485401,97.73,1
1347956,1,37691,1,48635,50541,48546.77,49790.09,88.23,750.91,0.484961,97.74,1
1347996,1,37731,1,48635,50545,48546.95,49791.61,88.05,753.39,0.48451,97.74,1
1348036,1,37771,1,48381,50545,48546.62,49793.11,-165.62,751.89,0.484054,97.75,1
1348076,1,37811,1,48071,50547,48545.67,49794.62,-474.67,752.38,0.483633,97.75,1
1348116,1,37851,1,48629,50563,48545.84,49796.16,83.16,766.84,0.483202,97.76,1
1348156,1,37891,1,48628,50578,48546,49797.73,82,780.27,0.482759,97.76,1
1348197,1,37932,2,48632,50594,48546.17,49799.32,85.83,794.68,0.482307,97.77,1
1348237,1,37972,2,48635,50603,48546.35,49800.93,88.65,802.07,0.481844,97.77,1
1348277,1,38012,2,48630,50599,48546.52,49802.53,83.48,796.47,0.48137,97.78,1
1348317,1,38052,2,48623,50599,48546.67,49804.12,76.33,794.88,0.480887,97.78,1
1348357,1,38092,2,48622,50596,48546.82,49805.71,75.18,790.29,0.480395,97.79,1
1348397,1,38132,2,48620,50599,48546.97,49807.29,73.03,791.71,0.479893,97.8,1
1348437,1,38172,2,48619,50606,48547.12,49808.89,71.88,797.11,0.479383,97.8,1
1348477,1,38212,2,48616,50610,48547.26,49810.49,68.74,799.51,0.478863,97.81,1
1348517,1,38252,2,48612,50601,48547.39,49812.07,64.61,788.93,0.478335,97.82,1
1348557,1,38292,2,48612,50595,48547.52,49813.64,64.48,781.36,0.4778,97.82,1
1348597,1,38332,2,48608,50591,48547.64,49815.2,60.36,775.8,0.477256,97.83,1
1348637,1,38372,2,48600,50589,48547.74,49816.75,52.26,772.25,0.476706,97.84,1
1348677,1,38412,2,48595,50586,48547.84,49818.29,47.16,767.71,0.476148,97.85,1
1348717,1,38452,2,48595,50592,48547.93,49819.83,47.07,772.17,0.475583,97.85,1
1348757,1,38492,2,48592,50591,48548.02,49821.37,43.98,769.62,0.475011,97.86,1
1348797,1,38532,2,48586,50595,48548.1,49822.92,37.9,772.08,0.474432,97.87,1
1348837,1,38572,2,48583,50598,48548.17,49824.47,34.83,773.53,0.473847,97.88,1
1348877,1,38612,2,48582,50596,48548.24,49826.02,33.76,769.98,0.473255,97.89,1
1348918,1,38653,2,48573,50587,48548.29,49827.54,24.71,759.46,0.472657,97.9,1
1348958,1,38693,2,48568,50584,48548.33,49829.05,19.67,754.95,0.472053,97.91,1
1348998,1,38733,2,48562,50589,48548.36,49830.57,13.64,758.43,0.471443,97.92,1
1349038,1,38773,2,48553,50586,48548.37,49832.09,4.63,753.91,0.470828,97.93,1
1349078,1,38813,2,48548,50588,48548.37,49833.6,-0.37,754.4,0.470207,97.93,1
1349118,1,38853,2,48552,50586,48548.38,49835.11,3.62,750.89,0.469581,97.94,1
1349158,1,38893,2,48548,50590,48548.38,49836.62,-0.38,753.38,0.468949,97.95,1
1349198,1,38933,2,48545,50599,48548.37,49838.14,-3.37,760.86,0.468312,97.96,1
1349238,1,38973,2,48549,50604,48548.38,49839.68,0.62,764.32,0.467671,97.97,1
1349278,1,39013,2,48550,50608,48548.38,49841.21,1.62,766.79,0.467024,97.99,1
1349318,1,39053,2,48553,50614,48548.39,49842.76,4.61,771.24,0.466372,98,1
1349358,1,39093,2,48548,50621,48548.39,49844.32,-0.39,776.68,0.465715,98.01,1
1349398,1,39133,2,48550,50629,48548.4,49845.89,1.6,783.11,0.465054,98.02,1
1349438,1,39173,2,48550,50626,48548.4,49847.45,1.6,778.55,0.464387,98.03,1
1349478,1,39213,2,48549,50626,48548.41,49849.01,0.59,776.99,0.463716,98.04,1
1349518,1,39253,2,48542,50626,48548.39,49850.57,-6.39,775.43,0.463041,98.05,1
1349558,1,39293,2,48536,50632,48548.37,49852.13,-12.37,779.87,0.462361,98.06,1
1349598,1,39333,2,48535,50635,48548.34,49853.7,-13.34,781.3,0.461677,98.08,1
1349639,1,39374,2,48530,50630,48548.31,49855.25,-18.31,774.75,0.46099,98.09,1
1349679,1,39414,2,48528,50633,48548.27,49856.81,-20.27,776.19,0.460298,98.1,1
1349719,1,39454,2,48522,50633,48548.22,49858.36,-26.22,774.64,0.459602,98.11,1
1349759,1,39494,2,48513,50629,48548.15,49859.91,-35.15,769.09,0.458904,98.12,1
1349799,1,39534,2,48507,50625,48548.07,49861.44,-41.07,763.56,0.458202,98.14,1
1349839,1,39574,2,48509,50630,48547.99,49862.98,-38.99,767.02,0.457497,98.15,1
1349879,1,39614,2,48503,50635,48547.9,49864.52,-44.9,770.48,0.456789,98.16,1
1349919,1,39654,2,48504,50641,48547.81,49866.08,-43.81,774.92,0.456078,98.18,1
1349959,1,39694,2,48503,50645,48547.72,49867.64,-44.72,777.36,0.455364,98.19,1
1349999,1,39734,2,48507,50646,48547.64,49869.2,-40.64,776.8,0.454647,98.2,1
1350039,1,39774,2,48507,50648,48547.56,49870.75,-40.56,777.25,0.453927,98.22,1
1350079,1,39814,2,48501,50653,48547.47,49872.32,-46.47,780.68,0.453205,98.23,1
1350119,1,39854,2,48503,50660,48547.38,49873.9,-44.38,786.1,0.45248,98.24,1
1350159,1,39894,2,48501,50655,48547.29,49875.46,-46.29,779.54,0.451752,98.26,1
1350199,1,39934,2,48499,50648,48547.2,49877.01,-48.2,770.99,0.451022,98.27,1
1350239,1,39974,2,48489,50644,48547.09,49878.54,-58.09,765.46,0.450291,98.29,1
1350279,1,40014,2,48480,50637,48546.95,49880.06,-66.95,756.94,0.449557,98.3,1
1350319,1,40054,2,48474,50854,48546.81,49882.01,-72.81,971.99,0.44882,98.31,1
1350360,1,40095,2,48468,50863,48546.65,49883.98,-78.65,979.02,0.448078,98.33,1
1350400,1,40135,2,48462,50624,48546.48,49885.46,-84.48,738.54,0.447336,98.34,1
1350440,1,40175,2,48455,50622,48546.3,49886.93,-91.3,735.07,0.447336,98.34,0
1350480,1,40215,2,48447,50627,48546.1,49888.41,-99.1,738.59,0.447336,98.34,0
1350520,1,40255,2,48444,50538,48545.9,49889.71,-101.9,648.29,0.447336,98.34,0
1350560,1,40295,2,48443,50495,48545.7,49890.92,-102.7,604.08,0.447336,98.34,0
1350600,1,40335,2,48438,50624,48545.48,49892.39,-107.48,731.61,0.447336,98.34,0
1350640,1,40375,2,48432,50628,48545.25,49893.86,-113.25,734.14,0.447336,98.34,0
1350680,1,40415,2,48430,50634,48545.02,49895.34,-115.02,738.66,0.447336,98.34,0
1350720,1,40455,2,48438,50073,48544.81,49895.7,-106.81,177.3,0.447336,98.34,0
1350760,1,40495,2,48432,50631,48544.59,49897.17,-112.59,733.83,0.447336,98.34,0
1350800,1,40535,2,48431,50627,48544.36,49898.63,-113.36,728.37,0.447336,98.34,0
1350840,1,40575,2,48426,50627,48544.13,49900.09,-118.13,726.91,0.447336,98.34,0
1350880,1,40615,2,48422,50626,48543.89,49901.54,-121.89,724.46,0.447336,98.34,0
1350920,1,40655,2,48420,50618,48543.64,49902.98,-123.64,715.02,0.447336,98.34,0
1350960,1,40695,2,48413,50610,48543.38,49904.39,-130.38,705.61,0.447336,98.34,0
1351000,1,40735,2,48400,50601,48543.09,49905.79,-143.09,695.21,0.447336,98.34,0
1351040,1,40775,2,48476,50598,48542.96,49907.17,-66.96,690.83,0.447336,98.34,0
1351080,1,40815,2,48607,50594,48543.09,49908.55,63.91,685.45,0.447336,98.34,0
1351121,1,40856,2,48379,50587,48542.76,49909.91,-163.76,677.09,0.447336,98.34,0
1351161,1,40896,2,48377,50586,48542.43,49911.26,-165.43,674.74,0.447336,98.34,0
1351201,1,40936,2,48367,50583,48542.08,49912.6,-175.08,670.4,0.447336,98.34,0
1351241,1,40976,2,48720,50582,48542.44,49913.94,177.56,668.06,0.447336,98.34,0
1351281,1,41016,2,48280,50581,48541.91,49915.28,-261.91,665.72,0.446598,98.36,1
1351321,1,41056,2,48357,50581,48541.55,49916.61,-184.55,664.39,0.445866,98.37,1
1351361,1,41096,2,48351,50583,48541.17,49917.95,-190.17,665.05,0.445139,98.39,1
1351401,1,41136,2,48351,50581,48540.79,49919.27,-189.79,661.73,0.444418,98.4,1
1351441,1,41176,2,48091,50581,48539.89,49920.6,-448.89,660.4,0.443732,98.42,1
1351481,1,41216,2,47787,50582,48538.39,49921.92,-751.39,660.08,0.44314,98.43,1
1351521,1,41256,2,48347,50576,48538,49923.23,-191,652.77,0.442551,98.45,1
1351561,1,41296,2,48339,50576,48537.61,49924.54,-198.61,651.46,0.441967,98.46,1
1351601,1,41336,2,48337,50572,48537.21,49925.84,-200.21,646.16,0.441386,98.48,1
1351641,1,41376,2,48332,50566,48536.8,49927.12,-204.8,638.88,0.440811,98.49,1
1351681,1,41416,2,48327,50557,48536.38,49928.38,-209.38,628.62,0.44024,98.51,1
1351721,1,41456,2,48314,50548,48535.93,49929.62,-221.93,618.38,0.439675,98.52,1
1351761,1,41496,2,48309,50548,48535.48,49930.86,-226.48,617.14,0.439116,98.54,1
1351801,1,41536,2,48302,50539,48535.02,49932.08,-233.02,606.92,0.438563,98.55,1
1351842,1,41577,2,48298,50537,48534.54,49933.29,-236.54,603.71,0.438018,98.57,1
1351882,1,41617,2,48286,50530,48534.05,49934.48,-248.05,595.52,0.437479,98.58,1
1351922,1,41657,2,48282,50527,48533.54,49935.67,-251.54,591.33,0.436949,98.6,1
1351962,1,41697,2,48270,50526,48533.02,49936.86,-263.02,589.14,0.436427,98.61,1
1352002,1,41737,2,48269,50527,48532.49,49938.04,-263.49,588.96,0.435914,98.63,1
1352042,1,41777,2,48269,50524,48531.96,49939.21,-262.96,584.79,0.435409,98.64,1
1352082,1,41817,2,48265,50529,48531.43,49940.39,-266.43,588.61,0.434913,98.66,1
1352122,1,41857,2,48260,50534,48530.89,49941.57,-270.89,592.43,0.434425,98.67,1
1352162,1,41897,2,48263,50536,48530.35,49942.77,-267.35,593.23,0.433945,98.69,1
1352202,1,41937,2,48263,50537,48529.82,49943.96,-266.82,593.04,0.433473,98.7,1
1352242,1,41977,2,48261,50530,48529.28,49945.13,-268.28,584.87,0.43301,98.71,1
1352282,1,42017,2,48258,50532,48528.74,49946.3,-270.74,585.7,0.432554,98.73,1
1352322,1,42057,2,48250,50529,48528.18,49947.47,-278.18,581.53,0.432108,98.74,1
1352362,1,42097,2,48241,50513,48527.61,49948.61,-286.61,564.39,0.43167,98.76,1
1352402,1,42137,2,48232,50507,48527.02,49949.72,-295.02,557.28,0.431243,98.77,1
1352442,1,42177,2,48226,50504,48526.42,49950.83,-300.42,553.17,0.430826,98.78,1
1352482,1,42217,2,48219,50500,48525.8,49951.93,-306.8,548.07,0.43042,98.8,1
1352522,1,42257,2,48216,50502,48525.19,49953.04,-309.19,548.96,0.430024,98.81,1
1352563,1,42298,2,48210,50491,48524.56,49954.11,-314.56,536.89,0.42964,98.82,1
1352603,1,42338,2,48200,50488,48523.91,49955.18,-323.91,532.82,0.429267,98.84,1
1352643,1,42378,2,48195,50489,48523.25,49956.25,-328.25,532.75,0.428906,98.85,1
1352683,1,42418,2,48186,50490,48522.58,49957.32,-336.58,532.68,0.428558,98.86,1
1352723,1,42458,2,48185,50490,48521.91,49958.39,-336.91,531.61,0.428222,98.88,1
1352763,1,42498,2,48188,50492,48521.24,49959.46,-333.24,532.54,0.427898,98.89,1
1352803,1,42538,2,48179,50495,48520.55,49960.54,-341.55,534.46,0.427586,98.9,1
1352843,1,42578,2,48180,50498,48519.87,49961.61,-339.87,536.39,0.427286,98.91,1
1352883,1,42618,2,48180,50496,48519.2,49962.68,-339.2,533.32,0.426998,98.93,1
1352923,1,42658,2,48179,50498,48518.52,49963.75,-339.52,534.25,0.426721,98.94,1
1352963,1,42698,2,48174,50494,48517.83,49964.82,-343.83,529.18,0.426456,98.95,1
1353003,1,42738,2,48172,50496,48517.14,49965.88,-345.14,530.12,0.426202,98.96,1
1353043,1,42778,2,48164,50489,48516.43,49966.93,-352.43,522.07,0.425961,98.97,1
1353083,1,42818,2,48159,50488,48515.72,49967.97,-356.72,520.03,0.425732,98.99,1
1353123,1,42858,2,48154,50481,48515,49969,-361,512,0.425515,99,1
1353163,1,42898,2,48149,50484,48514.27,49970.03,-365.27,513.97,0.425311,99.01,1
1353203,1,42938,2,48143,50486,48513.52,49971.06,-370.52,514.94,0.42512,99.02,1
1353243,1,42978,2,48138,50473,48512.77,49972.07,-374.77,500.93,0.424942,99.03,1
1353284,1,43019,2,48131,50468,48512.01,49973.06,-381.01,494.94,0.424778,99.04,1
1353324,1,43059,2,48123,50467,48511.23,49974.05,-388.23,492.95,0.424628,99.05,1
1353364,1,43099,2,48117,50467,48510.45,49975.04,-393.45,491.96,0.424492,99.06,1
1353404,1,43139,2,48114,50467,48509.65,49976.02,-395.65,490.98,0.424371,99.07,1
1353444,1,43179,2,48111,50466,48508.86,49977,-397.86,489,0.424264,99.08,1
1353484,1,43219,2,48107,50467,48508.05,49977.98,-401.05,489.02,0.424171,99.09,1
1353524,1,43259,2,48106,50471,48507.25,49978.97,-401.25,492.03,0.424092,99.1,1
1353564,1,43299,2,48100,50475,48506.44,49979.96,-406.44,495.04,0.424027,99.11,1
1353604,1,43339,2,48104,50532,48505.63,49981.07,-401.63,550.93,0.423975,99.12,1
1353644,1,43379,2,48102,50468,48504.83,49982.04,-402.83,485.96,0.423937,99.13,1
1353684,1,43419,2,48097,50467,48504.02,49983.02,-407.02,483.98,0.423912,99.13,1
1353724,1,43459,2,48088,50462,48503.18,49983.98,-415.18,478.02,0.423901,99.14,1
1353764,1,43499,2,48085,50740,48502.35,49985.49,-417.35,754.51,0.423899,99.15,1
1353804,1,43539,2,48079,50769,48501.5,49987.05,-422.5,781.95,0.423904,99.16,1
1353844,1,43579,2,48071,50447,48500.64,49987.98,-429.64,459.02,0.423925,99.16,1
1353884,1,43619,2,48064,50443,48499.77,49988.89,-435.77,454.11,0.423961,99.17,1
1353924,1,43659,2,48058,50435,48498.89,49989.78,-440.89,445.22,0.424013,99.18,1
1353965,1,43700,2,48050,50244,48497.99,49990.29,-447.99,253.71,0.424083,99.19,1
1354005,1,43740,2,48040,50186,48497.08,49990.68,-457.08,195.32,0.424174,99.19,1
1354045,1,43780,2,48034,50418,48496.15,49991.54,-462.15,426.46,0.424281,99.2,1
1354085,1,43820,2,48024,50421,48495.21,49992.4,-471.21,428.6,0.424407,99.2,1
1354125,1,43860,2,48024,50420,48494.27,49993.25,-470.27,426.75,0.42455,99.21,1
1354165,1,43900,2,48024,50416,48493.33,49994.1,-469.33,421.9,0.42471,99.21,1
1354205,1,43940,2,48017,50417,48492.38,49994.95,-475.38,422.05,0.424887,99.22,1
1354245,1,43980,2,48016,50421,48491.43,49995.8,-475.43,425.2,0.425082,99.22,1
1354285,1,44020,2,48011,50420,48490.46,49996.65,-479.46,423.35,0.425293,99.23,1
1354325,1,44060,2,48049,50422,48489.58,49997.5,-440.58,424.5,0.425519,99.23,1
1354365,1,44100,2,48014,50417,48488.63,49998.34,-474.63,418.66,0.425761,99.24,1
1354405,1,44140,2,48007,50412,48487.67,49999.17,-480.67,412.83,0.426019,99.24,1
1354445,1,44180,2,48001,50412,48486.7,50000,-485.7,412,0.426295,99.24,1
1354485,1,44220,2,48334,50404,48486.39,50000.81,-152.39,403.19,0.426568,99.25,1
1354525,1,44260,2,48432,50394,48486.29,50001.6,-54.29,392.4,0.426837,99.25,1
1354565,1,44300,2,47982,50394,48485.28,50002.38,-503.28,391.62,0.427126,99.25,1
1354605,1,44340,2,47973,50390,48484.25,50003.16,-511.25,386.84,0.427434,99.25,1
1354645,1,44380,2,47967,50382,48483.22,50003.92,-516.22,378.08,0.427761,99.25,1
1354686,1,44421,2,47722,50371,48481.7,50004.65,-759.7,366.35,0.428137,99.25,1
1354726,1,44461,2,47595,50366,48479.93,50005.37,-884.93,360.62,0.428576,99.26,1
1354766,1,44501,2,47943,50364,48478.85,50006.09,-535.85,357.91,0.429035,99.26,1
1354806,1,44541,2,47937,50349,48477.77,50006.78,-540.77,342.22,0.429514,99.26,1
1354846,1,44581,2,47929,50341,48476.67,50007.45,-547.67,333.55,0.430014,99.26,1
1354886,1,44621,2,47923,50336,48475.57,50008.11,-552.57,327.89,0.430535,99.26,1
1354926,1,44661,2,47918,50335,48474.45,50008.77,-556.45,326.23,0.431078,99.25,1
1354966,1,44701,2,47912,50335,48473.33,50009.42,-561.33,325.58,0.431642,99.25,1
1355006,1,44741,2,47910,50335,48472.2,50010.07,-562.2,324.93,0.432228,99.25,1
1355046,1,44781,2,47905,50327,48471.07,50010.71,-566.07,316.29,0.432835,99.25,1
1355086,1,44821,2,47903,50317,48469.93,50011.32,-566.93,305.68,0.433463,99.25,1
1355126,1,44861,2,47894,50310,48468.78,50011.92,-574.78,298.08,0.434114,99.24,1
1355166,1,44901,2,47884,50300,48467.61,50012.5,-583.61,287.5,0.434788,99.24,1
1355206,1,44941,2,47879,50288,48466.44,50013.05,-587.44,274.95,0.435485,99.24,1
1355246,1,44981,2,47873,50270,48465.25,50013.56,-592.25,256.44,0.436206,99.23,1
1355286,1,45021,2,47860,50263,48464.04,50014.06,-604.04,248.94,0.436951,99.23,1
1355326,1,45061,2,47849,50257,48462.81,50014.55,-613.81,242.45,0.437723,99.22,1
1355366,1,45101,2,47844,50249,48461.57,50015.02,-617.57,233.98,0.43852,99.22,1
1355407,1,45142,2,47839,50244,48460.33,50015.48,-621.33,228.52,0.439343,99.21,1
1355447,1,45182,2,47835,50237,48459.08,50015.93,-624.08,221.07,0.440192,99.2,1
1355487,1,45222,2,47821,50232,48457.8,50016.36,-636.8,215.64,0.441069,99.2,1
1355527,1,45262,2,47814,50223,48456.52,50016.77,-642.52,206.23,0.441973,99.19,1
1355567,1,45302,2,47805,50209,48455.22,50017.16,-650.22,191.84,0.442905,99.18,1
1355607,1,45342,2,47797,50191,48453.9,50017.51,-656.9,173.49,0.443867,99.17,1
1355647,1,45382,2,47791,50187,48452.58,50017.85,-661.58,169.15,0.444858,99.16,1
1355687,1,45422,2,47781,50188,48451.23,50018.19,-670.23,169.81,0.445878,99.16,1
1355727,1,45462,2,47781,50191,48449.89,50018.54,-668.89,172.46,0.446928,99.15,1
1355767,1,45502,2,47779,50188,48448.55,50018.87,-669.55,169.12,0.448008,99.14,1
1355807,1,45542,2,47781,50189,48447.22,50019.21,-666.22,169.79,0.449116,99.12,1
1355847,1,45582,2,47778,50197,48445.89,50019.57,-667.89,177.43,0.450252,99.11,1
1355887,1,45622,2,47772,50197,48444.54,50019.93,-672.54,177.07,0.451417,99.1,1
1355927,1,45662,2,47772,50191,48443.2,50020.27,-671.2,170.73,0.452611,99.09,1
1355967,1,45702,2,47769,50186,48441.85,50020.6,-672.85,165.4,0.453832,99.08,1
1356007,1,45742,2,47760,50177,48440.48,50020.91,-680.48,156.09,0.455083,99.06,1
1356047,1,45782,2,47752,50171,48439.11,50021.21,-687.11,149.79,0.456364,99.05,1
1356087,1,45822,2,47747,50169,48437.73,50021.51,-690.73,147.49,0.457675,99.03,1
1356128,1,45863,2,47741,50159,48436.34,50021.79,-695.34,137.21,0.459015,99.02,1
1356168,1,45903,2,47733,50155,48434.93,50022.06,-701.93,132.94,0.460386,99,1
1356208,1,45943,2,47725,50152,48433.51,50022.32,-708.51,129.68,0.461789,98.99,1
1356248,1,45983,2,47718,50149,48432.08,50022.57,-714.08,126.43,0.463223,98.97,1
1356288,1,46023,2,47713,50135,48430.64,50022.8,-717.64,112.2,0.464689,98.95,1
1356328,1,46063,2,47706,50129,48429.2,50023.02,-723.2,105.98,0.466187,98.93,1
1356368,1,46103,2,47699,50128,48427.73,50023.23,-728.73,104.77,0.467718,98.91,1
1356408,1,46143,2,47695,50132,48426.27,50023.45,-731.27,108.55,0.469282,98.89,1
1356448,1,46183,2,47694,50129,48424.8,50023.66,-730.8,105.34,0.470878,98.87,1
1356488,1,46223,2,47699,50126,48423.36,50023.86,-724.36,102.14,0.472506,98.85,1
1356528,1,46263,2,47692,50125,48421.89,50024.07,-729.89,100.93,0.474166,98.83,1
1356568,1,46303,2,47692,50129,48420.44,50024.28,-728.44,104.72,0.475857,98.81,1
1356608,1,46343,2,47688,50123,48418.97,50024.48,-730.97,98.52,0.47758,98.79,1
1356648,1,46383,2,47678,50117,48417.49,50024.66,-739.49,92.34,0.479336,98.77,1
1356688,1,46423,2,47672,50117,48416,50024.85,-744,92.15,0.481124,98.74,1
1356728,1,46463,2,47669,50117,48414.51,50025.04,-745.51,91.96,0.482946,98.72,1
1356768,1,46503,2,47666,50128,48413.02,50025.25,-747.02,102.75,0.484799,98.69,1
1356808,1,46543,2,47673,50137,48411.54,50025.47,-738.54,111.53,0.486685,98.67,1
1356848,1,46583,2,47671,50133,48410.05,50025.69,-739.05,107.31,0.488601,98.64,1
1356889,1,46624,2,47665,50135,48408.57,50025.91,-743.57,109.09,0.490549,98.61,1
1356929,1,46664,2,47663,50139,48407.08,50026.13,-744.08,112.87,0.492529,98.58,1
1356969,1,46704,2,47660,50187,48405.59,50026.46,-745.59,160.54,0.494539,98.56,1
1357009,1,46744,2,47664,50266,48404.11,50026.94,-740.11,239.06,0.496575,98.53,1
1357049,1,46784,2,47668,50179,48402.63,50027.24,-734.63,151.76,0.498641,98.5,1
1357089,1,46824,2,47671,50189,48401.17,50027.57,-730.17,161.43,0.500735,98.47,1
1357129,1,46864,2,47672,50188,48399.71,50027.89,-727.71,160.11,0.502856,98.44,1
1357169,1,46904,2,47670,50512,48398.26,50028.86,-728.26,483.14,0.504986,98.4,1
1357209,1,46944,2,47671,50177,48396.8,50029.15,-725.8,147.85,0.507143,98.37,1
1357249,1,46984,2,47670,50181,48395.35,50029.46,-725.35,151.54,0.509328,98.34,1
1357289,1,47024,2,47667,50183,48393.89,50029.77,-726.89,153.23,0.51154,98.3,1
1357329,1,47064,2,47658,50186,48392.43,50030.08,-734.43,155.92,0.51378,98.27,1
1357369,1,47104,2,47657,49944,48390.96,50029.91,-733.96,-85.91,0.516049,98.24,1
1357409,1,47144,2,47654,49890,48389.48,50029.63,-735.48,-139.63,0.518346,98.2,1
1357449,1,47184,2,47643,50162,48387.99,50029.89,-744.99,132.11,0.520672,98.16,1
1357489,1,47224,2,47633,50161,48386.48,50030.16,-753.48,130.84,0.523028,98.13,1
1357529,1,47264,2,47632,50159,48384.98,50030.41,-752.98,128.59,0.525415,98.09,1
1357570,1,47305,2,47625,50157,48383.46,50030.67,-758.46,126.33,0.527831,98.05,1
1357610,1,47345,2,47625,50162,48381.94,50030.93,-756.94,131.07,0.530278,98.01,1
1357650,1,47385,2,47621,50164,48380.42,50031.2,-759.42,132.8,0.532754,97.97,1
1357690,1,47425,2,47627,50181,48378.92,50031.5,-751.92,149.5,0.535259,97.93,1
1357730,1,47465,2,47727,50188,48377.62,50031.81,-650.62,156.19,0.537782,97.89,1
1357770,1,47505,2,47632,50200,48376.13,50032.15,-744.13,167.85,0.540333,97.85,1
1357810,1,47545,2,47632,50211,48374.64,50032.51,-742.64,178.49,0.542909,97.8,1
1357850,1,47585,2,47631,50216,48373.16,50032.87,-742.16,183.12,0.545512,97.76,1
1357890,1,47625,2,48050,50211,48372.51,50033.23,-322.51,177.77,0.548109,97.72,1
1357930,1,47665,2,47630,50204,48371.03,50033.58,-741.03,170.42,0.550733,97.67,1
1357970,1,47705,2,47625,50202,48369.54,50033.92,-744.54,168.08,0.553384,97.63,1
1358010,1,47745,2,47621,50196,48368.04,50034.24,-747.04,161.76,0.556062,97.58,1
1358050,1,47785,2,47611,50188,48366.53,50034.55,-755.53,153.45,0.558768,97.53,1
1358090,1,47825,2,47269,50174,48364.33,50034.83,-1095.33,139.17,0.561546,97.49,1
1358130,1,47865,2,47141,50170,48361.89,50035.11,-1220.89,134.89,0.564414,97.44,1
1358170,1,47905,2,47594,50164,48360.35,50035.36,-766.35,128.64,0.567311,97.39,1
1358210,1,47945,2,47588,50161,48358.81,50035.62,-770.81,125.38,0.570237,97.34,1
1358250,1,47985,2,47580,50164,48357.25,50035.87,-777.25,128.12,0.573192,97.29,1
1358291,1,48026,2,47584,50166,48355.71,50036.14,-771.71,129.86,0.576177,97.24,1
1358331,1,48066,2,47581,50167,48354.16,50036.4,-773.16,130.6,0.57919,97.19,1
1358371,1,48106,2,47571,50163,48352.59,50036.65,-781.59,126.35,0.582234,97.14,1
1358411,1,48146,2,47565,50155,48351.02,50036.89,-786.02,118.11,0.585308,97.08,1
1358451,1,48186,2,47562,50146,48349.44,50037.11,-787.44,108.89,0.588413,97.03,1
1358491,1,48226,2,47553,50139,48347.85,50037.31,-794.85,101.69,0.59155,96.98,1
1358531,1,48266,2,47547,50137,48346.25,50037.51,-799.25,99.49,0.594719,96.92,1
1358571,1,48306,2,47546,50134,48344.65,50037.71,-798.65,96.29,0.597921,96.86,1
1358611,1,48346,2,47548,50130,48343.06,50037.89,-795.06,92.11,0.601155,96.81,1
1358651,1,48386,2,47543,50130,48341.46,50038.08,-798.46,91.92,0.604422,96.75,1
1358691,1,48426,2,47543,50132,48339.87,50038.27,-796.87,93.73,0.60772,96.69,1
1358731,1,48466,2,47537,50135,48338.26,50038.46,-801.26,96.54,0.611051,96.63,1
1358771,1,48506,2,47536,50131,48336.66,50038.65,-800.66,92.35,0.614414,96.57,1
1358811,1,48546,2,47536,50137,48335.06,50038.85,-799.06,98.15,0.61781,96.51,1
1358851,1,48586,2,47533,50134,48333.46,50039.04,-800.46,94.96,0.621237,96.45,1
1358891,1,48626,2,47525,50134,48331.84,50039.23,-806.84,94.77,0.624698,96.39,1
1358931,1,48666,2,47525,50127,48330.23,50039.41,-805.23,87.59,0.628191,96.33,1
1358972,1,48707,2,47518,50128,48328.6,50039.59,-810.6,88.41,0.631717,96.26,1
1359012,1,48747,2,47514,50130,48326.97,50039.77,-812.97,90.23,0.635277,96.2,1
1359052,1,48787,2,47512,50140,48325.34,50039.97,-813.34,100.03,0.63887,96.13,1
1359092,1,48827,2,47511,50141,48323.71,50040.18,-812.71,100.82,0.642496,96.07,1
1359132,1,48867,2,47509,50143,48322.09,50040.38,-813.09,102.62,0.646155,96,1
1359172,1,48907,2,47510,50143,48320.46,50040.59,-810.46,102.41,0.649846,95.93,1
1359212,1,48947,2,47507,50149,48318.84,50040.81,-811.84,108.19,0.653569,95.86,1
1359252,1,48987,2,47505,50150,48317.21,50041.03,-812.21,108.97,0.657324,95.8,1
1359292,1,49027,2,47508,50149,48315.6,50041.25,-807.6,107.75,0.661112,95.73,1
1359332,1,49067,2,47506,50142,48313.98,50041.45,-807.98,100.55,0.664931,95.66,1
1359372,1,49107,2,47504,50139,48312.36,50041.64,-808.36,97.36,0.668782,95.58,1
1359412,1,49147,2,47502,50140,48310.74,50041.84,-808.74,98.16,0.672665,95.51,1
1359452,1,49187,2,47492,50135,48309.11,50042.03,-817.11,92.97,0.676582,95.44,1
1359492,1,49227,2,47491,50130,48307.47,50042.21,-816.47,87.79,0.680531,95.37,1
1359532,1,49267,2,47488,50129,48305.83,50042.38,-817.83,86.62,0.684515,95.29,1
1359572,1,49307,2,47480,50124,48304.18,50042.55,-824.18,81.45,0.688532,95.22,1
1359612,1,49347,2,47473,50120,48302.52,50042.7,-829.52,77.3,0.692585,95.14,1
1359652,1,49387,2,47466,50110,48300.85,50042.84,-834.85,67.16,0.696675,95.06,1
1359693,1,49428,2,47458,50102,48299.16,50042.96,-841.16,59.04,0.700801,94.99,1
1359733,1,49468,2,47455,50100,48297.48,50043.08,-842.48,56.92,0.704965,94.91,1
1359773,1,49508,2,47450,50102,48295.78,50043.2,-845.78,58.8,0.709166,94.83,1
1359813,1,49548,2,47445,50102,48294.08,50043.31,-849.08,58.69,0.713406,94.75,1
1359853,1,49588,2,47440,50097,48292.37,50043.42,-852.37,53.58,0.717684,94.67,1
1359893,1,49628,2,47442,50099,48290.68,50043.54,-848.68,55.46,0.722,94.59,1
1359933,1,49668,2,47440,50096,48288.98,50043.64,-848.98,52.36,0.726354,94.5,1
1359973,1,49708,2,47431,50100,48287.26,50043.75,-856.26,56.25,0.730747,94.42,1
1360013,1,49748,2,47433,50098,48285.55,50043.86,-852.55,54.14,0.735179,94.34,1
1360053,1,49788,2,47432,50094,48283.85,50043.96,-851.85,50.04,0.739649,94.25,1
1360093,1,49828,2,47431,50087,48282.14,50044.05,-851.14,42.95,0.744158,94.17,1
1360133,1,49868,2,47426,50091,48280.43,50044.14,-854.43,46.86,0.748706,94.08,1
1360173,1,49908,2,47423,50091,48278.72,50044.24,-855.72,46.76,0.753293,93.99,1
1360213,1,49948,2,47422,50087,48277.01,50044.32,-855.01,42.68,0.757918,93.9,1
1360253,1,49988,2,47422,50086,48275.3,50044.41,-853.3,41.59,0.762583,93.82,1
1360293,1,50028,2,47414,50075,48273.58,50044.47,-859.58,30.53,0.767288,93.73,1
1360333,1,50068,2,47404,50066,48271.84,50044.52,-867.84,21.48,0.772034,93.63,1
1360373,1,50108,2,47396,50063,48270.09,50044.55,-874.09,18.45,0.776821,93.54,1
1360413,1,50148,2,47391,50223,48268.33,50044.91,-877.33,178.09,0.78164,93.45,1
1360454,1,50189,2,47389,50405,48266.57,50045.64,-877.57,359.36,0.78645,93.36,1
1360494,1,50229,2,47385,50058,48264.81,50045.66,-879.81,12.34,0.791303,93.26,1
1360534,1,50269,2,47381,50061,48263.05,50045.7,-882.05,15.3,0.796199,93.17,1
1360574,1,50309,2,47377,50055,48261.28,50045.71,-884.28,9.29,0.801138,93.07,1
1360614,1,50349,2,47375,49986,48259.51,50045.6,-884.51,-59.6,0.806119,92.98,1
1360654,1,50389,2,47373,49812,48257.73,50045.13,-884.73,-233.13,0.811119,92.88,1
1360694,1,50429,2,47364,50053,48255.95,50045.15,-891.95,7.85,0.816164,92.78,1
1360734,1,50469,2,47366,50058,48254.17,50045.18,-888.17,12.82,0.821253,92.68,1
1360774,1,50509,2,47366,50049,48252.4,50045.18,-886.4,3.82,0.826385,92.58,1
1360814,1,50549,2,47366,49734,48250.62,50044.56,-884.62,-310.56,0.831517,92.48,1
1360854,1,50589,2,47364,50052,48248.85,50044.58,-884.85,7.42,0.836692,92.38,1
1360894,1,50629,2,47361,50049,48247.08,50044.59,-886.08,4.41,0.84191,92.27,1
1360934,1,50669,2,47355,50054,48245.3,50044.61,-890.3,9.39,0.847171,92.17,1
1360974,1,50709,2,47356,50049,48243.52,50044.62,-887.52,4.38,0.847171,92.17,0
1361014,1,50749,2,47352,50042,48241.74,50044.62,-889.74,-2.62,0.847171,92.17,0
1361054,1,50789,2,47346,50036,48239.95,50044.6,-893.95,-8.6,0.847171,92.17,0
1361094,1,50829,2,47340,50032,48238.15,50044.58,-898.15,-12.58,0.847171,92.17,0
1361134,1,50869,2,47474,50032,48236.62,50044.55,-762.62,-12.55,0.847171,92.17,0
1361175,1,50910,2,47512,50032,48235.18,50044.53,-723.18,-12.53,0.847171,92.17,0
1361215,1,50950,2,47328,50027,48233.36,50044.5,-905.36,-17.5,0.847171,92.17,0
1361255,1,50990,2,47320,50027,48231.54,50044.46,-911.54,-17.46,0.847171,92.17,0
1361295,1,51030,2,47318,50030,48229.71,50044.43,-911.71,-14.43,0.847171,92.17,0
1361335,1,51070,2,47318,50025,48227.89,50044.39,-909.89,-19.39,0.847171,92.17,0
1361375,1,51110,2,47261,50026,48225.96,50044.36,-964.96,-18.36,0.847171,92.17,0
1361415,1,51150,2,47315,50027,48224.14,50044.32,-909.14,-17.32,0.847171,92.17,0
1361455,1,51190,2,47309,50033,48222.31,50044.3,-913.31,-11.3,0.847171,92.17,0
1361495,1,51230,2,47312,50032,48220.49,50044.28,-908.49,-12.28,0.847171,92.17,0
1361535,1,51270,2,46870,50026,48217.79,50044.25,-1347.79,-18.25,0.847171,92.17,0
1361575,1,51310,2,46955,50033,48215.27,50044.23,-1260.27,-11.23,0.847171,92.17,0
1361615,1,51350,2,47314,50042,48213.47,50044.22,-899.47,-2.22,0.847171,92.17,0
1361655,1,51390,2,47314,50050,48211.67,50044.23,-897.67,5.77,0.847171,92.17,0
1361695,1,51430,2,47311,50054,48209.87,50044.25,-898.87,9.75,0.847171,92.17,0
1361735,1,51470,2,47315,50050,48208.08,50044.27,-893.08,5.73,0.847171,92.17,0
1361775,1,51510,2,47311,50045,48206.29,50044.27,-895.29,0.73,0.847171,92.17,0
1361815,1,51550,2,47304,50047,48204.48,50044.28,-900.48,2.72,0.847171,92.17,0
1361855,1,51590,2,47301,50048,48202.68,50044.29,-901.68,3.71,0.847171,92.17,0
1361895,1,51630,2,47301,50045,48200.88,50044.29,-899.88,0.71,0.847171,92.17,0
1361936,1,51671,2,47298,50042,48199.07,50044.29,-901.07,-2.29,0.847171,92.17,0
1361976,1,51711,2,47294,50043,48197.27,50044.29,-903.27,-1.29,0.847171,92.17,0
1362016,1,51751,2,47285,50035,48195.44,50044.27,-910.44,-9.27,0.847171,92.17,0
1362056,1,51791,2,47277,50028,48193.61,50044.24,-916.61,-16.24,0.847171,92.17,0
1362096,1,51831,2,47271,50018,48191.76,50044.19,-920.76,-26.19,0.847171,92.17,0
1362136,1,51871,2,47267,50014,48189.91,50044.13,-922.91,-30.13,0.847171,92.17,0
1362176,1,51911,2,47261,50014,48188.06,50044.07,-927.06,-30.07,0.847171,92.17,0
1362216,1,51951,2,47259,50010,48186.2,50044,-927.2,-34,0.847171,92.17,0
1362256,1,51991,2,47256,50010,48184.34,50043.94,-928.34,-33.94,0.847171,92.17,0
1362296,1,52031,2,47257,49995,48182.49,50043.84,-925.49,-48.84,0.847171,92.17,0
1362336,1,52071,2,47252,49994,48180.63,50043.74,-928.63,-49.74,0.847171,92.17,0
1362376,1,52111,2,47245,49985,48178.76,50043.62,-933.76,-58.63,0.847171,92.17,0
1362416,1,52151,2,47235,49982,48176.87,50043.5,-941.87,-61.5,0.847171,92.17,0
1362456,1,52191,2,47233,49972,48174.99,50043.36,-941.99,-71.36,0.847171,92.17,0
1362496,1,52231,2,47229,49963,48173.1,50043.2,-944.1,-80.2,0.847171,92.17,0
1362536,1,52271,2,47221,49960,48171.2,50043.04,-950.2,-83.04,0.847171,92.17,0
1362576,1,52311,2,47215,49957,48169.29,50042.87,-954.29,-85.87,0.847171,92.17,0
1362616,1,52351,2,47212,49952,48167.37,50042.69,-955.37,-90.69,0.847171,92.17,0
1362657,1,52392,2,47208,49948,48165.45,50042.5,-957.45,-94.5,0.847171,92.17,0
1362697,1,52432,2,47202,49934,48163.53,50042.29,-961.53,-108.29,0.847171,92.17,0
1362737,1,52472,2,47189,49928,48161.58,50042.06,-972.58,-114.06,0.847171,92.17,0
1362777,1,52512,2,47181,49918,48159.62,50041.81,-978.62,-123.81,0.847171,92.17,0
1362817,1,52552,2,47174,49908,48157.65,50041.55,-983.65,-133.55,0.847171,92.17,0
1362857,1,52592,2,47171,49897,48155.68,50041.26,-984.68,-144.26,0.847171,92.17,0
1362897,1,52632,2,47163,49891,48153.69,50040.96,-990.69,-149.96,0.847171,92.17,0
1362937,1,52672,2,47156,49898,48151.7,50040.67,-995.7,-142.67,0.847171,92.17,0
1362977,1,52712,2,47159,49892,48149.71,50040.37,-990.71,-148.37,0.847171,92.17,0
1363017,1,52752,2,47160,49895,48147.74,50040.09,-987.74,-145.09,0.847171,92.17,0
1363057,1,52792,2,47161,49889,48145.77,50039.79,-984.77,-150.79,0.847171,92.17,0
1363097,1,52832,2,47155,49889,48143.79,50039.48,-988.79,-150.48,0.847171,92.17,0
1363137,1,52872,2,47151,49891,48141.8,50039.19,-990.8,-148.19,0.847171,92.17,0
1363177,1,52912,2,47153,49894,48139.82,50038.9,-986.82,-144.9,0.847171,92.17,0
1363217,1,52952,2,47148,49889,48137.84,50038.6,-989.84,-149.6,0.847171,92.17,0
1363257,1,52992,2,47147,49886,48135.86,50038.3,-988.86,-152.3,0.847171,92.17,0
1363297,1,53032,2,47141,49886,48133.87,50037.99,-992.87,-151.99,0.847171,92.17,0
1363337,1,53072,2,47137,49878,48131.88,50037.67,-994.88,-159.67,0.847171,92.17,0
1363377,1,53112,2,47132,49877,48129.88,50037.35,-997.88,-160.35,0.847171,92.17,0
1363418,1,53153,2,47127,49880,48127.88,50037.04,-1000.88,-157.04,0.847171,92.17,0
1363458,1,53193,2,47129,49891,48125.88,50036.75,-996.88,-145.75,0.847171,92.17,0
1363498,1,53233,2,47127,49899,48123.89,50036.48,-996.89,-137.48,0.847171,92.17,0
1363538,1,53273,2,47130,49911,48121.9,50036.23,-991.9,-125.23,0.847171,92.17,0
1363578,1,53313,2,47136,49920,48119.93,50036,-983.93,-116,0.847171,92.17,0
1363618,1,53353,2,47135,49923,48117.96,50035.77,-982.96,-112.77,0.847171,92.17,0
1363658,1,53393,2,47137,49926,48116,50035.55,-979,-109.55,0.847171,92.17,0
1363698,1,53433,2,47134,49927,48114.04,50035.34,-980.04,-108.34,0.847171,92.17,0
1363738,1,53473,2,47137,49931,48112.09,50035.13,-975.09,-104.13,0.847171,92.17,0
1363778,1,53513,2,47139,49927,48110.14,50034.91,-971.14,-107.91,0.847171,92.17,0
1363818,1,53553,2,47134,50004,48108.19,50034.86,-974.19,-30.86,0.847171,92.17,0
1363858,1,53593,2,47130,50135,48106.23,50035.06,-976.23,99.94,0.847171,92.17,0
1363898,1,53633,2,47121,49909,48104.27,50034.81,-983.27,-125.81,0.847171,92.17,0
1363938,1,53673,2,47121,49901,48102.3,50034.54,-981.3,-133.54,0.847171,92.17,0
1363978,1,53713,2,47114,49894,48100.32,50034.26,-986.32,-140.26,0.847171,92.17,0
1364018,1,53753,2,47113,49897,48098.35,50033.99,-985.35,-136.99,0.847171,92.17,0
1364058,1,53793,2,47108,49794,48096.37,50033.51,-988.37,-239.51,0.847171,92.17,0
1364098,1,53833,2,47107,49899,48094.39,50033.24,-987.39,-134.24,0.847171,92.17,0
1364139,1,53874,2,47102,49902,48092.41,50032.98,-990.41,-130.98,0.847171,92.17,0
1364179,1,53914,2,47097,49899,48090.42,50032.71,-993.42,-133.71,0.847171,92.17,0
1364219,1,53954,2,47096,49654,48088.43,50031.95,-992.43,-377.95,0.847171,92.17,0
1364259,1,53994,2,47093,49320,48086.45,50030.53,-993.45,-710.53,0.847171,92.17,0
1364299,1,54034,2,47089,49902,48084.45,50030.28,-995.45,-128.28,0.847171,92.17,0
1364339,1,54074,2,47095,49906,48082.48,50030.03,-987.48,-124.03,0.847171,92.17,0
1364379,1,54114,2,47093,49911,48080.5,50029.79,-987.5,-118.79,0.847171,92.17,0
1364419,1,54154,2,47094,49917,48078.53,50029.57,-984.53,-112.57,0.847171,92.17,0
1364459,1,54194,2,47095,49918,48076.56,50029.35,-981.56,-111.35,0.847171,92.17,0
1364499,1,54234,2,47099,49916,48074.61,50029.12,-975.61,-113.12,0.847171,92.17,0
1364539,1,54274,2,47156,49908,48072.77,50028.88,-916.77,-120.88,0.847171,92.17,0
1364579,1,54314,2,47212,49910,48071.05,50028.64,-859.05,-118.64,0.847171,92.17,0
1364619,1,54354,2,47087,49910,48069.09,50028.41,-982.09,-118.41,0.847171,92.17,0
1364659,1,54394,2,47086,49905,48067.12,50028.16,-981.12,-123.16,0.847171,92.17,0
1364699,1,54434,2,47084,49909,48065.16,50027.92,-981.16,-118.92,0.847171,92.17,0
1364739,1,54474,2,47542,49907,48064.11,50027.68,-522.11,-120.68,0.847171,92.17,0
1364779,1,54514,2,47065,49908,48062.11,50027.44,-997.11,-119.44,0.847171,92.17,0
1364819,1,54554,2,47074,49903,48060.14,50027.2,-986.14,-124.2,0.847171,92.17,0
1364860,1,54595,2,47077,49908,48058.17,50026.96,-981.17,-118.96,0.847171,92.17,0
1364900,1,54635,2,47073,49906,48056.2,50026.71,-983.2,-120.71,0.847171,92.17,0
1364940,1,54675,2,46700,49907,48053.49,50026.48,-1353.49,-119.48,0.847171,92.17,0
1364980,1,54715,2,46752,49910,48050.89,50026.25,-1298.89,-116.25,0.847171,92.17,0
1365020,1,54755,2,47062,49911,48048.91,50026.02,-986.91,-115.02,0.847171,92.17,0
1365060,1,54795,2,47064,49914,48046.95,50025.79,-982.95,-111.79,0.847171,92.17,0
1365100,1,54835,2,47062,49915,48044.98,50025.57,-982.98,-110.57,0.847171,92.17,0
1365140,1,54875,2,47059,49919,48043,50025.36,-984,-106.36,0.847171,92.17,0
1365180,1,54915,2,47060,49924,48041.04,50025.16,-981.04,-101.16,0.847171,92.17,0
1365220,1,54955,2,47068,49926,48039.09,50024.96,-971.09,-98.96,0.847171,92.17,0
1365260,1,54995,2,47066,49929,48037.15,50024.77,-971.15,-95.77,0.847171,92.17,0
1365300,1,55035,2,47067,49932,48035.21,50024.59,-968.21,-92.59,0.847171,92.17,0
1365340,1,55075,2,47065,49937,48033.27,50024.41,-968.27,-87.41,0.847171,92.17,0
1365380,1,55115,2,47063,49932,48031.34,50024.23,-968.34,-92.23,0.847171,92.17,0
1365420,1,55155,2,47063,49928,48029.4,50024.04,-966.4,-96.04,0.847171,92.17,0
1365460,1,55195,2,47057,49928,48027.46,50023.85,-970.46,-95.85,0.847171,92.17,0
1365500,1,55235,2,47053,49928,48025.51,50023.66,-972.51,-95.66,0.847171,92.17,0
1365540,1,55275,2,47052,49933,48023.56,50023.48,-971.56,-90.48,0.847171,92.17,0
1365581,1,55316,2,47051,49924,48021.62,50023.28,-970.62,-99.28,0.847171,92.17,0
1365621,1,55356,2,47047,49926,48019.67,50023.09,-972.67,-97.09,0.847171,92.17,0
1365661,1,55396,2,47040,49924,48017.71,50022.89,-977.71,-98.89,0.847171,92.17,0
1365701,1,55436,2,47039,49925,48015.75,50022.7,-976.75,-97.7,0.847171,92.17,0
1365741,1,55476,2,47036,49919,48013.8,50022.49,-977.8,-103.49,0.847171,92.17,0
1365781,1,55516,2,47032,49918,48011.84,50022.28,-979.84,-104.28,0.847171,92.17,0
1365821,1,55556,2,47028,49918,48009.87,50022.07,-981.87,-104.07,0.847171,92.17,0
1365861,1,55596,2,47027,49918,48007.91,50021.87,-980.91,-103.87,0.847171,92.17,0
1365901,1,55636,2,47026,49921,48005.95,50021.67,-979.95,-100.67,0.847171,92.17,0
1365941,1,55676,2,47030,49914,48004,50021.45,-974,-107.45,0.847171,92.17,0
1365981,1,55716,2,47028,49915,48002.05,50021.24,-974.05,-106.24,0.847171,92.17,0
1366021,1,55756,2,47024,49913,48000.09,50021.03,-976.09,-108.03,0.847171,92.17,0
1366061,1,55796,2,47024,49911,47998.14,50020.81,-974.14,-109.81,0.847171,92.17,0
1366101,1,55836,2,47022,49912,47996.2,50020.59,-974.2,-108.59,0.847171,92.17,0
1366141,1,55876,2,47019,49905,47994.24,50020.36,-975.24,-115.36,0.847171,92.17,0
1366181,1,55916,2,47014,49907,47992.28,50020.14,-978.28,-113.14,0.847171,92.17,0
1366221,1,55956,2,47007,49905,47990.31,50019.91,-983.31,-114.91,0.847171,92.17,0
1366261,1,55996,2,47006,49903,47988.34,50019.67,-982.34,-116.67,0.847171,92.17,0
1366301,1,56036,2,47003,49900,47986.37,50019.43,-983.37,-119.43,0.847171,92.17,0
1366342,1,56077,2,47000,49894,47984.4,50019.18,-984.4,-125.18,0.847171,92.17,0
1366382,1,56117,2,46994,49895,47982.42,50018.94,-988.42,-123.94,0.847171,92.17,0
1366422,1,56157,2,46989,49899,47980.44,50018.7,-991.44,-119.7,0.847171,92.17,0
1366462,1,56197,2,46987,49899,47978.45,50018.46,-991.45,-119.46,0.847171,92.17,0
1366502,1,56237,2,46990,49899,47976.48,50018.22,-986.48,-119.22,0.847171,92.17,0
1366542,1,56277,2,46990,49905,47974.5,50018,-984.5,-113,0.847171,92.17,0
1366582,1,56317,2,46990,49908,47972.54,50017.78,-982.54,-109.78,0.847171,92.17,0
1366622,1,56357,2,46988,49908,47970.57,50017.56,-982.57,-109.56,0.847171,92.17,0
1366662,1,56397,2,46996,49904,47968.62,50017.33,-972.62,-113.33,0.847171,92.17,0
1366702,1,56437,2,46989,49903,47966.66,50017.11,-977.66,-114.11,0.847171,92.17,0
1366742,1,56477,2,46992,49904,47964.71,50016.88,-972.71,-112.88,0.847171,92.17,0
1366782,1,56517,2,46988,49907,47962.76,50016.66,-974.76,-109.66,0.847171,92.17,0
1366822,1,56557,2,46982,49903,47960.8,50016.43,-978.8,-113.43,0.847171,92.17,0
1366862,1,56597,2,46980,49891,47958.84,50016.18,-978.84,-125.18,0.847171,92.17,0
1366902,1,56637,2,46979,49888,47956.88,50015.93,-977.88,-127.93,0.847171,92.17,0
1366942,1,56677,2,46973,49886,47954.91,50015.67,-981.91,-129.67,0.847171,92.17,0
1366982,1,56717,2,46961,49886,47952.93,50015.41,-991.93,-129.41,0.847171,92.17,0
1367022,1,56757,2,46965,49889,47950.95,50015.16,-985.95,-126.16,0.847171,92.17,0
1367063,1,56798,2,46963,49891,47948.98,50014.92,-985.98,-123.92,0.847171,92.17,0
1367103,1,56838,2,46962,49892,47947,50014.67,-985,-122.67,0.847171,92.17,0
1367143,1,56878,2,46957,49896,47945.02,50014.44,-988.02,-118.44,0.847171,92.17,0
1367183,1,56918,2,46956,49905,47943.05,50014.22,-987.05,-109.22,0.847171,92.17,0
1367223,1,56958,2,46963,49911,47941.09,50014.01,-978.09,-103.01,0.847171,92.17,0
1367263,1,56998,2,46965,50101,47939.14,50014.19,-974.14,86.81,0.847171,92.17,0
1367303,1,57038,2,46964,50208,47937.19,50014.58,-973.19,193.42,0.847171,92.17,0
1367343,1,57078,2,46961,49928,47935.24,50014.41,-974.24,-86.41,0.847171,92.17,0
1367383,1,57118,2,46962,49927,47933.3,50014.23,-971.3,-87.23,0.847171,92.17,0
1367423,1,57158,2,46967,49931,47931.37,50014.07,-964.37,-83.07,0.847171,92.17,0
1367463,1,57198,2,46971,49882,47929.45,50013.81,-958.45,-131.81,0.847171,92.17,0
1367503,1,57238,2,46970,49764,47927.53,50013.31,-957.53,-249.31,0.847171,92.17,0
1367543,1,57278,2,46965,49931,47925.61,50013.14,-960.61,-82.14,0.847171,92.17,0
1367583,1,57318,2,46962,49930,47923.68,50012.98,-961.68,-82.98,0.847171,92.17,0
1367623,1,57358,2,46961,49925,47921.76,50012.8,-960.76,-87.8,0.847171,92.17,0
1367663,1,57398,2,46956,49400,47919.83,50011.58,-963.83,-611.58,0.847171,92.17,0
1367703,1,57438,2,46952,49914,47917.89,50011.39,-965.89,-97.39,0.847171,92.17,0
1367743,1,57478,2,46948,49910,47915.96,50011.18,-967.96,-101.18,0.847171,92.17,0
1367783,1,57518,2,46944,49905,47914.02,50010.97,-970.02,-105.97,0.847171,92.17,0
1367824,1,57559,2,46941,49900,47912.07,50010.75,-971.07,-110.75,0.847171,92.17,0
1367864,1,57599,2,46935,49903,47910.12,50010.54,-975.12,-107.54,0.847171,92.17,0
1367904,1,57639,2,46932,49912,47908.16,50010.34,-976.16,-98.34,0.847171,92.17,0
1367944,1,57679,2,46935,49910,47906.22,50010.14,-971.22,-100.14,0.847171,92.17,0
1367984,1,57719,2,47025,49911,47904.46,50009.95,-879.46,-98.95,0.847171,92.17,0
1368024,1,57759,2,47072,49922,47902.79,50009.77,-830.79,-87.77,0.847171,92.17,0
1368064,1,57799,2,46936,49928,47900.86,50009.61,-964.86,-81.61,0.847171,92.17,0
1368104,1,57839,2,46936,49923,47898.93,50009.44,-962.93,-86.44,0.847171,92.17,0
1368144,1,57879,2,46936,49925,47897,50009.27,-961,-84.27,0.847171,92.17,0
1368184,1,57919,2,46938,49927,47895.09,50009.11,-957.09,-82.11,0.847171,92.17,0
1368224,1,57959,2,46889,49931,47893.07,50008.95,-1004.07,-77.95,0.847171,92.17,0
1368264,1,57999,2,46935,49923,47891.16,50008.78,-956.16,-85.78,0.847171,92.17,0
1368304,1,58039,2,46931,49919,47889.24,50008.6,-958.24,-89.6,0.847171,92.17,0
1368344,1,58079,2,46928,49915,47887.32,50008.41,-959.32,-93.41,0.847171,92.17,0
1368384,1,58119,2,46632,49912,47884.81,50008.22,-1252.81,-96.22,0.847171,92.17,0
1368424,1,58159,2,46602,49906,47882.25,50008.02,-1280.25,-102.02,0.847171,92.17,0
1368464,1,58199,2,46910,49904,47880.31,50007.81,-970.31,-103.81,0.847171,92.17,0
1368505,1,58240,2,46904,49894,47878.36,50007.58,-974.36,-113.58,0.847171,92.17,0
1368545,1,58280,2,46906,49893,47876.41,50007.36,-970.41,-114.36,0.847171,92.17,0
1368585,1,58320,2,46900,49893,47874.46,50007.13,-974.46,-114.13,0.847171,92.17,0
1368625,1,58360,2,46895,49893,47872.5,50006.9,-977.5,-113.9,0.847171,92.17,0
1368665,1,58400,2,46893,49895,47870.54,50006.68,-977.54,-111.68,0.847171,92.17,0
1368705,1,58440,2,46896,49893,47868.59,50006.45,-972.59,-113.45,0.847171,92.17,0
1368745,1,58480,2,46892,49896,47866.64,50006.23,-974.64,-110.23,0.847171,92.17,0
1368785,1,58520,2,46892,49899,47864.69,50006.02,-972.69,-107.02,0.847171,92.17,0
1368825,1,58560,2,46890,49896,47862.74,50005.8,-972.74,-109.8,0.847171,92.17,0
1368865,1,58600,2,46891,49891,47860.8,50005.57,-969.8,-114.57,0.847171,92.17,0
1368905,1,58640,2,46892,49887,47858.86,50005.34,-966.86,-118.34,0.847171,92.17,0
1368945,1,58680,2,46891,49895,47856.93,50005.12,-965.93,-110.12,0.847171,92.17,0
1368985,1,58720,2,46891,49895,47855,50004.9,-964,-109.9,0.847171,92.17,0
1369025,1,58760,2,46886,49895,47853.06,50004.68,-967.06,-109.68,0.847171,92.17,0
1369065,1,58800,2,46884,49885,47851.12,50004.45,-967.12,-119.45,0.847171,92.17,0
1369105,1,58840,2,46881,49887,47849.19,50004.21,-968.19,-117.21,0.847171,92.17,0
1369145,1,58880,2,46875,49885,47847.24,50003.97,-972.24,-118.97,0.847171,92.17,0
1369185,1,58920,2,46871,49878,47845.29,50003.72,-974.29,-125.72,0.847171,92.17,0
1369226,1,58961,2,46870,49881,47843.34,50003.48,-973.34,-122.48,0.847171,92.17,0
1369266,1,59001,2,46869,49877,47841.39,50003.23,-972.39,-126.23,0.847171,92.17,0
1369306,1,59041,2,46865,49880,47839.44,50002.98,-974.44,-122.98,0.847171,92.17,0
1369346,1,59081,2,46860,49888,47837.48,50002.75,-977.48,-114.75,0.847171,92.17,0
1369386,1,59121,2,46864,49889,47835.54,50002.52,-971.54,-113.52,0.847171,92.17,0
1369426,1,59161,2,46860,49891,47833.59,50002.3,-973.59,-111.3,0.847171,92.17,0
1369466,1,59201,2,46864,49900,47831.65,50002.1,-967.65,-102.1,0.847171,92.17,0
1369506,1,59241,2,46861,49906,47829.71,50001.91,-968.71,-95.91,0.847171,92.17,0
1369546,1,59281,2,46866,49905,47827.78,50001.71,-961.78,-96.71,0.847171,92.17,0
1369586,1,59321,2,46872,49905,47825.87,50001.52,-953.87,-96.52,0.847171,92.17,0
1369626,1,59361,2,46869,49898,47823.96,50001.32,-954.96,-103.32,0.847171,92.17,0
1369666,1,59401,2,46868,49900,47822.05,50001.11,-954.05,-101.11,0.847171,92.17,0
1369706,1,59441,2,46865,49901,47820.13,50000.91,-955.13,-99.91,0.847171,92.17,0
1369746,1,59481,2,46860,49901,47818.21,50000.71,-958.21,-99.71,0.847171,92.17,0
1369786,1,59521,2,46862,49897,47816.3,50000.51,-954.3,-103.51,0.847171,92.17,0
1369826,1,59561,2,46855,49893,47814.38,50000.29,-959.38,-107.29,0.847171,92.17,0
1369866,1,59601,2,46850,49888,47812.46,50000.07,-962.46,-112.07,0.847171,92.17,0
1369906,1,59641,2,46847,49890,47810.53,49999.85,-963.53,-109.85,0.847171,92.17,0
1369947,1,59682,2,46847,49889,47808.6,49999.63,-961.6,-110.63,0.847171,92.17,0
1369987,1,59722,2,46845,49885,47806.68,49999.41,-961.68,-114.41,0.847171,92.17,0
1370027,1,59762,2,46841,49889,47804.75,49999.19,-963.75,-110.19,0.847171,92.17,0
1370067,1,59802,2,46838,49890,47802.81,49998.97,-964.81,-108.97,0.847171,92.17,0
1370107,1,59842,2,46837,49890,47800.88,49998.75,-963.88,-108.75,0.847171,92.17,0
1370147,1,59882,2,46837,49893,47798.96,49998.54,-961.96,-105.54,0.847171,92.17,0
1370187,1,59922,2,46837,49896,47797.04,49998.34,-960.04,-102.34,0.847171,92.17,0
1370227,1,59962,2,46835,49902,47795.11,49998.15,-960.11,-96.15,0.847171,92.17,0
1370267,1,60002,2,46837,49901,47793.2,49997.96,-956.2,-96.96,0.847171,92.17,0
1370307,1,60042,2,46838,49891,47791.29,49997.75,-953.29,-106.75,0.847171,92.17,0
1370347,1,60082,2,46839,49888,47789.39,49997.53,-950.39,-109.53,0.847171,92.17,0
1370387,1,60122,2,46834,49887,47787.48,49997.31,-953.48,-110.31,0.847171,92.17,0
1370427,1,60162,2,46833,49889,47785.57,49997.09,-952.57,-108.09,0.847171,92.17,0
1370467,1,60202,2,46830,49893,47783.66,49996.89,-953.66,-103.89,0.847171,92.17,0
1370507,1,60242,2,46834,49886,47781.76,49996.67,-947.76,-110.67,0.847171,92.17,0
1370547,1,60282,2,46826,49884,47779.85,49996.45,-953.85,-112.45,0.847171,92.17,0
1370587,1,60322,2,46825,49877,47777.94,49996.21,-952.94,-119.21,0.847171,92.17,0
1370627,1,60362,2,46816,49873,47776.02,49995.96,-960.02,-122.96,0.847171,92.17,0
1370667,1,60402,2,46812,50115,47774.09,49996.2,-962.09,118.8,0.847171,92.17,0
1370708,1,60443,2,46811,50214,47772.17,49996.64,-961.17,217.36,0.847171,92.17,0
1370748,1,60483,2,46808,49876,47770.24,49996.4,-962.24,-120.4,0.847171,92.17,0
1370788,1,60523,2,46806,49884,47768.32,49996.18,-962.32,-112.18,0.847171,92.17,0
1370828,1,60563,2,46805,49886,47766.39,49995.96,-961.39,-109.96,0.847171,92.17,0
1370868,1,60603,2,46809,49759,47764.48,49995.48,-955.48,-236.48,0.847171,92.17,0
1370908,1,60643,2,46808,49643,47762.57,49994.78,-954.57,-351.78,0.847171,92.17,0
1370948,1,60683,2,46807,49898,47760.66,49994.59,-953.66,-96.59,0.847171,92.17,0
1370988,1,60723,2,46809,49903,47758.75,49994.41,-949.75,-91.41,0.847171,92.17,0
1371028,1,60763,2,46816,49900,47756.87,49994.22,-940.87,-94.22,0.847171,92.17,0
1371068,1,60803,2,46812,49297,47754.98,49992.82,-942.98,-695.82,0.847171,92.17,0
1371108,1,60843,2,46810,49895,47753.09,49992.63,-943.09,-97.63,0.847171,92.17,0
1371148,1,60883,2,46806,49899,47751.2,49992.44,-945.2,-93.44,0.847171,92.17,0
1371188,1,60923,2,46809,49896,47749.32,49992.25,-940.32,-96.25,0.847171,92.17,0
1371228,1,60963,2,46805,49893,47747.43,49992.05,-942.43,-99.05,0.847171,92.17,0
1371268,1,61003,2,46804,49893,47745.54,49991.86,-941.54,-98.86,0.847171,92.17,0
1371308,1,61043,2,46799,49891,47743.65,49991.66,-944.65,-100.66,0.847171,92.17,0
