t_ms,phase,red_raw,ir_raw,red_dc,ir_dc,red_ac,ir_ac,OD_red,OD_ir,R,spo2,spo2_valid
41115,0,217883,243000,217511.7,242034.76,371.3,965.23,-0.062453,-0.042031,0.595138,95.12,1
41154,0,217944,243190,217520.34,242057.87,423.66,1132.13,-0.062493,-0.042126,0.594702,95.13,1
41195,0,218006,243448,217530.06,242085.67,475.94,1362.33,-0.062538,-0.042241,0.59398,95.15,1
41235,0,218133,243692,217542.12,242117.81,590.88,1574.19,-0.062593,-0.042374,0.593122,95.17,1
41275,0,218259,243959,217556.46,242154.62,702.53,1804.38,-0.062659,-0.042526,0.592076,95.2,1
41315,0,218352,244147,217572.39,242194.46,779.61,1952.53,-0.062732,-0.04269,0.590927,95.23,1
41355,0,218428,244370,217589.51,242237.98,838.48,2132.02,-0.062811,-0.04287,0.589511,95.26,1
41395,0,218480,244416,217607.32,242281.54,872.67,2134.45,-0.062893,-0.04305,0.588245,95.29,1
41435,0,218455,244204,217624.28,242320,830.72,1884,-0.062971,-0.043209,0.587509,95.31,1
41475,0,218400,244092,217639.79,242355.45,760.2,1736.55,-0.063042,-0.043355,0.586869,95.33,1
41515,0,218366,244084,217654.31,242390.03,711.69,1693.97,-0.063109,-0.043498,0.586154,95.35,1
41554,0,218370,244073,217668.64,242423.68,701.36,1649.31,-0.063175,-0.043636,0.585509,95.36,1
41594,0,218328,244050,217681.82,242456.21,646.17,1593.78,-0.063235,-0.043771,0.584805,95.38,1
41634,0,218315,244048,217694.5,242488.04,620.5,1559.95,-0.063293,-0.043902,0.584093,95.4,1
41674,0,218323,244095,217707.06,242520.2,615.94,1574.8,-0.063351,-0.044034,0.583335,95.42,1
41714,0,218338,244112,217719.68,242552.03,618.31,1559.97,-0.063409,-0.044166,0.582618,95.43,1
41754,0,218350,244187,217732.29,242584.73,617.7,1602.27,-0.063467,-0.0443,0.581806,95.45,1
41794,0,218345,244314,217744.56,242619.32,600.44,1694.67,-0.063523,-0.044443,0.580725,95.48,1
41834,0,218424,244428,217758.15,242655.51,665.84,1772.48,-0.063586,-0.044592,0.57967,95.51,1
41874,0,218474,244516,217772.48,242692.71,701.52,1823.28,-0.063651,-0.044746,0.578618,95.53,1
41915,0,218483,244534,217786.68,242729.56,696.31,1804.44,-0.063717,-0.044897,0.577599,95.56,1
41954,0,218472,244565,217800.39,242766.26,671.61,1798.73,-0.06378,-0.045048,0.576511,95.59,1
41995,0,218431,244592,217813.01,242802.78,617.98,1789.22,-0.063838,-0.045199,0.57527,95.62,1
42034,0,218418,244508,217825.12,242836.89,592.88,1671.11,-0.063893,-0.045339,0.574242,95.64,1
42075,0,218381,244422,217836.25,242868.59,544.75,1553.41,-0.063944,-0.04547,0.573339,95.67,1
42114,0,218305,244349,217845.62,242898.2,459.38,1450.8,-0.063987,-0.045592,0.572427,95.69,1
42155,0,218261,244192,217853.93,242924.09,407.06,1267.91,-0.064025,-0.045698,0.571747,95.71,1
42193,0,218086,243722,217858.57,242940.04,227.42,781.95,-0.064047,-0.045764,0.571471,95.71,1
42234,0,217909,243249,217859.59,242946.23,49.41,302.77,-0.064051,-0.045789,0.571435,95.71,1
42273,0,217769,242991,217857.78,242947.12,-88.78,43.88,-0.064043,-0.045793,0.57148,95.71,1
42313,0,217674,242795,217854.1,242944.09,-180.11,-149.09,-0.064026,-0.045781,0.571578,95.71,1
42353,0,217560,242518,217848.23,242935.57,-288.23,-417.58,-0.063999,-0.045746,0.571706,95.71,1
42393,0,217373,242246,217838.73,242921.79,-465.73,-675.8,-0.063956,-0.045689,0.572003,95.7,1
42433,0,217282,241983,217827.6,242903.01,-545.61,-920.02,-0.063905,-0.045612,0.572236,95.69,1
42473,0,217143,241714,217813.92,242879.23,-670.92,-1165.23,-0.063842,-0.045514,0.572518,95.69,1
42514,0,217021,241525,217798.06,242852.15,-777.06,-1327.16,-0.063769,-0.045402,0.572935,95.68,1
42553,0,216909,241386,217780.28,242822.84,-871.28,-1436.84,-0.063687,-0.045281,0.573569,95.66,1
42593,0,216827,241346,217761.23,242793.31,-934.23,-1447.31,-0.0636,-0.04516,0.57451,95.64,1
42633,0,216815,241390,217742.31,242765.25,-927.31,-1375.25,-0.063513,-0.045044,0.57557,95.61,1
42673,0,216873,241614,217724.92,242742.23,-851.92,-1128.23,-0.063433,-0.044949,0.576723,95.58,1
42714,0,216972,241879,217709.85,242724.96,-737.86,-845.97,-0.063364,-0.044878,0.577787,95.56,1
42753,0,217100,242112,217697.67,242712.7,-597.67,-600.7,-0.063308,-0.044828,0.578583,95.54,1
42793,0,217127,242233,217686.26,242703.1,-559.27,-470.11,-0.063255,-0.044788,0.579365,95.52,1
42832,0,217179,242269,217676.12,242694.42,-497.13,-425.42,-0.063209,-0.044752,0.579987,95.5,1
42872,0,217226,242455,217667.12,242689.62,-441.13,-234.63,-0.063167,-0.044733,0.580557,95.49,1
42913,0,217294,242658,217659.65,242689,-365.66,-31,-0.063133,-0.04473,0.58099,95.48,1
42952,0,217388,242819,217654.23,242691.59,-266.23,127.41,-0.063108,-0.044741,0.581218,95.47,1
42993,0,217409,242703,217649.34,242691.82,-240.34,11.17,-0.063086,-0.044742,0.58142,95.46,1
43032,0,217406,242654,217644.48,242691.07,-238.48,-37.08,-0.063063,-0.044739,0.58162,95.46,1
43073,0,217491,242780,217641.4,242692.85,-150.41,87.14,-0.063049,-0.044746,0.581706,95.46,1
43112,0,217516,242719,217638.89,242693.37,-122.89,25.62,-0.063038,-0.044748,0.581774,95.46,1
43152,0,217416,242381,217634.42,242687.14,-218.42,-306.14,-0.063017,-0.044722,0.581865,95.45,1
43193,0,217239,242169,217626.51,242676.78,-387.52,-507.78,-0.062981,-0.04468,0.582148,95.45,1
43232,0,217189,242066,217617.76,242664.56,-428.77,-598.56,-0.062941,-0.044629,0.582452,95.44,1
43273,0,217195,242074,217609.32,242652.76,-414.33,-578.77,-0.062902,-0.044581,0.58274,95.43,1
43312,0,217170,242021,217600.54,242640.14,-430.55,-619.14,-0.062862,-0.044529,0.58303,95.42,1
43353,0,217174,242065,217592.03,242628.64,-418.03,-563.64,-0.062822,-0.044481,0.583347,95.42,1
43392,0,217199,242248,217584.17,242621.03,-385.17,-373.03,-0.062786,-0.04445,0.583746,95.41,1
43432,0,217341,242517,217579.31,242618.95,-238.31,-101.95,-0.062764,-0.044441,0.583952,95.4,1
43471,0,217463,242618,217577,242618.93,-114,-0.94,-0.062753,-0.044441,0.584016,95.4,1
43512,0,217455,242601,217574.56,242618.57,-119.56,-17.58,-0.062742,-0.04444,0.584084,95.4,1
43552,0,217450,242621,217572.07,242618.64,-122.08,2.36,-0.062731,-0.04444,0.584155,95.4,1
43591,0,217415,242635,217568.93,242618.96,-153.94,16.03,-0.062716,-0.044442,0.584258,95.39,1
43632,0,217450,242746,217566.56,242621.51,-116.56,124.48,-0.062705,-0.044452,0.58431,95.39,1
43671,0,217562,243045,217566.46,242630,-4.47,415,-0.062705,-0.044487,0.584151,95.4,1
43712,0,217721,243509,217569.56,242647.59,151.44,861.41,-0.062719,-0.04456,0.58349,95.41,1
43752,0,217961,243933,217577.39,242673.29,383.61,1259.7,-0.062755,-0.044665,0.582419,95.44,1
43792,0,218041,243843,217586.65,242696.68,454.34,1146.31,-0.062798,-0.044762,0.581855,95.45,1
43832,0,217963,243464,217594.18,242712.04,368.81,751.95,-0.062832,-0.044825,0.581801,95.45,1
43872,0,217864,243254,217599.59,242722.89,264.41,531.11,-0.062857,-0.04487,0.581791,95.46,1
43912,0,217859,243253,217604.78,242733.5,254.22,519.5,-0.062881,-0.044914,0.581773,95.46,1
43952,0,217866,243194,217610,242742.7,256,451.3,-0.062905,-0.044951,0.581829,95.45,1
43992,0,217803,243103,217613.85,242749.92,189.14,353.08,-0.062923,-0.044981,0.581853,95.45,1
44030,0,217800,243104,217617.59,242757,182.41,347,-0.06294,-0.04501,0.581872,95.45,1
44071,0,217817,243085,217621.59,242763.56,195.41,321.44,-0.062958,-0.045037,0.581929,95.45,1
44110,0,217805,243045,217625.26,242769.2,179.73,275.8,-0.062975,-0.045061,0.581993,95.45,1
44151,0,217798,243041,217628.71,242774.64,169.28,266.36,-0.062991,-0.045083,0.582048,95.45,1
44190,0,217777,243036,217631.7,242779.87,145.3,256.13,-0.063005,-0.045105,0.582078,95.45,1
44231,0,217767,243046,217634.42,242785.2,132.58,260.8,-0.063017,-0.045127,0.582091,95.45,1
44271,0,217828,243160,217638.29,242792.7,189.7,367.3,-0.063035,-0.045157,0.582104,95.45,1
44311,0,217848,243176,217642.48,242800.37,205.52,375.63,-0.063054,-0.045189,0.582136,95.45,1
44351,0,217855,243238,217646.73,242809.14,208.27,428.86,-0.063074,-0.045225,0.582122,95.45,1
44391,0,217855,243312,217650.89,242819.2,204.11,492.8,-0.063093,-0.045267,0.582031,95.45,1
44431,0,217887,243368,217655.6,242830.18,231.39,537.81,-0.063115,-0.045312,0.581934,95.45,1
44471,0,217938,243478,217661.26,242843.15,276.73,634.84,-0.063141,-0.045365,0.581801,95.45,1
44511,0,218010,243560,217668.25,242857.5,341.75,702.5,-0.063173,-0.045424,0.581737,95.46,1
44550,0,218005,243384,217674.98,242868.03,330.02,515.97,-0.063204,-0.045468,0.581916,95.45,1
44591,0,217870,243027,217678.89,242871.21,191.11,155.78,-0.063222,-0.045481,0.582069,95.45,1
44630,0,217782,242748,217680.95,242868.75,101.05,-120.75,-0.063231,-0.045471,0.582113,95.45,1
44670,0,217728,242613,217681.9,242863.64,46.09,-250.64,-0.063235,-0.04545,0.582059,95.45,1
44709,0,217692,242464,217682.1,242855.65,9.89,-391.66,-0.063236,-0.045417,0.581878,95.45,1
44750,0,217616,242333,217680.78,242845.2,-64.78,-512.2,-0.06323,-0.045374,0.581573,95.46,1
44790,0,217546,242225,217678.09,242832.79,-132.09,-607.8,-0.063218,-0.045322,0.581189,95.47,1
44830,0,217475,242048,217674.03,242817.09,-199.03,-769.09,-0.063199,-0.045258,0.580616,95.48,1
44870,0,217418,241885,217668.92,242798.45,-250.92,-913.45,-0.063176,-0.045181,0.579833,95.5,1
44910,0,217366,241755,217662.85,242777.57,-296.86,-1022.58,-0.063148,-0.045095,0.578889,95.53,1
44950,0,217306,241751,217655.73,242757.04,-349.73,-1006.05,-0.063115,-0.045011,0.578156,95.55,1
44990,0,217303,241836,217648.68,242738.62,-345.69,-902.63,-0.063083,-0.044935,0.577671,95.56,1
45030,0,217339,241958,217642.5,242723.01,-303.5,-765.02,-0.063054,-0.04487,0.577355,95.57,1
45070,0,217418,242101,217638.01,242710.57,-220.02,-609.58,-0.063034,-0.044819,0.577107,95.57,1
45110,0,217482,242199,217634.9,242700.35,-152.91,-501.36,-0.06302,-0.044777,0.576893,95.58,1
45150,0,217519,242331,217632.59,242692.98,-113.59,-361.98,-0.063009,-0.044747,0.57679,95.58,1
45190,0,217536,242467,217630.67,242688.46,-94.67,-221.47,-0.063,-0.044728,0.576779,95.58,1
45231,0,217597,242545,217630,242685.6,-33,-140.61,-0.062997,-0.044716,0.576768,95.58,1
45270,0,217642,242673,217630.25,242685.35,11.75,-12.36,-0.062998,-0.044715,0.576779,95.58,1
45309,0,217719,242672,217632.03,242685.09,86.97,-13.09,-0.063006,-0.044714,0.57683,95.58,1
45349,0,217638,242323,217632.15,242677.84,5.84,-354.84,-0.063007,-0.044684,0.576657,95.58,1
45389,0,217501,242048,217629.53,242665.25,-128.53,-617.25,-0.062995,-0.044632,0.5762,95.59,1
45430,0,217452,241943,217625.98,242650.81,-173.98,-707.81,-0.062979,-0.044573,0.575639,95.61,1
45469,0,217467,241945,217622.81,242636.7,-155.81,-691.7,-0.062964,-0.044515,0.575073,95.62,1
45510,0,217502,241934,217620.4,242622.65,-118.41,-688.66,-0.062953,-0.044457,0.574453,95.64,1
45549,0,217492,242009,217617.84,242610.37,-125.84,-601.38,-0.062941,-0.044406,0.574008,95.65,1
45590,0,217545,242125,217616.39,242600.67,-71.39,-475.67,-0.062934,-0.044366,0.573703,95.66,1
45629,0,217581,242227,217615.68,242593.2,-34.69,-366.2,-0.062931,-0.044335,0.573513,95.66,1
45670,0,217678,242379,217616.93,242588.92,61.06,-209.92,-0.062937,-0.044318,0.573474,95.66,1
45709,0,217752,242449,217619.65,242586.12,132.34,-137.13,-0.062949,-0.044306,0.573555,95.66,1
45749,0,217772,242575,217622.7,242585.9,149.3,-10.91,-0.062963,-0.044305,0.573694,95.66,1
45789,0,217808,242680,217626.4,242587.78,181.59,92.22,-0.06298,-0.044313,0.573886,95.65,1
45829,0,217819,242763,217630.25,242591.29,188.75,171.7,-0.062998,-0.044328,0.574061,95.65,1
45870,0,217889,242890,217635.43,242597.26,253.56,292.73,-0.063022,-0.044352,0.574321,95.64,1
45908,0,217959,242989,217641.9,242605.1,317.09,383.89,-0.063052,-0.044384,0.574705,95.63,1
45949,0,217976,243110,217648.59,242615.21,327.41,494.78,-0.063082,-0.044426,0.574972,95.63,1
45988,0,218002,243158,217655.67,242626.07,346.33,531.92,-0.063115,-0.044471,0.575257,95.62,1
46029,0,217985,243211,217662.26,242637.78,322.73,573.22,-0.063145,-0.044519,0.575368,95.62,1
46068,0,218045,243299,217669.93,242651.01,375.06,647.98,-0.06318,-0.044574,0.575556,95.61,1
46109,0,218079,243278,217678.12,242663.56,400.88,614.44,-0.063218,-0.044625,0.575946,95.6,1
46148,0,217991,242836,217684.37,242667.01,306.63,168.98,-0.063247,-0.04464,0.57651,95.59,1
46188,0,217786,242401,217686.4,242661.7,99.59,-260.7,-0.063256,-0.044618,0.576462,95.59,1
46228,0,217653,242172,217685.75,242651.9,-32.75,-479.91,-0.063253,-0.044577,0.576071,95.6,1
46268,0,217622,242083,217684.48,242640.53,-62.48,-557.53,-0.063247,-0.04453,0.575551,95.61,1
46309,0,217620,241909,217683.2,242625.9,-63.2,-716.91,-0.063241,-0.04447,0.574666,95.63,1
46348,0,217516,241815,217679.85,242609.68,-163.86,-794.69,-0.063226,-0.044403,0.57372,95.66,1
46389,0,217506,241843,217676.39,242594.35,-170.39,-751.36,-0.06321,-0.04434,0.572905,95.68,1
46428,0,217504,241897,217672.93,242580.42,-168.94,-683.42,-0.063194,-0.044283,0.572258,95.69,1
46469,0,217545,241936,217670.39,242567.53,-125.39,-631.53,-0.063183,-0.04423,0.571644,95.71,1
46508,0,217577,241951,217668.53,242555.2,-91.53,-604.2,-0.063174,-0.044179,0.571037,95.72,1
46548,0,217548,241981,217666.12,242543.73,-118.12,-562.73,-0.063163,-0.044131,0.570553,95.74,1
46587,0,217568,242105,217664.17,242534.95,-96.17,-429.95,-0.063154,-0.044095,0.570278,95.74,1
46627,0,217623,242315,217663.34,242530.56,-40.34,-215.56,-0.06315,-0.044077,0.570206,95.74,1
46668,0,217720,242509,217664.48,242530.12,55.52,-21.12,-0.063155,-0.044075,0.570231,95.74,1
46707,0,217816,242628,217667.51,242532.09,148.48,95.91,-0.063169,-0.044083,0.570378,95.74,1
46748,0,217845,242800,217671.07,242537.45,173.92,262.55,-0.063186,-0.044105,0.570472,95.74,1
46787,0,217932,242992,217676.29,242546.54,255.7,445.45,-0.06321,-0.044143,0.570574,95.74,1
46828,0,218001,243252,217682.79,242560.67,318.2,691.33,-0.06324,-0.044201,0.570396,95.74,1
46867,0,218126,243514,217691.65,242579.75,434.34,934.25,-0.06328,-0.04428,0.570097,95.75,1
46908,0,218254,243695,217702.9,242602.06,551.09,1092.94,-0.063332,-0.044372,0.57003,95.75,1
46948,0,218285,243566,217714.56,242621.34,570.44,944.66,-0.063385,-0.044451,0.570727,95.73,1
46987,0,218203,243298,217724.34,242634.87,478.66,663.13,-0.06343,-0.044507,0.571596,95.71,1
47028,0,218126,243193,217732.37,242646.04,393.63,546.95,-0.063467,-0.044553,0.572183,95.7,1
47067,0,218115,243152,217740.03,242656.17,374.97,495.83,-0.063502,-0.044595,0.572772,95.68,1
47108,0,218125,243111,217747.73,242665.26,377.27,445.73,-0.063538,-0.044632,0.573474,95.66,1
47147,0,218081,243093,217754.4,242673.82,326.59,419.17,-0.063568,-0.044668,0.573949,95.65,1
47187,0,218099,243165,217761.31,242683.65,337.69,481.34,-0.0636,-0.044708,0.574367,95.64,1
47226,0,218087,243166,217767.82,242693.29,319.17,472.7,-0.06363,-0.044748,0.574709,95.63,1
47267,0,218077,243088,217774.01,242701.2,302.98,386.8,-0.063659,-0.04478,0.57513,95.62,1
47306,0,218075,243040,217780.04,242707.98,294.95,332.02,-0.063686,-0.044808,0.5756,95.61,1
47347,0,218048,243069,217785.4,242715.2,262.59,353.8,-0.063711,-0.044838,0.575894,95.6,1
47387,0,218079,243180,217791.28,242724.5,287.72,455.5,-0.063738,-0.044876,0.576123,95.6,1
47427,0,218105,243301,217797.54,242736.03,307.45,564.97,-0.063767,-0.044924,0.576203,95.59,1
47467,0,218163,243408,217804.85,242749.46,358.14,658.53,-0.0638,-0.044979,0.576309,95.59,1
47506,0,218252,243528,217813.81,242765.04,438.19,762.95,-0.063841,-0.045043,0.576616,95.58,1
47547,0,218267,243646,217822.89,242782.67,444.11,863.33,-0.063883,-0.045116,0.576599,95.59,1
47586,0,218329,243784,217833.01,242802.68,495.98,981.31,-0.063929,-0.045199,0.576502,95.59,1
47627,0,218337,243942,217843.09,242825.48,493.91,1116.52,-0.063976,-0.045292,0.575746,95.61,1
47666,0,218412,243988,217854.46,242848.75,557.53,1139.25,-0.064028,-0.045388,0.575446,95.61,1
47707,0,218405,243771,217865.48,242867.2,539.52,903.8,-0.064078,-0.045464,0.576071,95.6,1
47746,0,218323,243557,217874.62,242881,448.38,676,-0.06412,-0.045521,0.576748,95.58,1
47787,0,218284,243504,217882.81,242893.46,401.19,610.53,-0.064158,-0.045572,0.577276,95.57,1
47825,0,218272,243528,217890.59,242906.17,381.41,621.83,-0.064194,-0.045625,0.577641,95.56,1
47866,0,218282,243481,217898.42,242917.67,383.58,563.33,-0.06423,-0.045672,0.578183,95.55,1
47907,0,218299,243522,217906.43,242929.76,392.56,592.23,-0.064266,-0.045722,0.57871,95.53,1
47946,0,218306,243556,217914.43,242942.29,391.56,613.7,-0.064303,-0.045773,0.579169,95.52,1
47986,0,218341,243633,217922.96,242956.1,418.03,676.89,-0.064342,-0.04583,0.579625,95.51,1
48026,0,218337,243707,217931.25,242971.12,405.75,735.88,-0.06438,-0.045892,0.57979,95.51,1
48066,0,218383,243780,217940.28,242987.29,442.72,792.7,-0.064422,-0.045959,0.580026,95.5,1
48106,0,218439,243879,217950.26,243005.14,488.73,873.86,-0.064467,-0.046032,0.580317,95.49,1
48146,0,218464,243992,217960.54,243024.89,503.45,967.11,-0.064515,-0.046113,0.580319,95.49,1
48186,0,218508,244117,217971.5,243046.73,536.5,1070.27,-0.064565,-0.046203,0.580118,95.5,1
48226,0,218517,244212,217982.42,243070.03,534.58,1141.97,-0.064615,-0.046299,0.579514,95.51,1
48265,0,218568,244287,217994.14,243094.37,573.86,1192.63,-0.064669,-0.046399,0.579021,95.52,1
48306,0,218616,244393,218006.57,243120.34,609.42,1272.66,-0.064726,-0.046506,0.578435,95.54,1
48346,0,218648,244483,218019.4,243147.59,628.59,1335.41,-0.064785,-0.046618,0.577677,95.56,1
48386,0,218680,244599,218032.6,243176.62,647.39,1422.38,-0.064845,-0.046737,0.576576,95.59,1
48425,0,218692,244709,218045.81,243207.28,646.19,1501.72,-0.064906,-0.046863,0.574938,95.63,1
48465,0,218730,244692,218059.5,243236.98,670.5,1455.02,-0.064969,-0.046986,0.573943,95.65,1
48505,0,218677,244336,218071.85,243258.96,605.14,1077.03,-0.065025,-0.047076,0.574462,95.64,1
48545,0,218501,243911,218080.43,243272.01,420.56,638.98,-0.065065,-0.04713,0.575073,95.62,1
48585,0,218365,243604,218086.12,243278.65,278.88,325.34,-0.065091,-0.047157,0.575522,95.61,1
48625,0,218226,243414,218088.92,243281.37,137.08,132.63,-0.065103,-0.047168,0.575657,95.61,1
48664,0,218180,243166,218090.73,243279.06,89.27,-113.06,-0.065112,-0.047159,0.575706,95.61,1
48705,0,218079,242903,218090.5,243271.54,-11.5,-368.55,-0.065111,-0.047128,0.575382,95.62,1
48746,0,217962,242756,218087.92,243261.25,-125.92,-505.25,-0.065099,-0.047085,0.574906,95.63,1
48785,0,217903,242679,218084.23,243249.6,-181.23,-570.61,-0.065082,-0.047037,0.574412,95.64,1
48826,0,217848,242638,218079.5,243237.39,-231.5,-599.39,-0.06506,-0.046987,0.574025,95.65,1
48865,0,217843,242625,218074.78,243225.14,-231.78,-600.14,-0.065039,-0.046937,0.573635,95.66,1
48905,0,217864,242686,218070.57,243214.35,-206.58,-528.36,-0.065019,-0.046893,0.573342,95.67,1
48945,0,217855,242732,218066.26,243204.71,-211.27,-472.72,-0.065,-0.046853,0.573208,95.67,1
48985,0,217873,242820,218062.39,243197.03,-189.39,-377.03,-0.064982,-0.046821,0.573197,95.67,1
49025,0,217877,242942,218058.68,243191.93,-181.69,-249.94,-0.064965,-0.0468,0.573364,95.67,1
49064,0,217941,243042,218056.32,243188.95,-115.33,-146.95,-0.064954,-0.046788,0.573444,95.66,1
49105,0,217991,243165,218055.01,243188.46,-64.02,-23.47,-0.064948,-0.046786,0.573489,95.66,1
49144,0,218004,243257,218054,243189.84,-50,67.16,-0.064943,-0.046792,0.573508,95.66,1
49185,0,218030,243364,218053.51,243193.32,-23.52,170.67,-0.064941,-0.046806,0.573441,95.66,1
49224,0,218069,243548,218053.82,243200.42,15.17,347.58,-0.064942,-0.046835,0.57312,95.67,1
49264,0,218164,243763,218056.03,243211.68,107.97,551.31,-0.064953,-0.046882,0.572413,95.69,1
49304,0,218251,243810,218059.93,243223.65,191.06,586.34,-0.064971,-0.046931,0.571852,95.7,1
49344,0,218150,243438,218061.75,243227.95,88.25,210.05,-0.064979,-0.046948,0.571818,95.7,1
49385,0,217993,243110,218060.37,243225.6,-67.37,-115.61,-0.064973,-0.046939,0.571835,95.7,1
49424,0,217902,243029,218057.21,243221.68,-155.22,-192.69,-0.064958,-0.046923,0.571994,95.7,1
49465,0,217904,242998,218054.15,243217.21,-150.16,-219.22,-0.064944,-0.046904,0.572107,95.7,1
49504,0,217912,242942,218051.31,243211.71,-139.31,-269.72,-0.064931,-0.046882,0.572115,95.7,1
49545,0,217848,242877,218047.25,243205.03,-199.25,-328.03,-0.064912,-0.046854,0.572246,95.69,1
49584,0,217848,242893,218043.26,243198.79,-195.27,-305.8,-0.064894,-0.046829,0.572402,95.69,1
49624,0,217823,242906,218038.85,243192.95,-215.86,-286.95,-0.064874,-0.046805,0.572688,95.68,1
49665,0,217836,242887,218034.81,243186.82,-198.81,-299.83,-0.064855,-0.046779,0.572872,95.68,1
49703,0,217841,242860,218030.93,243180.29,-189.94,-320.3,-0.064838,-0.046753,0.57298,95.68,1
49744,0,217805,242850,218026.42,243173.7,-221.42,-323.7,-0.064817,-0.046725,0.573231,95.67,1
49783,0,217801,242941,218021.9,243169.04,-220.91,-228.05,-0.064796,-0.046706,0.573645,95.66,1
49824,0,217839,243048,218018.25,243166.62,-179.25,-118.62,-0.064779,-0.046696,0.573984,95.65,1
49863,0,217870,243045,218015.29,243164.2,-145.3,-119.2,-0.064766,-0.046686,0.574195,95.65,1
49904,0,217874,243104,218012.48,243163,-138.48,-59,-0.064753,-0.046681,0.574419,95.64,1
49943,0,217902,243216,218010.28,243164.06,-108.28,51.94,-0.064743,-0.046686,0.574558,95.64,1
49984,0,217940,243401,218008.87,243168.79,-68.87,232.2,-0.064736,-0.046705,0.574446,95.64,1
50023,0,218046,243761,218009.62,243180.64,36.38,580.36,-0.06474,-0.046754,0.573365,95.67,1
50063,0,218182,243935,218013.07,243195.73,168.92,739.27,-0.064756,-0.046816,0.571931,95.7,1
50104,0,218248,243955,218017.78,243210.92,230.22,744.08,-0.064777,-0.046878,0.57078,95.73,1
50143,0,218177,243584,218020.98,243218.37,156.02,365.63,-0.064792,-0.046909,0.570651,95.73,1
50184,0,218007,243205,218020.7,243218.1,-13.7,-13.11,-0.064791,-0.046908,0.570658,95.73,1
50223,0,217909,243050,218018.46,243214.75,-109.47,-164.75,-0.06478,-0.046894,0.570726,95.73,1
50264,0,217878,242930,218015.67,243209.04,-137.67,-279.05,-0.064768,-0.046871,0.570713,95.73,1
50302,0,217873,242837,218012.81,243201.6,-139.81,-364.61,-0.064754,-0.04684,0.570518,95.74,1
50343,0,217809,242699,218008.75,243191.56,-199.75,-492.56,-0.064736,-0.046799,0.570211,95.74,1
50382,0,217792,242797,218004.42,243183.67,-212.42,-386.67,-0.064716,-0.046766,0.570296,95.74,1
50423,0,217881,242994,218001.96,243179.87,-120.97,-185.88,-0.064705,-0.046751,0.570376,95.74,1
50463,0,217954,242953,218001.01,243175.34,-47.02,-222.34,-0.0647,-0.046732,0.570235,95.74,1
50503,0,217924,242809,217999.48,243168.03,-75.48,-359.03,-0.064693,-0.046702,0.569857,95.75,1
50543,0,217854,242636,217996.57,243157.39,-142.58,-521.39,-0.06468,-0.046658,0.569163,95.77,1
50582,0,217788,242599,217992.42,243146.23,-204.42,-547.23,-0.064661,-0.046612,0.568664,95.78,1
50623,0,217729,242462,217987.15,243132.54,-258.16,-670.55,-0.064637,-0.046556,0.567966,95.8,1
50662,0,217653,242192,217980.48,243113.75,-327.48,-921.75,-0.064606,-0.046479,0.566388,95.84,1
50703,0,217509,241900,217971.06,243089.48,-462.06,-1189.48,-0.064563,-0.046379,0.564282,95.89,1
50742,0,217421,241644,217960.06,243060.57,-539.06,-1416.58,-0.064512,-0.04626,0.561212,95.97,1
50783,0,217189,240720,217944.64,243013.78,-755.64,-2293.78,-0.064442,-0.046068,0.551166,96.22,1
50822,0,216599,239196,217917.73,242937.43,-1318.73,-3741.44,-0.064318,-0.045753,0.53144,96.71,1
50863,0,216135,239085,217882.09,242860.39,-1747.09,-3775.39,-0.064155,-0.045436,0.529461,96.76,1
50903,0,216615,241044,217856.75,242824.06,-1241.75,-1780.06,-0.064038,-0.045286,0.537957,96.55,1
50942,0,217574,242765,217851.1,242822.87,-277.11,-57.88,-0.064012,-0.045282,0.538739,96.53,1
50982,0,218220,243914,217858.5,242844.7,361.5,1069.3,-0.064046,-0.045371,0.537336,96.57,1
51022,0,218621,244548,217873.75,242878.76,747.25,1669.23,-0.064116,-0.045512,0.53643,96.59,1
51062,0,218885,245061,217893.98,242922.4,991.02,2138.59,-0.064209,-0.045691,0.535668,96.61,1
51102,0,219065,245151,217917.4,242966.98,1147.59,2184.02,-0.064317,-0.045875,0.537731,96.56,1
51142,0,218982,244898,217938.7,243005.6,1043.3,1892.39,-0.064414,-0.046034,0.540118,96.5,1
51182,0,218798,244664,217955.89,243038.78,842.11,1625.22,-0.064493,-0.04617,0.54094,96.48,1
51222,0,218640,244488,217969.57,243067.78,670.42,1420.22,-0.064556,-0.04629,0.540708,96.48,1
51262,0,218496,244149,217980.1,243089.42,515.89,1059.58,-0.064604,-0.046379,0.540729,96.48,1
51302,0,218351,243790,217987.53,243103.43,363.47,686.56,-0.064638,-0.046436,0.540927,96.48,1
51342,0,218195,243602,217991.68,243113.42,203.31,488.58,-0.064657,-0.046478,0.540791,96.48,1
51381,0,218126,243445,217994.37,243120.06,131.63,324.94,-0.06467,-0.046505,0.540724,96.48,1
51422,0,217948,243066,217993.43,243118.98,-45.44,-52.98,-0.064666,-0.0465,0.54074,96.48,1
51463,0,217784,242932,217989.25,243115.25,-205.25,-183.25,-0.064646,-0.046485,0.54107,96.47,1
51502,0,217704,242726,217983.54,243107.46,-279.55,-381.47,-0.06462,-0.046453,0.541497,96.46,1
51543,0,217683,243024,217977.53,243105.81,-294.53,-81.81,-0.064593,-0.046446,0.542329,96.44,1
51581,0,217910,243833,217976.18,243120.35,-66.19,712.64,-0.064586,-0.046506,0.541197,96.47,1
51621,0,218276,244725,217982.18,243152.45,293.81,1572.55,-0.064614,-0.046638,0.536364,96.59,1
51661,0,218679,245476,217996.12,243198.92,682.88,2277.08,-0.064678,-0.046829,0.529373,96.77,1
51701,0,218942,245656,218015.04,243248.07,926.95,2407.92,-0.064765,-0.047031,0.525216,96.87,1
51741,0,218933,245377,218033.4,243290.67,899.59,2086.33,-0.064849,-0.047206,0.523791,96.91,1
51781,0,218802,245120,218048.79,243327.26,753.2,1792.73,-0.064919,-0.047357,0.522516,96.94,1
51821,0,218680,244821,218061.42,243357.14,618.58,1463.86,-0.064977,-0.047479,0.521731,96.96,1
51862,0,218530,244530,218070.79,243380.59,459.2,1149.41,-0.06502,-0.047576,0.521033,96.97,1
51901,0,218363,244121,218076.65,243395.4,286.34,725.59,-0.065047,-0.047637,0.52074,96.98,1
51941,0,218254,244082,218080.2,243409.14,173.8,672.86,-0.065063,-0.047693,0.520122,97,1
51981,0,218280,244184,218084.2,243424.65,195.8,759.34,-0.065082,-0.047757,0.519329,97.02,1
52021,0,218345,244374,218089.42,243443.65,255.58,930.34,-0.065106,-0.047835,0.518206,97.04,1
52061,0,218476,244661,218097.15,243468,378.84,1193,-0.065141,-0.047935,0.516699,97.08,1
52101,0,218669,244956,218108.59,243497.76,560.41,1458.23,-0.065194,-0.048057,0.515393,97.12,1
52142,0,218775,244937,218121.92,243526.54,653.08,1410.45,-0.065255,-0.048175,0.515413,97.11,1
52180,0,218652,244646,218132.53,243548.93,519.47,1097.06,-0.065303,-0.048267,0.515536,97.11,1
52221,0,218397,243893,218137.82,243555.82,259.17,337.17,-0.065328,-0.048296,0.51594,97.1,1
52260,0,217846,242204,218132,243528.79,-286,-1324.8,-0.065301,-0.048185,0.51323,97.17,1
52301,0,216866,239348,218106.67,243445.17,-1240.67,-4097.17,-0.065185,-0.047841,0.496236,97.59,1
52340,0,215993,237734,218064.4,243330.93,-2071.41,-5596.94,-0.064991,-0.047372,0.482423,97.94,1
52381,0,215585,237324,218014.82,243210.81,-2429.83,-5886.81,-0.064764,-0.046878,0.478811,98.03,1
52420,0,215522,237533,217964.96,243097.25,-2442.97,-5564.25,-0.064535,-0.046411,0.480219,97.99,1
52461,0,215594,237765,217917.54,242990.6,-2323.55,-5225.61,-0.064317,-0.045972,0.481858,97.95,1
52501,0,215751,238338,217874.21,242897.56,-2123.22,-4559.56,-0.064118,-0.045589,0.484719,97.88,1
52540,0,216059,238881,217837.9,242817.23,-1778.91,-3936.23,-0.063952,-0.045258,0.485748,97.86,1
52581,0,216254,239486,217806.23,242750.6,-1552.23,-3264.61,-0.063806,-0.044984,0.487384,97.82,1
52620,0,216663,240564,217783.37,242706.89,-1120.38,-2142.89,-0.063701,-0.044804,0.48897,97.78,1
52661,0,217058,241424,217768.87,242681.23,-710.88,-1257.23,-0.063635,-0.044698,0.489816,97.75,1
52700,0,217416,242196,217761.81,242671.53,-345.81,-475.53,-0.063602,-0.044658,0.490136,97.75,1
52741,0,217755,242932,217761.67,242676.75,-6.67,255.25,-0.063602,-0.04468,0.49008,97.75,1
52780,0,218156,243874,217769.56,242700.7,386.44,1173.3,-0.063638,-0.044778,0.489575,97.76,1
52820,0,218604,244695,217786.25,242740.59,817.75,1954.41,-0.063715,-0.044943,0.489282,97.77,1
52860,0,218930,245410,217809.12,242793.98,1120.88,2616.02,-0.06382,-0.045163,0.489019,97.77,1
52900,0,219299,246163,217838.93,242861.37,1460.06,3301.62,-0.063957,-0.04544,0.489162,97.77,1
52940,0,219717,246840,217876.5,242940.95,1840.5,3899.05,-0.064129,-0.045768,0.490996,97.73,1
52980,0,220009,247152,217919.15,243025.18,2089.84,4126.81,-0.064325,-0.046114,0.495029,97.62,1
53019,0,220081,247261,217962.4,243109.9,2118.59,4151.09,-0.064523,-0.046463,0.498968,97.53,1
53060,0,220071,247287,218004.57,243193.45,2066.42,4093.55,-0.064717,-0.046807,0.502122,97.45,1
53099,0,220033,247277,218045.14,243275.14,1987.86,4001.86,-0.064903,-0.047142,0.504458,97.39,1
53140,0,219955,247157,218083.32,243352.78,1871.67,3804.22,-0.065078,-0.047462,0.506197,97.35,1
53179,0,219839,247110,218118.45,243427.93,1720.55,3682.06,-0.065239,-0.04777,0.50672,97.33,1
53220,0,219783,247033,218151.75,243500.04,1631.25,3532.95,-0.065391,-0.048067,0.506979,97.33,1
53259,0,219779,247023,218184.29,243570.5,1594.7,3452.5,-0.065541,-0.048356,0.50722,97.32,1
53300,0,219806,246910,218216.73,243637.29,1589.27,3272.7,-0.065689,-0.04863,0.508138,97.3,1
53339,0,219697,246431,218246.34,243693.18,1450.66,2737.81,-0.065825,-0.048859,0.50974,97.26,1
53380,0,219321,245591,218267.84,243731.14,1053.16,1859.86,-0.065924,-0.049015,0.510872,97.23,1
53419,0,218895,244772,218280.39,243751.95,614.61,1020.05,-0.065981,-0.0491,0.511346,97.22,1
53459,0,218452,243759,218283.82,243752.09,168.17,6.91,-0.065997,-0.049101,0.511437,97.21,1
53498,0,217964,242647,218277.43,243730,-313.44,-1083,-0.065967,-0.04901,0.511002,97.22,1
53539,0,217576,241927,218263.4,243693.95,-687.41,-1766.95,-0.065903,-0.048863,0.510461,97.24,1
53578,0,217286,241514,218243.85,243650.35,-957.86,-2136.36,-0.065814,-0.048684,0.510351,97.24,1
53619,0,217129,241269,218221.56,243602.73,-1092.56,-2333.73,-0.065711,-0.048488,0.510514,97.24,1
53658,0,216993,241147,218197,243553.62,-1204,-2406.62,-0.065599,-0.048286,0.511217,97.22,1
53699,0,216973,241204,218172.51,243506.64,-1199.52,-2302.64,-0.065487,-0.048094,0.512178,97.2,1
53739,0,217029,241397,218149.64,243464.45,-1120.64,-2067.45,-0.065382,-0.04792,0.513224,97.17,1
53779,0,217082,241638,218128.29,243427.93,-1046.3,-1789.94,-0.065284,-0.04777,0.514452,97.14,1
53819,0,217271,242362,218111.15,243406.62,-840.16,-1044.63,-0.065205,-0.047683,0.515856,97.1,1
53859,0,217683,243493,218102.59,243408.35,-419.59,84.64,-0.065166,-0.04769,0.51638,97.09,1
53899,0,218165,244171,218103.84,243423.62,61.16,747.38,-0.065172,-0.047753,0.516036,97.1,1
53939,0,218369,244292,218109.14,243441,259.86,851,-0.065196,-0.047824,0.515775,97.11,1
53978,0,218419,244281,218115.34,243457.81,303.66,823.19,-0.065225,-0.047893,0.515618,97.11,1
54019,0,218452,244404,218122.09,243476.73,329.91,927.27,-0.065256,-0.047971,0.515391,97.12,1
54057,0,218531,244527,218130.28,243497.75,400.72,1029.25,-0.065293,-0.048057,0.515192,97.12,1
54098,0,218548,244388,218138.64,243515.56,409.36,872.44,-0.065331,-0.04813,0.515213,97.12,1
54137,0,218485,244189,218145.57,243529.03,339.42,659.97,-0.065363,-0.048185,0.515289,97.12,1
54178,0,218377,244057,218150.21,243539.59,226.78,517.41,-0.065384,-0.048229,0.515276,97.12,1
54218,0,218344,244053,218154.09,243549.87,189.91,503.13,-0.065402,-0.048271,0.515224,97.12,1
54258,0,218331,244178,218157.64,243562.43,173.36,615.56,-0.065419,-0.048323,0.515064,97.12,1
54298,0,218408,244191,218162.64,243575,245.36,616,-0.065441,-0.048374,0.515001,97.12,1
54338,0,218392,244154,218167.23,243586.57,224.77,567.42,-0.065462,-0.048422,0.514947,97.13,1
54378,0,218334,244137,218170.56,243597.57,163.44,539.42,-0.065478,-0.048467,0.514835,97.13,1
54418,0,218354,244178,218174.23,243609.18,179.77,568.81,-0.065495,-0.048515,0.514717,97.13,1
54458,0,218309,244237,218176.93,243621.75,132.06,615.25,-0.065507,-0.048566,0.514508,97.14,1
54497,0,218372,244502,218180.84,243639.35,191.16,862.64,-0.065525,-0.048638,0.514095,97.15,1
54538,0,218527,244727,218187.78,243661.12,339.22,1065.88,-0.065557,-0.048728,0.513664,97.16,1
54579,0,218545,244767,218194.93,243683.25,350.06,1083.75,-0.065589,-0.048819,0.513229,97.17,1
54618,0,218532,244671,218201.68,243703.01,330.31,967.98,-0.06562,-0.0489,0.512922,97.18,1
54659,0,218394,244332,218205.53,243715.59,188.47,616.41,-0.065638,-0.048951,0.51277,97.18,1
54697,0,218274,243951,218206.9,243720.29,67.09,230.7,-0.065644,-0.048971,0.512753,97.18,1
54738,0,218208,243942,218206.92,243724.73,1.08,217.27,-0.065644,-0.048989,0.512723,97.18,1
54777,0,218236,243957,218207.5,243729.39,28.5,227.61,-0.065647,-0.049008,0.512693,97.18,1
54817,0,218213,243975,218207.62,243734.31,5.38,240.69,-0.065648,-0.049028,0.512655,97.18,1
54857,0,218232,244148,218208.12,243742.57,23.87,405.42,-0.06565,-0.049062,0.512535,97.19,1
54897,0,218317,244293,218210.31,243753.59,106.69,539.41,-0.06566,-0.049107,0.512354,97.19,1
54938,0,218423,244592,218214.56,243770.37,208.44,821.63,-0.065679,-0.049176,0.511985,97.2,1
54977,0,218544,244742,218221.15,243789.81,322.84,952.19,-0.06571,-0.049256,0.51166,97.21,1
55018,0,218568,244808,218228.09,243810.17,339.91,997.83,-0.065741,-0.049339,0.511306,97.22,1
55057,0,218591,244929,218235.34,243832.54,355.66,1096.45,-0.065775,-0.049431,0.510824,97.23,1
55098,0,218628,244999,218243.2,243855.89,384.8,1143.11,-0.065811,-0.049527,0.510339,97.24,1
55137,0,218687,245120,218252.07,243881.18,434.92,1238.81,-0.065851,-0.049631,0.509828,97.25,1
55178,0,218728,245285,218261.6,243909.26,466.39,1375.73,-0.065895,-0.049746,0.509134,97.27,1
55217,0,218794,245430,218272.25,243939.67,521.75,1490.33,-0.065944,-0.04987,0.508386,97.29,1
55258,0,218822,245614,218283.25,243973.17,538.75,1640.83,-0.065994,-0.050008,0.507324,97.32,1
55297,0,218930,245811,218296.18,244009.93,633.81,1801.06,-0.066053,-0.050158,0.50626,97.34,1
55337,0,219032,246007,218310.9,244049.89,721.09,1957.11,-0.066121,-0.050322,0.505198,97.37,1
55376,0,219094,246073,218326.56,244090.34,767.44,1982.66,-0.066192,-0.050488,0.504343,97.39,1
55417,0,219086,245997,218341.75,244128.48,744.25,1868.52,-0.066262,-0.050644,0.503717,97.41,1
55456,0,219104,246027,218357,244166.46,747,1860.53,-0.066332,-0.0508,0.50314,97.42,1
55497,0,219163,246114,218373.12,244205.42,789.88,1908.58,-0.066406,-0.050959,0.502686,97.43,1
55536,0,219249,246245,218390.65,244246.21,858.34,1998.78,-0.066486,-0.051126,0.502403,97.44,1
55577,0,219263,246296,218408.1,244287.21,854.89,2008.78,-0.066566,-0.051294,0.502069,97.45,1
55616,0,219290,246372,218425.75,244328.92,864.25,2043.08,-0.066647,-0.051465,0.501693,97.46,1
55657,0,219267,246410,218442.57,244370.54,824.42,2039.45,-0.066724,-0.051635,0.501069,97.47,1
55696,0,219312,246483,218459.96,244412.79,852.03,2070.2,-0.066803,-0.051808,0.500538,97.49,1
55737,0,219339,246530,218477.56,244455.14,861.44,2074.86,-0.066884,-0.051981,0.500064,97.5,1
55776,0,219334,246608,218494.68,244498.2,839.31,2109.8,-0.066962,-0.052157,0.499335,97.52,1
55816,0,219368,246763,218512.15,244543.51,855.84,2219.48,-0.067042,-0.052343,0.498359,97.54,1
55857,0,219423,246892,218530.37,244590.5,892.63,2301.5,-0.067126,-0.052535,0.497365,97.57,1
55896,0,219447,246893,218548.7,244636.54,898.3,2256.45,-0.067209,-0.052723,0.496589,97.59,1
55936,0,219467,246957,218567.07,244682.96,899.92,2274.03,-0.067294,-0.052913,0.49578,97.61,1
55975,0,219447,246965,218584.67,244728.6,862.33,2236.39,-0.067374,-0.053099,0.494861,97.63,1
56016,0,219404,246876,218601.06,244771.56,802.94,2104.44,-0.067449,-0.053275,0.494011,97.65,1
56055,0,219305,246674,218615.14,244809.62,689.86,1864.38,-0.067513,-0.05343,0.49324,97.67,1
56096,0,219156,246180,218625.96,244837.03,530.03,1342.97,-0.067563,-0.053542,0.492981,97.68,1
56136,0,218832,245463,218630.09,244849.56,201.91,613.44,-0.067582,-0.053593,0.49287,97.68,1
56176,0,218467,244609,218626.84,244844.75,-159.84,-235.75,-0.067567,-0.053574,0.492944,97.68,1
56215,0,218013,243535,218614.57,244818.56,-601.58,-1283.56,-0.067511,-0.053467,0.49312,97.67,1
56256,0,217528,242195,218592.85,244766.1,-1064.86,-2571.11,-0.067411,-0.053252,0.492525,97.69,1
56296,0,216906,240833,218559.12,244687.45,-1653.13,-3854.45,-0.067257,-0.052931,0.491938,97.7,1
56336,0,216464,240200,218517.23,244597.7,-2053.23,-4397.7,-0.067065,-0.052564,0.493614,97.66,1
56376,0,216258,239848,218472.04,244502.7,-2214.05,-4654.7,-0.066859,-0.052176,0.495904,97.6,1
56416,0,215996,239427,218422.53,244401.2,-2426.53,-4974.2,-0.066632,-0.05176,0.49915,97.52,1
56456,0,215775,239322,218369.57,244299.62,-2594.58,-4977.62,-0.066389,-0.051345,0.504543,97.39,1
56496,0,215726,239332,218316.7,244200.28,-2590.7,-4868.28,-0.066147,-0.050938,0.509899,97.25,1
56536,0,215648,239203,218263.32,244100.34,-2615.33,-4897.34,-0.065903,-0.050529,0.514878,97.13,1
56574,0,215526,238899,218208.57,243996.32,-2682.58,-5097.33,-0.065652,-0.050102,0.51916,97.02,1
56615,0,215314,238593,218150.68,243888.26,-2836.69,-5295.27,-0.065387,-0.04966,0.523962,96.9,1
56654,0,215043,237917,218088.53,243768.84,-3045.53,-5851.84,-0.065102,-0.04917,0.527892,96.8,1
56695,0,214692,237429,218020.6,243642.04,-3328.61,-6213.05,-0.06479,-0.048649,0.533066,96.67,1
56734,0,214476,236903,217949.71,243507.26,-3473.72,-6604.27,-0.064465,-0.048096,0.537229,96.57,1
56775,0,214050,235932,217871.73,243355.76,-3821.73,-7423.77,-0.064107,-0.047474,0.540549,96.49,1
56814,0,213623,235254,217786.75,243193.73,-4163.75,-7939.73,-0.063717,-0.046808,0.54475,96.38,1
56855,0,213214,234348,217695.29,243016.81,-4481.3,-8668.81,-0.063297,-0.04608,0.548008,96.3,1
56894,0,212755,233680,217596.48,242830.07,-4841.48,-9150.08,-0.062843,-0.045311,0.552394,96.19,1
56935,0,212513,233362,217494.82,242640.71,-4981.83,-9278.72,-0.062376,-0.044531,0.556954,96.08,1
56975,0,212339,232924,217391.71,242446.39,-5052.72,-9522.39,-0.061901,-0.04373,0.560249,95.99,1
57015,0,212069,232377,217285.26,242245.01,-5216.27,-9868.02,-0.061412,-0.042899,0.56298,95.93,1
57055,0,211799,231846,217175.54,242037.04,-5376.55,-10191.05,-0.060907,-0.04204,0.565307,95.87,1
57095,0,211547,231270,217062.98,241821.71,-5515.98,-10551.72,-0.060388,-0.04115,0.566912,95.83,1
57135,0,211314,230783,216948.01,241600.93,-5634.02,-10817.94,-0.059858,-0.040237,0.568141,95.8,1
57174,0,211019,229892,216829.43,241366.76,-5810.44,-11474.77,-0.059312,-0.039267,0.567883,95.8,1
57214,0,210524,229213,216703.34,241123.7,-6179.34,-11910.7,-0.05873,-0.038259,0.568859,95.78,1
57254,0,210198,228883,216573.23,240878.89,-6375.23,-11995.89,-0.058129,-0.037244,0.570878,95.73,1
57294,0,210050,228624,216442.78,240633.79,-6392.78,-12009.8,-0.057527,-0.036226,0.572675,95.68,1
57334,0,209930,228385,216312.53,240388.82,-6382.53,-12003.83,-0.056925,-0.035207,0.574171,95.65,1
57375,0,209788,228089,216182.04,240142.84,-6394.05,-12053.84,-0.056321,-0.034183,0.575384,95.62,1
57414,0,209661,228063,216051.62,239901.25,-6390.62,-11838.25,-0.055718,-0.033177,0.577081,95.57,1
57454,0,209658,228118,215923.75,239665.59,-6265.75,-11547.59,-0.055126,-0.032194,0.578696,95.53,1
57494,0,209638,228013,215798.04,239432.54,-6160.05,-11419.55,-0.054544,-0.031221,0.579918,95.5,1
57534,0,209557,227937,215673.23,239202.64,-6116.23,-11265.64,-0.053965,-0.03026,0.58119,95.47,1
57574,0,209586,228141,215551.5,238981.4,-5965.5,-10840.41,-0.0534,-0.029335,0.582643,95.43,1
57614,0,209719,228655,215434.84,238774.87,-5715.84,-10119.87,-0.052859,-0.02847,0.584452,95.39,1
57655,0,209968,228911,215325.51,238577.59,-5357.52,-9666.59,-0.052352,-0.027644,0.585574,95.36,1
57694,0,209921,228983,215217.43,238385.7,-5296.44,-9402.7,-0.051849,-0.026839,0.586901,95.33,1
57734,0,210037,229318,215113.82,238204.35,-5076.83,-8886.36,-0.051368,-0.026078,0.58828,95.29,1
57774,0,210261,229960,215016.78,238039.48,-4755.78,-8079.48,-0.050917,-0.025386,0.589831,95.25,1
57814,0,210667,230929,214929.79,237897.28,-4262.8,-6968.28,-0.050512,-0.024788,0.591413,95.21,1
57853,0,211146,231964,214854.12,237778.62,-3708.12,-5814.62,-0.05016,-0.024289,0.592865,95.18,1
57893,0,211651,233037,214790.06,237683.79,-3139.06,-4646.8,-0.049862,-0.023891,0.594142,95.15,1
57933,0,212262,233995,214739.5,237610.03,-2477.5,-3615.03,-0.049626,-0.02358,0.594956,95.13,1
57973,0,212694,234731,214698.59,237552.45,-2004.59,-2821.45,-0.049436,-0.023338,0.595534,95.11,1
58014,0,212973,235124,214664.07,237503.89,-1691.08,-2379.89,-0.049275,-0.023133,0.595935,95.1,1
58053,0,213171,235689,214634.21,237467.59,-1463.22,-1778.59,-0.049136,-0.022981,0.596337,95.09,1
58094,0,213507,236377,214611.67,237445.79,-1104.67,-1068.8,-0.049031,-0.022889,0.596618,95.08,1
58133,0,213927,237387,214597.98,237444.62,-670.98,-57.63,-0.048967,-0.022884,0.596739,95.08,1
58174,0,214466,238405,214595.34,237463.82,-129.34,941.17,-0.048955,-0.022965,0.596607,95.08,1
58213,0,215006,239733,214603.56,237509.21,402.44,2223.78,-0.048993,-0.023156,0.596095,95.1,1
58254,0,215700,241085,214625.5,237580.73,1074.5,3504.27,-0.049095,-0.023457,0.595164,95.12,1
58293,0,216206,241951,214657.12,237668.14,1548.88,4282.86,-0.049243,-0.023825,0.594051,95.15,1
58334,0,216556,242430,214695.1,237763.37,1860.89,4666.62,-0.049419,-0.024225,0.592976,95.18,1
58373,0,216740,242854,214736.01,237865.18,2003.98,4988.81,-0.04961,-0.024653,0.591783,95.21,1
58414,0,216934,243259,214779.96,237973.06,2154.03,5285.94,-0.049815,-0.025107,0.590509,95.24,1
58452,0,217095,243661,214826.28,238086.82,2268.72,5574.17,-0.05003,-0.025585,0.589107,95.27,1
58493,0,217272,243999,214875.2,238205.07,2396.8,5793.92,-0.050258,-0.026081,0.587683,95.31,1
58532,0,217443,244442,214926.56,238329.82,2516.44,6112.17,-0.050497,-0.026605,0.586102,95.35,1
58572,0,217683,244693,214981.68,238457.09,2701.31,6235.91,-0.050753,-0.027139,0.584752,95.38,1
58612,0,217735,244682,215036.76,238581.59,2698.23,6100.41,-0.05101,-0.027661,0.583595,95.41,1
58652,0,217750,244612,215091.03,238702.2,2658.97,5909.8,-0.051262,-0.028166,0.582614,95.43,1
58693,0,217724,244611,215143.7,238820.37,2580.3,5790.62,-0.051507,-0.028661,0.581636,95.46,1
58732,0,217783,244731,215196.48,238938.59,2586.52,5792.41,-0.051752,-0.029156,0.580681,95.48,1
58773,0,217874,244820,215250.04,239056.23,2623.95,5763.77,-0.052001,-0.029648,0.579848,95.5,1
58812,0,217926,244935,215303.56,239173.81,2622.44,5761.19,-0.052249,-0.03014,0.579026,95.52,1
58853,0,217992,245024,215357.34,239290.82,2634.66,5733.17,-0.052499,-0.030629,0.578274,95.54,1
58892,0,218004,245110,215410.28,239407.21,2593.72,5702.78,-0.052745,-0.031115,0.577486,95.56,1
58933,0,218071,245212,215463.5,239523.31,2607.5,5688.69,-0.052992,-0.0316,0.576752,95.58,1
58972,0,218164,245347,215517.51,239639.78,2646.48,5707.22,-0.053243,-0.032086,0.576085,95.6,1
59013,0,218226,245529,215571.68,239757.56,2654.31,5771.44,-0.053494,-0.032578,0.575368,95.62,1
59052,0,218327,245637,215626.81,239875.15,2700.19,5761.84,-0.05375,-0.033068,0.574766,95.63,1
59092,0,218381,245734,215681.9,239992.34,2699.09,5741.66,-0.054005,-0.033556,0.574193,95.65,1
59131,0,218465,245891,215737.56,240110.31,2727.44,5780.69,-0.054263,-0.034048,0.573642,95.66,1
59172,0,218581,246168,215794.43,240231.46,2786.56,5936.53,-0.054527,-0.034552,0.573039,95.67,1
59211,0,218722,246461,215852.98,240356.06,2869.02,6104.94,-0.054798,-0.035071,0.57242,95.69,1
59252,0,218870,246777,215913.32,240484.5,2956.67,6292.5,-0.055078,-0.035605,0.571773,95.71,1
59292,0,218988,247021,215974.82,240615.23,3013.17,6405.77,-0.055362,-0.036148,0.571123,95.72,1
59332,0,219073,246928,216036.78,240741.5,3036.22,6186.5,-0.055649,-0.036673,0.570809,95.73,1
59372,0,219060,246818,216097.25,240863.03,2962.75,5954.97,-0.055929,-0.037178,0.570612,95.73,1
59411,0,219056,246767,216156.43,240981.12,2899.56,5785.87,-0.056203,-0.037668,0.570476,95.74,1
59452,0,219036,246800,216214.03,241097.5,2821.97,5702.5,-0.056469,-0.038151,0.57027,95.74,1
59491,0,219054,246864,216270.82,241212.82,2783.17,5651.17,-0.056732,-0.038629,0.570045,95.75,1
59532,0,219074,246852,216326.9,241325.62,2747.09,5526.37,-0.056991,-0.039097,0.569885,95.75,1
59571,0,219099,246892,216382.35,241436.95,2716.64,5455.05,-0.057248,-0.039558,0.569742,95.76,1
59612,0,219087,246887,216436.45,241545.95,2650.55,5341.05,-0.057498,-0.040009,0.569589,95.76,1
59651,0,219095,246954,216489.64,241654.1,2605.36,5299.89,-0.057743,-0.040457,0.569393,95.77,1
59692,0,219105,247090,216541.95,241762.82,2563.05,5327.17,-0.057985,-0.040907,0.56909,95.77,1
59730,0,219190,247220,216594.92,241871.98,2595.08,5348.02,-0.058229,-0.041358,0.568831,95.78,1
59771,0,219285,247388,216648.73,241982.31,2636.27,5405.69,-0.058478,-0.041814,0.568595,95.79,1
59810,0,219345,247568,216702.67,242094.03,2642.33,5473.97,-0.058727,-0.042276,0.568303,95.79,1
59851,0,219419,247719,216757,242206.53,2662,5512.47,-0.058977,-0.04274,0.568012,95.8,1
59890,0,219447,247925,216810.79,242320.9,2636.2,5604.09,-0.059226,-0.043212,0.567576,95.81,1
59931,0,219578,248179,216866.14,242438.07,2711.86,5740.92,-0.059481,-0.043696,0.567146,95.82,1
59970,0,219727,248462,216923.37,242558.56,2803.62,5903.44,-0.059745,-0.044193,0.566729,95.83,1
60011,0,219790,248557,216980.7,242678.53,2809.3,5878.47,-0.060009,-0.044687,0.566359,95.84,1
60050,0,219789,248517,217036.87,242795.31,2752.12,5721.69,-0.060268,-0.045168,0.566051,95.85,1
60091,0,219710,248283,217090.34,242905.06,2619.66,5377.94,-0.060514,-0.04562,0.56585,95.85,1
60131,0,219658,248180,217141.7,243010.56,2516.3,5169.44,-0.060751,-0.046054,0.565666,95.86,1
60171,0,219675,248145,217192.37,243113.26,2482.62,5031.73,-0.060984,-0.046477,0.565556,95.86,1
60211,0,219627,248155,217241.07,243214.09,2385.92,4940.91,-0.061208,-0.046891,0.565359,95.87,1
60251,0,219661,248281,217289.48,243315.43,2371.52,4965.56,-0.061431,-0.047308,0.565115,95.87,1
60291,0,219762,248597,217338.93,243421.07,2423.06,5175.92,-0.061659,-0.047742,0.56476,95.88,1
60331,0,219916,248755,217390.46,243527.75,2525.53,5227.25,-0.061896,-0.04818,0.564548,95.89,1
60370,0,219977,248840,217442.2,243634,2534.8,5206,-0.062134,-0.048617,0.564378,95.89,1
60410,0,219989,248877,217493.14,243738.87,2495.86,5138.12,-0.062368,-0.049047,0.564205,95.89,1
60450,0,219967,248886,217542.62,243841.82,2424.37,5044.17,-0.062595,-0.049469,0.563994,95.9,1
60489,0,219921,248866,217590.2,243942.31,2330.8,4923.69,-0.062814,-0.049881,0.563733,95.91,1
60530,0,219883,248855,217636.06,244040.56,2246.94,4814.44,-0.063025,-0.050284,0.563431,95.91,1
60569,0,219905,248919,217681.43,244138.12,2223.56,4780.87,-0.063233,-0.050684,0.563124,95.92,1
60610,0,219916,249006,217726.12,244235.48,2189.87,4770.52,-0.063439,-0.051082,0.562772,95.93,1
60649,0,219950,249116,217770.6,244333.09,2179.39,4782.91,-0.063643,-0.051482,0.562394,95.94,1
60690,0,219963,249200,217814.46,244430.43,2148.53,4769.56,-0.063844,-0.05188,0.561979,95.95,1
60730,0,219988,249235,217857.95,244526.53,2130.05,4708.47,-0.064044,-0.052273,0.561593,95.96,1
60770,0,220030,249363,217901.39,244623.26,2128.61,4739.73,-0.064243,-0.052669,0.561179,95.97,1
60810,0,220079,249391,217944.93,244718.62,2134.06,4672.37,-0.064443,-0.053058,0.560839,95.98,1
60850,0,220061,249244,217987.26,244809.12,2073.73,4434.87,-0.064637,-0.053428,0.560616,95.98,1
60890,0,220001,249109,218027.54,244895.12,1973.45,4213.87,-0.064822,-0.053779,0.560424,95.99,1
60930,0,219989,249070,218066.78,244978.64,1922.22,4091.36,-0.065002,-0.05412,0.560255,95.99,1
60969,0,220016,249090,218105.76,245060.87,1910.23,4029.12,-0.065181,-0.054456,0.560119,96,1
61009,0,220021,248995,218144.07,245139.56,1876.92,3855.44,-0.065356,-0.054777,0.560071,96,1
61049,0,219952,248900,218180.25,245214.78,1771.75,3685.22,-0.065522,-0.055084,0.559999,96,1
61090,0,219840,248819,218213.45,245286.85,1626.55,3532.14,-0.065674,-0.055378,0.559841,96,1
61129,0,219792,248735,218245.03,245355.82,1546.97,3379.17,-0.065819,-0.055659,0.559688,96.01,1
61170,0,219761,248692,218275.35,245422.56,1485.64,3269.44,-0.065958,-0.055931,0.559535,96.01,1
61209,0,219740,248660,218304.65,245487.31,1435.34,3172.69,-0.066092,-0.056195,0.559384,96.02,1
61250,0,219714,248732,218332.84,245552.21,1381.16,3179.78,-0.066221,-0.056459,0.559167,96.02,1
61289,0,219731,248867,218360.81,245618.51,1370.19,3248.48,-0.066349,-0.056729,0.55889,96.03,1
61330,0,219770,248944,218389,245685.03,1381,3258.97,-0.066478,-0.057,0.558617,96.03,1
61369,0,219770,248880,218416.62,245748.92,1353.38,3131.08,-0.066605,-0.05726,0.558399,96.04,1
61410,0,219739,248825,218443.07,245810.45,1295.92,3014.55,-0.066726,-0.05751,0.558191,96.05,1
61449,0,219690,248802,218468.01,245870.29,1221.98,2931.7,-0.06684,-0.057754,0.557956,96.05,1
61490,0,219642,248786,218491.5,245928.6,1150.5,2857.39,-0.066948,-0.057991,0.557693,96.06,1
61529,0,219594,248749,218513.54,245985.03,1080.45,2763.97,-0.067049,-0.05822,0.557417,96.06,1
61570,0,219602,248719,218535.32,246039.7,1066.67,2679.3,-0.067148,-0.058442,0.557178,96.07,1
61608,0,219543,248433,218555.48,246087.56,987.52,2345.44,-0.06724,-0.058637,0.55705,96.07,1
61648,0,219427,248147,218572.92,246128.75,854.08,2018.25,-0.06732,-0.058804,0.556969,96.08,1
61688,0,219322,247974,218587.9,246165.67,734.09,1808.33,-0.067389,-0.058954,0.556891,96.08,1
61729,0,219266,247839,218601.46,246199.14,664.53,1639.86,-0.067451,-0.05909,0.556834,96.08,1
61768,0,219226,247724,218613.95,246229.64,612.05,1494.36,-0.067508,-0.059214,0.556796,96.08,1
61809,0,219197,247559,218625.6,246256.21,571.39,1302.78,-0.067561,-0.059322,0.556797,96.08,1
61848,0,219117,247492,218635.43,246280.93,481.56,1211.06,-0.067606,-0.059422,0.556781,96.08,1
61889,0,219093,247448,218644.59,246304.28,448.41,1143.72,-0.067648,-0.059517,0.556767,96.08,1
61928,0,219061,247383,218652.92,246325.85,408.08,1057.14,-0.067686,-0.059605,0.556759,96.08,1
61969,0,219048,247343,218660.82,246346.2,387.17,996.8,-0.067722,-0.059687,0.556757,96.08,1
62008,0,219058,247316,218668.76,246365.59,389.23,950.41,-0.067759,-0.059766,0.556766,96.08,1
62049,0,219036,247375,218676.1,246385.78,359.89,989.22,-0.067792,-0.059848,0.556754,96.08,1
62088,0,219081,247450,218684.21,246407.07,396.78,1042.92,-0.067829,-0.059934,0.556742,96.08,1
62129,0,219081,247499,218692.15,246428.92,388.84,1070.08,-0.067866,-0.060023,0.55672,96.08,1
62168,0,219115,247560,218700.6,246451.54,414.39,1108.45,-0.067904,-0.060115,0.556696,96.08,1
62209,0,219155,247641,218709.68,246475.32,445.31,1165.67,-0.067946,-0.060211,0.556669,96.08,1
62248,0,219189,247688,218719.28,246499.59,469.72,1188.41,-0.06799,-0.06031,0.556646,96.08,1
62287,0,219207,247758,218729.04,246524.76,477.95,1233.23,-0.068034,-0.060412,0.556612,96.08,1
62328,0,219183,247615,218738.12,246546.57,444.88,1068.42,-0.068076,-0.0605,0.55661,96.08,1
62367,0,219081,247252,218744.98,246560.7,336.02,691.3,-0.068107,-0.060558,0.55665,96.08,1
62408,0,218983,246968,218749.75,246568.85,233.25,399.14,-0.068129,-0.060591,0.5567,96.08,1
62447,0,218890,246781,218752.56,246573.1,137.44,207.89,-0.068142,-0.060608,0.556747,96.08,1
62488,0,218826,246643,218754.03,246574.51,71.97,68.48,-0.068149,-0.060614,0.55679,96.08,1
62527,0,218760,246472,218754.15,246572.46,5.84,-100.47,-0.068149,-0.060605,0.55683,96.08,1
62568,0,218674,246287,218752.56,246566.76,-78.56,-279.77,-0.068142,-0.060582,0.556863,96.08,1
62607,0,218636,246191,218750.23,246559.25,-114.23,-368.25,-0.068131,-0.060552,0.556891,96.08,1
62648,0,218593,246099,218747.09,246550.04,-154.09,-451.05,-0.068117,-0.060514,0.556915,96.08,1
62688,0,218583,246049,218743.81,246540.03,-160.81,-491.03,-0.068102,-0.060474,0.556935,96.08,1
62727,0,218555,246075,218740.03,246530.73,-185.03,-455.73,-0.068085,-0.060436,0.556963,96.08,1
62768,0,218615,246113,218737.53,246522.39,-122.53,-409.39,-0.068073,-0.060402,0.556985,96.08,1
62807,0,218641,246147,218735.59,246514.89,-94.59,-367.89,-0.068064,-0.060372,0.557008,96.07,1
62848,0,218665,246244,218734.18,246509.46,-69.19,-265.47,-0.068058,-0.06035,0.557038,96.07,1
62886,0,218727,246346,218734.06,246506.2,-7.06,-160.2,-0.068057,-0.060337,0.55707,96.07,1
62927,0,218744,246437,218734.26,246504.81,9.73,-67.81,-0.068058,-0.060331,0.557105,96.07,1
62967,0,218802,246515,218735.62,246505.01,66.37,9.98,-0.068064,-0.060332,0.557144,96.07,1
63006,0,218857,246570,218738.06,246506.32,118.94,63.67,-0.068076,-0.060337,0.557187,96.07,1
63047,0,218858,246612,218740.46,246508.43,117.53,103.56,-0.068087,-0.060346,0.557229,96.07,1
63087,0,218850,246440,218742.65,246507.07,107.34,-67.08,-0.068097,-0.06034,0.55727,96.07,1
63127,0,218740,246129,218742.6,246499.51,-2.61,-370.52,-0.068096,-0.060309,0.557282,96.07,1
63167,0,218703,245917,218741.82,246487.87,-38.83,-570.88,-0.068093,-0.060262,0.557264,96.07,1
63206,0,218693,245798,218740.85,246474.07,-47.86,-676.08,-0.068088,-0.060206,0.557224,96.07,1
63247,0,218646,245661,218738.96,246457.81,-92.97,-796.81,-0.06808,-0.06014,0.557158,96.07,1
63286,0,218606,245513,218736.31,246438.92,-130.31,-925.92,-0.068067,-0.060064,0.557059,96.07,1
63327,0,218556,245452,218732.71,246419.18,-176.72,-967.19,-0.068051,-0.059983,0.556955,96.08,1
63367,0,218544,245340,218728.93,246397.6,-184.94,-1057.61,-0.068034,-0.059896,0.556821,96.08,1
63407,0,218520,245267,218724.76,246375,-204.77,-1108,-0.068015,-0.059804,0.556671,96.08,1
63447,0,218474,245192,218719.76,246351.34,-245.77,-1159.34,-0.067992,-0.059708,0.556511,96.09,1
63486,0,218467,245199,218714.71,246328.31,-247.72,-1129.31,-0.067969,-0.059615,0.556362,96.09,1
63526,0,218477,245268,218709.96,246307.1,-232.97,-1039.11,-0.067947,-0.059529,0.556239,96.09,1
63566,0,218517,245290,218706.12,246286.76,-189.13,-996.77,-0.067929,-0.059446,0.556117,96.1,1
63606,0,218524,245264,218702.48,246266.31,-178.48,-1002.31,-0.067913,-0.059363,0.555987,96.1,1
63646,0,218476,245217,218697.95,246245.32,-221.95,-1028.33,-0.067892,-0.059278,0.555859,96.1,1
63686,0,218452,245191,218693.04,246224.23,-241.05,-1033.23,-0.06787,-0.059192,0.555733,96.11,1
63726,0,218391,245166,218687,246203.06,-296,-1037.06,-0.067842,-0.059106,0.555626,96.11,1
63766,0,218396,245169,218681.18,246182.37,-285.19,-1013.38,-0.067815,-0.059022,0.555522,96.11,1
63806,0,218408,245253,218675.71,246163.79,-267.72,-910.8,-0.06779,-0.058947,0.555445,96.11,1
63846,0,218447,245273,218671.14,246145.98,-224.14,-872.98,-0.06777,-0.058874,0.555363,96.12,1
63886,0,218369,244949,218665.09,246122.04,-296.09,-1173.05,-0.067742,-0.058777,0.555192,96.12,1
63926,0,218213,244538,218656.06,246090.37,-443.06,-1552.38,-0.067701,-0.058648,0.554906,96.13,1
63966,0,218043,244209,218643.81,246052.75,-600.81,-1843.75,-0.067645,-0.058495,0.554557,96.14,1
64006,0,217957,244072,218630.07,246013.14,-673.08,-1941.14,-0.067582,-0.058334,0.554206,96.14,1
64046,0,217848,243819,218614.43,245969.25,-766.44,-2150.25,-0.06751,-0.058156,0.553793,96.16,1
64087,0,217726,243696,218596.67,245923.79,-870.67,-2227.8,-0.067429,-0.057971,0.553448,96.16,1
64125,0,217674,243674,218578.23,245878.81,-904.23,-2204.81,-0.067345,-0.057788,0.553169,96.17,1
64166,0,217675,243620,218560.17,245833.64,-885.17,-2213.64,-0.067262,-0.057604,0.552853,96.18,1
64205,0,217683,243599,218542.62,245788.95,-859.63,-2189.95,-0.067182,-0.057423,0.552519,96.19,1
64246,0,217672,243340,218525.21,245739.96,-853.22,-2399.97,-0.067102,-0.057223,0.551981,96.2,1
64285,0,217461,242943,218503.93,245684.03,-1042.94,-2741.03,-0.067005,-0.056996,0.551387,96.22,1
64324,0,217276,242732,218479.37,245625,-1203.38,-2893,-0.066892,-0.056755,0.550921,96.23,1
64365,0,217246,242817,218454.71,245568.84,-1208.72,-2751.84,-0.066779,-0.056527,0.550626,96.23,1
64405,0,217355,243035,218432.71,245518.17,-1077.72,-2483.17,-0.066679,-0.05632,0.550364,96.24,1
64445,0,217472,243252,218413.5,245472.85,-941.5,-2220.86,-0.066591,-0.056136,0.550119,96.25,1
64485,0,217580,243521,218396.82,245433.82,-816.83,-1912.83,-0.066514,-0.055977,0.549947,96.25,1
64525,0,217683,243760,218382.54,245400.35,-699.55,-1640.36,-0.066449,-0.05584,0.549821,96.25,1
64565,0,217785,243929,218370.6,245370.93,-585.61,-1441.94,-0.066394,-0.05572,0.549694,96.26,1
64605,0,217884,244114,218360.87,245345.79,-476.88,-1231.8,-0.06635,-0.055618,0.549583,96.26,1
64645,0,217984,244283,218353.34,245324.54,-369.34,-1041.55,-0.066315,-0.055531,0.549482,96.26,1
64685,0,218031,244205,218346.9,245302.15,-315.91,-1097.16,-0.066286,-0.05544,0.549321,96.27,1
64724,0,217966,243875,218339.28,245273.62,-373.28,-1398.63,-0.066251,-0.055324,0.54903,96.27,1
64765,0,217884,243607,218330.18,245240.29,-446.19,-1633.3,-0.066209,-0.055188,0.548637,96.28,1
64804,0,217851,243487,218320.6,245205.23,-469.61,-1718.23,-0.066165,-0.055045,0.548197,96.3,1
64845,0,217842,243412,218311.04,245169.37,-469.05,-1757.38,-0.066121,-0.054899,0.547723,96.31,1
64884,0,217823,243363,218301.28,245133.25,-478.28,-1770.25,-0.066077,-0.054751,0.547244,96.32,1
64925,0,217817,243392,218291.6,245098.43,-474.61,-1706.44,-0.066032,-0.054609,0.546808,96.33,1
64964,0,217795,243290,218281.68,245062.26,-486.69,-1772.27,-0.065987,-0.054462,0.546328,96.34,1
65005,0,217803,243269,218272.12,245026.4,-469.13,-1757.41,-0.065943,-0.054315,0.54584,96.35,1
65044,0,217829,243256,218263.26,244991,-434.27,-1735,-0.065903,-0.054171,0.545336,96.37,1
65085,0,217816,243305,218254.31,244957.28,-438.31,-1652.28,-0.065861,-0.054033,0.544897,96.38,1
65124,0,217855,243452,218246.32,244927.18,-391.33,-1475.19,-0.065825,-0.05391,0.544544,96.39,1
65165,0,217894,243562,218239.28,244899.87,-345.28,-1337.88,-0.065793,-0.053799,0.544246,96.39,1
65204,0,217980,243742,218234.09,244876.71,-254.09,-1134.72,-0.065769,-0.053704,0.544007,96.4,1
65245,0,218068,243756,218230.78,244854.31,-162.78,-1098.31,-0.065754,-0.053613,0.543748,96.41,1
65284,0,218001,243691,218226.18,244831.04,-225.19,-1140.05,-0.065733,-0.053518,0.543488,96.41,1
65325,0,217963,243703,218220.93,244808.5,-257.94,-1105.5,-0.065709,-0.053426,0.54326,96.42,1
65363,0,217943,243749,218215.37,244787.31,-272.38,-1038.31,-0.065683,-0.053339,0.543074,96.42,1
65404,0,218001,243908,218211.09,244769.73,-210.09,-861.73,-0.065663,-0.053267,0.542937,96.43,1
65443,0,218101,244060,218208.89,244755.54,-107.89,-695.55,-0.065653,-0.053209,0.542828,96.43,1
65484,0,218115,243833,218207.01,244737.09,-92.02,-904.09,-0.065645,-0.053134,0.54263,96.43,1
65523,0,217961,243273,218202.09,244707.81,-241.09,-1434.81,-0.065622,-0.053014,0.54217,96.45,1
65564,0,217720,242808,218192.46,244669.81,-472.47,-1861.81,-0.065578,-0.052859,0.541529,96.46,1
65603,0,217575,242461,218180.12,244625.64,-605.13,-2164.64,-0.065522,-0.052678,0.54073,96.48,1
65644,0,217453,242174,218165.59,244576.6,-712.59,-2402.61,-0.065455,-0.052478,0.539807,96.5,1
65683,0,217350,242071,218149.28,244526.5,-799.28,-2455.5,-0.06538,-0.052273,0.538962,96.53,1
65724,0,217338,242068,218133.06,244477.32,-795.06,-2409.33,-0.065306,-0.052072,0.538166,96.55,1
65763,0,217344,242092,218117.28,244429.62,-773.28,-2337.62,-0.065233,-0.051877,0.53742,96.56,1
65804,0,217361,242068,218102.15,244382.39,-741.16,-2314.39,-0.065164,-0.051684,0.536644,96.58,1
65843,0,217370,242140,218087.53,244337.54,-717.53,-2197.55,-0.065097,-0.0515,0.535966,96.6,1
65884,0,217448,242350,218074.73,244297.79,-626.73,-1947.8,-0.065038,-0.051337,0.535416,96.61,1
65923,0,217550,242599,218064.25,244263.82,-514.25,-1664.83,-0.06499,-0.051198,0.534983,96.63,1
65964,0,217672,242898,218056.4,244236.51,-384.41,-1338.52,-0.064954,-0.051086,0.534672,96.63,1
66002,0,217781,243092,218050.9,244213.64,-269.91,-1121.64,-0.064929,-0.050993,0.534413,96.64,1
66043,0,217933,243412,218048.54,244197.6,-115.55,-785.61,-0.064918,-0.050927,0.534253,96.64,1
66082,0,218073,243792,218049.03,244189.5,23.97,-397.5,-0.06492,-0.050894,0.534202,96.64,1
66123,0,218310,244282,218054.26,244191.35,255.73,90.64,-0.064945,-0.050902,0.534271,96.64,1
66162,0,218568,244952,218064.54,244206.57,503.45,745.42,-0.064992,-0.050964,0.534418,96.64,1
66203,0,218887,245365,218081,244229.75,806,1135.25,-0.065067,-0.051059,0.53485,96.63,1
66242,0,219062,245481,218100.62,244254.78,961.38,1226.22,-0.065157,-0.051161,0.535566,96.61,1
66283,0,219223,245719,218123.06,244284.06,1099.94,1434.94,-0.06526,-0.051281,0.536485,96.59,1
66322,0,219452,246170,218149.65,244321.79,1302.34,1848.2,-0.065382,-0.051436,0.537626,96.56,1
66363,0,219696,246656,218180.59,244368.48,1515.41,2287.52,-0.065524,-0.051627,0.538997,96.53,1
66402,0,219943,247001,218215.84,244421.14,1727.16,2579.86,-0.065685,-0.051842,0.54081,96.48,1
66443,0,220134,247351,218254.21,244479.73,1879.78,2871.27,-0.065861,-0.052082,0.542834,96.43,1
66482,0,220286,247608,218294.85,244542.29,1991.14,3065.7,-0.066047,-0.052338,0.545033,96.37,1
66523,0,220436,247835,218337.68,244608.15,2098.31,3226.84,-0.066243,-0.052607,0.547446,96.31,1
66562,0,220523,247982,218381.39,244675.64,2141.61,3306.36,-0.066444,-0.052883,0.54989,96.25,1
66603,0,220597,247910,218425.7,244740.32,2171.3,3169.67,-0.066646,-0.053147,0.552712,96.18,1
66642,0,220519,247743,218467.56,244800.39,2051.44,2942.61,-0.066838,-0.053393,0.555285,96.12,1
66682,0,220390,247582,218506.01,244856.03,1883.98,2725.97,-0.067014,-0.05362,0.55739,96.07,1
66722,0,220253,247154,218540.96,244902,1712.03,2252,-0.067174,-0.053807,0.559438,96.01,1
66762,0,219863,246133,218567.42,244926.62,1295.58,1206.38,-0.067295,-0.053908,0.561051,95.97,1
66802,0,219343,244820,218582.93,244924.5,760.06,-104.5,-0.067366,-0.053899,0.561758,95.96,1
66842,0,218774,243476,218586.76,244895.53,187.23,-1419.53,-0.067384,-0.053781,0.561165,95.97,1
66882,0,218195,242416,218578.93,244845.93,-383.94,-2429.94,-0.067348,-0.053579,0.559488,96.01,1
66922,0,217869,241992,218564.73,244788.85,-695.73,-2796.86,-0.067283,-0.053345,0.557637,96.06,1
66962,0,217720,241549,218547.84,244724.07,-827.84,-3175.08,-0.067205,-0.053081,0.555345,96.12,1
67002,0,217533,240993,218527.54,244649.45,-994.55,-3656.45,-0.067113,-0.052776,0.552444,96.19,1
67042,0,217419,240936,218505.37,244575.18,-1086.38,-3639.19,-0.067011,-0.052472,0.549864,96.25,1
67082,0,217385,240869,218482.96,244501.06,-1097.97,-3632.06,-0.066909,-0.052169,0.547369,96.32,1
67122,0,217320,240787,218459.71,244426.78,-1139.72,-3639.78,-0.066802,-0.051865,0.54501,96.37,1
67162,0,217265,240695,218435.82,244352.15,-1170.83,-3657.16,-0.066693,-0.05156,0.542739,96.43,1
67202,0,217278,240723,218412.67,244279.57,-1134.67,-3556.58,-0.066587,-0.051263,0.540609,96.48,1
67240,0,217304,240656,218390.5,244207.1,-1086.5,-3551.11,-0.066485,-0.050966,0.538383,96.54,1
67281,0,217307,240815,218368.82,244139.26,-1061.83,-3324.27,-0.066386,-0.050688,0.53657,96.59,1
67320,0,217473,241164,218350.9,244079.76,-877.91,-2915.77,-0.066304,-0.050444,0.53506,96.62,1
67361,0,217648,241580,218336.84,244029.76,-688.84,-2449.77,-0.06624,-0.05024,0.533903,96.65,1
67400,0,217892,241988,218327.95,243988.93,-435.95,-2000.94,-0.066199,-0.050072,0.532961,96.68,1
67441,0,218080,242365,218322.98,243956.45,-242.98,-1591.45,-0.066176,-0.049939,0.532277,96.69,1
67480,0,218169,242570,218319.9,243928.73,-150.91,-1358.73,-0.066162,-0.049825,0.531744,96.71,1
67521,0,218340,243130,218320.31,243912.76,19.69,-782.77,-0.066164,-0.04976,0.531544,96.71,1
67560,0,218591,243397,218325.71,243902.45,265.28,-505.45,-0.066189,-0.049718,0.531543,96.71,1
67601,0,218552,243049,218330.25,243885.39,221.75,-836.39,-0.066209,-0.049648,0.531379,96.72,1
67642,0,218305,242620,218329.75,243860.09,-24.75,-1240.09,-0.066207,-0.049544,0.53089,96.73,1
67681,0,218160,242422,218326.35,243831.32,-166.36,-1409.33,-0.066192,-0.049426,0.530297,96.74,1
67722,0,218047,241807,218320.78,243790.84,-273.78,-1983.84,-0.066166,-0.04926,0.529163,96.77,1
67761,0,217717,240904,218308.71,243733.1,-591.72,-2829.11,-0.066111,-0.049023,0.527152,96.82,1
67802,0,217420,240340,218290.95,243665.25,-870.95,-3325.25,-0.066029,-0.048745,0.524786,96.88,1
67841,0,217315,240177,218271.43,243595.5,-956.44,-3418.5,-0.06594,-0.048458,0.522473,96.94,1
67881,0,217266,239979,218251.32,243523.17,-985.33,-3544.17,-0.065848,-0.048162,0.520004,97,1
67920,0,217193,239846,218230.17,243449.64,-1037.17,-3603.64,-0.065751,-0.04786,0.51759,97.06,1
67961,0,217145,239842,218208.48,243377.5,-1063.48,-3535.5,-0.065652,-0.047563,0.515431,97.11,1
68000,0,217195,240057,218188.21,243311.09,-993.22,-3254.09,-0.065559,-0.04729,0.51366,97.16,1
68040,0,217344,240319,218171.32,243251.25,-827.33,-2932.25,-0.065481,-0.047044,0.512067,97.2,1
68080,0,217453,240529,218156.96,243196.81,-703.97,-2667.81,-0.065415,-0.04682,0.510651,97.23,1
68120,0,217578,240903,218145.39,243150.93,-567.39,-2247.94,-0.065362,-0.046632,0.509597,97.26,1
68160,0,217729,241337,218137.06,243114.65,-408.06,-1777.66,-0.065324,-0.046483,0.508876,97.28,1
68200,0,217911,241620,218132.54,243084.78,-221.55,-1464.78,-0.065303,-0.04636,0.508284,97.29,1
68240,0,218006,241827,218130.03,243059.64,-124.03,-1232.64,-0.065292,-0.046256,0.507826,97.3,1
68280,0,218083,241932,218129.09,243037.09,-46.09,-1105.09,-0.065288,-0.046163,0.507435,97.31,1
68320,0,218126,242148,218129.03,243019.31,-3.03,-871.31,-0.065287,-0.04609,0.507178,97.32,1
68360,0,218214,242345,218130.73,243005.84,83.27,-660.84,-0.065295,-0.046035,0.507028,97.32,1
68400,0,218258,242433,218133.28,242994.39,124.72,-561.39,-0.065307,-0.045988,0.506927,97.33,1
68441,0,218325,242582,218137.12,242986.14,187.88,-404.14,-0.065324,-0.045954,0.506903,97.33,1
68480,0,218368,242585,218141.75,242978.12,226.25,-393.13,-0.065346,-0.045921,0.506906,97.33,1
68520,0,218296,242212,218144.84,242962.79,151.16,-750.8,-0.06536,-0.045858,0.506735,97.33,1
68559,0,218072,241549,218143.39,242934.53,-71.39,-1385.53,-0.065353,-0.045741,0.506101,97.35,1
68600,0,217847,241186,218137.46,242899.56,-290.47,-1713.56,-0.065326,-0.045597,0.505261,97.37,1
68639,0,217818,241164,218131.07,242864.85,-313.08,-1700.86,-0.065297,-0.045455,0.504452,97.39,1
68680,0,217856,241163,218125.57,242830.82,-269.58,-1667.83,-0.065272,-0.045314,0.503636,97.41,1
68719,0,217859,241236,218120.25,242798.93,-261.25,-1562.94,-0.065247,-0.045183,0.50292,97.43,1
68760,0,217914,241391,218116.12,242770.78,-202.13,-1379.78,-0.065228,-0.045067,0.502332,97.44,1
68799,0,218005,241628,218113.9,242747.93,-108.91,-1119.94,-0.065218,-0.044973,0.501907,97.45,1
68840,0,218128,241845,218114.18,242729.89,13.81,-884.89,-0.065219,-0.044899,0.501618,97.46,1
68879,0,218272,242130,218117.34,242717.89,154.66,-587.89,-0.065234,-0.044849,0.501513,97.46,1
68920,0,218342,242269,218121.84,242708.9,220.16,-439.91,-0.065254,-0.044812,0.5015,97.46,1
68959,0,218363,242315,218126.67,242701.03,236.33,-386.03,-0.065277,-0.04478,0.501516,97.46,1
69000,0,218318,242268,218130.5,242692.37,187.5,-424.38,-0.065294,-0.044744,0.501485,97.46,1
69039,0,218332,242266,218134.53,242683.84,197.47,-417.84,-0.065313,-0.044709,0.501464,97.46,1
69079,0,218345,242345,218138.75,242677.07,206.25,-332.08,-0.065332,-0.044681,0.501471,97.46,1
69118,0,218383,242522,218143.64,242673.98,239.36,-151.98,-0.065354,-0.044668,0.501536,97.46,1
69158,0,218452,242817,218149.81,242676.85,302.19,140.14,-0.065383,-0.04468,0.501665,97.46,1
69199,0,218576,243166,218158.34,242686.64,417.66,479.36,-0.065422,-0.04472,0.501869,97.45,1
69238,0,218784,243641,218170.87,242705.71,613.13,935.28,-0.065479,-0.044799,0.502206,97.44,1
69279,0,218974,243786,218186.95,242727.32,787.05,1058.67,-0.065553,-0.044888,0.502903,97.43,1
69318,0,218924,243398,218201.7,242740.73,722.3,657.27,-0.06562,-0.044943,0.503681,97.41,1
69359,0,218733,242906,218212.32,242744.04,520.67,161.95,-0.065669,-0.044957,0.504151,97.4,1
69398,0,218561,242572,218219.29,242740.6,341.7,-168.61,-0.065701,-0.044943,0.504333,97.39,1
69439,0,218496,242514,218224.84,242736.07,271.16,-222.08,-0.065727,-0.044924,0.504427,97.39,1
69478,0,218518,242474,218230.7,242730.84,287.3,-256.84,-0.065753,-0.044903,0.504533,97.39,1
69519,0,218476,242455,218235.6,242725.32,240.39,-270.33,-0.065776,-0.04488,0.50459,97.39,1
69558,0,218484,242434,218240.59,242719.5,243.41,-285.5,-0.065799,-0.044856,0.504646,97.38,1
69599,0,218431,242402,218244.4,242713.15,186.59,-311.16,-0.065816,-0.04483,0.50465,97.38,1
69638,0,218493,242515,218249.37,242709.18,243.63,-194.19,-0.065839,-0.044813,0.504726,97.38,1
69678,0,218550,242534,218255.39,242705.68,294.61,-171.69,-0.065866,-0.044799,0.504862,97.38,1
69719,0,218571,242721,218261.7,242706,309.3,15,-0.065895,-0.0448,0.505031,97.37,1
69757,0,218676,243048,218269.98,242712.84,406.02,335.16,-0.065933,-0.044828,0.505297,97.37,1
69798,0,218793,243296,218280.45,242724.51,512.55,571.48,-0.065981,-0.044876,0.505677,97.36,1
69837,0,218886,243450,218292.56,242739.03,593.44,710.97,-0.066037,-0.044936,0.506172,97.35,1
69878,0,218958,243539,218305.87,242755.03,652.13,783.97,-0.066098,-0.045002,0.506778,97.33,1
69917,0,218970,243657,218319.17,242773.07,650.83,883.92,-0.066159,-0.045076,0.507312,97.32,1
69958,0,218958,243552,218331.95,242788.67,626.05,763.33,-0.066217,-0.045141,0.507869,97.3,1
69997,0,218912,243631,218343.54,242805.53,568.45,825.47,-0.06627,-0.04521,0.508238,97.29,1
70038,0,218944,243648,218355.56,242822.37,588.44,825.63,-0.066325,-0.04528,0.508661,97.28,1
70078,0,218936,243303,218367.17,242832,568.83,471,-0.066379,-0.045319,0.509246,97.27,1
70117,0,218800,243053,218375.82,242836.42,424.17,216.58,-0.066418,-0.045337,0.509599,97.26,1
70158,0,218746,242879,218383.23,242837.28,362.77,41.72,-0.066452,-0.045341,0.509868,97.25,1
70197,0,218665,242734,218388.87,242835.21,276.13,-101.22,-0.066478,-0.045332,0.510011,97.25,1
70238,0,218596,242463,218393.03,242827.78,202.97,-364.78,-0.066497,-0.045302,0.510018,97.25,1
70277,0,218472,242146,218394.6,242814.15,77.39,-668.16,-0.066504,-0.045246,0.509793,97.26,1
70318,0,218333,242075,218393.37,242799.37,-60.38,-724.38,-0.066498,-0.045185,0.509523,97.26,1
70356,0,218350,242093,218392.51,242785.25,-42.52,-692.25,-0.066495,-0.045127,0.50927,97.27,1
70397,0,218306,242099,218390.79,242771.53,-84.8,-672.53,-0.066487,-0.04507,0.50904,97.27,1
70437,0,218346,242267,218389.9,242761.45,-43.91,-494.45,-0.066483,-0.045029,0.508898,97.28,1
70477,0,218462,242592,218391.34,242758.07,70.66,-166.08,-0.066489,-0.045015,0.508873,97.28,1
70517,0,218625,243036,218396.01,242763.64,228.98,272.36,-0.066511,-0.045038,0.508939,97.28,1
70556,0,218788,243211,218403.85,242772.59,384.14,438.41,-0.066547,-0.045075,0.509181,97.27,1
70597,0,218736,243007,218410.5,242777.28,325.5,229.72,-0.066577,-0.045094,0.509393,97.27,1
70636,0,218647,242859,218415.23,242778.9,231.77,80.09,-0.066599,-0.045101,0.509501,97.26,1
70677,0,218606,242732,218419.06,242777.96,186.94,-45.97,-0.066616,-0.045097,0.509565,97.26,1
70717,0,218542,242639,218421.53,242775.18,120.47,-136.19,-0.066627,-0.045085,0.50957,97.26,1
70757,0,218496,242577,218423.03,242771.23,72.97,-194.23,-0.066634,-0.045069,0.50954,97.26,1
70797,0,218307,241840,218420.71,242752.6,-113.72,-912.61,-0.066624,-0.044992,0.509099,97.27,1
70836,0,217954,241114,218411.39,242719.84,-457.39,-1605.84,-0.066581,-0.044857,0.508218,97.29,1
70877,0,217785,240750,218398.87,242680.45,-613.88,-1930.45,-0.066524,-0.044695,0.507154,97.32,1
70917,0,217660,240370,218384.1,242634.25,-724.11,-2264.25,-0.066456,-0.044505,0.505723,97.36,1
70957,0,217504,240082,218366.51,242583.2,-862.52,-2501.2,-0.066376,-0.044294,0.504276,97.39,1
70996,0,217454,240202,218348.26,242535.59,-894.27,-2333.59,-0.066292,-0.044098,0.50343,97.41,1
71036,0,217596,240559,218333.21,242496.06,-737.22,-1937.06,-0.066223,-0.043935,0.502824,97.43,1
71076,0,217722,240745,218321,242461.04,-599,-1716.05,-0.066167,-0.04379,0.502164,97.45,1
71116,0,217842,241218,218311.42,242436.18,-469.42,-1218.19,-0.066123,-0.043688,0.501925,97.45,1
71156,0,218103,241958,218307.26,242426.62,-204.27,-468.63,-0.066104,-0.043648,0.501893,97.45,1
71196,0,218431,242587,218309.75,242429.82,121.25,157.17,-0.066115,-0.043662,0.501895,97.45,1
71236,0,218644,242862,218316.43,242438.46,327.56,423.53,-0.066146,-0.043697,0.502067,97.45,1
71276,0,218742,243072,218324.95,242451.14,417.05,620.86,-0.066185,-0.04375,0.502309,97.44,1
71315,0,218784,243160,218334.12,242465.32,449.88,694.67,-0.066227,-0.043808,0.502579,97.44,1
71356,0,218803,243242,218343.51,242480.87,459.48,761.13,-0.06627,-0.043872,0.50282,97.43,1
71395,0,218777,243132,218352.2,242493.9,424.8,638.09,-0.06631,-0.043926,0.503076,97.42,1
71436,0,218677,243047,218358.7,242504.96,318.3,542.03,-0.06634,-0.043972,0.503173,97.42,1
71477,0,218734,243340,218366.21,242521.67,367.78,818.33,-0.066374,-0.04404,0.503148,97.42,1
71516,0,218860,243664,218376.1,242544.53,483.89,1119.47,-0.066419,-0.044135,0.503065,97.42,1
71557,0,219032,244106,218389.23,242575.76,642.77,1530.23,-0.06648,-0.044263,0.502859,97.43,1
71596,0,219182,244338,218405.09,242611.01,776.91,1726.98,-0.066552,-0.044409,0.502831,97.43,1
71636,0,219242,244134,218421.84,242641.46,820.16,1492.53,-0.066629,-0.044534,0.50346,97.41,1
71675,0,219177,243875,218436.95,242666.14,740.05,1208.86,-0.066698,-0.044636,0.504183,97.4,1
71716,0,219142,243814,218451.06,242689.1,690.94,1124.89,-0.066763,-0.044731,0.504817,97.38,1
71755,0,219143,243743,218464.9,242710.18,678.09,1032.81,-0.066826,-0.044817,0.505523,97.36,1
71796,0,219078,243562,218477.17,242727.21,600.83,834.78,-0.066882,-0.044888,0.506163,97.35,1
71835,0,219045,243536,218488.53,242743.39,556.47,792.61,-0.066934,-0.044954,0.506693,97.33,1
71875,0,219087,243575,218500.5,242760.03,586.5,814.97,-0.066989,-0.045023,0.50731,97.32,1
71915,0,219087,243576,218512.23,242776.34,574.77,799.66,-0.067043,-0.04509,0.507904,97.3,1
71955,0,219115,243717,218524.29,242795.17,590.7,921.83,-0.067098,-0.045168,0.508423,97.29,1
71995,0,219178,243894,218537.37,242817.14,640.63,1076.86,-0.067158,-0.045258,0.508935,97.28,1
72035,0,219238,243961,218551.39,242840.01,686.61,1120.98,-0.067222,-0.045352,0.509578,97.26,1
72075,0,219299,244076,218566.34,242864.73,732.66,1211.27,-0.06729,-0.045454,0.51029,97.24,1
72115,0,219323,244211,218581.46,242891.65,741.53,1319.34,-0.067359,-0.045565,0.510862,97.23,1
72155,0,219390,244370,218597.64,242921.23,792.36,1448.77,-0.067433,-0.045687,0.511442,97.21,1
72195,0,219386,244472,218613.4,242952.25,772.59,1519.75,-0.067505,-0.045814,0.51178,97.21,1
72235,0,219455,244559,218630.23,242984.37,824.77,1574.63,-0.067582,-0.045947,0.51227,97.19,1
72274,0,219504,244722,218647.71,243019.12,856.28,1702.88,-0.067662,-0.04609,0.512643,97.18,1
72314,0,219565,244886,218666.06,243056.46,898.94,1829.53,-0.067746,-0.046243,0.51295,97.18,1
72354,0,219585,244966,218684.45,243094.65,900.55,1871.34,-0.06783,-0.0464,0.513159,97.17,1
72394,0,219571,245040,218702.18,243133.56,868.81,1906.44,-0.067911,-0.04656,0.513096,97.17,1
72434,0,219572,244873,218719.57,243168.34,852.42,1704.66,-0.067991,-0.046703,0.51344,97.16,1
72474,0,219498,244498,218735.14,243194.93,762.86,1303.06,-0.068062,-0.046813,0.514144,97.15,1
72514,0,219346,244096,218747.35,243212.96,598.64,883.03,-0.068118,-0.046887,0.514758,97.13,1
72554,0,219238,243943,218757.18,243227.57,480.81,715.42,-0.068163,-0.046947,0.515146,97.12,1
72594,0,219154,243811,218765.12,243239.25,388.88,571.75,-0.068199,-0.046995,0.515403,97.11,1
72634,0,219135,243647,218772.53,243247.4,362.47,399.59,-0.068233,-0.047028,0.515716,97.11,1
72674,0,219054,243534,218778.15,243253.15,275.84,280.84,-0.068259,-0.047052,0.515903,97.1,1
72715,0,219058,243614,218783.75,243260.37,274.25,353.63,-0.068284,-0.047082,0.516056,97.1,1
72754,0,219114,243762,218790.35,243270.4,323.64,491.59,-0.068315,-0.047123,0.516226,97.09,1
72795,0,219170,243928,218797.96,243283.56,372.03,644.44,-0.068349,-0.047177,0.516385,97.09,1
72834,0,219227,244051,218806.56,243298.9,420.44,752.09,-0.068389,-0.04724,0.516567,97.09,1
72875,0,219317,244231,218816.78,243317.56,500.22,913.44,-0.068435,-0.047317,0.516805,97.08,1
72913,0,219369,244447,218827.82,243340.15,541.17,1106.84,-0.068486,-0.04741,0.516898,97.08,1
72954,0,219453,244659,218840.34,243366.53,612.66,1292.47,-0.068543,-0.047518,0.516945,97.08,1
72993,0,219508,244826,218853.7,243395.71,654.3,1430.28,-0.068604,-0.047638,0.516891,97.08,1
73034,0,219590,244973,218868.43,243427.26,721.56,1545.73,-0.068671,-0.047768,0.516905,97.08,1
73073,0,219631,245037,218883.7,243459.45,747.3,1577.55,-0.068741,-0.0479,0.516978,97.08,1
73114,0,219634,245143,218898.71,243493.12,735.28,1649.88,-0.06881,-0.048038,0.516806,97.08,1
73153,0,219687,245290,218914.48,243529.06,772.52,1760.94,-0.068882,-0.048186,0.516545,97.09,1
73194,0,219692,245410,218930.04,243566.68,761.95,1843.31,-0.068953,-0.04834,0.515999,97.1,1
73233,0,219718,245177,218945.81,243598.9,772.19,1578.09,-0.069025,-0.048472,0.516216,97.09,1
73274,0,219588,244782,218958.67,243622.57,629.33,1159.42,-0.069084,-0.04857,0.516599,97.09,1
73313,0,219460,244536,218968.7,243640.84,491.3,895.16,-0.069129,-0.048645,0.516844,97.08,1
73354,0,219400,244416,218977.32,243656.34,422.67,759.66,-0.069169,-0.048708,0.517039,97.07,1
73394,0,219328,244318,218984.34,243669.57,343.66,648.42,-0.069201,-0.048763,0.517135,97.07,1
73434,0,219293,244249,218990.51,243681.17,302.48,567.83,-0.069229,-0.04881,0.517211,97.07,1
73474,0,219322,244321,218997.14,243693.96,324.86,627.03,-0.069259,-0.048863,0.517284,97.07,1
73512,0,219317,244329,219003.54,243706.67,313.45,622.33,-0.069289,-0.048915,0.517334,97.07,1
73553,0,219325,244388,219009.98,243720.31,315.02,667.69,-0.069318,-0.048971,0.51734,97.07,1
73592,0,219359,244540,219016.96,243736.7,342.03,803.3,-0.06935,-0.049038,0.517249,97.07,1
73633,0,219444,244712,219025.51,243756.2,418.48,955.8,-0.069389,-0.049118,0.517159,97.07,1
73672,0,219563,244929,219036.28,243779.65,526.72,1149.34,-0.069438,-0.049214,0.517126,97.07,1
73713,0,219613,245128,219047.82,243806.62,565.17,1321.38,-0.069491,-0.049325,0.516897,97.08,1
73752,0,219709,245288,219061.06,243836.26,647.94,1451.73,-0.069551,-0.049446,0.516758,97.08,1
73793,0,219722,245410,219074.28,243867.75,647.72,1542.25,-0.069611,-0.049575,0.516388,97.09,1
73832,0,219781,245520,219088.42,243900.81,692.58,1619.19,-0.069676,-0.049711,0.516052,97.1,1
73873,0,219827,245625,219103.2,243935.29,723.8,1689.7,-0.069743,-0.049852,0.515695,97.11,1
73912,0,219853,245733,219118.2,243971.25,734.8,1761.75,-0.069812,-0.05,0.515194,97.12,1
73953,0,219875,245783,219133.34,244007.48,741.66,1775.52,-0.069881,-0.050148,0.514697,97.13,1
73994,0,219824,245480,219147.17,244036.93,676.83,1443.06,-0.069944,-0.050269,0.514749,97.13,1
74033,0,219703,245076,219158.29,244057.71,544.7,1018.28,-0.069995,-0.050354,0.515051,97.12,1
74074,0,219610,244799,219167.34,244072.54,442.66,726.45,-0.070036,-0.050415,0.515387,97.12,1
74113,0,219489,244540,219173.78,244081.89,315.22,458.11,-0.070065,-0.050453,0.515608,97.11,1
74152,0,219364,244273,219177.59,244085.7,186.41,187.3,-0.070083,-0.050469,0.515719,97.11,1
74192,0,219223,244100,219178.5,244086,44.5,14,-0.070087,-0.05047,0.515726,97.11,1
74232,0,219184,243998,219178.62,244084.23,5.38,-86.23,-0.070088,-0.050463,0.515718,97.11,1
74271,0,219153,243854,219178.12,244079.62,-25.12,-225.63,-0.070085,-0.050444,0.515673,97.11,1
74312,0,219071,243705,219175.98,244072.12,-104.98,-367.13,-0.070076,-0.050413,0.515595,97.11,1
74353,0,219024,243636,219172.95,244063.4,-148.95,-427.41,-0.070062,-0.050377,0.51552,97.11,1
74392,0,218956,243588,219168.62,244053.9,-212.63,-465.91,-0.070042,-0.050339,0.515512,97.11,1
74432,0,218954,243619,219164.32,244045.2,-210.33,-426.2,-0.070022,-0.050303,0.515534,97.11,1
74472,0,218969,243644,219160.42,244037.17,-191.42,-393.17,-0.070005,-0.05027,0.515548,97.11,1
74512,0,218968,243655,219156.57,244029.53,-188.58,-374.53,-0.069987,-0.050239,0.515571,97.11,1
74552,0,218957,243713,219152.59,244023.2,-195.59,-310.2,-0.069969,-0.050213,0.51565,97.11,1
74592,0,218960,243800,219148.75,244018.75,-188.75,-218.75,-0.069951,-0.050194,0.515764,97.11,1
74632,0,218979,243780,219145.35,244013.96,-166.36,-233.97,-0.069936,-0.050175,0.515837,97.1,1
74672,0,218984,243914,219142.12,244011.96,-158.13,-97.97,-0.069921,-0.050167,0.515942,97.1,1
74711,0,219026,243874,219139.79,244009.21,-113.8,-135.22,-0.06991,-0.050155,0.515983,97.1,1
74752,0,218929,243531,219135.57,243999.65,-206.58,-468.66,-0.069891,-0.050116,0.51596,97.1,1
74792,0,218786,243195,219128.59,243983.57,-342.59,-788.58,-0.069859,-0.05005,0.515881,97.1,1
74831,0,218710,243111,219120.23,243966.12,-410.23,-855.13,-0.069821,-0.049979,0.515934,97.1,1
74872,0,218750,243211,219112.82,243951.03,-362.83,-740.03,-0.069787,-0.049917,0.516001,97.1,1
74911,0,218811,243277,219106.79,243937.56,-295.8,-660.56,-0.06976,-0.049862,0.515968,97.1,1
74951,0,218836,243403,219101.39,243926.87,-265.39,-523.88,-0.069735,-0.049818,0.516023,97.1,1
74991,0,218904,243619,219097.43,243920.71,-193.44,-301.72,-0.069717,-0.049793,0.51611,97.1,1
75031,0,218982,243813,219095.14,243918.57,-113.14,-105.58,-0.069707,-0.049784,0.51616,97.1,1
75071,0,219103,244024,219095.29,243920.7,7.7,103.3,-0.069707,-0.049793,0.516147,97.1,1
75111,0,219179,244220,219096.96,243926.7,82.03,293.3,-0.069715,-0.049817,0.516084,97.1,1
75152,0,219273,244473,219100.48,243937.62,172.52,535.38,-0.069731,-0.049862,0.515916,97.1,1
75191,0,219346,244625,219105.4,243951.37,240.59,673.63,-0.069753,-0.049918,0.515707,97.11,1
75232,0,219396,244796,219111.21,243968.28,284.78,827.72,-0.06978,-0.049988,0.515357,97.12,1
75271,0,219488,245009,219118.76,243989.09,369.23,1019.91,-0.069815,-0.050073,0.514895,97.13,1
75312,0,219599,245243,219128.37,244014.17,470.63,1228.83,-0.069858,-0.050176,0.514352,97.14,1
75351,0,219684,245505,219139.5,244043.98,544.5,1461.02,-0.069909,-0.050298,0.513501,97.16,1
75392,0,219772,245762,219152.15,244078.34,619.84,1683.66,-0.069967,-0.050439,0.512331,97.19,1
75430,0,219850,245984,219166.12,244116.46,683.88,1867.53,-0.070031,-0.050595,0.510888,97.23,1
75471,0,219977,246198,219182.35,244158.09,794.64,2039.91,-0.070105,-0.050765,0.509592,97.26,1
75510,0,220016,246064,219199.03,244196.21,816.97,1867.78,-0.070181,-0.050921,0.50926,97.27,1
75551,0,219927,245782,219213.6,244227.93,713.39,1554.06,-0.070247,-0.051051,0.509283,97.27,1
75590,0,219809,245573,219225.53,244254.84,583.47,1318.16,-0.070302,-0.051161,0.509164,97.27,1
75631,0,219747,245408,219235.96,244277.9,511.03,1130.09,-0.070349,-0.051256,0.509135,97.27,1
75670,0,219699,245222,219245.23,244296.79,453.77,925.2,-0.070391,-0.051333,0.509282,97.27,1
75711,0,219639,245052,219253.1,244311.9,385.89,740.09,-0.070427,-0.051395,0.50947,97.26,1
75750,0,219565,245069,219259.34,244327.04,305.66,741.95,-0.070456,-0.051457,0.509354,97.27,1
75791,0,219592,245198,219266,244344.46,326,853.53,-0.070486,-0.051528,0.509104,97.27,1
75830,0,219646,245350,219273.6,244364.57,372.39,985.42,-0.070521,-0.051611,0.508753,97.28,1
75870,0,219720,245461,219282.54,244386.51,437.45,1074.48,-0.070562,-0.0517,0.508481,97.29,1
75911,0,219766,245478,219292.21,244408.35,473.78,1069.64,-0.070606,-0.05179,0.508406,97.29,1
75950,0,219746,245490,219301.29,244430,444.7,1060,-0.070647,-0.051878,0.508206,97.29,1
75991,0,219702,245489,219309.32,244451.18,392.67,1037.81,-0.070684,-0.051965,0.507815,97.3,1
76029,0,219666,245470,219316.45,244471.57,349.55,998.42,-0.070716,-0.052048,0.507337,97.32,1
76070,0,219658,245451,219323.28,244491.17,334.72,959.83,-0.070747,-0.052129,0.506889,97.33,1
76109,0,219666,245448,219330.12,244510.31,335.88,937.69,-0.070779,-0.052207,0.506495,97.34,1
76150,0,219630,245477,219336.12,244529.65,293.88,947.34,-0.070806,-0.052286,0.505926,97.35,1
76189,0,219634,245548,219342.09,244550.01,291.91,997.98,-0.070833,-0.052369,0.50523,97.37,1
76230,0,219623,245630,219347.7,244571.6,275.3,1058.39,-0.070859,-0.052458,0.504328,97.39,1
76270,0,219674,245697,219354.23,244594.12,319.77,1102.88,-0.070889,-0.05255,0.503466,97.41,1
76310,0,219679,245516,219360.73,244612.56,318.27,903.44,-0.070918,-0.052625,0.503083,97.42,1
76350,0,219557,245218,219364.67,244624.67,192.33,593.33,-0.070936,-0.052674,0.50288,97.43,1
76390,0,219456,245031,219366.5,244632.81,89.5,398.19,-0.070944,-0.052708,0.502738,97.43,1
76430,0,219384,244945,219366.84,244639.06,17.16,305.94,-0.070946,-0.052733,0.502629,97.43,1
76469,0,219377,244915,219367.06,244644.57,9.94,270.42,-0.070947,-0.052756,0.502543,97.44,1
76510,0,219376,244896,219367.23,244649.6,8.77,246.39,-0.070948,-0.052776,0.502473,97.44,1
76549,0,219364,244932,219367.17,244655.26,-3.17,276.73,-0.070947,-0.0528,0.50238,97.44,1
76590,0,219346,244958,219366.75,244661.32,-20.75,296.67,-0.070946,-0.052824,0.502275,97.44,1
76630,0,219357,245052,219366.56,244669.15,-9.56,382.84,-0.070945,-0.052856,0.50209,97.45,1
76668,0,219397,245129,219367.17,244678.35,29.83,450.64,-0.070947,-0.052894,0.501835,97.45,1
76709,0,219444,245259,219368.7,244689.96,75.3,569.03,-0.070954,-0.052941,0.501448,97.46,1
76748,0,219497,245408,219371.26,244704.32,125.73,703.67,-0.070966,-0.053,0.500897,97.48,1
76789,0,219555,245596,219374.93,244722.17,180.06,873.83,-0.070983,-0.053073,0.500094,97.5,1
76829,0,219598,245746,219379.39,244742.65,218.61,1003.34,-0.071003,-0.053157,0.499064,97.52,1
76869,0,219651,245825,219384.82,244764.31,266.17,1060.69,-0.071028,-0.053245,0.49803,97.55,1
76909,0,219705,245923,219391.23,244787.48,313.77,1135.52,-0.071057,-0.05334,0.496961,97.58,1
76949,0,219711,246049,219397.62,244812.71,313.38,1236.28,-0.071086,-0.053443,0.49557,97.61,1
76989,0,219753,246193,219404.73,244840.32,348.27,1352.67,-0.071119,-0.053556,0.493939,97.65,1
77029,0,219784,246325,219412.31,244870.03,371.69,1454.97,-0.071153,-0.053677,0.49205,97.7,1
77069,0,219816,246185,219420.39,244896.34,395.61,1288.66,-0.07119,-0.053784,0.490912,97.73,1
77109,0,219740,245865,219426.78,244915.71,313.22,949.28,-0.071219,-0.053863,0.49039,97.74,1
77149,0,219647,245727,219431.18,244931.95,215.81,795.05,-0.071239,-0.05393,0.489871,97.75,1
77189,0,219634,245716,219435.25,244947.62,198.75,768.38,-0.071258,-0.053994,0.489357,97.77,1
77229,0,219620,245686,219438.95,244962.39,181.05,723.61,-0.071275,-0.054054,0.488884,97.78,1
77268,0,219598,245599,219442.12,244975.12,155.88,623.88,-0.071289,-0.054106,0.488532,97.79,1
77308,0,219589,245570,219445.06,244987.03,143.94,582.97,-0.071303,-0.054155,0.488221,97.79,1
77348,0,219571,245574,219447.59,244998.78,123.41,575.22,-0.071314,-0.054203,0.48788,97.8,1
77388,0,219564,245567,219449.92,245010.15,114.08,556.84,-0.071325,-0.054249,0.487549,97.81,1
77427,0,219577,245632,219452.46,245022.59,124.53,609.41,-0.071336,-0.0543,0.487148,97.82,1
77468,0,219595,245683,219455.32,245035.79,139.67,647.2,-0.071349,-0.054354,0.486707,97.83,1
77509,0,219645,245766,219459.12,245050.39,185.88,715.61,-0.071367,-0.054413,0.486242,97.84,1
77548,0,219667,245904,219463.29,245067.46,203.7,836.53,-0.071386,-0.054483,0.485558,97.86,1
77589,0,219717,246026,219468.37,245086.64,248.63,939.36,-0.071409,-0.054561,0.484764,97.88,1
77628,0,219757,246214,219474.15,245109.18,282.84,1104.81,-0.071435,-0.054653,0.48362,97.91,1
77669,0,219848,246362,219481.62,245134.25,366.38,1227.75,-0.071469,-0.054755,0.482483,97.94,1
77708,0,219917,246493,219490.34,245161.42,426.66,1331.58,-0.071509,-0.054866,0.481338,97.97,1
77749,0,219961,246654,219499.76,245191.28,461.23,1462.72,-0.071552,-0.054988,0.479917,98,1
77788,0,220002,246638,219509.82,245220.21,492.17,1417.78,-0.071598,-0.055106,0.478925,98.03,1
77829,0,219935,246377,219518.34,245243.35,416.66,1133.64,-0.071636,-0.0552,0.478444,98.04,1
77868,0,219858,246136,219525.14,245261.21,332.86,874.78,-0.071667,-0.055273,0.478221,98.04,1
77908,0,219818,246030,219531,245276.59,287,753.41,-0.071694,-0.055336,0.478059,98.05,1
77947,0,219786,245963,219536.1,245290.32,249.89,672.67,-0.071717,-0.055392,0.477907,98.05,1
77987,0,219744,245913,219540.26,245302.79,203.73,610.2,-0.071736,-0.055443,0.477704,98.06,1
78027,0,219734,245950,219544.15,245315.75,189.84,634.25,-0.071754,-0.055496,0.477412,98.06,1
78067,0,219760,245962,219548.48,245328.67,211.52,633.33,-0.071774,-0.055548,0.47719,98.07,1
78108,0,219794,245987,219553.39,245341.84,240.61,645.16,-0.071796,-0.055602,0.477052,98.07,1
78147,0,219787,246007,219558.06,245355.15,228.94,651.84,-0.071817,-0.055656,0.476855,98.08,1
78188,0,219801,246105,219562.92,245370.15,238.08,734.84,-0.071839,-0.055717,0.476519,98.09,1
78227,0,219827,246222,219568.21,245387.18,258.78,834.81,-0.071864,-0.055787,0.476028,98.1,1
78268,0,219862,246276,219574.09,245404.96,287.91,871.03,-0.07189,-0.055859,0.475576,98.11,1
78307,0,219869,246245,219579.98,245421.78,289.02,823.22,-0.071917,-0.055928,0.475252,98.12,1
78348,0,219824,246228,219584.87,245437.9,239.13,790.09,-0.071939,-0.055993,0.474787,98.13,1
78387,0,219823,246314,219589.64,245455.43,233.36,858.56,-0.071961,-0.056065,0.474122,98.15,1
78428,0,219820,246450,219594.26,245475.32,225.73,974.67,-0.071982,-0.056146,0.473097,98.17,1
78467,0,219895,246536,219600.29,245496.54,294.7,1039.45,-0.07201,-0.056232,0.47218,98.2,1
78507,0,219925,246596,219606.79,245518.54,318.2,1077.45,-0.072039,-0.056322,0.471265,98.22,1
78547,0,219908,246411,219612.82,245536.4,295.17,874.59,-0.072067,-0.056395,0.470845,98.23,1
78586,0,219801,246047,219616.59,245546.62,184.41,500.38,-0.072084,-0.056436,0.470764,98.23,1
78627,0,219686,245824,219617.98,245552.18,68.02,271.81,-0.07209,-0.056459,0.470701,98.23,1
78666,0,219657,245719,219618.76,245555.51,38.23,163.48,-0.072094,-0.056472,0.470683,98.23,1
78707,0,219694,245711,219620.26,245558.62,73.73,152.38,-0.072101,-0.056485,0.470707,98.23,1
78746,0,219677,245588,219621.4,245559.21,55.59,28.78,-0.072106,-0.056487,0.470747,98.23,1
78787,0,219659,245654,219622.15,245561.1,36.84,92.89,-0.072109,-0.056495,0.470757,98.23,1
78827,0,219660,245737,219622.92,245564.62,37.08,172.38,-0.072113,-0.05651,0.470732,98.23,1
78866,0,219698,245765,219624.42,245568.64,73.58,196.36,-0.07212,-0.056526,0.47073,98.23,1
78907,0,219715,245816,219626.23,245573.57,88.77,242.42,-0.072128,-0.056546,0.470717,98.23,1
78946,0,219712,245845,219627.95,245579.01,84.05,265.98,-0.072136,-0.056568,0.470676,98.23,1
78987,0,219728,245951,219629.95,245586.45,98.05,364.55,-0.072145,-0.056598,0.470551,98.24,1
79027,0,219739,246044,219632.14,245595.6,106.86,448.39,-0.072155,-0.056636,0.470324,98.24,1
79066,0,219772,246080,219634.93,245605.29,137.06,474.7,-0.072167,-0.056675,0.470125,98.25,1
79107,0,219811,246181,219638.46,245616.82,172.53,564.17,-0.072183,-0.056722,0.46987,98.25,1
79145,0,219824,246248,219642.18,245629.45,181.81,618.55,-0.0722,-0.056773,0.469532,98.26,1
79186,0,219833,246322,219646,245643.31,187,678.69,-0.072218,-0.05683,0.469072,98.27,1
79225,0,219829,246406,219649.65,245658.57,179.34,747.42,-0.072234,-0.056892,0.468405,98.29,1
79266,0,219856,246469,219653.79,245674.78,202.2,794.22,-0.072253,-0.056958,0.467695,98.31,1
79306,0,219906,246541,219658.84,245692.1,247.16,848.89,-0.072276,-0.057029,0.46703,98.32,1
79346,0,219873,246331,219663.12,245704.89,209.88,626.11,-0.072296,-0.057081,0.466786,98.33,1
79386,0,219761,245972,219665.07,245710.23,95.92,261.77,-0.072305,-0.057102,0.466769,98.33,1
79426,0,219603,245664,219663.84,245709.31,-60.84,-45.31,-0.072299,-0.057099,0.466816,98.33,1
79466,0,219514,245404,219660.85,245703.2,-146.86,-299.2,-0.072285,-0.057074,0.466891,98.33,1
79505,0,219441,245233,219656.45,245693.79,-215.45,-460.8,-0.072265,-0.057035,0.467002,98.32,1
79546,0,219327,245024,219649.87,245680.4,-322.88,-656.41,-0.072235,-0.056981,0.467326,98.32,1
79585,0,219271,244961,219642.29,245666.01,-371.3,-705.02,-0.072201,-0.056922,0.467891,98.3,1
79626,0,219223,244938,219633.9,245651.46,-410.91,-713.47,-0.072163,-0.056863,0.468772,98.28,1
79666,0,219215,244887,219625.53,245636.17,-410.53,-749.17,-0.072125,-0.056801,0.469548,98.26,1
79706,0,219210,244882,219617.23,245621.09,-407.23,-739.09,-0.072087,-0.056739,0.470323,98.24,1
79746,0,219179,244938,219608.46,245607.43,-429.47,-669.44,-0.072047,-0.056684,0.471497,98.21,1
79785,0,219219,245063,219600.67,245596.56,-381.67,-533.56,-0.072011,-0.05664,0.472566,98.19,1
79825,0,219236,245205,219593.37,245588.73,-357.38,-383.73,-0.071978,-0.056608,0.473714,98.16,1
79865,0,219289,245289,219587.29,245582.75,-298.3,-293.75,-0.07195,-0.056583,0.474555,98.14,1
79905,0,219335,245431,219582.26,245579.71,-247.27,-148.72,-0.071928,-0.056571,0.475217,98.12,1
79945,0,219367,245514,219577.96,245578.4,-210.97,-64.41,-0.071908,-0.056566,0.475731,98.11,1
79985,0,219372,245618,219573.84,245579.2,-201.84,38.8,-0.071889,-0.056569,0.476211,98.09,1
80024,0,219396,245752,219570.29,245582.67,-174.3,169.33,-0.071873,-0.056583,0.476516,98.09,1
80065,0,219429,245828,219567.46,245587.57,-138.47,240.42,-0.07186,-0.056603,0.476628,98.08,1
80106,0,219482,245963,219565.76,245595.09,-83.77,367.91,-0.071852,-0.056634,0.476427,98.09,1
80145,0,219514,245966,219564.73,245602.51,-50.73,363.48,-0.071848,-0.056664,0.476179,98.1,1
80185,0,219435,245697,219562.14,245604.4,-127.14,92.59,-0.071836,-0.056672,0.476367,98.09,1
80225,0,219324,245432,219557.39,245600.96,-233.39,-168.97,-0.071814,-0.056658,0.476982,98.08,1
80265,0,219251,245288,219551.26,245594.71,-300.27,-306.72,-0.071786,-0.056632,0.477895,98.05,1
80306,0,219243,245257,219545.1,245587.96,-302.11,-330.97,-0.071758,-0.056605,0.478792,98.03,1
80345,0,219219,245223,219538.59,245580.67,-319.59,-357.67,-0.071729,-0.056575,0.479788,98.01,1
80386,0,219215,245275,219532.12,245574.56,-317.13,-299.56,-0.071699,-0.05655,0.480859,97.98,1
80424,0,219225,245335,219525.98,245569.78,-300.98,-234.78,-0.071671,-0.05653,0.481892,97.95,1
80465,0,219243,245346,219520.32,245565.31,-277.33,-219.31,-0.071645,-0.056512,0.482774,97.93,1
80504,0,219281,245446,219515.54,245562.93,-234.55,-116.94,-0.071624,-0.056503,0.483462,97.91,1
80545,0,219310,245489,219511.43,245561.46,-201.44,-72.47,-0.071605,-0.056497,0.483988,97.9,1
80584,0,219319,245593,219507.59,245562.1,-188.59,30.89,-0.071587,-0.056499,0.484464,97.89,1
80624,0,219339,245745,219504.23,245565.78,-165.23,179.22,-0.071572,-0.056514,0.484756,97.88,1
80665,0,219401,245833,219502.17,245571.12,-101.17,261.88,-0.071563,-0.056536,0.48473,97.88,1
80704,0,219422,245942,219500.56,245578.54,-78.56,363.45,-0.071555,-0.056566,0.484487,97.89,1
80745,0,219476,246122,219500.07,245589.42,-24.08,532.58,-0.071553,-0.05661,0.483776,97.91,1
80784,0,219547,246306,219501.01,245603.76,45.98,702.23,-0.071557,-0.056669,0.482545,97.94,1
80825,0,219587,246436,219502.73,245620.4,84.27,815.59,-0.071565,-0.056737,0.480937,97.98,1
80864,0,219641,246566,219505.5,245639.31,135.5,926.69,-0.071578,-0.056814,0.478992,98.03,1
80904,0,219676,246622,219508.9,245658.96,167.09,963.03,-0.071593,-0.056894,0.477014,98.07,1
80945,0,219667,246388,219512.07,245673.56,154.92,714.44,-0.071608,-0.056953,0.476054,98.1,1
80984,0,219545,246136,219512.75,245682.81,32.25,453.19,-0.071611,-0.056991,0.475551,98.11,1
81025,0,219472,246063,219511.93,245690.42,-39.94,372.58,-0.071607,-0.057022,0.475224,98.12,1
81063,0,219505,246084,219511.79,245698.31,-6.8,385.69,-0.071607,-0.057054,0.474847,98.13,1
81104,0,219526,246088,219512.07,245706.1,13.92,381.89,-0.071608,-0.057086,0.474476,98.14,1
81143,0,219541,246101,219512.65,245714,28.34,387,-0.071611,-0.057118,0.474101,98.15,1
81183,0,219535,246175,219513.1,245723.21,21.89,451.78,-0.071613,-0.057155,0.473574,98.16,1
81224,0,219546,246234,219513.76,245733.43,32.23,500.56,-0.071616,-0.057197,0.472926,98.18,1
81263,0,219597,246272,219515.43,245744.2,81.56,527.8,-0.071623,-0.057241,0.472284,98.19,1
81304,0,219620,246343,219517.54,245756.18,102.45,586.81,-0.071633,-0.057289,0.471518,98.21,1
81343,0,219681,246426,219520.82,245769.57,160.17,656.42,-0.071648,-0.057344,0.470747,98.23,1
81384,0,219696,246546,219524.34,245785.1,171.66,760.89,-0.071664,-0.057407,0.469629,98.26,1
81423,0,219728,246666,219528.42,245802.71,199.58,863.28,-0.071682,-0.057479,0.46822,98.29,1
81464,0,219757,246739,219533,245821.45,224,917.55,-0.071703,-0.057555,0.466716,98.33,1
81504,0,219805,246830,219538.43,245841.62,266.56,988.38,-0.071728,-0.057637,0.465182,98.37,1
81543,0,219845,246886,219544.57,245862.51,300.42,1023.48,-0.071756,-0.057722,0.463772,98.41,1
81584,0,219849,246992,219550.67,245885.1,298.33,1106.89,-0.071784,-0.057814,0.461885,98.45,1
81623,0,219866,247098,219556.96,245909.35,309.03,1188.64,-0.071812,-0.057912,0.459631,98.51,1
81664,0,219888,247075,219563.59,245932.67,324.41,1142.33,-0.071843,-0.058007,0.457849,98.55,1
81703,0,219861,246843,219569.54,245950.87,291.45,892.13,-0.07187,-0.058081,0.457103,98.57,1
81743,0,219793,246578,219574.01,245963.42,218.98,614.58,-0.07189,-0.058132,0.456876,98.58,1
81782,0,219713,246488,219576.81,245973.92,136.19,514.08,-0.071903,-0.058175,0.456483,98.59,1
81823,0,219677,246421,219578.82,245982.87,98.17,438.13,-0.071912,-0.058211,0.456138,98.6,1
81862,0,219638,246322,219580.01,245989.65,57.98,332.34,-0.071917,-0.058239,0.455908,98.6,1
81903,0,219620,246281,219580.82,245995.5,39.17,285.5,-0.071921,-0.058263,0.455725,98.61,1
81942,0,219645,246258,219582.12,246000.75,62.88,257.25,-0.071927,-0.058284,0.455622,98.61,1
81983,0,219615,246262,219582.78,246005.96,32.22,256.03,-0.07193,-0.058305,0.45547,98.61,1
82023,0,219602,246282,219583.17,246011.5,18.83,270.5,-0.071932,-0.058328,0.455285,98.62,1
82062,0,219602,246322,219583.56,246017.71,18.44,304.28,-0.071933,-0.058353,0.455044,98.62,1
82103,0,219633,246371,219584.54,246024.79,48.45,346.2,-0.071938,-0.058382,0.454757,98.63,1
82142,0,219698,246459,219586.81,246033.5,111.19,425.5,-0.071948,-0.058417,0.454467,98.64,1
82183,0,219705,246591,219589.17,246044.64,115.83,546.36,-0.071959,-0.058462,0.453857,98.65,1
82223,0,219745,246731,219592.29,246058.37,152.7,672.63,-0.071973,-0.058518,0.452976,98.68,1
82263,0,219766,246811,219595.76,246073.43,170.23,737.56,-0.071989,-0.058579,0.451932,98.7,1
82302,0,219816,246924,219600.17,246090.45,215.83,833.55,-0.072009,-0.058649,0.450767,98.73,1
82342,0,219872,247038,219605.6,246109.42,266.39,928.58,-0.072034,-0.058726,0.44956,98.76,1
82382,0,219886,247180,219611.21,246130.82,274.78,1049.17,-0.072059,-0.058813,0.447769,98.81,1
82422,0,219945,247350,219617.9,246155.21,327.09,1194.78,-0.07209,-0.058912,0.445642,98.86,1
82462,0,219951,247279,219624.56,246177.7,326.44,1101.3,-0.07212,-0.059003,0.444146,98.9,1
82502,0,219908,246999,219630.23,246194.14,277.77,804.86,-0.072146,-0.05907,0.443717,98.91,1
82542,0,219847,246763,219634.57,246205.53,212.42,557.47,-0.072166,-0.059116,0.443661,98.91,1
82582,0,219773,246646,219637.34,246214.34,135.66,431.66,-0.072178,-0.059152,0.443479,98.91,1
82622,0,219731,246572,219639.21,246221.5,91.78,350.5,-0.072187,-0.059181,0.443295,98.92,1
82661,0,219686,246455,219640.15,246226.17,45.84,228.83,-0.072191,-0.0592,0.443196,98.92,1
82702,0,219659,246406,219640.53,246229.78,18.47,176.22,-0.072193,-0.059215,0.443125,98.92,1
82742,0,219684,246433,219641.4,246233.84,42.59,199.16,-0.072197,-0.059231,0.443056,98.92,1
82782,0,219683,246508,219642.23,246239.32,40.77,268.67,-0.072201,-0.059253,0.442887,98.93,1
82822,0,219703,246577,219643.45,246246.09,59.55,330.91,-0.072206,-0.059281,0.442642,98.93,1
82861,0,219715,246636,219644.89,246253.89,70.11,382.11,-0.072213,-0.059312,0.442312,98.94,1
82902,0,219746,246741,219646.92,246263.62,99.08,477.38,-0.072222,-0.059352,0.441828,98.95,1
82942,0,219833,246882,219650.64,246276,182.36,606,-0.072239,-0.059402,0.441375,98.97,1
82981,0,219866,247010,219654.93,246290.68,211.06,719.31,-0.072258,-0.059462,0.440688,98.98,1
83021,0,219886,247122,219659.56,246307.31,226.44,814.69,-0.072279,-0.059529,0.439692,99.01,1
83061,0,219906,247252,219664.5,246326.21,241.5,925.78,-0.072302,-0.059606,0.43826,99.04,1
83101,0,219966,247364,219670.53,246346.98,295.47,1017.02,-0.072329,-0.05969,0.43688,99.08,1
83141,0,220023,247469,219677.57,246369.42,345.42,1099.58,-0.072362,-0.059781,0.435628,99.11,1
83181,0,220024,247567,219684.51,246393.37,339.48,1173.63,-0.072393,-0.059879,0.433831,99.15,1
83221,0,220057,247684,219691.96,246419.18,365.03,1264.81,-0.072427,-0.059983,0.431784,99.21,1
83261,0,220064,247654,219699.42,246443.89,364.58,1210.11,-0.072461,-0.060084,0.43017,99.25,1
83301,0,220022,247394,219705.87,246462.89,316.13,931.11,-0.07249,-0.060161,0.429642,99.26,1
83341,0,219939,247131,219710.54,246476.26,228.45,654.73,-0.072512,-0.060215,0.429443,99.26,1
83381,0,219847,246975,219713.28,246486.25,133.72,488.75,-0.072524,-0.060256,0.429121,99.27,1
83421,0,219793,246871,219714.87,246493.95,78.12,377.05,-0.072531,-0.060287,0.428845,99.28,1
83462,0,219739,246755,219715.35,246499.17,23.64,255.83,-0.072533,-0.060308,0.428679,99.28,1
83501,0,219723,246701,219715.51,246503.2,7.48,197.8,-0.072534,-0.060324,0.428579,99.29,1
83540,0,219723,246661,219715.65,246506.35,7.34,154.64,-0.072535,-0.060337,0.428522,99.29,1
83580,0,219687,246670,219715.07,246509.64,-28.08,160.36,-0.072532,-0.06035,0.428474,99.29,1
83620,0,219682,246686,219714.42,246513.17,-32.42,172.83,-0.072529,-0.060365,0.428419,99.29,1
83661,0,219666,246737,219713.45,246517.64,-47.45,219.36,-0.072525,-0.060383,0.428332,99.29,1
83700,0,219712,246841,219713.42,246524.1,-1.42,316.89,-0.072525,-0.060409,0.428037,99.3,1
83741,0,219784,246942,219714.84,246532.46,69.16,409.53,-0.072531,-0.060443,0.427634,99.31,1
83780,0,219806,247045,219716.67,246542.73,89.33,502.27,-0.072539,-0.060485,0.427033,99.32,1
83820,0,219797,247118,219718.28,246554.25,78.72,563.75,-0.072547,-0.060531,0.426189,99.35,1
83861,0,219811,247218,219720.14,246567.53,90.86,650.47,-0.072555,-0.060585,0.425059,99.37,1
83900,0,219853,247283,219722.79,246581.84,130.2,701.16,-0.072567,-0.060643,0.423904,99.4,1
83941,0,219890,247383,219726.14,246597.87,163.86,785.13,-0.072582,-0.060708,0.422579,99.44,1
83980,0,219922,247520,219730.06,246616.32,191.94,903.67,-0.0726,-0.060783,0.42086,99.48,1
84021,0,219953,247674,219734.53,246637.48,218.47,1036.52,-0.072621,-0.060869,0.418609,99.53,1
84060,0,219963,247594,219739.1,246656.6,223.89,937.39,-0.072642,-0.060946,0.417036,99.57,1
84101,0,219913,247360,219742.59,246670.68,170.41,689.31,-0.072657,-0.061004,0.41624,99.59,1
84140,0,219883,247231,219745.4,246681.9,137.59,549.09,-0.07267,-0.061049,0.415751,99.61,1
84179,0,219830,247214,219747.09,246692.54,82.91,521.45,-0.072678,-0.061092,0.415083,99.62,1
84219,0,219831,247158,219748.78,246701.85,82.22,456.14,-0.072686,-0.06113,0.414606,99.63,1
84259,0,219789,247149,219749.59,246710.81,39.41,438.19,-0.072689,-0.061166,0.414058,99.65,1
84300,0,219810,247158,219750.81,246719.75,59.19,438.25,-0.072695,-0.061202,0.413552,99.66,1
84339,0,219831,247160,219752.42,246728.56,78.58,431.44,-0.072702,-0.061238,0.413123,99.67,1
84380,0,219813,247207,219753.64,246738.14,59.36,468.86,-0.072708,-0.061277,0.412523,99.69,1
84419,0,219834,247278,219755.25,246748.93,78.75,529.06,-0.072715,-0.061321,0.411793,99.71,1
84459,0,219854,247397,219757.23,246761.9,96.77,635.09,-0.072724,-0.061373,0.410745,99.73,1
84500,0,219912,247469,219760.32,246776.04,151.67,692.95,-0.072738,-0.061431,0.409774,99.76,1
84539,0,219954,247580,219764.2,246792.12,189.8,787.88,-0.072756,-0.061496,0.408671,99.78,1
84580,0,219991,247726,219768.73,246810.79,222.27,915.2,-0.072776,-0.061571,0.407211,99.82,1
84619,0,220030,247856,219773.95,246831.7,256.05,1024.3,-0.0728,-0.061656,0.405493,99.86,1
84660,0,220035,247945,219779.18,246853.98,255.81,1091.02,-0.072824,-0.061746,0.40337,99.92,1
84699,0,220080,248061,219785.2,246878.12,294.8,1182.88,-0.072851,-0.061844,0.401166,99.97,1
84740,0,220134,248162,219792.18,246903.79,341.81,1258.2,-0.072883,-0.061948,0.399173,100,1
84779,0,220162,248310,219799.57,246931.92,362.42,1378.08,-0.072917,-0.062062,0.396663,100,1
84819,0,220192,248264,219807.43,246958.56,384.56,1305.44,-0.072952,-0.06217,0.395178,100,1
84858,0,220103,248017,219813.35,246979.73,289.64,1037.27,-0.072979,-0.062256,0.394056,100,1
84899,0,220036,247807,219817.81,246996.28,218.19,810.72,-0.073,-0.062323,0.393301,100,1
84938,0,220008,247675,219821.6,247009.85,186.39,665.14,-0.073017,-0.062378,0.392861,100,1
84979,0,219954,247571,219824.26,247021.09,129.73,549.91,-0.073029,-0.062423,0.392406,100,1
85018,0,219921,247497,219826.2,247030.6,94.8,466.39,-0.073038,-0.062462,0.392008,100,1
85059,0,219879,247461,219827.26,247039.21,51.73,421.78,-0.073043,-0.062496,0.391574,100,1
85099,0,219877,247419,219828.26,247046.81,48.73,372.19,-0.073047,-0.062527,0.391244,100,1
85139,0,219879,247380,219829.28,247053.46,49.72,326.53,-0.073052,-0.062554,0.391006,100,1
85179,0,219865,247389,219830,247060.18,35,328.81,-0.073055,-0.062581,0.390732,100,1
85218,0,219868,247427,219830.76,247067.53,37.23,359.47,-0.073059,-0.062611,0.390397,100,1
85259,0,219867,247483,219831.5,247075.84,35.5,407.16,-0.073062,-0.062645,0.389948,100,1
85298,0,219892,247546,219832.71,247085.25,59.28,460.75,-0.073067,-0.062683,0.389414,100,1
85339,0,219917,247591,219834.4,247095.35,82.59,495.64,-0.073075,-0.062724,0.388858,100,1
85378,0,219927,247659,219836.26,247106.62,90.73,552.38,-0.073084,-0.062769,0.388157,100,1
85419,0,219946,247728,219838.46,247119.06,107.53,608.94,-0.073094,-0.06282,0.387339,100,1
85457,0,219946,247788,219840.62,247132.45,105.37,655.55,-0.073103,-0.062874,0.386332,100,1
85498,0,219972,247818,219843.25,247146.17,128.75,671.83,-0.073115,-0.062929,0.3854,100,1
85538,0,219984,247846,219846.06,247160.17,137.94,685.83,-0.073128,-0.062986,0.384475,100,1
85578,0,219977,247896,219848.68,247174.89,128.31,721.11,-0.07314,-0.063045,0.383336,100,1
85618,0,219990,247850,219851.51,247188.39,138.48,661.61,-0.073153,-0.0631,0.382519,100,1
85658,0,219887,247532,219852.21,247195.26,34.78,336.73,-0.073156,-0.063128,0.382219,100,1
85698,0,219783,247182,219850.82,247195,-67.83,-13,-0.07315,-0.063127,0.382353,100,1
85738,0,219710,246945,219848.01,247190.01,-138.02,-245.02,-0.073137,-0.063107,0.382687,100,1
85778,0,219628,246786,219843.62,247181.93,-215.63,-395.94,-0.073117,-0.063074,0.383456,100,1
85817,0,219599,246618,219838.73,247170.65,-239.73,-552.66,-0.073095,-0.063028,0.384052,100,1
85858,0,219504,246477,219832.04,247156.79,-328.05,-679.8,-0.073064,-0.062972,0.385499,100,1
85897,0,219488,246418,219825.17,247142.03,-337.17,-724.03,-0.073033,-0.062913,0.386896,100,1
85938,0,219491,246416,219818.48,247127.51,-327.48,-711.52,-0.073003,-0.062854,0.388165,100,1
85977,0,219517,246457,219812.46,247114.1,-295.47,-657.11,-0.072975,-0.0628,0.389127,100,1
86018,0,219530,246524,219806.81,247102.31,-276.81,-578.31,-0.07295,-0.062752,0.390113,100,1
86057,0,219558,246644,219801.84,247093.14,-243.84,-449.14,-0.072927,-0.062715,0.391069,100,1
86097,0,219603,246685,219797.87,247084.98,-194.88,-399.98,-0.072909,-0.062682,0.391581,100,1
86137,0,219637,246743,219794.65,247078.15,-157.66,-335.16,-0.072894,-0.062654,0.391897,100,1
86177,0,219635,246773,219791.46,247072.04,-156.47,-299.05,-0.07288,-0.062629,0.39228,100,1
86217,0,219665,246883,219788.93,247068.26,-123.94,-185.27,-0.072868,-0.062614,0.392601,100,1
86257,0,219664,246944,219786.43,247065.78,-122.44,-121.78,-0.072857,-0.062604,0.39298,100,1
86297,0,219658,246839,219783.87,247061.25,-125.87,-222.25,-0.072845,-0.062586,0.393267,100,1
86337,0,219616,246768,219780.51,247055.39,-164.52,-287.39,-0.07283,-0.062562,0.393758,100,1
86377,0,219555,246681,219776,247047.9,-221,-366.91,-0.072809,-0.062532,0.39469,100,1
86417,0,219501,246578,219770.5,247038.51,-269.5,-460.52,-0.072784,-0.062494,0.396031,100,1
86457,0,219405,246211,219763.18,247021.96,-358.19,-810.97,-0.072751,-0.062427,0.397362,100,1
86497,0,219170,245493,219751.32,246991.39,-581.33,-1498.39,-0.072697,-0.062303,0.398916,100,1
86537,0,218972,244888,219735.75,246949.32,-763.75,-2061.33,-0.072626,-0.062133,0.400101,100,1
86577,0,218678,244290,219714.6,246896.14,-1036.61,-2606.14,-0.07253,-0.061917,0.404996,99.88,1
86617,0,218582,244270,219691.96,246843.62,-1109.97,-2573.62,-0.072427,-0.061704,0.412755,99.68,1
86658,0,218530,244283,219668.73,246792.4,-1138.73,-2509.41,-0.072321,-0.061497,0.421274,99.47,1
86696,0,218501,244180,219645.37,246740.15,-1144.38,-2560.16,-0.072215,-0.061285,0.428032,99.3,1
86737,0,218419,244165,219620.84,246688.65,-1201.84,-2523.66,-0.072103,-0.061076,0.4364,99.09,1
86776,0,218397,244335,219596.37,246641.59,-1199.38,-2306.59,-0.071992,-0.060886,0.445972,98.85,1
86817,0,218496,244710,219574.37,246602.96,-1078.38,-1892.97,-0.071892,-0.060729,0.454569,98.64,1
86856,0,218621,244980,219555.31,246570.51,-934.31,-1590.52,-0.071805,-0.060597,0.460954,98.48,1
86897,0,218720,245192,219538.6,246542.95,-818.61,-1350.95,-0.071729,-0.060486,0.465903,98.35,1
86936,0,218821,245348,219524.26,246519.04,-703.27,-1171.05,-0.071663,-0.060389,0.469388,98.27,1
86977,0,218853,245453,219510.84,246497.73,-657.84,-1044.73,-0.071602,-0.060302,0.472626,98.18,1
87016,0,218878,245574,219498.18,246479.26,-620.19,-905.27,-0.071545,-0.060227,0.475814,98.1,1
87057,0,218961,245965,219487.45,246468.98,-526.45,-503.98,-0.071496,-0.060185,0.478904,98.03,1
87096,0,219145,246244,219480.6,246464.48,-335.61,-220.48,-0.071464,-0.060167,0.4803,97.99,1
87137,0,219274,246562,219476.48,246466.43,-202.48,95.56,-0.071446,-0.060175,0.480837,97.98,1
87176,0,219495,247148,219476.85,246480.06,18.14,667.94,-0.071447,-0.060231,0.479734,98.01,1
87217,0,219758,247594,219482.48,246502.34,275.52,1091.66,-0.071473,-0.060321,0.477809,98.05,1
87256,0,219889,247833,219490.62,246528.95,398.38,1304.05,-0.07151,-0.060429,0.475786,98.11,1
87296,0,219966,247765,219500.12,246553.67,465.88,1211.33,-0.071553,-0.060529,0.475157,98.12,1
87336,0,219993,247668,219509.98,246575.96,483.02,1092.03,-0.071598,-0.060619,0.475425,98.11,1
87376,0,219956,247589,219518.9,246596.23,437.09,992.77,-0.071639,-0.060702,0.47562,98.11,1
87416,0,219932,247478,219527.17,246613.87,404.83,864.13,-0.071677,-0.060773,0.476028,98.1,1
87455,0,219835,247338,219533.32,246628.37,301.67,709.63,-0.071705,-0.060832,0.47604,98.1,1
87496,0,219810,247279,219538.87,246641.39,271.13,637.61,-0.07173,-0.060885,0.476051,98.1,1
87535,0,219832,247327,219544.75,246655.1,287.25,671.89,-0.071757,-0.06094,0.476075,98.1,1
87576,0,219863,247368,219551.12,246669.37,311.88,698.63,-0.071786,-0.060998,0.476212,98.09,1
87615,0,219869,247332,219557.48,246682.64,311.52,649.36,-0.071815,-0.061052,0.476511,98.09,1
87656,0,219848,247344,219563.29,246695.87,284.7,648.13,-0.071841,-0.061106,0.476592,98.09,1
87695,0,219898,247400,219569.98,246709.96,328.02,690.03,-0.071872,-0.061163,0.476903,98.08,1
87736,0,219931,247420,219577.21,246724.18,353.78,695.81,-0.071905,-0.06122,0.47744,98.06,1
87775,0,219878,247294,219583.23,246735.57,294.77,558.42,-0.071932,-0.061267,0.477877,98.05,1
87816,0,219766,247239,219586.89,246745.65,179.11,493.34,-0.071949,-0.061307,0.477713,98.06,1
87856,0,219747,247176,219590.09,246754.26,156.91,421.73,-0.071963,-0.061342,0.477612,98.06,1
87896,0,219597,247015,219590.23,246759.48,6.77,255.52,-0.071964,-0.061364,0.477449,98.06,1
87936,0,219605,247103,219590.53,246766.35,14.47,336.64,-0.071965,-0.061391,0.47716,98.07,1
87974,0,219600,247094,219590.71,246772.9,9.28,321.09,-0.071966,-0.061418,0.476894,98.08,1
88015,0,219554,246794,219589.98,246773.32,-35.98,20.67,-0.071963,-0.06142,0.47692,98.08,1
88054,0,219342,246254,219585.03,246762.93,-243.03,-508.94,-0.07194,-0.061378,0.477112,98.07,1
88095,0,219105,245700,219575.42,246741.68,-470.42,-1041.69,-0.071896,-0.061291,0.477495,98.06,1
88135,0,218852,245154,219560.96,246709.93,-708.97,-1555.94,-0.071831,-0.061163,0.478445,98.04,1
88175,0,218609,244724,219541.93,246670.23,-932.94,-1946.23,-0.071744,-0.061002,0.481029,97.97,1
88215,0,218431,244389,219519.73,246624.6,-1088.73,-2235.61,-0.071643,-0.060817,0.484637,97.88,1
88255,0,218297,244268,219495.28,246577.48,-1198.28,-2309.48,-0.071531,-0.060626,0.490284,97.74,1
88296,0,218280,244155,219470.96,246529.03,-1190.97,-2374.03,-0.071421,-0.060429,0.494437,97.64,1
88335,0,218272,244148,219446.98,246481.4,-1174.98,-2333.41,-0.071311,-0.060236,0.498173,97.55,1
88374,0,218288,244253,219423.81,246436.84,-1135.81,-2183.84,-0.071206,-0.060055,0.502056,97.45,1
88415,0,218386,244528,219403.06,246398.67,-1017.06,-1870.67,-0.071111,-0.0599,0.505657,97.36,1
88454,0,218463,244676,219384.26,246364.21,-921.27,-1688.22,-0.071025,-0.05976,0.50851,97.29,1
88495,0,218501,244740,219366.59,246331.73,-865.59,-1591.73,-0.070945,-0.059628,0.51089,97.23,1
88534,0,218549,244829,219350.25,246301.68,-801.25,-1472.69,-0.07087,-0.059507,0.512866,97.18,1
88574,0,218541,244890,219334.06,246273.45,-793.06,-1383.45,-0.070797,-0.059392,0.515194,97.12,1
88613,0,218569,244973,219318.76,246247.43,-749.77,-1274.44,-0.070727,-0.059286,0.51741,97.06,1
88654,0,218556,244979,219303.51,246222.07,-747.52,-1243.08,-0.070657,-0.059183,0.519715,97.01,1
88694,0,218549,244946,219288.43,246196.56,-739.44,-1250.56,-0.070589,-0.05908,0.521815,96.95,1
88734,0,218556,244995,219273.79,246172.54,-717.8,-1177.55,-0.070522,-0.058982,0.523944,96.9,1
88774,0,218526,244796,219258.84,246145.01,-732.84,-1349.02,-0.070454,-0.05887,0.52532,96.87,1
88814,0,218382,244353,219241.31,246109.18,-859.31,-1756.19,-0.070374,-0.058725,0.525923,96.85,1
88854,0,218217,243977,219220.82,246066.56,-1003.83,-2089.56,-0.07028,-0.058551,0.526381,96.84,1
88894,0,218104,243694,219198.5,246019.1,-1094.5,-2325.11,-0.070178,-0.058359,0.526458,96.84,1
88934,0,218064,243569,219175.81,245970.1,-1111.81,-2401.11,-0.070075,-0.058159,0.526169,96.85,1
88975,0,217999,243400,219152.28,245918.71,-1153.28,-2518.72,-0.069967,-0.05795,0.52562,96.86,1
89014,0,217948,243380,219128.18,245867.93,-1180.19,-2487.94,-0.069857,-0.057744,0.525904,96.85,1
89055,0,217923,243375,219104.07,245818.07,-1181.08,-2443.08,-0.069747,-0.057541,0.526571,96.84,1
89094,0,217951,243426,219081.01,245770.23,-1130.02,-2344.23,-0.069642,-0.057346,0.527087,96.82,1
89135,0,218031,243565,219060.03,245726.12,-1029.03,-2161.12,-0.069546,-0.057167,0.527301,96.82,1
89174,0,218075,243672,219040.32,245685.04,-965.33,-2013.05,-0.069456,-0.057,0.527575,96.81,1
89214,0,218141,243859,219022.34,245648.53,-881.34,-1789.53,-0.069374,-0.056851,0.528081,96.8,1
89253,0,218217,244128,219006.25,245618.12,-789.25,-1490.13,-0.069301,-0.056727,0.529041,96.77,1
89294,0,218364,244360,218993.4,245592.96,-629.41,-1232.97,-0.069242,-0.056625,0.529465,96.76,1
89333,0,218498,244651,218983.5,245574.12,-485.5,-923.13,-0.069197,-0.056548,0.529801,96.75,1
89374,0,218619,244927,218976.2,245561.18,-357.2,-634.19,-0.069164,-0.056496,0.530079,96.75,1
89413,0,218731,245191,218971.31,245553.78,-240.31,-362.78,-0.069141,-0.056465,0.530288,96.74,1
89454,0,218824,245478,218968.37,245552.26,-144.38,-74.27,-0.069128,-0.056459,0.530433,96.74,1
89493,0,218954,245707,218968.09,245555.35,-14.09,151.64,-0.069127,-0.056472,0.530392,96.74,1
89534,0,219069,245923,218970.1,245562.7,98.89,360.3,-0.069136,-0.056502,0.530241,96.74,1
89573,0,219129,246034,218973.29,245572.12,155.7,461.88,-0.06915,-0.05654,0.530057,96.75,1
89613,0,219104,245857,218975.9,245577.82,128.09,279.17,-0.069162,-0.056563,0.530046,96.75,1
89654,0,218994,245490,218976.26,245576.07,17.73,-86.08,-0.069164,-0.056556,0.530033,96.75,1
89693,0,218862,245151,218973.98,245567.57,-111.98,-416.58,-0.069153,-0.056522,0.529821,96.75,1
89734,0,218785,244941,218970.21,245555.04,-185.22,-614.05,-0.069136,-0.056471,0.529416,96.76,1
89773,0,218697,244740,218964.75,245538.75,-267.75,-798.75,-0.069111,-0.056404,0.528842,96.78,1
89814,0,218608,244543,218957.6,245518.84,-349.61,-975.84,-0.069079,-0.056323,0.52811,96.8,1
89852,0,218526,244461,218948.98,245497.68,-422.98,-1036.69,-0.069039,-0.056237,0.527622,96.81,1
89893,0,218499,244381,218940,245475.35,-441,-1094.36,-0.068998,-0.056146,0.52704,96.82,1
89932,0,218494,244328,218931.07,245452.42,-437.08,-1124.42,-0.068958,-0.056052,0.526313,96.84,1
89973,0,218444,244278,218921.32,245428.93,-477.33,-1150.94,-0.068913,-0.055957,0.525783,96.86,1
90012,0,218443,244347,218911.76,245407.29,-468.77,-1060.3,-0.068869,-0.055869,0.525554,96.86,1
90053,0,218449,244501,218902.51,245389.17,-453.52,-888.17,-0.068827,-0.055795,0.52582,96.85,1
90092,0,218529,244589,218895.04,245373.17,-366.05,-784.17,-0.068793,-0.05573,0.525807,96.85,1
90133,0,218576,244752,218888.67,245360.76,-312.67,-608.77,-0.068764,-0.055679,0.52594,96.85,1
90172,0,218638,244900,218883.67,245351.56,-245.67,-451.56,-0.068741,-0.055641,0.526067,96.85,1
90213,0,218691,245080,218879.81,245346.12,-188.81,-266.13,-0.068723,-0.055619,0.526234,96.84,1
90253,0,218758,245281,218877.37,245344.82,-119.37,-63.83,-0.068712,-0.055614,0.526345,96.84,1
90292,0,218827,245429,218876.37,245346.51,-49.38,82.48,-0.068708,-0.055621,0.526349,96.84,1
90333,0,218906,245578,218876.98,245351.15,29.02,226.84,-0.06871,-0.05564,0.526252,96.84,1
90372,0,218966,245739,218878.76,245358.92,87.23,380.08,-0.068719,-0.055671,0.526032,96.85,1
90413,0,219008,245809,218881.34,245367.93,126.66,441.06,-0.06873,-0.055708,0.525788,96.86,1
90451,0,218956,245531,218882.84,245371.2,73.16,159.8,-0.068737,-0.055722,0.525781,96.86,1
90492,0,218848,245197,218882.14,245367.71,-34.14,-170.72,-0.068734,-0.055707,0.525729,96.86,1
90532,0,218780,245030,218880.09,245360.96,-100.09,-330.97,-0.068725,-0.05568,0.525595,96.86,1
90572,0,218734,244941,218877.18,245352.56,-143.19,-411.56,-0.068711,-0.055646,0.525436,96.86,1
90612,0,218706,244893,218873.76,245343.37,-167.77,-450.38,-0.068696,-0.055608,0.525277,96.87,1
90651,0,218662,244883,218869.53,245334.17,-207.53,-451.17,-0.068676,-0.055571,0.525258,96.87,1
90692,0,218684,244903,218865.81,245325.56,-181.81,-422.56,-0.068659,-0.055536,0.525195,96.87,1
90731,0,218718,244909,218862.85,245317.25,-144.86,-408.25,-0.068646,-0.055502,0.525041,96.87,1
90772,0,218732,244977,218860.25,245310.45,-128.25,-333.45,-0.068634,-0.055474,0.524959,96.88,1
90811,0,218790,245192,218858.84,245308.09,-68.84,-116.09,-0.068628,-0.055464,0.524972,96.88,1
90852,0,218873,245446,218859.12,245310.85,13.88,135.14,-0.068629,-0.055476,0.52493,96.88,1
90892,0,218995,245660,218861.85,245317.84,133.14,342.16,-0.068641,-0.055504,0.524846,96.88,1
90932,0,219108,245886,218866.78,245329.2,241.22,556.8,-0.068664,-0.05555,0.524744,96.88,1
90972,0,219181,246041,218873.07,245343.43,307.92,697.56,-0.068693,-0.055608,0.524622,96.88,1
91012,0,219261,246295,218880.84,245362.48,380.16,932.52,-0.068728,-0.055686,0.524151,96.9,1
91052,0,219316,246454,218889.54,245384.31,426.45,1069.69,-0.068768,-0.055775,0.523453,96.91,1
91091,0,219384,246607,218899.43,245408.76,484.56,1198.23,-0.068813,-0.055875,0.522654,96.93,1
91131,0,219485,246776,218911.15,245436.1,573.84,1339.89,-0.068867,-0.055986,0.522036,96.95,1
91171,0,219528,246761,218923.5,245462.6,604.5,1298.39,-0.068923,-0.056094,0.522037,96.95,1
91211,0,219480,246494,218934.62,245483.23,545.38,1010.77,-0.068974,-0.056178,0.522808,96.93,1
91251,0,219348,246194,218942.89,245497.45,405.11,696.55,-0.069012,-0.056236,0.523405,96.91,1
91291,0,219257,245980,218949.17,245507.1,307.83,472.89,-0.06904,-0.056275,0.523876,96.9,1
91330,0,219224,245849,218954.67,245513.95,269.33,335.05,-0.069065,-0.056303,0.524372,96.89,1
91371,0,219180,245741,218959.17,245518.48,220.83,222.52,-0.069086,-0.056322,0.524766,96.88,1
91410,0,219139,245724,218962.78,245522.6,176.22,201.39,-0.069102,-0.056338,0.524998,96.88,1
91451,0,219101,245711,218965.54,245526.37,135.45,184.63,-0.069115,-0.056354,0.525112,96.87,1
91492,0,219105,245703,218968.32,245529.92,136.67,173.08,-0.069128,-0.056368,0.52524,96.87,1
91531,0,219133,245714,218971.62,245533.6,161.38,180.39,-0.069143,-0.056383,0.525443,96.86,1
91572,0,219134,245694,218974.87,245536.81,159.13,157.19,-0.069158,-0.056396,0.52566,96.86,1
91611,0,219111,245745,218977.59,245540.98,133.41,204.02,-0.06917,-0.056413,0.525753,96.86,1
91651,0,219087,245807,218979.78,245546.31,107.22,260.69,-0.06918,-0.056435,0.525713,96.86,1
91691,0,219122,245872,218982.62,245552.82,139.38,319.17,-0.069193,-0.056461,0.525679,96.86,1
91730,0,219152,245921,218986.03,245560.2,165.97,360.8,-0.069209,-0.056492,0.525665,96.86,1
91770,0,219187,245979,218990.04,245568.57,196.95,410.42,-0.069227,-0.056526,0.525684,96.86,1
91810,0,219185,246053,218993.95,245578.28,191.05,474.72,-0.069245,-0.056565,0.525533,96.86,1
91850,0,219176,246120,218997.59,245589.12,178.41,530.88,-0.069261,-0.056609,0.525182,96.87,1
91890,0,219186,246182,219001.35,245600.98,184.64,581.02,-0.069279,-0.056658,0.524713,96.88,1
91931,0,219223,246202,219005.79,245613.01,217.2,588.98,-0.069299,-0.056707,0.524373,96.89,1
91970,0,219170,245858,219009.09,245617.92,160.91,240.08,-0.069314,-0.056726,0.524531,96.89,1
92011,0,219010,245445,219009.12,245614.46,0.88,-169.47,-0.069314,-0.056713,0.524455,96.89,1
92050,0,218869,245151,219006.32,245605.2,-137.33,-454.2,-0.069301,-0.056675,0.524135,96.9,1
92091,0,218787,244998,219001.93,245593.06,-214.94,-595.06,-0.069281,-0.056625,0.523753,96.91,1
92130,0,218768,244877,218997.26,245578.75,-229.27,-701.75,-0.06926,-0.056567,0.523078,96.92,1
92170,0,218722,244781,218991.76,245562.79,-269.77,-781.8,-0.069235,-0.056502,0.522332,96.94,1
92210,0,218697,244800,218985.87,245547.54,-288.88,-747.55,-0.069208,-0.05644,0.521862,96.95,1
92250,0,218657,244791,218979.29,245532.4,-322.3,-741.41,-0.069178,-0.056378,0.521671,96.96,1
92291,0,218653,244798,218972.78,245517.71,-319.78,-719.72,-0.069148,-0.056318,0.521546,96.96,1
92329,0,218699,244941,218967.31,245506.18,-268.31,-565.19,-0.069123,-0.056272,0.521581,96.96,1
92370,0,218781,245180,218963.59,245499.65,-182.59,-319.66,-0.069106,-0.056245,0.521723,96.96,1
92409,0,218912,245504,218962.56,245499.75,-50.56,4.25,-0.069101,-0.056245,0.521753,96.96,1
92450,0,219008,245762,218963.46,245505,44.53,257,-0.069106,-0.056267,0.521591,96.96,1
92489,0,219087,245948,218965.93,245513.85,121.06,434.14,-0.069117,-0.056303,0.521247,96.97,1
92529,0,219162,246170,218969.85,245527,192.14,643,-0.069135,-0.056356,0.520555,96.99,1
