t_ms,trial_id,t_trial_ms,phase,red_raw,ir_raw,red_dc,ir_dc,red_ac,ir_ac,R,spo2,spo2_valid
1950,1,0,0,50670,54241,50619.50,54118.97,50.50,122.03,nan,nan,0
1990,1,40,0,50605,54152,50619.48,54119.04,-14.48,32.96,nan,nan,0
2030,1,80,0,50587,54159,50619.41,54119.12,-32.41,39.88,nan,nan,0
2070,1,120,0,50600,54180,50619.37,54119.24,-19.37,60.76,nan,nan,0
2110,1,160,0,50613,54196,50619.36,54119.40,-6.36,76.60,nan,nan,0
2150,1,200,0,50622,54222,50619.37,54119.61,2.63,102.39,nan,nan,0
2190,1,240,0,50634,54268,50619.40,54119.90,14.60,148.10,nan,nan,0
2230,1,280,0,50651,54299,50619.47,54120.26,31.53,178.74,0.423470,99.41,1
2270,1,320,0,50666,54336,50619.56,54120.70,46.44,215.30,0.423375,99.41,1
2310,1,360,0,50685,54369,50619.70,54121.19,65.30,247.81,0.423258,99.41,1
2350,1,400,0,50701,54419,50619.86,54121.79,81.14,297.21,0.423117,99.41,1
2390,1,440,0,50727,54460,50620.07,54122.47,106.93,337.53,0.422963,99.41,1
2430,1,480,0,50746,54494,50620.33,54123.21,125.67,370.79,0.422806,99.41,1
2470,1,520,0,50758,54543,50620.61,54124.05,137.39,418.95,0.422641,99.41,1
2510,1,560,0,50769,54572,50620.90,54124.95,148.10,447.05,0.422471,99.41,1
2550,1,600,0,50779,54601,50621.22,54125.91,157.78,475.09,0.422298,99.41,1
2590,1,640,0,50790,54632,50621.56,54126.92,168.44,505.08,0.422121,99.41,1
2630,1,680,0,50803,54656,50621.92,54127.98,181.08,528.02,0.421947,99.41,1
2670,1,720,0,50800,54593,50622.28,54128.91,177.72,464.09,0.421786,99.42,1
2710,1,760,0,50743,54469,50622.52,54129.59,120.48,339.41,0.421627,99.42,1
2750,1,800,0,50701,54432,50622.68,54130.19,78.32,301.81,0.421460,99.42,1
2790,1,840,0,50694,54442,50622.83,54130.82,71.17,311.18,0.421282,99.42,1
2830,1,880,0,50702,54466,50622.99,54131.49,79.01,334.51,0.421093,99.42,1
2870,1,920,0,50706,54462,50623.16,54132.15,82.84,329.85,0.420895,99.42,1
2911,1,961,0,50710,54487,50623.33,54132.86,86.67,354.14,0.420687,99.43,1
2951,1,1001,0,50716,54500,50623.52,54133.60,92.48,366.40,0.420470,99.43,1
2991,1,1041,0,50717,54515,50623.71,54134.36,93.29,380.64,0.420243,99.43,1
3031,1,1081,0,50720,54539,50623.90,54135.18,96.10,403.82,0.420004,99.43,1
3071,1,1121,0,50729,54566,50624.11,54136.04,104.89,429.96,0.419754,99.43,1
3111,1,1161,0,50741,54590,50624.35,54136.95,116.65,453.05,0.419495,99.44,1
3151,1,1201,0,50750,54620,50624.60,54137.92,125.40,482.08,0.419228,99.44,1
3191,1,1241,0,50762,54638,50624.88,54138.92,137.12,499.08,0.418955,99.44,1
3231,1,1281,0,50772,54669,50625.18,54139.98,146.82,529.02,0.418676,99.44,1
3271,1,1321,0,50774,54685,50625.48,54141.07,148.52,543.93,0.418392,99.45,1
3311,1,1361,0,50774,54707,50625.77,54142.20,148.23,564.80,0.418101,99.45,1
3351,1,1401,0,50785,54725,50626.09,54143.37,158.91,581.63,0.417804,99.45,1
3391,1,1441,0,50789,54723,50626.42,54144.53,162.58,578.47,0.417506,99.46,1
3431,1,1481,0,50761,54617,50626.69,54145.48,134.31,471.52,0.417206,99.46,1
3471,1,1521,0,50710,54556,50626.86,54146.30,83.14,409.70,0.416900,99.46,1
3511,1,1561,0,50700,54565,50627.01,54147.14,72.99,417.86,0.416585,99.47,1
3551,1,1601,0,50705,54586,50627.16,54148.02,77.84,437.98,0.416261,99.47,1
3591,1,1641,0,50713,54597,50627.34,54148.92,85.66,448.08,0.415930,99.47,1
3631,1,1681,0,50715,54617,50627.51,54149.86,87.49,467.14,0.415590,99.48,1
3671,1,1721,0,50721,54628,50627.70,54150.81,93.30,477.19,0.415243,99.48,1
3711,1,1761,0,50726,54641,50627.90,54151.79,98.10,489.21,0.414888,99.49,1
3751,1,1801,0,50727,54654,50628.10,54152.80,98.90,501.20,0.414526,99.49,1
3791,1,1841,0,50733,54666,50628.31,54153.82,104.69,512.18,0.414158,99.50,1
3831,1,1881,0,50742,54701,50628.54,54154.92,113.46,546.08,0.413783,99.50,1
3871,1,1921,0,50746,54719,50628.77,54156.05,117.23,562.95,0.413401,99.51,1
3911,1,1961,0,50750,54751,50629.02,54157.24,120.98,593.76,0.413012,99.51,1
3951,1,2001,0,50764,54775,50629.29,54158.48,134.71,616.52,0.412618,99.52,1
3992,1,2042,0,50769,54800,50629.57,54159.77,139.43,640.23,0.412218,99.52,1
4032,1,2082,0,50773,54815,50629.86,54161.08,143.14,653.92,0.411814,99.53,1
4072,1,2122,0,50781,54844,50630.16,54162.45,150.84,681.55,0.411404,99.53,1
4112,1,2162,0,50782,54855,50630.46,54163.83,151.54,691.17,0.410990,99.54,1
4152,1,2202,0,50781,54820,50630.77,54165.14,150.23,654.86,0.410574,99.54,1
4192,1,2242,0,50735,54743,50630.98,54166.30,104.02,576.70,0.410152,99.55,1
4232,1,2282,0,50713,54724,50631.14,54167.42,81.86,556.58,0.409723,99.56,1
4272,1,2322,0,50719,54748,50631.32,54168.58,87.68,579.42,0.409288,99.56,1
4312,1,2362,0,50726,54765,50631.51,54169.78,94.49,595.22,0.408846,99.57,1
4352,1,2402,0,50732,54784,50631.71,54171.01,100.29,612.99,0.408397,99.58,1
4392,1,2442,0,50738,54809,50631.93,54172.29,106.07,636.71,0.407943,99.58,1
4432,1,2482,0,50749,54839,50632.16,54173.62,116.84,665.38,0.407483,99.59,1
4472,1,2522,0,50762,54854,50632.42,54174.98,129.58,679.02,0.407019,99.60,1
4512,1,2562,0,50768,54871,50632.70,54176.38,135.30,694.62,0.406551,99.60,1
4552,1,2602,0,50774,54892,50632.98,54177.81,141.02,714.19,0.406081,99.61,1
4592,1,2642,0,50781,54915,50633.28,54179.29,147.72,735.71,0.405608,99.62,1
4632,1,2682,0,50796,54951,50633.61,54180.83,162.39,770.17,0.405133,99.63,1
4672,1,2722,0,50802,54973,50633.95,54182.42,168.05,790.58,0.404657,99.63,1
4712,1,2762,0,50807,54998,50634.29,54184.05,172.71,813.95,0.404181,99.64,1
4752,1,2802,0,50814,55013,50634.65,54185.71,179.35,827.29,0.403703,99.65,1
4792,1,2842,0,50818,55037,50635.02,54187.41,182.98,849.59,0.403226,99.66,1
4832,1,2882,0,50829,55061,50635.41,54189.16,193.59,871.84,0.402748,99.67,1
4872,1,2922,0,50836,55084,50635.81,54190.96,200.19,893.04,0.402272,99.67,1
4912,1,2962,0,50837,55087,50636.21,54192.75,200.79,894.25,0.401797,99.68,1
4952,1,3002,0,50818,55021,50636.58,54194.41,181.42,826.59,0.401322,99.69,1
4992,1,3042,0,50781,54962,50636.87,54195.94,144.13,766.06,0.400845,99.70,1
5033,1,3083,0,50768,54984,50637.13,54197.52,130.87,786.48,0.400363,99.71,1
5073,1,3123,0,50781,54995,50637.42,54199.12,143.58,795.88,0.399879,99.72,1
5113,1,3163,0,50782,55006,50637.71,54200.73,144.29,805.27,0.399393,99.73,1
5153,1,3203,0,50783,55023,50638.00,54202.37,145.00,820.62,0.398903,99.73,1
5193,1,3243,0,50784,55042,50638.29,54204.05,145.71,837.95,0.398410,99.74,1
5233,1,3283,0,50795,55065,50638.61,54205.78,156.39,859.22,0.397915,99.75,1
5273,1,3323,0,50804,55082,50638.94,54207.53,165.06,874.47,0.397418,99.76,1
5313,1,3363,0,50812,55097,50639.29,54209.31,172.71,887.69,0.396921,99.76,1
5353,1,3403,0,50821,55135,50639.65,54211.16,181.35,923.84,0.396423,99.77,1
5393,1,3443,0,50827,55153,50640.03,54213.05,186.97,939.95,0.395924,99.78,1
5433,1,3483,0,50837,55180,50640.42,54214.98,196.58,965.02,0.395425,99.79,1
5473,1,3523,0,50846,55192,50640.84,54216.94,205.16,975.06,0.394928,99.79,1
5513,1,3563,0,50853,55220,50641.26,54218.95,211.74,1001.05,0.394431,99.80,1
5553,1,3603,0,50861,55230,50641.70,54220.97,219.30,1009.03,0.393937,99.80,1
5593,1,3643,0,50864,55233,50642.15,54223.00,221.85,1010.00,0.393445,99.81,1
5633,1,3683,0,50867,55239,50642.60,54225.04,224.40,1013.96,0.392954,99.82,1
5673,1,3723,0,50864,55232,50643.04,54227.05,220.96,1004.95,0.392466,99.82,1
5713,1,3763,0,50858,55220,50643.47,54229.04,214.53,990.96,0.391980,99.83,1
5753,1,3803,0,50822,55119,50643.83,54230.82,178.17,888.18,0.391494,99.83,1
5793,1,3843,0,50777,55062,50644.10,54232.48,132.90,829.52,0.391006,99.84,1
5833,1,3883,0,50772,55068,50644.36,54234.16,127.64,833.84,0.390515,99.84,1
5873,1,3923,0,50772,55068,50644.62,54235.82,127.38,832.18,0.390023,99.85,1
5913,1,3963,0,50774,55071,50644.88,54237.50,129.12,833.50,0.389528,99.85,1
5953,1,4003,0,50767,55066,50645.12,54239.16,121.87,826.84,0.389031,99.86,1
5993,1,4043,0,50764,55071,50645.36,54240.82,118.64,830.18,0.388532,99.86,1
6033,1,4083,0,50764,55071,50645.60,54242.48,118.40,828.52,0.388031,99.86,1
6073,1,4123,0,50764,55068,50645.84,54244.13,118.16,823.87,0.387528,99.87,1
6114,1,4164,0,50761,55071,50646.07,54245.79,114.93,825.21,0.387022,99.87,1
6154,1,4204,0,50757,55076,50646.29,54247.45,110.71,828.55,0.386515,99.88,1
6194,1,4244,0,50759,55085,50646.52,54249.12,112.48,835.87,0.386005,99.88,1
6234,1,4284,0,50753,55093,50646.73,54250.81,106.27,842.19,0.385492,99.88,1
6274,1,4324,0,50759,55103,50646.96,54252.52,112.04,850.48,0.384977,99.89,1
6314,1,4364,0,50756,55115,50647.18,54254.25,108.82,860.75,0.384460,99.89,1
6354,1,4404,0,50765,55121,50647.42,54255.98,117.58,865.02,0.383941,99.89,1
6394,1,4444,0,50763,55129,50647.65,54257.73,115.35,871.27,0.383419,99.90,1
6434,1,4484,0,50765,55138,50647.89,54259.49,117.11,878.51,0.382896,99.90,1
6474,1,4524,0,50745,55058,50648.08,54261.09,96.92,796.91,0.382371,99.90,1
6514,1,4564,0,50709,54987,50648.21,54262.54,60.79,724.46,0.381843,99.91,1
6554,1,4604,0,50689,54977,50648.29,54263.97,40.71,713.03,0.381314,99.91,1
6594,1,4644,0,50698,54991,50648.39,54265.43,49.61,725.57,0.380782,99.91,1
6634,1,4684,0,50697,54985,50648.49,54266.87,48.51,718.13,0.380248,99.91,1
6674,1,4724,0,50702,54988,50648.60,54268.31,53.40,719.69,0.379712,99.92,1
6714,1,4764,0,50703,54990,50648.71,54269.76,54.29,720.24,0.379175,99.92,1
6754,1,4804,0,50700,54990,50648.81,54271.20,51.19,718.80,0.379175,99.92,0
6794,1,4844,0,50699,54989,50648.91,54272.64,50.09,716.36,0.379175,99.92,0
6834,1,4884,0,50697,54989,50649.01,54274.07,47.99,714.93,0.379175,99.92,0
6874,1,4924,0,50697,54992,50649.11,54275.51,47.89,716.49,0.379175,99.92,0
6914,1,4964,0,50703,55009,50649.22,54276.98,53.78,732.02,0.379175,99.92,0
6954,1,5004,0,50703,55020,50649.33,54278.46,53.67,741.54,0.379175,99.92,0
6994,1,5044,0,50711,55034,50649.45,54279.98,61.55,754.02,0.379175,99.92,0
7034,1,5084,0,50714,55047,50649.58,54281.51,64.42,765.49,0.379175,99.92,0
7074,1,5124,0,50713,55052,50649.71,54283.05,63.29,768.95,0.379175,99.92,0
7115,1,5165,0,50718,55067,50649.85,54284.62,68.15,782.37,0.379175,99.92,0
7155,1,5205,0,50720,55075,50649.99,54286.21,70.01,788.79,0.379175,99.92,0
7195,1,5245,0,50706,54990,50650.10,54287.62,55.90,702.38,0.379175,99.92,0
7235,1,5285,0,50649,54888,50650.10,54288.82,-1.10,599.18,0.379175,99.92,0
7275,1,5325,0,50625,54868,50650.05,54289.98,-25.05,578.02,0.379175,99.92,0
7315,1,5365,0,50632,54870,50650.02,54291.14,-18.02,578.86,0.379175,99.92,0
7355,1,5405,0,50641,54877,50650.00,54292.31,-9.00,584.69,0.379175,99.92,0
7395,1,5445,0,50650,54884,50650.00,54293.50,0.00,590.50,0.379175,99.92,0
7435,1,5485,0,50663,54906,50650.03,54294.72,12.97,611.28,0.379175,99.92,0
7475,1,5525,0,50666,54938,50650.06,54296.01,15.94,641.99,0.379175,99.92,0
7515,1,5565,0,50693,54951,50650.15,54297.32,42.85,653.68,0.379175,99.92,0
7555,1,5605,0,50702,54973,50650.25,54298.68,51.75,674.32,0.379175,99.92,0
7595,1,5645,0,50714,54994,50650.38,54300.07,63.62,693.93,0.379175,99.92,0
7635,1,5685,0,50727,55012,50650.54,54301.49,76.46,710.51,0.379175,99.92,0
7675,1,5725,0,50739,55028,50650.72,54302.95,88.28,725.05,0.379175,99.92,0
7715,1,5765,0,50750,55058,50650.92,54304.46,99.08,753.54,0.379175,99.92,0
7755,1,5805,0,50759,55086,50651.14,54306.02,107.86,779.98,0.379175,99.92,0
7795,1,5845,0,50776,55117,50651.39,54307.65,124.61,809.35,0.379175,99.92,0
7835,1,5885,0,50792,55141,50651.67,54309.32,140.33,831.68,0.379175,99.92,0
7875,1,5925,0,50798,55150,50651.96,54311.00,146.04,839.00,0.379175,99.92,0
7915,1,5965,0,50783,55056,50652.22,54312.49,130.78,743.51,0.379175,99.92,0
7955,1,6005,0,50734,54962,50652.39,54313.79,81.61,648.21,0.379175,99.92,0
7995,1,6045,0,50716,54955,50652.52,54315.08,63.48,639.92,0.379175,99.92,0
8035,1,6085,0,50728,54981,50652.67,54316.41,75.33,664.59,0.379175,99.92,0
8076,1,6126,0,50743,54995,50652.85,54317.77,90.15,677.23,0.379175,99.92,0
8116,1,6166,0,50743,54995,50653.03,54319.12,89.97,675.87,0.379175,99.92,0
8156,1,6206,0,50750,55007,50653.23,54320.50,96.77,686.50,0.379175,99.92,0
8196,1,6246,0,50755,55018,50653.43,54321.90,101.57,696.10,0.379175,99.92,0
8236,1,6286,0,50764,55044,50653.65,54323.34,110.35,720.66,0.379175,99.92,0
8276,1,6326,0,50778,55071,50653.90,54324.84,124.10,746.16,0.379175,99.92,0
8316,1,6366,0,50798,55090,50654.19,54326.37,143.81,763.63,0.379175,99.92,0
8356,1,6406,0,50808,55127,50654.50,54327.97,153.50,799.03,0.379175,99.92,0
8396,1,6446,0,50827,55161,50654.85,54329.64,172.15,831.36,0.379175,99.92,0
8436,1,6486,0,50834,55185,50655.21,54331.35,178.79,853.65,0.379175,99.92,0
8476,1,6526,0,50853,55207,50655.61,54333.11,197.39,873.89,0.379175,99.92,0
8516,1,6566,0,50855,55221,50656.00,54334.88,199.00,886.12,0.379175,99.92,0
8556,1,6606,0,50872,55247,50656.44,54336.71,215.56,910.29,0.379175,99.92,0
8596,1,6646,0,50878,55233,50656.88,54338.50,221.12,894.50,0.379175,99.92,0
8636,1,6686,0,50844,55114,50657.26,54340.05,186.74,773.95,0.379175,99.92,0
8676,1,6726,0,50801,55054,50657.55,54341.48,143.45,712.52,0.379175,99.92,0
8716,1,6766,0,50793,55071,50657.82,54342.94,135.18,728.06,0.379175,99.92,0
8756,1,6806,0,50806,55084,50658.12,54344.43,147.88,739.57,0.379175,99.92,0
8796,1,6846,0,50810,55099,50658.42,54345.94,151.58,753.06,0.379175,99.92,0
8836,1,6886,0,50815,55103,50658.74,54347.45,156.26,755.55,0.379175,99.92,0
8876,1,6926,0,50822,55112,50659.07,54348.98,162.93,763.02,0.379175,99.92,0
8916,1,6966,0,50820,55121,50659.39,54350.53,160.61,770.47,0.379175,99.92,0
8956,1,7006,0,50826,55130,50659.73,54352.09,166.27,777.91,0.379175,99.92,0
8996,1,7046,0,50826,55147,50660.06,54353.68,165.94,793.32,0.379175,99.92,0
9036,1,7086,0,50833,55167,50660.41,54355.31,172.59,811.69,0.379175,99.92,0
9077,1,7127,0,50841,55193,50660.77,54356.98,180.23,836.02,0.379175,99.92,0
9117,1,7167,0,50848,55207,50661.14,54358.69,186.86,848.31,0.379175,99.92,0
9157,1,7207,0,50858,55234,50661.54,54360.44,196.46,873.56,0.379175,99.92,0
9197,1,7247,0,50859,55246,50661.93,54362.21,197.07,883.79,0.379175,99.92,0
9237,1,7287,0,50862,55264,50662.34,54364.02,199.66,899.98,0.379175,99.92,0
9277,1,7327,0,50871,55260,50662.75,54365.81,208.25,894.19,0.379175,99.92,0
9317,1,7367,0,50839,55146,50663.11,54367.37,175.89,778.62,0.379175,99.92,0
9357,1,7407,0,50795,55089,50663.37,54368.82,131.62,720.18,0.379175,99.92,0
9397,1,7447,0,50786,55099,50663.62,54370.28,122.38,728.72,0.379175,99.92,0
9437,1,7487,0,50793,55115,50663.88,54371.77,129.12,743.23,0.379175,99.92,0
9477,1,7527,0,50804,55130,50664.16,54373.29,139.84,756.71,0.379175,99.92,0
9517,1,7567,0,50810,55139,50664.46,54374.82,145.54,764.18,0.379175,99.92,0
9557,1,7607,0,50822,55150,50664.77,54376.37,157.23,773.62,0.379175,99.92,0
9597,1,7647,0,50822,55148,50665.09,54377.92,156.91,770.08,0.379175,99.92,0
9637,1,7687,0,50827,55158,50665.41,54379.48,161.59,778.52,0.379175,99.92,0
9677,1,7727,0,50826,55171,50665.74,54381.07,160.26,789.93,0.379175,99.92,0
9717,1,7767,0,50830,55196,50666.07,54382.70,163.93,813.30,0.379175,99.92,0
9757,1,7807,0,50846,55220,50666.43,54384.37,179.57,835.62,0.379175,99.92,0
9797,1,7847,0,50850,55235,50666.79,54386.08,183.21,848.92,0.379175,99.92,0
9837,1,7887,0,50856,55251,50667.17,54387.81,188.83,863.19,0.379175,99.92,0
9877,1,7927,0,50860,55265,50667.56,54389.56,192.44,875.44,0.379175,99.92,0
9917,1,7967,0,50862,55274,50667.95,54391.33,194.05,882.67,0.379175,99.92,0
9957,1,8007,0,50857,55218,50668.33,54392.99,188.67,825.01,0.378639,99.92,1
9997,1,8047,0,50808,55103,50668.61,54394.41,139.39,708.59,0.378105,99.92,1
10037,1,8087,0,50775,55061,50668.82,54395.75,106.18,665.25,0.377573,99.93,1
10078,1,8128,0,50769,55071,50669.03,54397.10,99.97,673.90,0.377040,99.93,1
10118,1,8168,0,50771,55077,50669.23,54398.46,101.77,678.54,0.377040,99.93,0
10158,1,8208,0,50776,55074,50669.45,54399.81,106.55,674.19,0.377040,99.93,0
10198,1,8248,0,50778,55093,50669.67,54401.20,108.33,691.80,0.377040,99.93,0
10238,1,8288,0,50782,55105,50669.89,54402.61,112.11,702.39,0.377040,99.93,0
10278,1,8328,0,50784,55113,50670.12,54404.03,113.87,708.97,0.377040,99.93,0
10318,1,8368,0,50792,55130,50670.37,54405.48,121.63,724.52,0.377040,99.93,0
10358,1,8408,0,50800,55147,50670.63,54406.96,129.37,740.04,0.377040,99.93,0
10398,1,8448,0,50812,55179,50670.92,54408.51,141.08,770.49,0.377040,99.93,0
10438,1,8488,0,50822,55205,50671.22,54410.11,150.78,794.89,0.377040,99.93,0
10478,1,8528,0,50833,55231,50671.55,54411.75,161.45,819.25,0.377040,99.93,0
10518,1,8568,0,50843,55256,50671.89,54413.44,171.11,842.56,0.377040,99.93,0
10558,1,8608,0,50852,55269,50672.25,54415.15,179.75,853.85,0.377040,99.93,0
10598,1,8648,0,50862,55286,50672.63,54416.89,189.37,869.11,0.376509,99.93,1
10638,1,8688,0,50857,55196,50673.00,54418.45,184.00,777.55,0.375982,99.93,1
10678,1,8728,0,50801,55086,50673.26,54419.79,127.74,666.21,0.375456,99.93,1
10718,1,8768,0,50774,55065,50673.46,54421.08,100.54,643.92,0.374932,99.94,1
10758,1,8808,0,50772,55069,50673.66,54422.38,98.34,646.62,0.374408,99.94,1
10798,1,8848,0,50773,55061,50673.86,54423.66,99.14,637.34,0.373885,99.94,1
10838,1,8888,0,50777,55065,50674.07,54424.94,102.93,640.06,0.373885,99.94,0
10878,1,8928,0,50779,55070,50674.28,54426.23,104.72,643.77,0.373885,99.94,0
10918,1,8968,0,50787,55085,50674.51,54427.55,112.49,657.45,0.373885,99.94,0
10958,1,9008,0,50792,55096,50674.74,54428.89,117.26,667.11,0.373885,99.94,0
10998,1,9048,0,50795,55116,50674.98,54430.27,120.02,685.73,0.373885,99.94,0
11038,1,9088,0,50805,55145,50675.25,54431.70,129.75,713.30,0.373885,99.94,0
11079,1,9129,0,50817,55172,50675.53,54433.18,141.47,738.82,0.373885,99.94,0
11119,1,9169,0,50829,55197,50675.84,54434.71,153.16,762.29,0.373885,99.94,0
11159,1,9209,0,50837,55211,50676.16,54436.26,160.84,774.74,0.373885,99.94,0
11199,1,9249,0,50845,55248,50676.50,54437.89,168.50,810.11,0.373364,99.94,1
11239,1,9289,0,50852,55260,50676.86,54439.53,175.14,820.47,0.372845,99.94,1
11279,1,9329,0,50856,55277,50677.21,54441.21,178.79,835.79,0.372330,99.95,1
11319,1,9369,0,50850,55195,50677.56,54442.71,172.44,752.29,0.371818,99.95,1
11359,1,9409,0,50795,55078,50677.80,54443.99,117.20,634.01,0.371307,99.95,1
11399,1,9449,0,50774,55069,50677.99,54445.24,96.01,623.76,0.370797,99.95,1
11439,1,9489,0,50772,55074,50678.18,54446.50,93.82,627.50,0.370288,99.95,1
11479,1,9529,0,50781,55087,50678.39,54447.78,102.61,639.22,0.369780,99.95,1
11519,1,9569,0,50787,55094,50678.61,54449.07,108.39,644.93,0.369273,99.95,1
11559,1,9609,0,50799,55120,50678.85,54450.41,120.15,669.59,0.368767,99.96,1
11599,1,9649,0,50811,55129,50679.11,54451.77,131.89,677.23,0.368263,99.96,1
11639,1,9689,0,50818,55147,50679.39,54453.16,138.61,693.84,0.367760,99.96,1
11679,1,9729,0,50824,55158,50679.68,54454.57,144.32,703.43,0.367260,99.96,1
11719,1,9769,0,50832,55190,50679.98,54456.05,152.02,733.95,0.366762,99.96,1
11759,1,9809,0,50844,55220,50680.31,54457.58,163.69,762.42,0.366267,99.96,1
11799,1,9849,0,50851,55245,50680.66,54459.16,170.34,785.84,0.365775,99.96,1
11839,1,9889,0,50867,55271,50681.03,54460.78,185.97,810.22,0.365286,99.96,1
11879,1,9929,0,50881,55288,50681.43,54462.44,199.57,825.56,0.364801,99.97,1
11919,1,9969,0,50881,55309,50681.84,54464.13,199.16,844.87,0.364319,99.97,1
11959,1,10009,0,50891,55330,50682.25,54465.87,208.75,864.13,0.363842,99.97,1
11999,1,10049,0,50893,55313,50682.68,54467.56,210.32,845.44,0.363370,99.97,1
12039,1,10089,0,50856,55190,50683.02,54469.01,172.98,720.99,0.362900,99.97,1
12079,1,10129,0,50806,55106,50683.27,54470.29,122.73,635.71,0.362432,99.97,1
12120,1,10170,0,50788,55108,50683.48,54471.56,104.52,636.44,0.361965,99.97,1
12160,1,10210,0,50793,55105,50683.70,54472.83,109.30,632.17,0.361498,99.97,1
12200,1,10250,0,50791,55103,50683.91,54474.09,107.09,628.91,0.361033,99.97,1
12240,1,10290,0,50788,55101,50684.12,54475.35,103.87,625.65,0.360568,99.97,1
12280,1,10330,0,50788,55116,50684.34,54476.63,103.66,639.37,0.360105,99.97,1
12320,1,10370,0,50791,55107,50684.55,54477.89,106.45,629.11,0.359641,99.98,1
12360,1,10410,0,50787,55113,50684.76,54479.16,102.24,633.84,0.359179,99.98,1
12400,1,10450,0,50793,55126,50684.98,54480.46,108.02,645.54,0.358718,99.98,1
12440,1,10490,0,50804,55138,50685.21,54481.78,118.79,656.22,0.358257,99.98,1
12480,1,10530,0,50806,55158,50685.46,54483.13,120.54,674.87,0.357798,99.98,1
12520,1,10570,0,50820,55175,50685.73,54484.52,134.27,690.48,0.357340,99.98,1
12560,1,10610,0,50826,55193,50686.01,54485.94,139.99,707.06,0.356884,99.98,1
12600,1,10650,0,50832,55200,50686.30,54487.37,145.70,712.63,0.356429,99.98,1
12640,1,10690,0,50840,55208,50686.61,54488.81,153.39,719.19,0.355977,99.98,1
12680,1,10730,0,50840,55208,50686.92,54490.25,153.08,717.75,0.355527,99.98,1
12720,1,10770,0,50830,55126,50687.21,54491.52,142.79,634.48,0.355079,99.98,1
12760,1,10810,0,50767,55002,50687.37,54492.55,79.63,509.45,0.354632,99.98,1
12800,1,10850,0,50730,54959,50687.45,54493.48,42.55,465.52,0.354185,99.98,1
12840,1,10890,0,50731,54956,50687.54,54494.41,43.46,461.59,0.353739,99.98,1
12880,1,10930,0,50731,54953,50687.63,54495.32,43.37,457.68,0.353293,99.98,1
12920,1,10970,0,50726,54951,50687.71,54496.24,38.29,454.76,0.352847,99.98,1
12960,1,11010,0,50725,54951,50687.79,54497.15,37.21,453.85,0.352402,99.98,1
13000,1,11050,0,50723,54954,50687.86,54498.06,35.14,455.94,0.351956,99.99,1
13040,1,11090,0,50721,54951,50687.92,54498.97,33.08,452.03,0.351511,99.99,1
13081,1,11131,0,50727,54959,50688.00,54499.89,39.00,459.11,0.351067,99.99,1
13121,1,11171,0,50728,54974,50688.08,54500.84,39.92,473.16,0.350622,99.99,1
13161,1,11211,0,50736,54999,50688.18,54501.84,47.82,497.16,0.350178,99.99,1
13201,1,11251,0,50738,55016,50688.28,54502.87,49.72,513.13,0.349734,99.99,1
13241,1,11291,0,50752,55038,50688.41,54503.94,63.59,534.06,0.349290,99.99,1
13281,1,11331,0,50758,55050,50688.55,54505.03,69.45,544.97,0.348846,99.99,1
13321,1,11371,0,50764,55060,50688.70,54506.14,75.30,553.86,0.348403,99.99,1
13361,1,11411,0,50770,55069,50688.87,54507.27,81.13,561.73,0.347960,99.99,1
13401,1,11451,0,50764,55001,50689.02,54508.26,74.98,492.74,0.347518,99.99,1
13441,1,11491,0,50707,54869,50689.06,54508.98,17.94,360.02,0.347077,99.99,1
13481,1,11531,0,50663,54818,50689.01,54509.61,-26.01,308.39,0.346636,99.99,1
13521,1,11571,0,50662,54825,50688.96,54510.24,-26.96,314.76,0.346196,99.99,1
13561,1,11611,0,50678,54825,50688.94,54510.87,-10.94,314.13,0.346196,99.99,0
13601,1,11651,0,50676,54820,50688.91,54511.49,-12.91,308.51,0.346196,99.99,0
13641,1,11691,0,50684,54846,50688.91,54512.16,-4.91,333.84,0.346196,99.99,0
13681,1,11731,0,50697,54861,50688.92,54512.86,8.08,348.14,0.346196,99.99,0
13721,1,11771,0,50706,54876,50688.96,54513.59,17.04,362.41,0.346196,99.99,0
13761,1,11811,0,50711,54887,50689.00,54514.34,22.00,372.66,0.346196,99.99,0
13801,1,11851,0,50722,54901,50689.07,54515.11,32.93,385.89,0.346196,99.99,0
13841,1,11891,0,50727,54923,50689.15,54515.93,37.85,407.07,0.346196,99.99,0
13881,1,11931,0,50746,54943,50689.26,54516.79,56.74,426.21,0.346196,99.99,0
13921,1,11971,0,50750,54961,50689.38,54517.68,60.62,443.32,0.346196,99.99,0
13961,1,12011,0,50756,54982,50689.52,54518.61,66.48,463.39,0.346196,99.99,0
14001,1,12051,0,50763,55002,50689.66,54519.57,73.34,482.43,0.346196,99.99,0
14041,1,12091,0,50774,55021,50689.84,54520.58,84.16,500.42,0.346196,99.99,0
14082,1,12132,0,50774,54999,50690.00,54521.54,84.00,477.46,0.346196,99.99,0
14122,1,12172,0,50738,54852,50690.10,54522.20,47.90,329.80,0.346196,99.99,0
14162,1,12212,0,50679,54756,50690.08,54522.67,-11.08,233.33,0.346196,99.99,0
14202,1,12252,0,50664,54754,50690.03,54523.13,-26.03,230.87,0.346196,99.99,0
14242,1,12292,0,50666,54764,50689.98,54523.62,-23.98,240.38,0.346196,99.99,0
14282,1,12332,0,50675,54767,50689.96,54524.11,-14.96,242.89,0.346196,99.99,0
14322,1,12372,0,50680,54778,50689.94,54524.61,-9.94,253.39,0.346196,99.99,0
14362,1,12412,0,50696,54803,50689.95,54525.17,6.05,277.83,0.346196,99.99,0
14402,1,12452,0,50711,54823,50689.99,54525.77,21.01,297.23,0.346196,99.99,0
14442,1,12492,0,50720,54839,50690.05,54526.40,29.95,312.60,0.346196,99.99,0
14482,1,12532,0,50728,54874,50690.13,54527.09,37.87,346.91,0.346196,99.99,0
14522,1,12572,0,50745,54897,50690.24,54527.84,54.76,369.16,0.346196,99.99,0
14562,1,12612,0,50766,54936,50690.39,54528.65,75.61,407.35,0.346196,99.99,0
14602,1,12652,0,50786,54963,50690.59,54529.52,95.41,433.48,0.346196,99.99,0
14642,1,12692,0,50804,54995,50690.81,54530.46,113.19,464.54,0.346196,99.99,0
14682,1,12732,0,50816,55018,50691.06,54531.43,124.94,486.57,0.346196,99.99,0
14722,1,12772,0,50819,55037,50691.32,54532.45,127.68,504.55,0.346196,99.99,0
14762,1,12812,0,50832,55058,50691.60,54533.50,140.40,524.50,0.346196,99.99,0
14802,1,12852,0,50829,54975,50691.88,54534.38,137.12,440.62,0.346196,99.99,0
14842,1,12892,0,50763,54808,50692.02,54534.93,70.98,273.07,0.346196,99.99,0
14882,1,12932,0,50710,54741,50692.06,54535.34,17.94,205.66,0.346196,99.99,0
14922,1,12972,0,50706,54743,50692.09,54535.76,13.91,207.24,0.346196,99.99,0
14962,1,13012,0,50715,54750,50692.14,54536.19,22.86,213.81,0.346196,99.99,0
15002,1,13052,0,50722,54755,50692.20,54536.62,29.80,218.37,0.346196,99.99,0
15042,1,13092,0,50724,54764,50692.27,54537.08,31.73,226.92,0.346196,99.99,0
15083,1,13133,0,50734,54781,50692.35,54537.57,41.65,243.43,0.346196,99.99,0
15123,1,13173,0,50746,54797,50692.46,54538.09,53.54,258.91,0.346196,99.99,0
15163,1,13213,0,50753,54812,50692.58,54538.64,60.42,273.36,0.346196,99.99,0
15203,1,13253,0,50761,54836,50692.72,54539.24,68.28,296.76,0.346196,99.99,0
15243,1,13293,0,50774,54870,50692.88,54539.90,81.12,330.10,0.346196,99.99,0
15283,1,13333,0,50789,54900,50693.08,54540.62,95.92,359.37,0.345758,99.99,1
15323,1,13373,0,50805,54931,50693.30,54541.41,111.70,389.59,0.345323,99.99,1
15363,1,13413,0,50820,54964,50693.56,54542.25,126.44,421.75,0.344891,99.99,1
15403,1,13453,0,50834,54988,50693.84,54543.15,140.16,444.85,0.344464,99.99,1
15443,1,13493,0,50843,55016,50694.14,54544.09,148.86,471.91,0.344042,99.99,1
15483,1,13533,0,50854,55037,50694.46,54545.08,159.54,491.92,0.343626,99.99,1
15523,1,13573,0,50859,54966,50694.79,54545.93,164.21,420.07,0.343216,99.99,1
15563,1,13613,0,50799,54796,50695.00,54546.43,104.00,249.57,0.342810,99.99,1
15603,1,13653,0,50749,54720,50695.11,54546.77,53.89,173.23,0.342405,99.99,1
15643,1,13693,0,50745,54716,50695.21,54547.11,49.79,168.89,0.342002,99.99,1
15683,1,13733,0,50761,54744,50695.35,54547.51,65.65,196.49,0.341601,99.99,1
15723,1,13773,0,50770,54747,50695.50,54547.91,74.50,199.09,0.341202,99.99,1
15763,1,13813,0,50773,54761,50695.66,54548.34,77.34,212.66,0.340806,99.99,1
15803,1,13853,0,50782,54770,50695.83,54548.78,86.17,221.22,0.340412,99.99,1
15843,1,13893,0,50788,54768,50696.02,54549.22,91.98,218.78,0.340021,99.99,1
15883,1,13933,0,50792,54775,50696.21,54549.68,95.79,225.32,0.339634,99.99,1
15923,1,13973,0,50801,54792,50696.42,54550.16,104.58,241.84,0.339250,99.99,1
15963,1,14013,0,50805,54808,50696.64,54550.68,108.36,257.32,0.338869,99.99,1
16003,1,14053,0,50816,54833,50696.88,54551.24,119.12,281.76,0.338493,99.99,1
16043,1,14093,0,50825,54848,50697.14,54551.84,127.86,296.16,0.338122,99.99,1
16084,1,14134,0,50835,54863,50697.41,54552.46,137.59,310.54,0.337755,99.99,1
16124,1,14174,0,50835,54873,50697.69,54553.10,137.31,319.90,0.337394,100.00,1
16164,1,14214,0,50841,54886,50697.98,54553.77,143.02,332.23,0.337039,100.00,1
16204,1,14254,0,50845,54892,50698.28,54554.45,146.72,337.55,0.336689,100.00,1
16244,1,14294,0,50837,54822,50698.55,54554.98,138.45,267.02,0.336345,100.00,1
16284,1,14334,0,50778,54634,50698.71,54555.14,79.29,78.86,0.336003,100.00,1
16324,1,14374,0,50715,54554,50698.75,54555.14,16.25,-1.14,0.335663,100.00,1
16364,1,14414,0,50708,54556,50698.77,54555.15,9.23,0.85,0.335323,100.00,1
16404,1,14454,0,50718,54565,50698.81,54555.17,19.19,9.83,0.334985,100.00,1
16444,1,14494,0,50727,54573,50698.87,54555.20,28.13,17.80,0.334648,100.00,1
16484,1,14534,0,50734,54591,50698.94,54555.28,35.06,35.72,0.334312,100.00,1
16524,1,14574,0,50741,54590,50699.02,54555.35,41.98,34.65,0.333978,100.00,1
16564,1,14614,0,50746,54586,50699.12,54555.41,46.88,30.59,0.333645,100.00,1
16604,1,14654,0,50746,54584,50699.21,54555.47,46.79,28.53,0.333314,100.00,1
16644,1,14694,0,50753,54601,50699.32,54555.56,53.68,45.44,0.332985,100.00,1
16684,1,14734,0,50762,54625,50699.45,54555.70,62.55,69.30,0.332658,100.00,1
16724,1,14774,0,50774,54647,50699.60,54555.89,74.40,91.11,0.332334,100.00,1
16764,1,14814,0,50781,54669,50699.76,54556.11,81.24,112.89,0.332012,100.00,1
16804,1,14854,0,50796,54685,50699.96,54556.37,96.04,128.63,0.331694,100.00,1
16844,1,14894,0,50801,54699,50700.16,54556.66,100.84,142.34,0.331380,100.00,1
16884,1,14934,0,50805,54705,50700.37,54556.95,104.63,148.05,0.331070,100.00,1
16924,1,14974,0,50806,54680,50700.58,54557.20,105.42,122.80,0.330765,100.00,1
16964,1,15014,0,50759,54507,50700.70,54557.10,58.30,-50.10,0.330461,100.00,1
17004,1,15054,0,50687,54387,50700.67,54556.76,-13.67,-169.76,0.330158,100.00,1
17044,1,15094,0,50668,54367,50700.61,54556.38,-32.61,-189.38,0.329855,100.00,1
17085,1,15135,0,50672,54386,50700.55,54556.04,-28.55,-170.04,0.329553,100.00,1
17125,1,15175,0,50683,54390,50700.52,54555.71,-17.52,-165.71,0.329252,100.00,1
17165,1,15215,0,50688,54408,50700.50,54555.42,-12.50,-147.42,0.328951,100.00,1
17205,1,15255,0,50693,54425,50700.48,54555.16,-7.48,-130.16,0.328651,100.00,1
17245,1,15295,0,50703,54429,50700.49,54554.91,2.51,-125.91,0.328352,100.00,1
17285,1,15335,0,50710,54443,50700.51,54554.69,9.49,-111.69,0.328054,100.00,1
17325,1,15375,0,50722,54461,50700.55,54554.50,21.45,-93.50,0.327756,100.00,1
17365,1,15415,0,50734,54493,50700.62,54554.38,33.38,-61.38,0.327460,100.00,1
17405,1,15455,0,50750,54527,50700.72,54554.32,49.28,-27.32,0.327165,100.00,1
17445,1,15495,0,50764,54558,50700.85,54554.33,63.15,3.67,0.326872,100.00,1
17485,1,15535,0,50776,54584,50701.00,54554.39,75.00,29.61,0.326583,100.00,1
17525,1,15575,0,50789,54606,50701.18,54554.50,87.82,51.50,0.326297,100.00,1
17565,1,15615,0,50806,54627,50701.39,54554.64,104.61,72.36,0.326016,100.00,1
17605,1,15655,0,50815,54609,50701.62,54554.75,113.38,54.25,0.325740,100.00,1
17645,1,15695,0,50776,54432,50701.77,54554.51,74.23,-122.51,0.325467,100.00,1
17685,1,15735,0,50700,54295,50701.76,54553.99,-1.76,-258.99,0.325194,100.00,1
17725,1,15775,0,50670,54274,50701.70,54553.43,-31.70,-279.43,0.324920,100.00,1
17765,1,15815,0,50680,54291,50701.66,54552.91,-21.66,-261.91,0.324646,100.00,1
17805,1,15855,0,50689,54291,50701.63,54552.39,-12.63,-261.39,0.324372,100.00,1
17845,1,15895,0,50696,54309,50701.62,54551.90,-5.62,-242.90,0.324097,100.00,1
17885,1,15935,0,50709,54326,50701.64,54551.45,7.36,-225.45,0.323823,100.00,1
17925,1,15975,0,50715,54345,50701.66,54551.04,13.34,-206.04,0.323548,100.00,1
17965,1,16015,0,50721,54353,50701.70,54550.65,19.30,-197.65,0.323274,100.00,1
18005,1,16055,0,50724,54382,50701.75,54550.31,22.25,-168.31,0.323001,100.00,1
18046,1,16096,0,50741,54411,50701.83,54550.04,39.17,-139.04,0.322728,100.00,1
18086,1,16136,0,50756,54445,50701.94,54549.83,54.06,-104.83,0.322457,100.00,1
18126,1,16176,0,50775,54486,50702.09,54549.70,72.91,-63.70,0.322189,100.00,1
18166,1,16216,0,50786,54513,50702.25,54549.63,83.75,-36.63,0.321925,100.00,1
18206,1,16256,0,50794,54545,50702.44,54549.62,91.56,-4.62,0.321665,100.00,1
18246,1,16296,0,50808,54569,50702.65,54549.66,105.35,19.34,0.321410,100.00,1
18286,1,16336,0,50819,54582,50702.88,54549.73,116.12,32.27,0.321162,100.00,1
18326,1,16376,0,50813,54467,50703.11,54549.57,109.89,-82.57,0.320919,100.00,1
18366,1,16416,0,50730,54279,50703.16,54549.03,26.84,-270.03,0.320675,100.00,1
18406,1,16456,0,50675,54214,50703.11,54548.36,-28.11,-334.36,0.320431,100.00,1
18446,1,16496,0,50680,54236,50703.06,54547.73,-23.06,-311.73,0.320185,100.00,1
18486,1,16536,0,50689,54252,50703.04,54547.14,-14.04,-295.14,0.319938,100.00,1
18526,1,16576,0,50704,54253,50703.04,54546.56,0.96,-293.56,0.319690,100.00,1
18566,1,16616,0,50709,54280,50703.05,54546.03,5.95,-266.03,0.319442,100.00,1
18606,1,16656,0,50729,54308,50703.11,54545.55,25.89,-237.55,0.319193,100.00,1
18646,1,16696,0,50738,54322,50703.18,54545.11,34.82,-223.11,0.318945,100.00,1
18686,1,16736,0,50748,54346,50703.27,54544.71,44.73,-198.71,0.318697,100.00,1
18726,1,16776,0,50757,54374,50703.37,54544.37,53.63,-170.37,0.318451,100.00,1
18766,1,16816,0,50778,54413,50703.53,54544.11,74.47,-131.11,0.318208,100.00,1
18806,1,16856,0,50794,54450,50703.71,54543.92,90.29,-93.92,0.317968,100.00,1
18846,1,16896,0,50809,54478,50703.92,54543.79,105.08,-65.79,0.317735,100.00,1
18886,1,16936,0,50821,54511,50704.16,54543.73,116.84,-32.73,0.317508,100.00,1
18926,1,16976,0,50834,54525,50704.42,54543.69,129.58,-18.69,0.317289,100.00,1
18966,1,17016,0,50841,54551,50704.69,54543.71,136.31,7.29,0.317080,100.00,1
19006,1,17056,0,50851,54538,50704.98,54543.70,146.02,-5.70,0.316881,100.00,1
19047,1,17097,0,50807,54346,50705.19,54543.30,101.81,-197.30,0.316686,100.00,1
19087,1,17137,0,50723,54198,50705.23,54542.61,17.77,-344.61,0.316488,100.00,1
19127,1,17177,0,50700,54187,50705.22,54541.90,-5.22,-354.90,0.316289,100.00,1
19167,1,17217,0,50706,54204,50705.22,54541.23,0.78,-337.23,0.316087,100.00,1
19207,1,17257,0,50718,54220,50705.25,54540.59,12.75,-320.59,0.315883,100.00,1
19247,1,17297,0,50729,54235,50705.30,54539.98,23.70,-304.98,0.315678,100.00,1
19287,1,17337,0,50745,54263,50705.38,54539.43,39.62,-276.43,0.315472,100.00,1
19327,1,17377,0,50762,54284,50705.49,54538.92,56.51,-254.92,0.315267,100.00,1
19367,1,17417,0,50771,54301,50705.62,54538.45,65.37,-237.45,0.315063,100.00,1
19407,1,17457,0,50782,54339,50705.78,54538.05,76.22,-199.05,0.314861,100.00,1
19447,1,17497,0,50802,54372,50705.97,54537.71,96.03,-165.71,0.314664,100.00,1
19487,1,17537,0,50823,54412,50706.21,54537.46,116.79,-125.46,0.314473,100.00,1
19527,1,17577,0,50849,54452,50706.49,54537.30,142.51,-85.30,0.314293,100.00,1
19567,1,17617,0,50868,54487,50706.82,54537.20,161.18,-50.20,0.314125,100.00,1
19607,1,17657,0,50885,54521,50707.18,54537.17,177.82,-16.17,0.313973,100.00,1
19647,1,17697,0,50893,54544,50707.55,54537.18,185.45,6.82,0.313837,100.00,1
19687,1,17737,0,50909,54572,50707.95,54537.25,201.05,34.75,0.313720,100.00,1
19727,1,17777,0,50907,54484,50708.35,54537.15,198.65,-53.15,0.313621,100.00,1
19767,1,17817,0,50835,54270,50708.60,54536.62,126.40,-266.62,0.313528,100.00,1
19807,1,17857,0,50766,54167,50708.72,54535.88,57.28,-368.88,0.313432,100.00,1
19847,1,17897,0,50749,54158,50708.80,54535.12,40.20,-377.12,0.313333,100.00,1
19887,1,17937,0,50761,54174,50708.91,54534.40,52.09,-360.40,0.313231,100.00,1
19927,1,17977,0,50765,54172,50709.02,54533.68,55.98,-361.68,0.313127,100.00,1
19967,1,18017,0,50764,54184,50709.13,54532.98,54.87,-348.98,0.313021,100.00,1
20007,1,18057,0,50774,54198,50709.26,54532.31,64.74,-334.31,0.312914,100.00,1
20048,1,18098,0,50773,54195,50709.39,54531.64,63.61,-336.64,0.312806,100.00,1
20088,1,18138,0,50779,54203,50709.53,54530.98,69.47,-327.98,0.312696,100.00,1
20128,1,18178,0,50782,54224,50709.68,54530.37,72.32,-306.37,0.312587,100.00,1
20168,1,18218,0,50791,54261,50709.84,54529.83,81.16,-268.83,0.312479,100.00,1
20208,1,18258,0,50803,54286,50710.03,54529.35,92.97,-243.35,0.312373,100.00,1
20248,1,18298,0,50816,54315,50710.24,54528.92,105.76,-213.92,0.312271,100.00,1
20288,1,18338,0,50829,54337,50710.48,54528.54,118.52,-191.54,0.312176,100.00,1
20328,1,18378,0,50843,54359,50710.75,54528.20,132.25,-169.20,0.312087,100.00,1
20368,1,18418,0,50850,54376,50711.03,54527.90,138.97,-151.90,0.312008,100.00,1
20408,1,18458,0,50850,54360,50711.30,54527.56,138.70,-167.56,0.311937,100.00,1
20448,1,18498,0,50810,54168,50711.50,54526.84,98.50,-358.84,0.311866,100.00,1
20488,1,18538,0,50726,54024,50711.54,54525.84,14.46,-501.84,0.311787,100.00,1
20528,1,18578,0,50704,54004,50711.52,54524.80,-7.52,-520.80,0.311699,100.00,1
20568,1,18618,0,50714,54036,50711.53,54523.82,2.47,-487.82,0.311604,100.00,1
20608,1,18658,0,50722,54051,50711.55,54522.87,10.45,-471.87,0.311502,100.00,1
20648,1,18698,0,50723,54072,50711.57,54521.98,11.43,-449.98,0.311394,100.00,1
20688,1,18738,0,50737,54093,50711.62,54521.12,25.37,-428.12,0.311282,100.00,1
20728,1,18778,0,50739,54100,50711.68,54520.28,27.32,-420.28,0.311164,100.00,1
20768,1,18818,0,50745,54110,50711.75,54519.46,33.25,-409.46,0.311042,100.00,1
20808,1,18858,0,50747,54132,50711.82,54518.69,35.18,-386.69,0.310917,100.00,1
20848,1,18898,0,50757,54163,50711.91,54517.98,45.09,-354.98,0.310789,100.00,1
20888,1,18938,0,50773,54204,50712.03,54517.35,60.97,-313.35,0.310661,100.00,1
20928,1,18978,0,50788,54229,50712.18,54516.78,75.82,-287.78,0.310533,100.00,1
20969,1,19019,0,50797,54270,50712.36,54516.29,84.64,-246.29,0.310407,100.00,1
21009,1,19059,0,50808,54287,50712.55,54515.83,95.45,-228.83,0.310284,100.00,1
21049,1,19099,0,50818,54319,50712.76,54515.44,105.24,-196.44,0.310166,100.00,1
21089,1,19139,0,50826,54306,50712.98,54515.02,113.02,-209.02,0.310053,100.00,1
21129,1,19179,0,50779,54118,50713.12,54514.23,65.88,-396.23,0.309938,100.00,1
21169,1,19219,0,50692,53979,50713.08,54513.16,-21.08,-534.16,0.309815,100.00,1
21209,1,19259,0,50666,53970,50712.98,54512.07,-46.98,-542.07,0.309684,100.00,1
21249,1,19299,0,50682,54000,50712.92,54511.05,-30.92,-511.05,0.309546,100.00,1
21289,1,19339,0,50690,54021,50712.88,54510.07,-22.88,-489.07,0.309401,100.00,1
21329,1,19379,0,50701,54055,50712.86,54509.16,-11.86,-454.16,0.309252,100.00,1
21369,1,19419,0,50716,54088,50712.86,54508.32,3.14,-420.32,0.309098,100.00,1
21409,1,19459,0,50734,54104,50712.91,54507.51,21.09,-403.51,0.308939,100.00,1
21449,1,19499,0,50738,54127,50712.96,54506.75,25.04,-379.75,0.308778,100.00,1
21489,1,19539,0,50754,54154,50713.04,54506.05,40.96,-352.05,0.308615,100.00,1
21529,1,19579,0,50766,54199,50713.14,54505.43,52.86,-306.43,0.308450,100.00,1
21569,1,19619,0,50786,54248,50713.29,54504.92,72.71,-256.92,0.308287,100.00,1
21609,1,19659,0,50804,54287,50713.48,54504.49,90.52,-217.49,0.308128,100.00,1
21649,1,19699,0,50826,54328,50713.70,54504.14,112.30,-176.14,0.307974,100.00,1
21689,1,19739,0,50837,54358,50713.95,54503.85,123.05,-145.85,0.307828,100.00,1
21729,1,19779,0,50848,54380,50714.22,54503.60,133.78,-123.60,0.307690,100.00,1
21769,1,19819,0,50857,54384,50714.50,54503.36,142.50,-119.36,0.307563,100.00,1
21809,1,19859,0,50830,54222,50714.73,54502.80,115.27,-280.80,0.307440,100.00,1
21849,1,19899,0,50741,54070,50714.79,54501.94,26.21,-431.94,0.307313,100.00,1
21889,1,19939,0,50704,54036,50714.77,54501.01,-10.77,-465.01,0.307179,100.00,1
21929,1,19979,0,50707,54065,50714.75,54500.14,-7.75,-435.14,0.307040,100.00,1
21970,1,20020,0,50719,54085,50714.77,54499.31,4.23,-414.31,0.306896,100.00,1
22010,1,20060,0,50728,54104,50714.79,54498.52,13.21,-394.52,0.306749,100.00,1
22050,1,20100,0,50738,54139,50714.84,54497.80,23.16,-358.80,0.306598,100.00,1
22090,1,20140,0,50752,54161,50714.91,54497.13,37.09,-336.13,0.306445,100.00,1
22130,1,20180,0,50749,54185,50714.98,54496.51,34.02,-311.51,0.306291,100.00,1
22170,1,20220,0,50768,54213,50715.09,54495.94,52.91,-282.94,0.306136,100.00,1
22210,1,20260,0,50783,54251,50715.23,54495.45,67.77,-244.45,0.305982,100.00,1
22250,1,20300,0,50807,54304,50715.41,54495.07,91.59,-191.07,0.305831,100.00,1
22290,1,20340,0,50824,54347,50715.63,54494.78,108.37,-147.78,0.305687,100.00,1
22330,1,20380,0,50840,54395,50715.88,54494.58,124.12,-99.58,0.305551,100.00,1
22370,1,20420,0,50865,54429,50716.18,54494.45,148.82,-65.45,0.305427,100.00,1
22410,1,20460,0,50877,54460,50716.50,54494.38,160.50,-34.38,0.305316,100.00,1
22450,1,20500,0,50893,54478,50716.86,54494.35,176.14,-16.35,0.305222,100.00,1
22490,1,20540,0,50887,54370,50717.20,54494.11,169.80,-124.11,0.305142,100.00,1
22530,1,20580,0,50802,54179,50717.37,54493.48,84.63,-314.48,0.305062,100.00,1
22570,1,20620,0,50741,54121,50717.42,54492.73,23.58,-371.73,0.304978,100.00,1
22610,1,20660,0,50739,54138,50717.46,54492.03,21.54,-354.03,0.304891,100.00,1
22650,1,20700,0,50753,54156,50717.54,54491.36,35.46,-335.36,0.304801,100.00,1
22690,1,20740,0,50760,54176,50717.62,54490.73,42.38,-314.73,0.304708,100.00,1
22730,1,20780,0,50776,54211,50717.74,54490.17,58.26,-279.17,0.304615,100.00,1
22770,1,20820,0,50783,54232,50717.87,54489.65,65.13,-257.65,0.304522,100.00,1
22810,1,20860,0,50790,54249,50718.02,54489.17,71.98,-240.17,0.304430,100.00,1
22850,1,20900,0,50794,54273,50718.17,54488.74,75.83,-215.74,0.304340,100.00,1
22890,1,20940,0,50807,54301,50718.35,54488.37,88.65,-187.37,0.304253,100.00,1
22931,1,20981,0,50817,54341,50718.55,54488.07,98.45,-147.07,0.304171,100.00,1
22971,1,21021,0,50833,54375,50718.78,54487.85,114.22,-112.85,0.304095,100.00,1
23011,1,21061,0,50849,54410,50719.04,54487.70,129.96,-77.70,0.304029,100.00,1
23051,1,21101,0,50863,54436,50719.33,54487.59,143.67,-51.59,0.303973,100.00,1
23091,1,21141,0,50868,54463,50719.62,54487.55,148.37,-24.55,0.303929,100.00,1
23131,1,21181,0,50880,54490,50719.95,54487.55,160.05,2.45,0.303899,100.00,1
23171,1,21221,0,50882,54424,50720.27,54487.43,161.73,-63.43,0.303882,100.00,1
23211,1,21261,0,50810,54228,50720.45,54486.91,89.55,-258.91,0.303867,100.00,1
23251,1,21301,0,50745,54159,50720.50,54486.26,24.50,-327.26,0.303847,100.00,1
23291,1,21341,0,50739,54177,50720.54,54485.64,18.46,-308.64,0.303824,100.00,1
23331,1,21381,0,50755,54216,50720.61,54485.10,34.39,-269.10,0.303799,100.00,1
23371,1,21421,0,50772,54244,50720.71,54484.62,51.29,-240.62,0.303773,100.00,1
23411,1,21461,0,50786,54264,50720.85,54484.18,65.15,-220.18,0.303748,100.00,1
23451,1,21501,0,50799,54298,50721.00,54483.81,78.00,-185.81,0.303724,100.00,1
23491,1,21541,0,50811,54312,50721.18,54483.46,89.82,-171.46,0.303704,100.00,1
23531,1,21581,0,50818,54351,50721.38,54483.20,96.62,-132.20,0.303688,100.00,1
23571,1,21621,0,50829,54384,50721.59,54483.01,107.41,-99.01,0.303678,100.00,1
23611,1,21661,0,50840,54421,50721.83,54482.89,118.17,-61.89,0.303675,100.00,1
23651,1,21701,0,50860,54463,50722.11,54482.85,137.89,-19.85,0.303683,100.00,1
23691,1,21741,0,50877,54488,50722.42,54482.86,154.58,5.14,0.303703,100.00,1
23731,1,21781,0,50891,54518,50722.76,54482.93,168.24,35.07,0.303739,100.00,1
23771,1,21821,0,50899,54536,50723.12,54483.04,175.88,52.96,0.303791,100.00,1
23811,1,21861,0,50903,54549,50723.48,54483.17,179.52,65.83,0.303860,100.00,1
23851,1,21901,0,50895,54493,50723.82,54483.19,171.18,9.81,0.303945,100.00,1
23891,1,21941,0,50827,54282,50724.03,54482.79,102.97,-200.79,0.304032,100.00,1
23932,1,21982,0,50743,54170,50724.07,54482.16,18.93,-312.16,0.304115,100.00,1
23972,1,22022,0,50723,54175,50724.07,54481.55,-1.07,-306.55,0.304192,100.00,1
24012,1,22062,0,50734,54204,50724.09,54481.00,9.91,-277.00,0.304266,100.00,1
24052,1,22102,0,50742,54214,50724.12,54480.46,17.87,-266.46,0.304336,100.00,1
24092,1,22142,0,50746,54239,50724.17,54479.98,21.83,-240.98,0.304403,100.00,1
24132,1,22182,0,50755,54252,50724.23,54479.53,30.77,-227.53,0.304467,100.00,1
24172,1,22222,0,50761,54261,50724.31,54479.09,36.69,-218.09,0.304530,100.00,1
24212,1,22262,0,50765,54281,50724.39,54478.70,40.61,-197.70,0.304591,100.00,1
24252,1,22302,0,50775,54311,50724.49,54478.36,50.51,-167.36,0.304653,100.00,1
24292,1,22342,0,50784,54338,50724.61,54478.08,59.39,-140.08,0.304715,100.00,1
24332,1,22382,0,50803,54372,50724.77,54477.87,78.23,-105.87,0.304780,100.00,1
24372,1,22422,0,50815,54398,50724.95,54477.71,90.05,-79.71,0.304848,100.00,1
24412,1,22462,0,50824,54415,50725.15,54477.59,98.85,-62.59,0.304922,100.00,1
24452,1,22502,0,50833,54435,50725.37,54477.50,107.63,-42.50,0.305003,100.00,1
24492,1,22542,0,50840,54428,50725.60,54477.41,114.40,-49.41,0.305090,100.00,1
24532,1,22582,0,50802,54266,50725.75,54476.98,76.25,-210.98,0.305178,100.00,1
24572,1,22622,0,50717,54118,50725.74,54476.27,-8.74,-358.27,0.305259,100.00,1
24612,1,22662,0,50677,54081,50725.64,54475.48,-48.64,-394.48,0.305332,100.00,1
24652,1,22702,0,50681,54103,50725.55,54474.74,-44.55,-371.74,0.305399,100.00,1
24692,1,22742,0,50696,54122,50725.49,54474.04,-29.49,-352.04,0.305459,100.00,1
24732,1,22782,0,50705,54139,50725.45,54473.37,-20.45,-334.37,0.305513,100.00,1
24772,1,22822,0,50713,54167,50725.43,54472.76,-12.43,-305.76,0.305563,100.00,1
24812,1,22862,0,50717,54176,50725.41,54472.16,-8.41,-296.16,0.305607,100.00,1
24852,1,22902,0,50721,54187,50725.41,54471.59,-4.41,-284.59,0.305648,100.00,1
24892,1,22942,0,50727,54209,50725.41,54471.07,1.59,-262.07,0.305684,100.00,1
24933,1,22983,0,50738,54249,50725.44,54470.63,12.56,-221.63,0.305718,100.00,1
24973,1,23023,0,50757,54285,50725.50,54470.26,31.50,-185.26,0.305751,100.00,1
25013,1,23063,0,50768,54322,50725.59,54469.96,42.41,-147.96,0.305783,100.00,1
25053,1,23103,0,50781,54362,50725.70,54469.75,55.30,-107.75,0.305817,100.00,1
25093,1,23143,0,50795,54389,50725.84,54469.59,69.16,-80.59,0.305853,100.00,1
25133,1,23183,0,50804,54407,50726.00,54469.46,78.00,-62.46,0.305892,100.00,1
25173,1,23223,0,50793,54286,50726.13,54469.09,66.87,-183.09,0.305933,100.00,1
25213,1,23263,0,50717,54144,50726.12,54468.45,-9.12,-324.45,0.305967,100.00,1
25253,1,23303,0,50674,54108,50726.02,54467.73,-52.02,-359.73,0.305996,100.00,1
25293,1,23343,0,50674,54130,50725.91,54467.05,-51.91,-337.05,0.306020,100.00,1
25333,1,23383,0,50694,54152,50725.85,54466.42,-31.85,-314.42,0.306040,100.00,1
25373,1,23423,0,50705,54171,50725.81,54465.83,-20.81,-294.83,0.306055,100.00,1
25413,1,23463,0,50713,54195,50725.79,54465.29,-12.79,-270.29,0.306067,100.00,1
25453,1,23503,0,50730,54230,50725.80,54464.82,4.20,-234.82,0.306075,100.00,1
25493,1,23543,0,50733,54244,50725.81,54464.38,7.19,-220.38,0.306081,100.00,1
25533,1,23583,0,50744,54286,50725.85,54464.03,18.15,-178.03,0.306085,100.00,1
25573,1,23623,0,50759,54323,50725.92,54463.75,33.08,-140.75,0.306089,100.00,1
25613,1,23663,0,50774,54362,50726.02,54463.54,47.98,-101.54,0.306094,100.00,1
25653,1,23703,0,50795,54405,50726.16,54463.43,68.84,-58.43,0.306102,100.00,1
25693,1,23743,0,50809,54442,50726.32,54463.38,82.68,-21.38,0.306114,100.00,1
25733,1,23783,0,50822,54473,50726.52,54463.40,95.48,9.60,0.306133,100.00,1
25773,1,23823,0,50826,54507,50726.71,54463.49,99.29,43.51,0.306158,100.00,1
25813,1,23863,0,50829,54440,50726.92,54463.45,102.08,-23.45,0.306190,100.00,1
25853,1,23903,0,50757,54288,50726.98,54463.10,30.02,-175.10,0.306220,100.00,1
25894,1,23944,0,50705,54232,50726.94,54462.64,-21.94,-230.64,0.306248,100.00,1
25934,1,23984,0,50696,54242,50726.88,54462.20,-30.88,-220.20,0.306273,100.00,1
25974,1,24024,0,50704,54265,50726.84,54461.80,-22.84,-196.80,0.306296,100.00,1
26014,1,24064,0,50705,54276,50726.79,54461.43,-21.79,-185.43,0.306318,100.00,1
26054,1,24104,0,50710,54307,50726.76,54461.12,-16.76,-154.12,0.306338,100.00,1
26094,1,24144,0,50724,54349,50726.76,54460.90,-2.76,-111.90,0.306358,100.00,1
26134,1,24184,0,50736,54368,50726.78,54460.71,9.22,-92.71,0.306377,100.00,1
26174,1,24224,0,50748,54404,50726.82,54460.60,21.18,-56.60,0.306396,100.00,1
26214,1,24264,0,50760,54448,50726.89,54460.58,33.11,-12.58,0.306415,100.00,1
26254,1,24304,0,50776,54491,50726.98,54460.64,49.02,30.36,0.306437,100.00,1
26294,1,24344,0,50793,54531,50727.12,54460.78,65.88,70.22,0.306461,100.00,1
26334,1,24384,0,50808,54574,50727.28,54461.01,80.72,112.99,0.306489,100.00,1
26374,1,24424,0,50826,54613,50727.48,54461.31,98.52,151.69,0.306523,100.00,1
26414,1,24464,0,50840,54647,50727.71,54461.68,112.29,185.32,0.306564,100.00,1
26454,1,24504,0,50850,54667,50727.95,54462.09,122.05,204.91,0.306613,100.00,1
26494,1,24544,0,50833,54563,50728.16,54462.30,104.84,100.70,0.306669,100.00,1
26534,1,24584,0,50765,54464,50728.24,54462.30,36.76,1.70,0.306726,100.00,1
26574,1,24624,0,50738,54455,50728.26,54462.29,9.74,-7.29,0.306784,100.00,1
26614,1,24664,0,50742,54468,50728.29,54462.30,13.71,5.70,0.306841,100.00,1
26654,1,24704,0,50743,54478,50728.32,54462.33,14.68,15.67,0.306898,100.00,1
26694,1,24744,0,50746,54495,50728.35,54462.40,17.65,32.60,0.306955,100.00,1
26734,1,24784,0,50750,54520,50728.39,54462.52,21.61,57.48,0.307012,100.00,1
26774,1,24824,0,50758,54553,50728.45,54462.70,29.55,90.30,0.307069,100.00,1
26814,1,24864,0,50764,54565,50728.53,54462.91,35.47,102.09,0.307126,100.00,1
26854,1,24904,0,50771,54605,50728.61,54463.19,42.39,141.81,0.307183,100.00,1
26895,1,24945,0,50780,54634,50728.72,54463.54,51.28,170.46,0.307240,100.00,1
26935,1,24985,0,50796,54676,50728.86,54463.96,67.14,212.04,0.307296,100.00,1
26975,1,25025,0,50807,54713,50729.01,54464.46,77.99,248.54,0.307353,100.00,1
27015,1,25065,0,50819,54749,50729.19,54465.03,89.81,283.97,0.307411,100.00,1
27055,1,25105,0,50829,54789,50729.39,54465.68,99.61,323.32,0.307468,100.00,1
27095,1,25145,0,50842,54818,50729.62,54466.39,112.38,351.61,0.307526,100.00,1
27135,1,25185,0,50857,54858,50729.87,54467.17,127.12,390.83,0.307585,100.00,1
27175,1,25225,0,50864,54806,50730.14,54467.85,133.86,338.15,0.307650,100.00,1
27215,1,25265,0,50803,54701,50730.29,54468.32,72.71,232.68,0.307715,100.00,1
27255,1,25305,0,50766,54669,50730.37,54468.72,35.63,200.28,0.307778,100.00,1
27295,1,25345,0,50764,54679,50730.44,54469.14,33.56,209.86,0.307838,100.00,1
27335,1,25385,0,50772,54684,50730.52,54469.57,41.48,214.43,0.307897,100.00,1
27375,1,25425,0,50772,54686,50730.61,54470.01,41.39,215.99,0.307952,100.00,1
27415,1,25465,0,50773,54695,50730.70,54470.46,42.30,224.54,0.308006,100.00,1
27455,1,25505,0,50778,54710,50730.79,54470.94,47.21,239.06,0.308057,100.00,1
27495,1,25545,0,50777,54711,50730.89,54471.42,46.11,239.58,0.308105,100.00,1
27535,1,25585,0,50774,54727,50730.97,54471.93,43.03,255.07,0.308149,100.00,1
27575,1,25625,0,50784,54737,50731.08,54472.46,52.92,264.54,0.308191,100.00,1
27615,1,25665,0,50782,54758,50731.18,54473.04,50.82,284.96,0.308229,100.00,1
27655,1,25705,0,50788,54778,50731.29,54473.65,56.71,304.35,0.308263,100.00,1
27695,1,25745,0,50794,54798,50731.42,54474.30,62.58,323.70,0.308292,100.00,1
27735,1,25785,0,50800,54818,50731.55,54474.99,68.45,343.01,0.308316,100.00,1
27775,1,25825,0,50801,54832,50731.70,54475.70,69.30,356.30,0.308336,100.00,1
27815,1,25865,0,50805,54844,50731.84,54476.44,73.16,367.56,0.308350,100.00,1
27856,1,25906,0,50809,54851,50732.00,54477.19,77.00,373.81,0.308360,100.00,1
27896,1,25946,0,50778,54747,50732.09,54477.73,45.91,269.27,0.308367,100.00,1
27936,1,25986,0,50724,54673,50732.08,54478.12,-8.08,194.87,0.308371,100.00,1
27976,1,26026,0,50696,54662,50732.01,54478.50,-36.01,183.50,0.308373,100.00,1
28016,1,26066,0,50697,54672,50731.94,54478.88,-34.94,193.12,0.308375,100.00,1
28056,1,26106,0,50701,54683,50731.87,54479.29,-30.87,203.71,0.308374,100.00,1
28096,1,26146,0,50702,54687,50731.82,54479.71,-29.82,207.29,0.308371,100.00,1
28136,1,26186,0,50704,54708,50731.76,54480.17,-27.76,227.83,0.308365,100.00,1
28176,1,26226,0,50711,54717,50731.72,54480.64,-20.72,236.36,0.308356,100.00,1
28216,1,26266,0,50706,54732,50731.67,54481.15,-25.67,250.85,0.308343,100.00,1
28256,1,26306,0,50711,54750,50731.63,54481.69,-20.63,268.31,0.308325,100.00,1
28296,1,26346,0,50722,54775,50731.61,54482.28,-9.61,292.72,0.308303,100.00,1
28336,1,26386,0,50734,54792,50731.62,54482.90,2.38,309.10,0.308273,100.00,1
28376,1,26426,0,50739,54820,50731.64,54483.57,7.36,336.43,0.308237,100.00,1
28416,1,26466,0,50751,54839,50731.68,54484.29,19.32,354.71,0.308193,100.00,1
28456,1,26506,0,50758,54857,50731.73,54485.03,26.27,371.97,0.308141,100.00,1
28496,1,26546,0,50762,54881,50731.79,54485.82,30.21,395.18,0.308080,100.00,1
28536,1,26586,0,50767,54902,50731.86,54486.66,35.14,415.34,0.308010,100.00,1
28576,1,26626,0,50763,54851,50731.93,54487.39,31.07,363.61,0.307933,100.00,1
28616,1,26666,0,50722,54752,50731.91,54487.92,-9.91,264.08,0.307852,100.00,1
28656,1,26706,0,50683,54710,50731.81,54488.36,-48.81,221.64,0.307771,100.00,1
28696,1,26746,0,50673,54717,50731.69,54488.82,-58.69,228.18,0.307690,100.00,1
28736,1,26786,0,50673,54722,50731.57,54489.29,-58.57,232.71,0.307609,100.00,1
28776,1,26826,0,50675,54722,50731.46,54489.76,-56.46,232.24,0.307528,100.00,1
28816,1,26866,0,50674,54744,50731.35,54490.27,-57.35,253.73,0.307446,100.00,1
28857,1,26907,0,50681,54750,50731.25,54490.79,-50.25,259.21,0.307363,100.00,1
28897,1,26947,0,50681,54753,50731.15,54491.32,-50.15,261.68,0.307278,100.00,1
28937,1,26987,0,50681,54768,50731.05,54491.87,-50.05,276.13,0.307191,100.00,1
28977,1,27027,0,50677,54788,50730.95,54492.46,-53.95,295.54,0.307102,100.00,1
29017,1,27067,0,50685,54817,50730.86,54493.12,-45.86,323.88,0.307009,100.00,1
29057,1,27107,0,50696,54845,50730.79,54493.82,-34.79,351.18,0.306910,100.00,1
29097,1,27147,0,50707,54865,50730.74,54494.57,-23.74,370.43,0.306804,100.00,1
29137,1,27187,0,50713,54885,50730.71,54495.35,-17.71,389.65,0.306690,100.00,1
29177,1,27227,0,50723,54903,50730.69,54496.16,-7.69,406.84,0.306568,100.00,1
29217,1,27267,0,50723,54922,50730.68,54497.02,-7.68,424.98,0.306437,100.00,1
29257,1,27307,0,50733,54944,50730.68,54497.91,2.32,446.09,0.306295,100.00,1
29297,1,27347,0,50732,54918,50730.69,54498.75,1.31,419.25,0.306146,100.00,1
29337,1,27387,0,50690,54800,50730.61,54499.36,-40.61,300.64,0.305994,100.00,1
29377,1,27427,0,50650,54741,50730.45,54499.84,-80.45,241.16,0.305845,100.00,1
29417,1,27467,0,50639,54732,50730.27,54500.30,-91.27,231.70,0.305701,100.00,1
29457,1,27507,0,50642,54736,50730.09,54500.78,-88.09,235.22,0.305562,100.00,1
29497,1,27547,0,50644,54738,50729.92,54501.25,-85.92,236.75,0.305426,100.00,1
29537,1,27587,0,50644,54747,50729.75,54501.75,-85.75,245.25,0.305294,100.00,1
29577,1,27627,0,50646,54765,50729.58,54502.27,-83.58,262.73,0.305165,100.00,1
29617,1,27667,0,50650,54766,50729.43,54502.80,-79.43,263.20,0.305039,100.00,1
29657,1,27707,0,50654,54780,50729.28,54503.36,-75.28,276.64,0.304913,100.00,1
29697,1,27747,0,50659,54796,50729.14,54503.94,-70.14,292.06,0.304788,100.00,1
29737,1,27787,0,50665,54816,50729.01,54504.57,-64.01,311.43,0.304662,100.00,1
29777,1,27827,0,50670,54840,50728.89,54505.24,-58.89,334.76,0.304534,100.00,1
29817,1,27867,0,50679,54866,50728.79,54505.96,-49.79,360.04,0.304401,100.00,1
29857,1,27907,0,50688,54889,50728.71,54506.73,-40.71,382.27,0.304263,100.00,1
29898,1,27948,0,50697,54911,50728.65,54507.54,-31.65,403.46,0.304118,100.00,1
29938,1,27988,0,50700,54929,50728.59,54508.38,-28.59,420.62,0.303966,100.00,1
29978,1,28028,0,50704,54948,50728.55,54509.26,-24.55,438.74,0.303806,100.00,1
30018,1,28068,0,50714,54974,50728.52,54510.19,-14.52,463.81,0.303637,100.00,1
30058,1,28108,0,50714,54931,50728.49,54511.03,-14.49,419.97,0.303461,100.00,1
30098,1,28148,0,50667,54808,50728.37,54511.62,-61.37,296.37,0.303284,100.00,1
30138,1,28188,0,50616,54744,50728.15,54512.09,-112.15,231.91,0.303117,100.00,1
30178,1,28228,0,50616,54739,50727.93,54512.55,-111.93,226.45,0.302958,100.00,1
30218,1,28268,0,50613,54739,50727.70,54513.00,-114.70,226.00,0.302808,100.00,1
30258,1,28308,0,50613,54743,50727.47,54513.46,-114.47,229.54,0.302667,100.00,1
30298,1,28348,0,50623,54756,50727.26,54513.95,-104.26,242.05,0.302532,100.00,1
30338,1,28388,0,50630,54770,50727.07,54514.46,-97.07,255.54,0.302403,100.00,1
30378,1,28428,0,50638,54785,50726.89,54515.00,-88.89,270.00,0.302277,100.00,1
30418,1,28468,0,50647,54791,50726.73,54515.56,-79.73,275.44,0.302153,100.00,1
30458,1,28508,0,50658,54818,50726.60,54516.16,-68.60,301.84,0.302028,100.00,1
30498,1,28548,0,50668,54836,50726.48,54516.80,-58.48,319.20,0.301902,100.00,1
30538,1,28588,0,50676,54855,50726.38,54517.48,-50.38,337.52,0.301773,100.00,1
30578,1,28628,0,50686,54878,50726.30,54518.21,-40.30,359.79,0.301640,100.00,1
30618,1,28668,0,50693,54890,50726.23,54518.95,-33.23,371.05,0.301502,100.00,1
30658,1,28708,0,50694,54898,50726.17,54519.71,-32.17,378.29,0.301358,100.00,1
30698,1,28748,0,50701,54902,50726.12,54520.48,-25.12,381.52,0.301209,100.00,1
30738,1,28788,0,50701,54913,50726.07,54521.26,-25.07,391.74,0.301054,100.00,1
30778,1,28828,0,50705,54927,50726.03,54522.07,-21.03,404.93,0.300893,100.00,1
30818,1,28868,0,50706,54888,50725.99,54522.81,-19.99,365.19,0.300727,100.00,1
30858,1,28908,0,50656,54736,50725.85,54523.24,-69.85,212.76,0.300563,100.00,1
30899,1,28949,0,50599,54644,50725.60,54523.48,-126.60,120.52,0.300412,100.00,1
30939,1,28989,0,50579,54622,50725.30,54523.68,-146.30,98.32,0.300279,100.00,1
30979,1,29029,0,50585,54633,50725.02,54523.90,-140.02,109.10,0.300161,100.00,1
31019,1,29069,0,50589,54634,50724.75,54524.12,-135.75,109.88,0.300057,100.00,1
31059,1,29109,0,50589,54637,50724.48,54524.35,-135.48,112.65,0.299967,100.00,1
31099,1,29149,0,50596,54636,50724.23,54524.57,-128.23,111.43,0.299890,100.00,1
31139,1,29189,0,50599,54637,50723.98,54524.80,-124.98,112.20,0.299824,100.00,1
31179,1,29229,0,50601,54638,50723.73,54525.03,-122.73,112.97,0.299770,100.00,1
31219,1,29269,0,50611,54652,50723.51,54525.28,-112.51,126.72,0.299724,100.00,1
31259,1,29309,0,50612,54674,50723.29,54525.58,-111.29,148.42,0.299687,100.00,1
31299,1,29349,0,50627,54694,50723.10,54525.92,-96.10,168.08,0.299655,100.00,1
31339,1,29389,0,50641,54714,50722.93,54526.30,-81.93,187.70,0.299627,100.00,1
31379,1,29429,0,50649,54728,50722.79,54526.71,-73.79,201.29,0.299601,100.00,1
31419,1,29469,0,50667,54742,50722.68,54527.14,-55.68,214.86,0.299574,100.00,1
31459,1,29509,0,50671,54749,50722.57,54527.59,-51.57,221.41,0.299547,100.00,1
31499,1,29549,0,50675,54767,50722.48,54528.07,-47.48,238.93,0.299519,100.00,1
31539,1,29589,0,50679,54738,50722.39,54528.49,-43.39,209.51,0.299489,100.00,1
31579,1,29629,0,50642,54600,50722.23,54528.63,-80.23,71.37,0.299465,100.00,1
31619,1,29669,0,50586,54506,50721.96,54528.59,-135.96,-22.59,0.299455,100.00,1
31659,1,29709,0,50566,54486,50721.65,54528.51,-155.65,-42.51,0.299463,100.00,1
31699,1,29749,0,50574,54497,50721.36,54528.45,-147.36,-31.45,0.299488,100.00,1
31739,1,29789,0,50590,54505,50721.10,54528.40,-131.10,-23.40,0.299526,100.00,1
31779,1,29829,0,50594,54522,50720.84,54528.39,-126.84,-6.39,0.299576,100.00,1
31819,1,29869,0,50604,54535,50720.61,54528.40,-116.61,6.60,0.299637,100.00,1
31859,1,29909,0,50610,54538,50720.39,54528.42,-110.39,9.58,0.299706,100.00,1
31899,1,29949,0,50618,54545,50720.19,54528.46,-102.19,16.54,0.299783,100.00,1
31940,1,29990,0,50624,54553,50720.00,54528.51,-96.00,24.49,0.299867,100.00,1
31980,1,30030,0,50629,54579,50719.82,54528.61,-90.82,50.39,0.299956,100.00,1
32020,1,30070,0,50647,54612,50719.68,54528.78,-72.68,83.22,0.300049,100.00,1
32060,1,30110,0,50657,54637,50719.55,54529.00,-62.55,108.00,0.300144,100.00,1
32100,1,30150,0,50675,54667,50719.46,54529.27,-44.46,137.73,0.300239,100.00,1
32140,1,30190,0,50683,54688,50719.39,54529.59,-36.39,158.41,0.300332,100.00,1
32180,1,30230,0,50702,54715,50719.36,54529.96,-17.36,185.04,0.300423,100.00,1
32220,1,30270,0,50712,54743,50719.35,54530.39,-7.35,212.61,0.300511,100.00,1
32260,1,30310,0,50717,54671,50719.34,54530.67,-2.34,140.33,0.300596,100.00,1
32300,1,30350,0,50657,54517,50719.22,54530.64,-62.22,-13.64,0.300685,100.00,1
32340,1,30390,0,50611,54436,50719.00,54530.46,-108.00,-94.46,0.300782,100.00,1
32380,1,30430,0,50605,54441,50718.78,54530.28,-113.78,-89.28,0.300888,100.00,1
32420,1,30470,0,50623,54453,50718.59,54530.13,-95.59,-77.13,0.301001,100.00,1
32460,1,30510,0,50634,54463,50718.42,54530.00,-84.42,-67.00,0.301119,100.00,1
32500,1,30550,0,50647,54480,50718.28,54529.90,-71.28,-49.90,0.301241,100.00,1
32540,1,30590,0,50658,54500,50718.16,54529.84,-60.16,-29.84,0.301365,100.00,1
32580,1,30630,0,50663,54505,50718.05,54529.79,-55.05,-24.79,0.301491,100.00,1
32620,1,30670,0,50672,54524,50717.96,54529.78,-45.96,-5.78,0.301619,100.00,1
32660,1,30710,0,50684,54541,50717.89,54529.80,-33.89,11.20,0.301747,100.00,1
32700,1,30750,0,50700,54578,50717.86,54529.90,-17.86,48.10,0.301875,100.00,1
32740,1,30790,0,50716,54610,50717.85,54530.06,-1.85,79.94,0.302002,100.00,1
32780,1,30830,0,50731,54642,50717.88,54530.29,13.12,111.71,0.302128,100.00,1
32820,1,30870,0,50743,54669,50717.93,54530.57,25.07,138.43,0.302252,100.00,1
32861,1,30911,0,50758,54700,50718.01,54530.91,39.99,169.09,0.302374,100.00,1
32901,1,30951,0,50776,54729,50718.13,54531.30,57.87,197.70,0.302496,100.00,1
32941,1,30991,0,50793,54746,50718.28,54531.73,74.72,214.27,0.302618,100.00,1
32981,1,31031,0,50776,54617,50718.40,54531.91,57.60,85.09,0.302742,100.00,1
33021,1,31071,0,50698,54462,50718.36,54531.77,-20.36,-69.77,0.302866,100.00,1
33061,1,31111,0,50662,54410,50718.25,54531.53,-56.25,-121.53,0.302990,100.00,1
33101,1,31151,0,50666,54417,50718.14,54531.30,-52.14,-114.30,0.303116,100.00,1
33141,1,31191,0,50683,54442,50718.07,54531.12,-35.07,-89.12,0.303242,100.00,1
33181,1,31231,0,50695,54464,50718.03,54530.99,-23.03,-66.99,0.303367,100.00,1
33221,1,31271,0,50713,54500,50718.02,54530.93,-5.02,-30.93,0.303492,100.00,1
33261,1,31311,0,50728,54520,50718.04,54530.91,9.96,-10.91,0.303616,100.00,1
33301,1,31351,0,50742,54544,50718.09,54530.94,23.91,13.06,0.303741,100.00,1
33341,1,31391,0,50758,54556,50718.18,54530.99,39.82,25.01,0.303867,100.00,1
33381,1,31431,0,50771,54580,50718.28,54531.09,52.72,48.91,0.303994,100.00,1
33421,1,31471,0,50785,54614,50718.41,54531.25,66.59,82.75,0.304125,100.00,1
33461,1,31511,0,50800,54648,50718.58,54531.49,81.42,116.51,0.304261,100.00,1
33501,1,31551,0,50816,54679,50718.77,54531.79,97.23,147.21,0.304403,100.00,1
33541,1,31591,0,50834,54708,50719.00,54532.14,115.00,175.86,0.304555,100.00,1
33581,1,31631,0,50847,54724,50719.26,54532.53,127.74,191.47,0.304718,100.00,1
33621,1,31671,0,50854,54743,50719.53,54532.95,134.47,210.05,0.304892,100.00,1
33661,1,31711,0,50863,54722,50719.82,54533.33,143.18,188.67,0.305082,100.00,1
33701,1,31751,0,50811,54536,50720.00,54533.34,91.00,2.66,0.305279,100.00,1
33741,1,31791,0,50733,54392,50720.03,54533.05,12.97,-141.05,0.305474,100.00,1
33781,1,31831,0,50700,54370,50719.99,54532.73,-19.99,-162.73,0.305665,100.00,1
33822,1,31872,0,50706,54379,50719.96,54532.43,-13.96,-153.43,0.305853,100.00,1
33862,1,31912,0,50716,54388,50719.96,54532.14,-3.96,-144.14,0.306038,100.00,1
33902,1,31952,0,50716,54404,50719.95,54531.88,-3.95,-127.88,0.306221,100.00,1
33942,1,31992,0,50723,54432,50719.96,54531.68,3.04,-99.68,0.306402,100.00,1
33982,1,32032,0,50734,54439,50719.99,54531.50,14.01,-92.50,0.306582,100.00,1
34022,1,32072,0,50738,54451,50720.03,54531.34,17.97,-80.34,0.306761,100.00,1
34062,1,32112,0,50752,54472,50720.09,54531.22,31.91,-59.22,0.306940,100.00,1
34102,1,32152,0,50767,54514,50720.19,54531.19,46.81,-17.19,0.307120,100.00,1
34142,1,32192,0,50783,54552,50720.31,54531.23,62.69,20.77,0.307304,100.00,1
34182,1,32232,0,50802,54591,50720.48,54531.36,81.52,59.64,0.307494,100.00,1
34222,1,32272,0,50821,54624,50720.68,54531.54,100.32,92.46,0.307693,100.00,1
34262,1,32312,0,50832,54654,50720.90,54531.79,111.10,122.21,0.307902,100.00,1
34302,1,32352,0,50850,54684,50721.16,54532.09,128.84,151.91,0.308124,100.00,1
34342,1,32392,0,50863,54707,50721.45,54532.45,141.55,174.55,0.308362,100.00,1
34382,1,32432,0,50860,54608,50721.72,54532.60,138.28,75.40,0.308618,100.00,1
34422,1,32472,0,50780,54426,50721.84,54532.39,58.16,-106.39,0.308875,100.00,1
34462,1,32512,0,50721,54360,50721.84,54532.04,-0.84,-172.04,0.309128,100.00,1
34502,1,32552,0,50718,54361,50721.83,54531.70,-3.83,-170.70,0.309375,100.00,1
34542,1,32592,0,50724,54374,50721.84,54531.39,2.16,-157.39,0.309619,100.00,1
34582,1,32632,0,50724,54372,50721.84,54531.07,2.16,-159.07,0.309858,100.00,1
34622,1,32672,0,50730,54386,50721.86,54530.79,8.14,-144.79,0.310093,100.00,1
34662,1,32712,0,50732,54401,50721.88,54530.53,10.12,-129.53,0.310326,100.00,1
34702,1,32752,0,50732,54406,50721.91,54530.28,10.09,-124.28,0.310556,100.00,1
34742,1,32792,0,50741,54416,50721.95,54530.05,19.05,-114.05,0.310784,100.00,1
34783,1,32833,0,50741,54429,50721.98,54529.86,19.02,-100.86,0.311011,100.00,1
34823,1,32873,0,50753,54457,50722.05,54529.71,30.95,-72.71,0.311237,100.00,1
34863,1,32913,0,50764,54485,50722.13,54529.62,41.87,-44.62,0.311463,100.00,1
34903,1,32953,0,50773,54509,50722.23,54529.58,50.77,-20.58,0.311692,100.00,1
34943,1,32993,0,50779,54530,50722.35,54529.59,56.65,0.41,0.311924,100.00,1
34983,1,33033,0,50788,54549,50722.48,54529.62,65.52,19.37,0.312160,100.00,1
35023,1,33073,0,50794,54563,50722.62,54529.69,71.37,33.31,0.312401,100.00,1
35063,1,33113,0,50799,54503,50722.78,54529.64,76.22,-26.64,0.312647,100.00,1
35103,1,33153,0,50729,54330,50722.79,54529.24,6.21,-199.24,0.312887,100.00,1
35143,1,33193,0,50668,54249,50722.68,54528.68,-54.68,-279.68,0.313118,100.00,1
35183,1,33233,0,50657,54254,50722.55,54528.14,-65.55,-274.14,0.313341,100.00,1
35223,1,33273,0,50667,54277,50722.45,54527.64,-55.45,-250.64,0.313559,100.00,1
35263,1,33313,0,50679,54286,50722.36,54527.16,-43.36,-241.16,0.313769,100.00,1
35303,1,33353,0,50688,54310,50722.29,54526.72,-34.29,-216.72,0.313973,100.00,1
35343,1,33393,0,50703,54320,50722.25,54526.31,-19.25,-206.31,0.314171,100.00,1
35383,1,33433,0,50705,54322,50722.22,54525.91,-17.22,-203.91,0.314363,100.00,1
35423,1,33473,0,50711,54332,50722.20,54525.52,-11.20,-193.52,0.314549,100.00,1
35463,1,33513,0,50711,54354,50722.18,54525.18,-11.18,-171.18,0.314731,100.00,1
35503,1,33553,0,50730,54384,50722.20,54524.90,7.80,-140.90,0.314909,100.00,1
35543,1,33593,0,50738,54407,50722.23,54524.66,15.77,-117.66,0.315085,100.00,1
35583,1,33633,0,50749,54437,50722.29,54524.49,26.71,-87.49,0.315260,100.00,1
35623,1,33673,0,50761,54450,50722.36,54524.34,38.64,-74.34,0.315436,100.00,1
35663,1,33713,0,50766,54469,50722.45,54524.23,43.55,-55.23,0.315613,100.00,1
35703,1,33753,0,50766,54478,50722.54,54524.14,43.46,-46.14,0.315791,100.00,1
35743,1,33793,0,50748,54353,50722.59,54523.80,25.41,-170.80,0.315966,100.00,1
35783,1,33833,0,50671,54203,50722.49,54523.16,-51.49,-320.16,0.316128,100.00,1
35824,1,33874,0,50635,54175,50722.32,54522.46,-87.32,-347.46,0.316282,100.00,1
35864,1,33914,0,50636,54190,50722.15,54521.80,-86.15,-331.80,0.316428,100.00,1
35904,1,33954,0,50642,54201,50721.99,54521.16,-79.99,-320.16,0.316569,100.00,1
35944,1,33994,0,50647,54218,50721.84,54520.55,-74.84,-302.55,0.316703,100.00,1
35984,1,34034,0,50655,54252,50721.71,54520.02,-66.71,-268.02,0.316832,100.00,1
36024,1,34074,0,50672,54274,50721.61,54519.53,-49.61,-245.53,0.316956,100.00,1
36064,1,34114,0,50687,54297,50721.54,54519.08,-34.54,-222.08,0.317075,100.00,1
36104,1,34154,0,50698,54328,50721.50,54518.70,-23.50,-190.70,0.317189,100.00,1
36144,1,34194,0,50711,54362,50721.48,54518.39,-10.48,-156.39,0.317300,100.00,1
36184,1,34234,0,50728,54399,50721.49,54518.15,6.51,-119.15,0.317409,100.00,1
36224,1,34274,0,50750,54441,50721.55,54518.00,28.45,-77.00,0.317518,100.00,1
36264,1,34314,0,50762,54467,50721.63,54517.90,40.37,-50.90,0.317628,100.00,1
36304,1,34354,0,50784,54495,50721.76,54517.86,62.24,-22.86,0.317743,100.00,1
36344,1,34394,0,50792,54520,50721.90,54517.86,70.10,2.14,0.317863,100.00,1
36384,1,34434,0,50799,54470,50722.05,54517.77,76.95,-47.77,0.317989,100.00,1
36424,1,34474,0,50733,54292,50722.08,54517.32,10.92,-225.32,0.318109,100.00,1
36464,1,34514,0,50661,54206,50721.96,54516.70,-60.96,-310.70,0.318220,100.00,1
36504,1,34554,0,50652,54192,50721.82,54516.05,-69.82,-324.05,0.318322,100.00,1
36544,1,34594,0,50661,54206,50721.70,54515.43,-60.70,-309.43,0.318416,100.00,1
36584,1,34634,0,50669,54219,50721.59,54514.84,-52.59,-295.84,0.318502,100.00,1
36624,1,34674,0,50675,54247,50721.50,54514.30,-46.50,-267.30,0.318582,100.00,1
36664,1,34714,0,50689,54290,50721.44,54513.86,-32.44,-223.86,0.318657,100.00,1
36704,1,34754,0,50708,54316,50721.41,54513.46,-13.41,-197.46,0.318726,100.00,1
36744,1,34794,0,50719,54348,50721.41,54513.14,-2.41,-165.14,0.318793,100.00,1
36785,1,34835,0,50731,54383,50721.43,54512.88,9.57,-129.88,0.318857,100.00,1
36825,1,34875,0,50750,54419,50721.48,54512.69,28.52,-93.69,0.318920,100.00,1
36865,1,34915,0,50764,54456,50721.57,54512.58,42.43,-56.58,0.318986,100.00,1
36905,1,34955,0,50780,54500,50721.69,54512.55,58.31,-12.55,0.319055,100.00,1
36945,1,34995,0,50795,54536,50721.84,54512.60,73.16,23.40,0.319131,100.00,1
36985,1,35035,0,50810,54573,50722.01,54512.72,87.99,60.28,0.319216,100.00,1
37025,1,35075,0,50827,54591,50722.22,54512.88,104.78,78.12,0.319313,100.00,1
37065,1,35115,0,50806,54466,50722.39,54512.79,83.61,-46.79,0.319419,100.00,1
37105,1,35155,0,50737,54353,50722.42,54512.47,14.58,-159.47,0.319521,100.00,1
37145,1,35195,0,50710,54346,50722.40,54512.14,-12.40,-166.14,0.319620,100.00,1
37185,1,35235,0,50720,54365,50722.39,54511.84,-2.39,-146.84,0.319715,100.00,1
37225,1,35275,0,50732,54379,50722.41,54511.58,9.59,-132.58,0.319807,100.00,1
37265,1,35315,0,50741,54398,50722.45,54511.35,18.55,-113.35,0.319898,100.00,1
37305,1,35355,0,50759,54450,50722.53,54511.23,36.47,-61.23,0.319990,100.00,1
37345,1,35395,0,50784,54487,50722.65,54511.18,61.35,-24.18,0.320086,100.00,1
37385,1,35435,0,50792,54523,50722.79,54511.21,69.21,11.79,0.320189,100.00,1
37425,1,35475,0,50809,54562,50722.96,54511.31,86.04,50.69,0.320300,100.00,1
37465,1,35515,0,50828,54614,50723.18,54511.52,104.82,102.48,0.320424,100.00,1
37505,1,35555,0,50846,54663,50723.42,54511.82,122.58,151.18,0.320564,100.00,1
37545,1,35595,0,50868,54702,50723.71,54512.20,144.29,189.80,0.320725,100.00,1
37585,1,35635,0,50885,54752,50724.04,54512.68,160.96,239.32,0.320909,100.00,1
37625,1,35675,0,50899,54789,50724.39,54513.24,174.61,275.76,0.321117,100.00,1
37665,1,35715,0,50912,54835,50724.76,54513.88,187.24,321.12,0.321350,100.00,1
37705,1,35755,0,50928,54832,50725.17,54514.52,202.83,317.48,0.321613,100.00,1
37746,1,35796,0,50889,54707,50725.50,54514.91,163.50,192.09,0.321898,100.00,1
37786,1,35836,0,50829,54628,50725.70,54515.13,103.30,112.87,0.322192,100.00,1
37826,1,35876,0,50811,54626,50725.87,54515.36,85.12,110.64,0.322491,100.00,1
37866,1,35916,0,50817,54643,50726.06,54515.61,90.94,127.39,0.322795,100.00,1
37906,1,35956,0,50816,54654,50726.24,54515.89,89.76,138.11,0.323104,100.00,1
37946,1,35996,0,50827,54689,50726.44,54516.24,100.56,172.76,0.323418,100.00,1
37986,1,36036,0,50836,54714,50726.66,54516.64,109.34,197.36,0.323737,100.00,1
38026,1,36076,0,50853,54736,50726.91,54517.08,126.09,218.92,0.324064,100.00,1
38066,1,36116,0,50855,54760,50727.17,54517.57,127.83,242.43,0.324397,100.00,1
38106,1,36156,0,50866,54794,50727.45,54518.12,138.55,275.88,0.324737,100.00,1
38146,1,36196,0,50873,54823,50727.74,54518.73,145.26,304.27,0.325081,100.00,1
38186,1,36236,0,50885,54857,50728.06,54519.41,156.94,337.59,0.325430,100.00,1
38226,1,36276,0,50899,54879,50728.40,54520.13,170.60,358.87,0.325784,100.00,1
38266,1,36316,0,50912,54905,50728.77,54520.90,183.23,384.10,0.326146,100.00,1
38306,1,36356,0,50918,54929,50729.15,54521.71,188.85,407.29,0.326513,100.00,1
38346,1,36396,0,50927,54952,50729.55,54522.58,197.45,429.42,0.326885,100.00,1
38386,1,36436,0,50929,54934,50729.95,54523.40,199.05,410.60,0.327264,100.00,1
38426,1,36476,0,50890,54819,50730.27,54524.00,159.73,295.00,0.327651,100.00,1
38466,1,36516,0,50842,54775,50730.49,54524.50,111.51,250.50,0.328037,100.00,1
38506,1,36556,0,50829,54774,50730.69,54525.00,98.31,249.00,0.328421,100.00,1
38546,1,36596,0,50839,54793,50730.91,54525.54,108.09,267.46,0.328803,100.00,1
38586,1,36636,0,50840,54798,50731.13,54526.09,108.87,271.91,0.329183,100.00,1
38626,1,36676,0,50838,54821,50731.34,54526.68,106.66,294.32,0.329558,100.00,1
38666,1,36716,0,50844,54843,50731.57,54527.31,112.43,315.69,0.329927,100.00,1
38706,1,36756,0,50847,54844,50731.80,54527.95,115.20,316.05,0.330292,100.00,1
38747,1,36797,0,50845,54865,50732.03,54528.62,112.97,336.38,0.330651,100.00,1
38787,1,36837,0,50855,54884,50732.27,54529.33,122.73,354.67,0.331003,100.00,1
38827,1,36877,0,50858,54917,50732.53,54530.11,125.47,386.89,0.331345,100.00,1
38867,1,36917,0,50869,54944,50732.80,54530.94,136.20,413.06,0.331679,100.00,1
38907,1,36957,0,50876,54981,50733.09,54531.84,142.91,449.16,0.332002,100.00,1
38947,1,36997,0,50886,54998,50733.40,54532.77,152.60,465.23,0.332314,100.00,1
38987,1,37037,0,50892,55030,50733.72,54533.77,158.28,496.23,0.332614,100.00,1
39027,1,37077,0,50902,55050,50734.05,54534.80,167.95,515.20,0.332904,100.00,1
39067,1,37117,0,50904,55020,50734.39,54535.78,169.61,484.22,0.333187,100.00,1
39107,1,37157,0,50858,54926,50734.64,54536.56,123.36,389.44,0.333463,100.00,1
39147,1,37197,0,50825,54903,50734.83,54537.29,90.17,365.71,0.333730,100.00,1
39187,1,37237,0,50826,54918,50735.01,54538.05,90.99,379.95,0.333987,100.00,1
39227,1,37277,0,50831,54930,50735.20,54538.84,95.80,391.16,0.334234,100.00,1
39267,1,37317,0,50834,54938,50735.40,54539.64,98.60,398.36,0.334472,100.00,1
39307,1,37357,0,50840,54958,50735.61,54540.48,104.39,417.52,0.334699,100.00,1
39347,1,37397,0,50843,54973,50735.83,54541.35,107.17,431.65,0.334915,100.00,1
39387,1,37437,0,50850,54994,50736.06,54542.25,113.94,451.75,0.335121,100.00,1
39427,1,37477,0,50854,55006,50736.30,54543.18,117.70,462.82,0.335316,100.00,1
39467,1,37517,0,50861,55046,50736.55,54544.19,124.45,501.81,0.335499,100.00,1
39507,1,37557,0,50871,55064,50736.82,54545.23,134.18,518.77,0.335670,100.00,1
39547,1,37597,0,50881,55087,50737.11,54546.32,143.89,540.68,0.335831,100.00,1
39587,1,37637,0,50884,55117,50737.40,54547.46,146.60,569.54,0.335978,100.00,1
39627,1,37677,0,50891,55132,50737.71,54548.64,153.29,583.36,0.336114,100.00,1
39667,1,37717,0,50891,55150,50738.02,54549.84,152.98,600.16,0.336238,100.00,1
39707,1,37757,0,50902,55174,50738.35,54551.09,163.65,622.91,0.336350,100.00,1
39748,1,37798,0,50897,55133,50738.67,54552.25,158.33,580.75,0.336453,100.00,1
39788,1,37838,0,50854,55053,50738.90,54553.26,115.10,499.74,0.336548,100.00,1
39828,1,37878,0,50827,55031,50739.07,54554.21,87.93,476.79,0.336633,100.00,1
39868,1,37918,0,50822,55057,50739.24,54555.22,82.76,501.78,0.336706,100.00,1
39908,1,37958,0,50833,55078,50739.43,54556.27,93.57,521.73,0.336768,100.00,1
39948,1,37998,0,50842,55094,50739.64,54557.35,102.36,536.65,0.336820,100.00,1
39988,1,38038,0,50841,55108,50739.84,54558.45,101.16,549.55,0.336860,100.00,1
40028,1,38078,0,50852,55120,50740.07,54559.57,111.93,560.43,0.336889,100.00,1
40068,1,38118,0,50851,55137,50740.29,54560.73,110.71,576.27,0.336908,100.00,1
40108,1,38158,0,50856,55161,50740.52,54561.93,115.48,599.07,0.336916,100.00,1
40148,1,38198,0,50866,55190,50740.78,54563.19,125.22,626.81,0.336913,100.00,1
40188,1,38238,0,50875,55219,50741.05,54564.50,133.95,654.50,0.336899,100.00,1
40228,1,38278,0,50890,55245,50741.35,54565.87,148.65,679.13,0.336875,100.00,1
40268,1,38318,0,50901,55276,50741.67,54567.29,159.33,708.71,0.336842,100.00,1
40308,1,38358,0,50913,55299,50742.01,54568.75,170.99,730.25,0.336800,100.00,1
40348,1,38398,0,50916,55314,50742.36,54570.25,173.64,743.75,0.336750,100.00,1
40388,1,38438,0,50925,55341,50742.73,54571.79,182.27,769.21,0.336692,100.00,1
40428,1,38478,0,50926,55309,50743.09,54573.27,182.91,735.73,0.336629,100.00,1
40468,1,38518,0,50890,55229,50743.39,54574.58,146.61,654.42,0.336561,100.00,1
40508,1,38558,0,50853,55194,50743.61,54575.82,109.39,618.18,0.336484,100.00,1
40548,1,38598,0,50858,55222,50743.84,54577.11,114.16,644.89,0.336399,100.00,1
40588,1,38638,0,50862,55227,50744.08,54578.41,117.92,648.59,0.336307,100.00,1
40628,1,38678,0,50866,55251,50744.32,54579.76,121.68,671.24,0.336207,100.00,1
40668,1,38718,0,50873,55269,50744.58,54581.14,128.42,687.86,0.336099,100.00,1
40708,1,38758,0,50878,55290,50744.85,54582.56,133.15,707.44,0.335984,100.00,1
40749,1,38799,0,50886,55301,50745.14,54584.00,140.86,717.00,0.335862,100.00,1
40789,1,38839,0,50889,55318,50745.43,54585.46,143.57,732.54,0.335734,100.00,1
40829,1,38879,0,50896,55339,50745.73,54586.97,150.27,752.03,0.335599,100.00,1
40869,1,38919,0,50899,55360,50746.04,54588.52,152.96,771.48,0.335457,100.00,1
40909,1,38959,0,50905,55381,50746.36,54590.11,158.64,790.89,0.335309,100.00,1
40949,1,38999,0,50908,55398,50746.68,54591.72,161.32,806.28,0.335155,100.00,1
40989,1,39039,0,50919,55411,50747.03,54593.36,171.97,817.64,0.334996,100.00,1
41029,1,39079,0,50921,55425,50747.37,54595.03,173.62,829.97,0.334832,100.00,1
41069,1,39119,0,50925,55438,50747.73,54596.71,177.27,841.29,0.334663,100.00,1
41109,1,39159,0,50919,55419,50748.07,54598.36,170.93,820.64,0.334490,100.00,1
41149,1,39199,0,50893,55317,50748.37,54599.80,144.63,717.20,0.334313,100.00,1
41189,1,39239,0,50848,55262,50748.57,54601.12,99.43,660.88,0.334131,100.00,1
41229,1,39279,0,50841,55265,50748.75,54602.45,92.25,662.55,0.333944,100.00,1
41269,1,39319,0,50842,55275,50748.94,54603.80,93.06,671.20,0.333751,100.00,1
41309,1,39359,0,50848,55272,50749.14,54605.13,98.86,666.87,0.333554,100.00,1
41349,1,39399,0,50844,55280,50749.33,54606.48,94.67,673.52,0.333351,100.00,1
41389,1,39439,0,50851,55279,50749.54,54607.83,101.46,671.17,0.333143,100.00,1
41429,1,39479,0,50846,55278,50749.73,54609.17,96.27,668.83,0.332931,100.00,1
41469,1,39519,0,50842,55278,50749.92,54610.51,92.08,667.49,0.332715,100.00,1
41509,1,39559,0,50845,55283,50750.11,54611.86,94.89,671.14,0.332494,100.00,1
41549,1,39599,0,50850,55293,50750.31,54613.22,99.69,679.78,0.332268,100.00,1
41589,1,39639,0,50847,55303,50750.50,54614.61,96.50,688.39,0.332038,100.00,1
41629,1,39679,0,50855,55320,50750.71,54616.02,104.29,703.98,0.331804,100.00,1
41669,1,39719,0,50856,55328,50750.93,54617.45,105.07,710.55,0.331566,100.00,1
41710,1,39760,0,50857,55344,50751.14,54618.90,105.86,725.10,0.331323,100.00,1
41750,1,39800,0,50859,55343,50751.36,54620.35,107.64,722.65,0.331076,100.00,1
41790,1,39840,0,50851,55275,50751.56,54621.66,99.44,653.34,0.330826,100.00,1
41830,1,39880,0,50796,55182,50751.65,54622.78,44.35,559.22,0.330573,100.00,1
41870,1,39920,0,50769,55159,50751.68,54623.86,17.32,535.14,0.330316,100.00,1
41910,1,39960,0,50771,55171,50751.72,54624.95,19.28,546.05,0.330056,100.00,1
41950,1,40000,0,50777,55178,50751.77,54626.06,25.23,551.94,0.329792,100.00,1
41990,1,40040,0,50787,55181,50751.84,54627.17,35.16,553.83,0.329525,100.00,1
42030,1,40080,0,50789,55200,50751.92,54628.32,37.08,571.68,0.329254,100.00,1
42070,1,40120,0,50791,55207,50752.00,54629.48,39.00,577.52,0.328979,100.00,1
42110,1,40160,0,50797,55214,50752.09,54630.65,44.91,583.35,0.328702,100.00,1
42150,1,40200,0,50804,55227,50752.19,54631.84,51.81,595.16,0.328420,100.00,1
42190,1,40240,0,50813,55242,50752.31,54633.07,60.69,608.93,0.328136,100.00,1
42230,1,40280,0,50822,55259,50752.45,54634.32,69.55,624.68,0.327848,100.00,1
42270,1,40320,0,50834,55276,50752.62,54635.61,81.38,640.39,0.327558,100.00,1
42310,1,40360,0,50842,55286,50752.80,54636.91,89.20,649.09,0.327265,100.00,1
42350,1,40400,0,50844,55300,50752.98,54638.23,91.02,661.77,0.326970,100.00,1
42390,1,40440,0,50848,55312,50753.17,54639.58,94.83,672.42,0.326672,100.00,1
42430,1,40480,0,50843,55273,50753.35,54640.85,89.65,632.15,0.326372,100.00,1
42470,1,40520,0,50802,55155,50753.45,54641.88,48.55,513.12,0.326070,100.00,1
42510,1,40560,0,50764,55106,50753.47,54642.81,10.53,463.19,0.325767,100.00,1
42550,1,40600,0,50759,55113,50753.48,54643.75,5.52,469.25,0.325461,100.00,1
42590,1,40640,0,50763,55126,50753.50,54644.72,9.50,481.28,0.325154,100.00,1
42630,1,40680,0,50775,55121,50753.55,54645.67,21.45,475.33,0.324845,100.00,1
42670,1,40720,0,50771,55140,50753.58,54646.66,17.42,493.34,0.324533,100.00,1
42711,1,40761,0,50783,55146,50753.64,54647.66,29.36,498.34,0.324220,100.00,1
42751,1,40801,0,50786,55153,50753.71,54648.67,32.29,504.33,0.323905,100.00,1
42791,1,40841,0,50789,55169,50753.78,54649.71,35.22,519.29,0.323587,100.00,1
42831,1,40881,0,50801,55189,50753.87,54650.79,47.13,538.21,0.323268,100.00,1
42871,1,40921,0,50808,55215,50753.98,54651.92,54.02,563.08,0.322946,100.00,1
42911,1,40961,0,50818,55238,50754.11,54653.09,63.89,584.91,0.322623,100.00,1
42951,1,41001,0,50823,55258,50754.25,54654.30,68.75,603.70,0.322297,100.00,1
42991,1,41041,0,50838,55279,50754.42,54655.55,83.58,623.45,0.321970,100.00,1
43031,1,41081,0,50841,55299,50754.60,54656.84,86.40,642.16,0.321641,100.00,1
43071,1,41121,0,50855,55300,50754.80,54658.13,100.20,641.87,0.321311,100.00,1
43111,1,41161,0,50829,55197,50754.95,54659.21,74.05,537.79,0.320981,100.00,1
43151,1,41201,0,50782,55121,50755.00,54660.14,27.00,460.86,0.320649,100.00,1
43191,1,41241,0,50767,55120,50755.03,54661.06,11.97,458.94,0.320316,100.00,1
43231,1,41281,0,50784,55138,50755.09,54662.02,28.91,475.98,0.319981,100.00,1
43271,1,41321,0,50799,55143,50755.18,54662.98,43.82,480.02,0.319645,100.00,1
43311,1,41361,0,50800,55155,50755.27,54663.96,44.73,491.04,0.319308,100.00,1
43351,1,41401,0,50812,55170,50755.38,54664.98,56.62,505.02,0.318971,100.00,1
43391,1,41441,0,50808,55178,50755.48,54666.00,52.52,512.00,0.318631,100.00,1
43431,1,41481,0,50817,55193,50755.61,54667.06,61.39,525.94,0.318291,100.00,1
43471,1,41521,0,50825,55203,50755.75,54668.13,69.25,534.87,0.317951,100.00,1
43511,1,41561,0,50835,55233,50755.91,54669.27,79.09,563.73,0.317609,100.00,1
43551,1,41601,0,50845,55252,50756.09,54670.43,88.91,581.57,0.317267,100.00,1
43591,1,41641,0,50853,55278,50756.29,54671.65,96.71,606.35,0.316925,100.00,1
43631,1,41681,0,50860,55297,50756.49,54672.90,103.51,624.10,0.316583,100.00,1
43671,1,41721,0,50868,55317,50756.71,54674.19,111.29,642.81,0.316242,100.00,1
43711,1,41761,0,50875,55328,50756.95,54675.50,118.05,652.50,0.315901,100.00,1
43752,1,41802,0,50871,55292,50757.18,54676.73,113.82,615.27,0.315561,100.00,1
43792,1,41842,0,50831,55167,50757.33,54677.71,73.67,489.29,0.315221,100.00,1
43832,1,41882,0,50786,55115,50757.39,54678.59,28.61,436.41,0.314880,100.00,1
43872,1,41922,0,50776,55115,50757.43,54679.46,18.57,435.54,0.314538,100.00,1
43912,1,41962,0,50782,55130,50757.48,54680.37,24.52,449.63,0.314195,100.00,1
43952,1,42002,0,50786,55121,50757.54,54681.25,28.46,439.75,0.314195,100.00,0
43992,1,42042,0,50787,55122,50757.60,54682.13,29.40,439.87,0.314195,100.00,0
44032,1,42082,0,50788,55125,50757.66,54683.02,30.34,441.98,0.314195,100.00,0
44072,1,42122,0,50790,55120,50757.73,54683.89,32.27,436.11,0.314195,100.00,0
44112,1,42162,0,50785,55128,50757.78,54684.79,27.22,443.21,0.314195,100.00,0
44152,1,42202,0,50793,55138,50757.85,54685.69,35.15,452.31,0.314195,100.00,0
44192,1,42242,0,50793,55153,50757.92,54686.63,35.08,466.37,0.314195,100.00,0
44232,1,42282,0,50811,55163,50758.03,54687.58,52.97,475.42,0.314195,100.00,0
44272,1,42322,0,50814,55175,50758.14,54688.56,55.86,486.44,0.314195,100.00,0
44312,1,42362,0,50821,55179,50758.27,54689.54,62.73,489.46,0.314195,100.00,0
44352,1,42402,0,50820,55184,50758.40,54690.53,61.60,493.47,0.314195,100.00,0
44392,1,42442,0,50821,55187,50758.52,54691.53,62.48,495.47,0.314195,100.00,0
44432,1,42482,0,50798,55084,50758.61,54692.31,39.39,391.69,0.314195,100.00,0
44472,1,42522,0,50746,54998,50758.58,54692.93,-12.58,305.07,0.314195,100.00,0
44512,1,42562,0,50729,54979,50758.52,54693.50,-29.52,285.50,0.314195,100.00,0
44552,1,42602,0,50738,54996,50758.48,54694.11,-20.48,301.89,0.314195,100.00,0
44592,1,42642,0,50748,55008,50758.46,54694.73,-10.46,313.27,0.314195,100.00,0
44632,1,42682,0,50742,55012,50758.43,54695.37,-16.43,316.63,0.314195,100.00,0
44672,1,42722,0,50750,55023,50758.42,54696.03,-8.42,326.97,0.314195,100.00,0
44712,1,42762,0,50752,55022,50758.41,54696.68,-6.41,325.32,0.314195,100.00,0
44753,1,42803,0,50756,55033,50758.40,54697.36,-2.40,335.64,0.314195,100.00,0
44793,1,42843,0,50758,55039,50758.40,54698.04,-0.40,340.96,0.314195,100.00,0
44833,1,42883,0,50763,55064,50758.41,54698.77,4.59,365.23,0.314195,100.00,0
44873,1,42923,0,50769,55080,50758.44,54699.54,10.56,380.46,0.314195,100.00,0
44913,1,42963,0,50777,55102,50758.48,54700.34,18.52,401.66,0.314195,100.00,0
44953,1,43003,0,50790,55122,50758.54,54701.19,31.46,420.81,0.314195,100.00,0
44993,1,43043,0,50794,55136,50758.61,54702.06,35.39,433.94,0.314195,100.00,0
45033,1,43083,0,50802,55142,50758.70,54702.94,43.30,439.06,0.314195,100.00,0
45073,1,43123,0,50792,55063,50758.77,54703.66,33.23,359.34,0.314195,100.00,0
45113,1,43163,0,50735,54954,50758.72,54704.17,-23.72,249.83,0.314195,100.00,0
45153,1,43203,0,50709,54937,50758.62,54704.64,-49.62,232.36,0.314195,100.00,0
45193,1,43243,0,50719,54955,50758.54,54705.14,-39.54,249.86,0.314195,100.00,0
45233,1,43283,0,50733,54967,50758.49,54705.66,-25.49,261.34,0.314195,100.00,0
45273,1,43323,0,50742,54971,50758.46,54706.20,-16.46,264.80,0.314195,100.00,0
45313,1,43363,0,50754,54992,50758.45,54706.77,-4.45,285.23,0.314195,100.00,0
45353,1,43403,0,50764,54997,50758.46,54707.35,5.54,289.65,0.314195,100.00,0
45393,1,43443,0,50766,55016,50758.48,54707.97,7.52,308.03,0.314195,100.00,0
45433,1,43483,0,50772,55029,50758.51,54708.61,13.49,320.39,0.314195,100.00,0
45473,1,43523,0,50788,55055,50758.57,54709.31,29.43,345.69,0.314195,100.00,0
45513,1,43563,0,50800,55076,50758.65,54710.04,41.35,365.96,0.314195,100.00,0
45553,1,43603,0,50809,55096,50758.75,54710.82,50.25,385.18,0.314195,100.00,0
45593,1,43643,0,50815,55116,50758.87,54711.63,56.13,404.37,0.314195,100.00,0
45633,1,43683,0,50823,55136,50759.00,54712.48,64.00,423.52,0.314195,100.00,0
45673,1,43723,0,50828,55152,50759.14,54713.36,68.86,438.64,0.314195,100.00,0
45713,1,43763,0,50825,55077,50759.27,54714.09,65.73,362.91,0.314195,100.00,0
45754,1,43804,0,50766,54946,50759.29,54714.55,6.71,231.45,0.314195,100.00,0
45794,1,43844,0,50727,54903,50759.22,54714.93,-32.22,188.07,0.314195,100.00,0
45834,1,43884,0,50730,54915,50759.16,54715.34,-29.16,199.66,0.314195,100.00,0
45874,1,43924,0,50741,54920,50759.13,54715.75,-18.13,204.25,0.314195,100.00,0
45914,1,43964,0,50745,54934,50759.10,54716.18,-14.10,217.82,0.314195,100.00,0
45954,1,44004,0,50753,54958,50759.09,54716.67,-6.09,241.33,0.314195,100.00,0
45994,1,44044,0,50766,54971,50759.11,54717.18,6.89,253.82,0.314195,100.00,0
46034,1,44084,0,50778,54980,50759.14,54717.71,18.86,262.29,0.314195,100.00,0
46074,1,44124,0,50788,55005,50759.20,54718.28,28.80,286.72,0.314195,100.00,0
46114,1,44164,0,50799,55034,50759.29,54718.91,39.71,315.09,0.314195,100.00,0
46154,1,44204,0,50813,55068,50759.39,54719.61,53.61,348.39,0.314195,100.00,0
46194,1,44244,0,50832,55098,50759.54,54720.37,72.46,377.63,0.314195,100.00,0
46234,1,44284,0,50848,55126,50759.72,54721.18,88.28,404.82,0.314195,100.00,0
46274,1,44324,0,50861,55150,50759.93,54722.04,101.07,427.96,0.314195,100.00,0
46314,1,44364,0,50878,55173,50760.16,54722.95,117.84,450.05,0.314195,100.00,0
46354,1,44404,0,50882,55141,50760.41,54723.78,121.59,417.22,0.314195,100.00,0
46394,1,44444,0,50838,54990,50760.57,54724.32,77.43,265.68,0.314195,100.00,0
46434,1,44484,0,50783,54915,50760.61,54724.70,22.39,190.30,0.314195,100.00,0
46474,1,44524,0,50772,54915,50760.64,54725.08,11.36,189.92,0.314195,100.00,0
46514,1,44564,0,50784,54929,50760.68,54725.49,23.32,203.51,0.314195,100.00,0
46554,1,44604,0,50795,54929,50760.75,54725.90,34.25,203.10,0.314195,100.00,0
46594,1,44644,0,50804,54947,50760.84,54726.35,43.16,220.65,0.314195,100.00,0
46634,1,44684,0,50812,54966,50760.95,54726.83,51.05,239.17,0.314195,100.00,0
46674,1,44724,0,50819,54981,50761.06,54727.34,57.94,253.66,0.314195,100.00,0
46714,1,44764,0,50827,54992,50761.20,54727.87,65.80,264.13,0.314195,100.00,0
46754,1,44804,0,50841,55021,50761.36,54728.45,79.64,292.55,0.314195,100.00,0
46795,1,44845,0,50850,55038,50761.54,54729.07,88.46,308.93,0.314195,100.00,0
46835,1,44885,0,50856,55058,50761.73,54729.73,94.27,328.27,0.314195,100.00,0
46875,1,44925,0,50864,55073,50761.93,54730.42,102.07,342.58,0.314195,100.00,0
46915,1,44965,0,50868,55089,50762.15,54731.14,105.85,357.86,0.314195,100.00,0
46955,1,45005,0,50871,55098,50762.37,54731.87,108.63,366.12,0.314195,100.00,0
46995,1,45045,0,50875,55100,50762.59,54732.61,112.41,367.39,0.314195,100.00,0
47035,1,45085,0,50855,54972,50762.78,54733.09,92.22,238.91,0.314195,100.00,0
47075,1,45125,0,50789,54839,50762.84,54733.31,26.16,105.69,0.314195,100.00,0
47115,1,45165,0,50747,54805,50762.80,54733.45,-15.80,71.55,0.314195,100.00,0
47155,1,45205,0,50752,54819,50762.79,54733.62,-10.79,85.37,0.314195,100.00,0
47195,1,45245,0,50762,54826,50762.79,54733.81,-0.79,92.19,0.314195,100.00,0
47235,1,45285,0,50775,54826,50762.81,54734.00,12.19,92.00,0.314195,100.00,0
47275,1,45325,0,50780,54842,50762.85,54734.22,17.15,107.78,0.314195,100.00,0
47315,1,45365,0,50781,54837,50762.89,54734.43,18.11,102.57,0.314195,100.00,0
47355,1,45405,0,50783,54840,50762.93,54734.64,20.07,105.36,0.314195,100.00,0
47395,1,45445,0,50785,54845,50762.98,54734.86,22.02,110.14,0.314195,100.00,0
47435,1,45485,0,50789,54867,50763.03,54735.12,25.97,131.87,0.314195,100.00,0
47475,1,45525,0,50793,54885,50763.09,54735.43,29.91,149.57,0.314195,100.00,0
47515,1,45565,0,50806,54905,50763.18,54735.77,42.82,169.23,0.314195,100.00,0
47555,1,45605,0,50810,54911,50763.27,54736.12,46.73,174.88,0.314195,100.00,0
47595,1,45645,0,50813,54929,50763.37,54736.50,49.63,192.50,0.314195,100.00,0
47635,1,45685,0,50812,54930,50763.47,54736.89,48.53,193.11,0.314195,100.00,0
47675,1,45725,0,50805,54847,50763.56,54737.11,41.44,109.89,0.314195,100.00,0
47715,1,45765,0,50738,54692,50763.51,54737.02,-25.51,-45.02,0.314195,100.00,0
47756,1,45806,0,50689,54647,50763.36,54736.84,-74.36,-89.84,0.314195,100.00,0
47796,1,45846,0,50688,54657,50763.21,54736.68,-75.21,-79.68,0.314195,100.00,0
47836,1,45886,0,50698,54675,50763.08,54736.56,-65.08,-61.56,0.314195,100.00,0
47876,1,45926,0,50705,54689,50762.97,54736.47,-57.97,-47.47,0.314195,100.00,0
47916,1,45966,0,50711,54710,50762.87,54736.42,-51.87,-26.42,0.314195,100.00,0
47956,1,46006,0,50718,54729,50762.78,54736.41,-44.78,-7.41,0.313853,100.00,1
47996,1,46046,0,50721,54729,50762.70,54736.39,-41.70,-7.39,0.313514,100.00,1
48036,1,46086,0,50728,54750,50762.63,54736.42,-34.63,13.58,0.313176,100.00,1
48076,1,46126,0,50738,54771,50762.58,54736.49,-24.58,34.51,0.312840,100.00,1
48116,1,46166,0,50747,54803,50762.55,54736.62,-15.55,66.37,0.312504,100.00,1
48156,1,46206,0,50765,54831,50762.56,54736.82,2.44,94.18,0.312170,100.00,1
48196,1,46246,0,50775,54862,50762.59,54737.07,12.41,124.93,0.311836,100.00,1
48236,1,46286,0,50789,54887,50762.64,54737.37,26.36,149.63,0.311503,100.00,1
48276,1,46326,0,50801,54904,50762.72,54737.70,38.28,166.30,0.311172,100.00,1
48316,1,46366,0,50806,54864,50762.80,54737.96,43.20,126.04,0.310842,100.00,1
48356,1,46406,0,50753,54696,50762.79,54737.87,-9.79,-41.88,0.310513,100.00,1
48396,1,46446,0,50691,54623,50762.64,54737.65,-71.64,-114.65,0.310189,100.00,1
48436,1,46486,0,50689,54630,50762.50,54737.43,-73.50,-107.43,0.309868,100.00,1
48476,1,46526,0,50694,54655,50762.36,54737.27,-68.36,-82.27,0.309551,100.00,1
48516,1,46566,0,50712,54668,50762.27,54737.13,-50.27,-69.13,0.309237,100.00,1
48556,1,46606,0,50725,54680,50762.19,54737.02,-37.19,-57.02,0.308925,100.00,1
48596,1,46646,0,50733,54704,50762.13,54736.95,-29.13,-32.95,0.308614,100.00,1
48636,1,46686,0,50746,54724,50762.10,54736.93,-16.10,-12.93,0.308304,100.00,1
48676,1,46726,0,50754,54738,50762.09,54736.93,-8.09,1.07,0.307995,100.00,1
48716,1,46766,0,50759,54774,50762.08,54737.01,-3.08,36.99,0.307687,100.00,1
48756,1,46806,0,50778,54806,50762.11,54737.15,15.89,68.85,0.307380,100.00,1
48797,1,46847,0,50792,54842,50762.18,54737.36,29.82,104.64,0.307074,100.00,1
48837,1,46887,0,50807,54869,50762.27,54737.62,44.73,131.37,0.306770,100.00,1
48877,1,46927,0,50819,54900,50762.38,54737.95,56.62,162.05,0.306469,100.00,1
48917,1,46967,0,50828,54931,50762.51,54738.34,65.49,192.66,0.306170,100.00,1
48957,1,47007,0,50843,54949,50762.68,54738.76,80.32,210.24,0.305876,100.00,1
48997,1,47047,0,50841,54864,50762.83,54739.01,78.17,124.99,0.305587,100.00,1
49037,1,47087,0,50772,54698,50762.85,54738.93,9.15,-40.93,0.305299,100.00,1
49077,1,47127,0,50723,54657,50762.77,54738.76,-39.77,-81.76,0.305012,100.00,1
49117,1,47167,0,50728,54669,50762.71,54738.62,-34.71,-69.62,0.304727,100.00,1
49157,1,47207,0,50745,54699,50762.67,54738.55,-17.67,-39.55,0.304443,100.00,1
49197,1,47247,0,50758,54709,50762.66,54738.49,-4.66,-29.49,0.304160,100.00,1
49237,1,47287,0,50774,54738,50762.69,54738.49,11.31,-0.49,0.303878,100.00,1
49277,1,47327,0,50788,54761,50762.74,54738.54,25.26,22.46,0.303597,100.00,1
49317,1,47367,0,50800,54777,50762.81,54738.61,37.19,38.39,0.303318,100.00,1
49357,1,47407,0,50814,54804,50762.92,54738.75,51.08,65.25,0.303042,100.00,1
49397,1,47447,0,50824,54836,50763.04,54738.94,60.96,97.06,0.302769,100.00,1
49437,1,47487,0,50841,54878,50763.20,54739.22,77.80,138.78,0.302501,100.00,1
49477,1,47527,0,50856,54906,50763.39,54739.56,92.61,166.44,0.302239,100.00,1
49517,1,47567,0,50874,54937,50763.61,54739.95,110.39,197.05,0.301987,100.00,1
49557,1,47607,0,50890,54965,50763.86,54740.41,126.14,224.59,0.301746,100.00,1
49597,1,47647,0,50901,54990,50764.14,54740.91,136.86,249.09,0.301517,100.00,1
49637,1,47687,0,50906,55008,50764.43,54741.44,141.57,266.56,0.301302,100.00,1
49677,1,47727,0,50909,54943,50764.71,54741.85,144.29,201.15,0.301102,100.00,1
49717,1,47767,0,50844,54766,50764.87,54741.90,79.12,24.10,0.300907,100.00,1
49758,1,47808,0,50787,54693,50764.92,54741.80,22.08,-48.80,0.300712,100.00,1
49798,1,47848,0,50779,54701,50764.95,54741.72,14.05,-40.72,0.300518,100.00,1
49838,1,47888,0,50796,54723,50765.02,54741.68,30.98,-18.68,0.300326,100.00,1
49878,1,47928,0,50803,54738,50765.09,54741.68,37.91,-3.68,0.300135,100.00,1
49918,1,47968,0,50816,54764,50765.20,54741.72,50.80,22.28,0.299946,100.00,1
49958,1,48008,0,50831,54791,50765.33,54741.82,65.67,49.18,0.299762,100.00,1
49998,1,48048,0,50846,54808,50765.49,54741.96,80.51,66.04,0.299583,100.00,1
50038,1,48088,0,50857,54833,50765.68,54742.14,91.32,90.86,0.299410,100.00,1
50078,1,48128,0,50867,54863,50765.88,54742.38,101.12,120.62,0.299245,100.00,1
50118,1,48168,0,50887,54900,50766.12,54742.70,120.88,157.30,0.299091,100.00,1
50158,1,48208,0,50904,54932,50766.40,54743.08,137.60,188.92,0.298950,100.00,1
50198,1,48248,0,50919,54950,50766.70,54743.49,152.30,206.51,0.298826,100.00,1
50238,1,48288,0,50928,54975,50767.03,54743.96,160.97,231.04,0.298718,100.00,1
50278,1,48328,0,50940,54980,50767.37,54744.43,172.62,235.57,0.298630,100.00,1
50318,1,48368,0,50945,54994,50767.73,54744.93,177.27,249.07,0.298562,100.00,1
50358,1,48408,0,50950,54959,50768.10,54745.36,181.90,213.64,0.298515,100.00,1
50398,1,48448,0,50900,54778,50768.36,54745.43,131.64,32.57,0.298480,100.00,1
50438,1,48488,0,50817,54650,50768.46,54745.24,48.54,-95.24,0.298446,100.00,1
50478,1,48528,0,50798,54632,50768.52,54745.01,29.48,-113.01,0.298412,100.00,1
50518,1,48568,0,50808,54659,50768.60,54744.84,39.40,-85.84,0.298379,100.00,1
50558,1,48608,0,50817,54661,50768.70,54744.67,48.30,-83.67,0.298347,100.00,1
50598,1,48648,0,50820,54675,50768.80,54744.54,51.20,-69.54,0.298317,100.00,1
50638,1,48688,0,50827,54681,50768.92,54744.41,58.08,-63.41,0.298290,100.00,1
50679,1,48729,0,50824,54674,50769.04,54744.27,54.96,-70.27,0.298264,100.00,1
50719,1,48769,0,50822,54673,50769.14,54744.13,52.86,-71.13,0.298240,100.00,1
50759,1,48809,0,50828,54691,50769.26,54744.02,58.74,-53.02,0.298219,100.00,1
50799,1,48849,0,50834,54716,50769.39,54743.97,64.61,-27.97,0.298200,100.00,1
50839,1,48889,0,50844,54744,50769.54,54743.97,74.46,0.03,0.298186,100.00,1
50879,1,48929,0,50857,54763,50769.71,54744.01,87.29,18.99,0.298178,100.00,1
50919,1,48969,0,50866,54784,50769.91,54744.09,96.09,39.91,0.298176,100.00,1
50959,1,49009,0,50877,54800,50770.12,54744.20,106.87,55.80,0.298183,100.00,1
50999,1,49049,0,50881,54810,50770.35,54744.34,110.65,65.66,0.298199,100.00,1
51039,1,49089,0,50872,54730,50770.55,54744.31,101.45,-14.31,0.298222,100.00,1
51079,1,49129,0,50804,54551,50770.62,54743.92,33.38,-192.92,0.298244,100.00,1
51119,1,49169,0,50754,54487,50770.59,54743.41,-16.59,-256.41,0.298262,100.00,1
51159,1,49209,0,50754,54499,50770.55,54742.92,-16.55,-243.92,0.298276,100.00,1
51199,1,49249,0,50771,54525,50770.56,54742.49,0.44,-217.49,0.298288,100.00,1
51239,1,49289,0,50779,54540,50770.58,54742.09,8.42,-202.09,0.298297,100.00,1
51279,1,49329,0,50793,54570,50770.62,54741.74,22.37,-171.74,0.298305,100.00,1
51319,1,49369,0,50801,54582,50770.69,54741.43,30.31,-159.43,0.298312,100.00,1
51359,1,49409,0,50802,54579,50770.75,54741.10,31.25,-162.10,0.298318,100.00,1
51399,1,49449,0,50805,54594,50770.82,54740.81,34.18,-146.81,0.298323,100.00,1
51439,1,49489,0,50813,54611,50770.91,54740.55,42.09,-129.55,0.298329,100.00,1
51479,1,49529,0,50828,54641,50771.02,54740.35,56.98,-99.35,0.298337,100.00,1
51519,1,49569,0,50840,54670,50771.16,54740.21,68.84,-70.21,0.298349,100.00,1
51559,1,49609,0,50849,54698,50771.32,54740.13,77.68,-42.13,0.298365,100.00,1
51599,1,49649,0,50860,54718,50771.50,54740.09,88.50,-22.09,0.298387,100.00,1
51640,1,49690,0,50869,54740,50771.70,54740.09,97.30,-0.09,0.298418,100.00,1
51680,1,49730,0,50874,54703,50771.90,54740.01,102.10,-37.01,0.298456,100.00,1
51720,1,49770,0,50821,54518,50772.00,54739.57,49.00,-221.57,0.298493,100.00,1
51760,1,49810,0,50741,54410,50771.94,54738.91,-30.94,-328.91,0.298523,100.00,1
51800,1,49850,0,50732,54407,50771.86,54738.25,-39.86,-331.25,0.298548,100.00,1
51840,1,49890,0,50746,54436,50771.81,54737.65,-25.81,-301.65,0.298566,100.00,1
51880,1,49930,0,50758,54453,50771.78,54737.08,-13.78,-284.08,0.298580,100.00,1
51920,1,49970,0,50767,54477,50771.77,54736.56,-4.77,-259.56,0.298588,100.00,1
51960,1,50010,0,50784,54507,50771.80,54736.11,12.20,-229.11,0.298594,100.00,1
52000,1,50050,0,50790,54518,50771.84,54735.67,18.16,-217.67,0.298597,100.00,1
52040,1,50090,0,50798,54542,50771.89,54735.29,26.11,-193.29,0.298598,100.00,1
52080,1,50130,0,50816,54560,50771.98,54734.94,44.02,-174.94,0.298598,100.00,1
52120,1,50170,0,50833,54599,50772.11,54734.67,60.89,-135.67,0.298601,100.00,1
52160,1,50210,0,50850,54631,50772.27,54734.46,77.73,-103.46,0.298608,100.00,1
52200,1,50250,0,50865,54660,50772.45,54734.31,92.55,-74.31,0.298622,100.00,1
52240,1,50290,0,50881,54693,50772.67,54734.23,108.33,-41.23,0.298645,100.00,1
52280,1,50330,0,50886,54720,50772.90,54734.20,113.10,-14.20,0.298680,100.00,1
52320,1,50370,0,50905,54726,50773.16,54734.19,131.84,-8.19,0.298730,100.00,1
52360,1,50410,0,50871,54549,50773.36,54733.82,97.64,-184.82,0.298785,100.00,1
52400,1,50450,0,50783,54388,50773.38,54733.13,9.62,-345.13,0.298832,100.00,1
52440,1,50490,0,50744,54348,50773.32,54732.36,-29.32,-384.36,0.298868,100.00,1
52480,1,50530,0,50749,54375,50773.27,54731.64,-24.27,-356.64,0.298896,100.00,1
52520,1,50570,0,50763,54395,50773.25,54730.97,-10.25,-335.97,0.298916,100.00,1
52560,1,50610,0,50765,54406,50773.24,54730.32,-8.24,-324.32,0.298928,100.00,1
52601,1,50651,0,50778,54438,50773.25,54729.74,4.75,-291.74,0.298935,100.00,1
52641,1,50691,0,50788,54451,50773.28,54729.19,14.72,-278.19,0.298937,100.00,1
52681,1,50731,0,50789,54464,50773.31,54728.66,15.69,-264.66,0.298934,100.00,1
52721,1,50771,0,50794,54492,50773.36,54728.19,20.64,-236.19,0.298929,100.00,1
52761,1,50811,0,50815,54533,50773.44,54727.80,41.56,-194.80,0.298922,100.00,1
52801,1,50851,0,50830,54566,50773.55,54727.48,56.45,-161.48,0.298916,100.00,1
52841,1,50891,0,50847,54606,50773.70,54727.23,73.30,-121.23,0.298914,100.00,1
52881,1,50931,0,50865,54640,50773.89,54727.06,91.11,-87.06,0.298919,100.00,1
52921,1,50971,0,50876,54677,50774.09,54726.96,101.91,-49.96,0.298932,100.00,1
52961,1,51011,0,50890,54704,50774.33,54726.92,115.67,-22.92,0.298958,100.00,1
53001,1,51051,0,50893,54617,50774.57,54726.70,118.43,-109.70,0.298995,100.00,1
53041,1,51091,0,50816,54411,50774.65,54726.07,41.35,-315.07,0.299026,100.00,1
53081,1,51131,0,50749,54325,50774.60,54725.27,-25.60,-400.27,0.299046,100.00,1
53121,1,51171,0,50742,54334,50774.54,54724.49,-32.54,-390.49,0.299056,100.00,1
53161,1,51211,0,50752,54354,50774.50,54723.75,-22.50,-369.75,0.299058,100.00,1
53201,1,51251,0,50760,54373,50774.47,54723.05,-14.47,-350.05,0.299051,100.00,1
53241,1,51291,0,50768,54401,50774.46,54722.41,-6.46,-321.41,0.299038,100.00,1
53281,1,51331,0,50781,54429,50774.47,54721.82,6.53,-292.82,0.299019,100.00,1
53321,1,51371,0,50792,54449,50774.51,54721.28,17.49,-272.28,0.298995,100.00,1
53361,1,51411,0,50798,54473,50774.55,54720.79,23.45,-247.79,0.298968,100.00,1
53401,1,51451,0,50815,54513,50774.64,54720.37,40.36,-207.37,0.298940,100.00,1
53441,1,51491,0,50825,54557,50774.74,54720.05,50.26,-163.05,0.298913,100.00,1
53481,1,51531,0,50846,54601,50774.88,54719.81,71.12,-118.81,0.298889,100.00,1
53522,1,51572,0,50867,54645,50775.07,54719.66,91.93,-74.66,0.298873,100.00,1
53562,1,51612,0,50884,54683,50775.29,54719.59,108.71,-36.59,0.298867,100.00,1
53602,1,51652,0,50893,54711,50775.52,54719.57,117.48,-8.57,0.298873,100.00,1
53642,1,51692,0,50903,54741,50775.78,54719.62,127.22,21.38,0.298894,100.00,1
53682,1,51732,0,50900,54655,50776.03,54719.49,123.97,-64.49,0.298929,100.00,1
53722,1,51772,0,50827,54479,50776.13,54719.01,50.87,-240.01,0.298961,100.00,1
53762,1,51812,0,50776,54424,50776.13,54718.42,-0.13,-294.42,0.298987,100.00,1
53802,1,51852,0,50777,54444,50776.14,54717.87,0.86,-273.87,0.299007,100.00,1
53842,1,51892,0,50789,54470,50776.16,54717.37,12.84,-247.37,0.299023,100.00,1
53882,1,51932,0,50798,54484,50776.21,54716.91,21.79,-232.91,0.299035,100.00,1
53922,1,51972,0,50804,54510,50776.27,54716.50,27.73,-206.50,0.299045,100.00,1
53962,1,52012,0,50814,54523,50776.35,54716.11,37.65,-193.11,0.299054,100.00,1
54002,1,52052,0,50826,54537,50776.45,54715.75,49.55,-178.75,0.299062,100.00,1
54042,1,52092,0,50830,54550,50776.56,54715.42,53.44,-165.42,0.299072,100.00,1
54082,1,52132,0,50840,54570,50776.69,54715.13,63.31,-145.13,0.299083,100.00,1
54122,1,52172,0,50847,54601,50776.83,54714.91,70.17,-113.91,0.299098,100.00,1
54162,1,52212,0,50861,54631,50777.00,54714.74,84.00,-83.74,0.299119,100.00,1
54202,1,52252,0,50870,54663,50777.18,54714.64,92.82,-51.64,0.299147,100.00,1
54242,1,52292,0,50883,54685,50777.40,54714.58,105.60,-29.58,0.299186,100.00,1
54282,1,52332,0,50894,54708,50777.63,54714.57,116.37,-6.57,0.299238,100.00,1
54322,1,52372,0,50903,54715,50777.89,54714.57,125.11,0.43,0.299304,100.00,1
54362,1,52412,0,50881,54586,50778.09,54714.32,102.91,-128.32,0.299378,100.00,1
54402,1,52452,0,50793,54436,50778.12,54713.76,14.88,-277.76,0.299446,100.00,1
54442,1,52492,0,50755,54391,50778.08,54713.12,-23.08,-322.12,0.299505,100.00,1
54482,1,52532,0,50751,54410,50778.02,54712.51,-27.02,-302.51,0.299558,100.00,1
54523,1,52573,0,50765,54426,50778.00,54711.94,-13.00,-285.94,0.299603,100.00,1
54563,1,52613,0,50766,54435,50777.98,54711.39,-11.98,-276.39,0.299643,100.00,1
54603,1,52653,0,50771,54456,50777.96,54710.88,-6.96,-254.88,0.299678,100.00,1
54643,1,52693,0,50772,54460,50777.95,54710.38,-5.95,-250.38,0.299708,100.00,1
54683,1,52733,0,50771,54465,50777.94,54709.89,-6.94,-244.89,0.299733,100.00,1
54723,1,52773,0,50775,54482,50777.94,54709.44,-2.94,-227.44,0.299753,100.00,1
54763,1,52813,0,50783,54501,50777.95,54709.03,5.05,-208.03,0.299771,100.00,1
54803,1,52853,0,50794,54534,50777.98,54708.68,16.02,-174.68,0.299786,100.00,1
54843,1,52893,0,50806,54565,50778.04,54708.39,27.96,-143.39,0.299801,100.00,1
54883,1,52933,0,50815,54591,50778.12,54708.16,36.88,-117.16,0.299815,100.00,1
54923,1,52973,0,50831,54622,50778.22,54707.99,52.78,-85.99,0.299832,100.00,1
54963,1,53013,0,50848,54652,50778.36,54707.88,69.64,-55.88,0.299853,100.00,1
55003,1,53053,0,50850,54591,50778.51,54707.65,71.49,-116.65,0.299878,100.00,1
55043,1,53093,0,50784,54423,50778.52,54707.08,5.48,-284.08,0.299897,100.00,1
55083,1,53133,0,50732,54347,50778.43,54706.36,-46.43,-359.36,0.299907,100.00,1
55123,1,53173,0,50715,54349,50778.30,54705.65,-63.30,-356.65,0.299911,100.00,1
55163,1,53213,0,50721,54376,50778.19,54704.99,-57.19,-328.99,0.299910,100.00,1
55203,1,53253,0,50733,54388,50778.10,54704.36,-45.10,-316.36,0.299904,100.00,1
55243,1,53293,0,50743,54415,50778.03,54703.78,-35.03,-288.78,0.299893,100.00,1
55283,1,53333,0,50749,54427,50777.97,54703.23,-28.97,-276.23,0.299876,100.00,1
55323,1,53373,0,50754,54442,50777.93,54702.71,-23.93,-260.71,0.299856,100.00,1
55363,1,53413,0,50755,54457,50777.88,54702.22,-22.88,-245.22,0.299831,100.00,1
55403,1,53453,0,50763,54486,50777.86,54701.79,-14.86,-215.79,0.299803,100.00,1
55443,1,53493,0,50778,54521,50777.86,54701.43,0.14,-180.43,0.299773,100.00,1
55484,1,53534,0,50795,54558,50777.89,54701.15,17.11,-143.15,0.299742,100.00,1
55524,1,53574,0,50803,54585,50777.94,54700.92,25.06,-115.92,0.299711,100.00,1
55564,1,53614,0,50816,54617,50778.02,54700.75,37.98,-83.75,0.299680,100.00,1
55604,1,53654,0,50825,54642,50778.11,54700.63,46.89,-58.63,0.299652,100.00,1
55644,1,53694,0,50829,54638,50778.21,54700.51,50.79,-62.51,0.299626,100.00,1
55684,1,53734,0,50791,54494,50778.24,54700.10,12.76,-206.10,0.299598,100.00,1
55724,1,53774,0,50724,54387,50778.14,54699.47,-54.14,-312.47,0.299565,100.00,1
55764,1,53814,0,50705,54381,50777.99,54698.84,-72.99,-317.84,0.299530,100.00,1
55804,1,53854,0,50714,54413,50777.87,54698.27,-63.87,-285.27,0.299493,100.00,1
55844,1,53894,0,50726,54436,50777.77,54697.74,-51.77,-261.74,0.299454,100.00,1
55884,1,53934,0,50732,54462,50777.68,54697.27,-45.68,-235.27,0.299414,100.00,1
55924,1,53974,0,50751,54503,50777.62,54696.89,-26.62,-193.89,0.299371,100.00,1
55964,1,54014,0,50769,54518,50777.61,54696.53,-8.61,-178.53,0.299326,100.00,1
56004,1,54054,0,50776,54546,50777.61,54696.23,-1.61,-150.23,0.299280,100.00,1
56044,1,54094,0,50791,54580,50777.64,54696.00,13.36,-116.00,0.299233,100.00,1
56084,1,54134,0,50802,54614,50777.69,54695.84,24.31,-81.84,0.299186,100.00,1
56124,1,54174,0,50815,54665,50777.76,54695.78,37.24,-30.78,0.299141,100.00,1
56164,1,54214,0,50835,54702,50777.88,54695.79,57.12,6.21,0.299100,100.00,1
56204,1,54254,0,50854,54739,50778.03,54695.88,75.97,43.12,0.299065,100.00,1
56244,1,54294,0,50864,54774,50778.20,54696.04,85.80,77.96,0.299038,100.00,1
56284,1,54334,0,50881,54808,50778.41,54696.26,102.59,111.74,0.299021,100.00,1
56324,1,54374,0,50880,54759,50778.61,54696.39,101.39,62.61,0.299016,100.00,1
56364,1,54414,0,50823,54621,50778.70,54696.24,44.30,-75.24,0.299012,100.00,1
56404,1,54454,0,50775,54577,50778.70,54696.00,-3.70,-119.00,0.299008,100.00,1
56445,1,54495,0,50776,54591,50778.69,54695.79,-2.69,-104.79,0.299002,100.00,1
56485,1,54535,0,50780,54613,50778.70,54695.63,1.30,-82.63,0.298996,100.00,1
56525,1,54575,0,50784,54628,50778.71,54695.50,5.29,-67.50,0.298989,100.00,1
56565,1,54615,0,50794,54660,50778.74,54695.43,15.26,-35.43,0.298983,100.00,1
56605,1,54655,0,50800,54691,50778.78,54695.42,21.22,-4.42,0.298977,100.00,1
56645,1,54695,0,50812,54723,50778.85,54695.47,33.15,27.53,0.298972,100.00,1
56685,1,54735,0,50828,54749,50778.95,54695.58,49.05,53.42,0.298970,100.00,1
56725,1,54775,0,50845,54789,50779.08,54695.77,65.92,93.23,0.298972,100.00,1
56765,1,54815,0,50862,54842,50779.25,54696.06,82.75,145.94,0.298981,100.00,1
56805,1,54855,0,50884,54890,50779.46,54696.45,104.54,193.55,0.298999,100.00,1
56845,1,54895,0,50900,54933,50779.70,54696.93,120.30,236.07,0.299028,100.00,1
56885,1,54935,0,50920,54980,50779.98,54697.49,140.02,282.51,0.299073,100.00,1
56925,1,54975,0,50938,55011,50780.30,54698.12,157.70,312.88,0.299136,100.00,1
56965,1,55015,0,50954,55050,50780.65,54698.83,173.35,351.17,0.299219,100.00,1
57005,1,55055,0,50961,55037,50781.01,54699.51,179.99,337.49,0.299325,100.00,1
57045,1,55095,0,50923,54914,50781.30,54699.94,141.70,214.06,0.299447,100.00,1
57085,1,55135,0,50870,54853,50781.48,54700.25,88.52,152.75,0.299573,100.00,1
57125,1,55175,0,50865,54867,50781.64,54700.58,83.36,166.42,0.299704,100.00,1
57165,1,55215,0,50871,54876,50781.82,54700.93,89.18,175.07,0.299839,100.00,1
57205,1,55255,0,50872,54879,50782.01,54701.29,89.99,177.71,0.299979,100.00,1
57245,1,55295,0,50873,54889,50782.19,54701.67,90.81,187.33,0.300123,100.00,1
57285,1,55335,0,50878,54915,50782.38,54702.10,95.62,212.90,0.300271,100.00,1
57325,1,55375,0,50881,54930,50782.58,54702.55,98.42,227.45,0.300423,100.00,1
57365,1,55415,0,50886,54950,50782.79,54703.05,103.21,246.95,0.300578,100.00,1
57405,1,55455,0,50896,54965,50783.02,54703.57,112.98,261.43,0.300738,100.00,1
57446,1,55496,0,50901,54990,50783.25,54704.15,117.75,285.85,0.300903,100.00,1
57486,1,55536,0,50907,55015,50783.50,54704.77,123.50,310.23,0.301072,100.00,1
57526,1,55576,0,50918,55039,50783.77,54705.44,134.23,333.56,0.301246,100.00,1
57566,1,55616,0,50920,55057,50784.05,54706.14,135.95,350.86,0.301424,100.00,1
57606,1,55656,0,50926,55074,50784.33,54706.88,141.67,367.12,0.301606,100.00,1
57646,1,55696,0,50930,55088,50784.62,54707.64,145.37,380.36,0.301792,100.00,1
57686,1,55736,0,50935,55091,50784.93,54708.41,150.07,382.59,0.301982,100.00,1
57726,1,55776,0,50916,54990,50785.19,54708.98,130.81,281.02,0.302179,100.00,1
57766,1,55816,0,50853,54894,50785.32,54709.35,67.68,184.65,0.302376,100.00,1
57806,1,55856,0,50828,54876,50785.41,54709.69,42.59,166.31,0.302570,100.00,1
57846,1,55896,0,50829,54890,50785.50,54710.05,43.50,179.95,0.302763,100.00,1
57886,1,55936,0,50840,54900,50785.61,54710.43,54.39,189.57,0.302954,100.00,1
57926,1,55976,0,50842,54908,50785.72,54710.83,56.28,197.17,0.303143,100.00,1
57966,1,56016,0,50843,54913,50785.84,54711.24,57.16,201.76,0.303331,100.00,1
58006,1,56056,0,50848,54919,50785.96,54711.66,62.04,207.34,0.303516,100.00,1
58046,1,56096,0,50842,54922,50786.08,54712.08,55.92,209.92,0.303700,100.00,1
58086,1,56136,0,50843,54932,50786.19,54712.52,56.81,219.48,0.303881,100.00,1
58126,1,56176,0,50851,54955,50786.32,54713.01,64.68,241.99,0.304059,100.00,1
58166,1,56216,0,50856,54970,50786.46,54713.52,69.54,256.48,0.304234,100.00,1
58206,1,56256,0,50865,54995,50786.62,54714.09,78.37,280.91,0.304407,100.00,1
58246,1,56296,0,50873,55013,50786.80,54714.68,86.20,298.32,0.304576,100.00,1
58286,1,56336,0,50874,55030,50786.98,54715.32,87.02,314.68,0.304742,100.00,1
58326,1,56376,0,50880,55047,50787.16,54715.98,92.84,331.02,0.304904,100.00,1
58366,1,56416,0,50881,55049,50787.35,54716.65,93.65,332.35,0.305063,100.00,1
58407,1,56457,0,50863,54942,50787.50,54717.10,75.50,224.90,0.305221,100.00,1
58447,1,56497,0,50796,54853,50787.52,54717.37,8.48,135.62,0.305377,100.00,1
58487,1,56537,0,50778,54847,50787.50,54717.64,-9.50,129.36,0.305531,100.00,1
58527,1,56577,0,50781,54869,50787.49,54717.94,-6.49,151.06,0.305683,100.00,1
58567,1,56617,0,50789,54885,50787.50,54718.28,1.50,166.72,0.305831,100.00,1
58607,1,56657,0,50790,54889,50787.50,54718.62,2.50,170.38,0.305976,100.00,1
58647,1,56697,0,50799,54913,50787.53,54719.01,11.47,193.99,0.306117,100.00,1
58687,1,56737,0,50807,54925,50787.57,54719.43,19.43,205.57,0.306254,100.00,1
58727,1,56777,0,50805,54936,50787.60,54719.86,17.40,216.14,0.306386,100.00,1
58767,1,56817,0,50810,54963,50787.65,54720.35,22.35,242.65,0.306512,100.00,1
58807,1,56857,0,50817,54983,50787.71,54720.87,29.29,262.12,0.306632,100.00,1
58847,1,56897,0,50834,55013,50787.80,54721.46,46.20,291.54,0.306746,100.00,1
58887,1,56937,0,50847,55034,50787.92,54722.09,59.08,311.91,0.306853,100.00,1
58927,1,56977,0,50856,55056,50788.06,54722.75,67.94,333.25,0.306954,100.00,1
58967,1,57017,0,50857,55071,50788.20,54723.45,68.80,347.55,0.307047,100.00,1
59007,1,57057,0,50863,55096,50788.35,54724.20,74.65,371.80,0.307134,100.00,1
59047,1,57097,0,50867,55103,50788.51,54724.96,78.49,378.04,0.307213,100.00,1
59087,1,57137,0,50859,55028,50788.65,54725.57,70.35,302.43,0.307288,100.00,1
59127,1,57177,0,50802,54909,50788.68,54725.93,13.32,183.07,0.307360,100.00,1
59167,1,57217,0,50769,54884,50788.64,54726.25,-19.64,157.75,0.307430,100.00,1
59207,1,57257,0,50767,54887,50788.60,54726.57,-21.60,160.43,0.307499,100.00,1
59247,1,57297,0,50767,54899,50788.55,54726.92,-21.55,172.08,0.307565,100.00,1
59287,1,57337,0,50768,54909,50788.52,54727.29,-20.52,181.71,0.307628,100.00,1
59327,1,57377,0,50771,54923,50788.48,54727.68,-17.48,195.32,0.307688,100.00,1
59368,1,57418,0,50773,54936,50788.45,54728.10,-15.45,207.90,0.307744,100.00,1
59408,1,57458,0,50782,54947,50788.44,54728.54,-6.44,218.46,0.307796,100.00,1
59448,1,57498,0,50783,54962,50788.43,54729.01,-5.43,232.99,0.307843,100.00,1
59488,1,57538,0,50783,54984,50788.42,54729.52,-5.42,254.48,0.307885,100.00,1
59528,1,57578,0,50791,55013,50788.43,54730.09,2.57,282.91,0.307919,100.00,1
59568,1,57618,0,50805,55037,50788.46,54730.71,16.54,306.29,0.307946,100.00,1
59608,1,57658,0,50817,55054,50788.52,54731.36,28.48,322.64,0.307965,100.00,1
59648,1,57698,0,50826,55090,50788.60,54732.07,37.40,357.93,0.307974,100.00,1
59688,1,57738,0,50835,55109,50788.70,54732.83,46.30,376.17,0.307975,100.00,1
59728,1,57778,0,50841,55133,50788.80,54733.63,52.20,399.37,0.307965,100.00,1
59768,1,57818,0,50848,55118,50788.92,54734.40,59.08,383.60,0.307948,100.00,1
59808,1,57858,0,50813,54989,50788.97,54734.91,24.03,254.09,0.307926,100.00,1
59848,1,57898,0,50761,54897,50788.92,54735.23,-27.92,161.77,0.307904,100.00,1
59888,1,57938,0,50745,54891,50788.83,54735.55,-43.83,155.45,0.307881,100.00,1
59928,1,57978,0,50749,54900,50788.75,54735.88,-39.75,164.12,0.307858,100.00,1
59968,1,58018,0,50752,54908,50788.68,54736.22,-36.68,171.78,0.307835,100.00,1
60008,1,58058,0,50755,54914,50788.62,54736.58,-33.62,177.42,0.307810,100.00,1
60048,1,58098,0,50759,54934,50788.56,54736.97,-29.56,197.03,0.307783,100.00,1
60088,1,58138,0,50773,54942,50788.53,54737.38,-15.53,204.62,0.307753,100.00,1
60128,1,58178,0,50775,54947,50788.50,54737.80,-13.50,209.20,0.307720,100.00,1
60168,1,58218,0,50778,54969,50788.48,54738.27,-10.48,230.73,0.307683,100.00,1
60208,1,58258,0,50785,54994,50788.48,54738.78,-3.48,255.22,0.307641,100.00,1
60248,1,58298,0,50801,55027,50788.50,54739.36,12.50,287.64,0.307594,100.00,1
60288,1,58338,0,50815,55057,50788.56,54740.00,26.44,317.00,0.307540,100.00,1
60329,1,58379,0,50825,55080,50788.63,54740.68,36.37,339.32,0.307479,100.00,1
60369,1,58419,0,50836,55105,50788.73,54741.41,47.27,363.59,0.307411,100.00,1
60409,1,58459,0,50844,55129,50788.84,54742.18,55.16,386.82,0.307336,100.00,1
60449,1,58499,0,50852,55156,50788.97,54743.01,63.03,412.99,0.307253,100.00,1
60489,1,58539,0,50860,55134,50789.12,54743.80,70.88,390.20,0.307166,100.00,1
60529,1,58579,0,50819,54998,50789.18,54744.31,29.82,253.69,0.307075,100.00,1
60569,1,58619,0,50760,54913,50789.12,54744.65,-29.12,168.35,0.306984,100.00,1
60609,1,58659,0,50755,54924,50789.05,54745.01,-34.05,178.99,0.306892,100.00,1
60649,1,58699,0,50767,54938,50789.01,54745.39,-22.01,192.61,0.306798,100.00,1
60689,1,58739,0,50772,54946,50788.98,54745.80,-16.98,200.20,0.306702,100.00,1
60729,1,58779,0,50781,54959,50788.96,54746.23,-7.96,212.77,0.306604,100.00,1
60769,1,58819,0,50787,54971,50788.96,54746.68,-1.96,224.32,0.306502,100.00,1
60809,1,58859,0,50794,54966,50788.97,54747.12,5.03,218.88,0.306398,100.00,1
60849,1,58899,0,50791,54970,50788.98,54747.56,2.02,222.44,0.306291,100.00,1
60889,1,58939,0,50801,54977,50789.00,54748.02,12.00,228.98,0.306180,100.00,1
60929,1,58979,0,50800,54988,50789.02,54748.50,10.98,239.50,0.306067,100.00,1
60969,1,59019,0,50804,55002,50789.05,54749.01,14.95,252.99,0.305950,100.00,1
61009,1,59059,0,50807,55018,50789.09,54749.55,17.91,268.45,0.305829,100.00,1
61049,1,59099,0,50817,55025,50789.15,54750.10,27.85,274.90,0.305704,100.00,1
61089,1,59139,0,50817,55029,50789.21,54750.66,27.79,278.34,0.305575,100.00,1
61129,1,59179,0,50819,55037,50789.27,54751.23,29.73,285.77,0.305443,100.00,1
61169,1,59219,0,50818,55042,50789.33,54751.82,28.67,290.18,0.305306,100.00,1
61209,1,59259,0,50811,54983,50789.37,54752.28,21.62,230.72,0.305167,100.00,1
61249,1,59299,0,50753,54842,50789.30,54752.46,-36.30,89.54,0.305030,100.00,1
61290,1,59340,0,50704,54778,50789.14,54752.51,-85.14,25.49,0.304901,100.00,1
61330,1,59380,0,50699,54778,50788.96,54752.56,-89.96,25.44,0.304781,100.00,1
61370,1,59420,0,50702,54788,50788.79,54752.64,-86.79,35.36,0.304669,100.00,1
61410,1,59460,0,50705,54793,50788.62,54752.72,-83.62,40.28,0.304565,100.00,1
61450,1,59500,0,50710,54803,50788.46,54752.82,-78.46,50.18,0.304469,100.00,1
61490,1,59540,0,50718,54801,50788.32,54752.92,-70.32,48.08,0.304377,100.00,1
61530,1,59580,0,50714,54797,50788.17,54753.01,-74.17,43.99,0.304292,100.00,1
61570,1,59620,0,50714,54808,50788.02,54753.12,-74.02,54.88,0.304213,100.00,1
61610,1,59660,0,50719,54816,50787.89,54753.25,-68.89,62.75,0.304139,100.00,1
61650,1,59700,0,50731,54845,50787.77,54753.43,-56.77,91.57,0.304069,100.00,1
61690,1,59740,0,50744,54865,50787.69,54753.66,-43.69,111.34,0.304000,100.00,1
61730,1,59780,0,50756,54876,50787.62,54753.90,-31.62,122.10,0.303930,100.00,1
61770,1,59820,0,50760,54889,50787.57,54754.18,-27.57,134.82,0.303861,100.00,1
61810,1,59860,0,50769,54906,50787.54,54754.48,-18.54,151.52,0.303791,100.00,1
61850,1,59900,0,50772,54917,50787.50,54754.81,-15.50,162.19,0.303719,100.00,1
61890,1,59940,0,50772,54883,50787.47,54755.07,-15.47,127.93,0.303646,100.00,1
61930,1,59980,0,50725,54745,50787.35,54755.05,-62.35,-10.05,0.303578,100.00,1
61970,1,60020,1,50678,54674,50787.13,54754.89,-109.13,-80.89,0.303523,100.00,1
62010,1,60060,1,50672,54679,50786.90,54754.74,-114.90,-75.74,0.303483,100.00,1
62050,1,60100,1,50684,54690,50786.70,54754.61,-102.70,-64.61,0.303456,100.00,1
62090,1,60140,1,50688,54699,50786.50,54754.50,-98.50,-55.50,0.303439,100.00,1
62130,1,60180,1,50695,54712,50786.32,54754.42,-91.32,-42.42,0.303431,100.00,1
62170,1,60220,1,50702,54720,50786.15,54754.35,-84.15,-34.35,0.303432,100.00,1
62211,1,60261,1,50711,54728,50786.00,54754.30,-75.00,-26.30,0.303439,100.00,1
62251,1,60301,1,50714,54732,50785.86,54754.26,-71.86,-22.26,0.303452,100.00,1
62291,1,60341,1,50722,54756,50785.73,54754.26,-63.73,1.74,0.303469,100.00,1
62331,1,60381,1,50732,54779,50785.62,54754.31,-53.63,24.69,0.303490,100.00,1
62371,1,60421,1,50741,54813,50785.54,54754.43,-44.54,58.57,0.303512,100.00,1
62411,1,60461,1,50756,54838,50785.48,54754.60,-29.48,83.40,0.303535,100.00,1
62451,1,60501,1,50774,54864,50785.45,54754.82,-11.45,109.18,0.303557,100.00,1
62491,1,60541,1,50789,54897,50785.46,54755.10,3.54,141.90,0.303577,100.00,1
62531,1,60581,1,50797,54905,50785.48,54755.40,11.52,149.60,0.303594,100.00,1
62571,1,60621,1,50792,54833,50785.50,54755.56,6.50,77.44,0.303612,100.00,1
62611,1,60661,1,50737,54692,50785.41,54755.43,-48.41,-63.43,0.303631,100.00,1
62651,1,60701,1,50696,54647,50785.23,54755.22,-89.23,-108.22,0.303659,100.00,1
62691,1,60741,1,50696,54646,50785.05,54755.00,-89.05,-109.00,0.303695,100.00,1
62731,1,60781,1,50717,54678,50784.92,54754.85,-67.92,-76.85,0.303737,100.00,1
62771,1,60821,1,50730,54681,50784.81,54754.70,-54.81,-73.70,0.303781,100.00,1
62811,1,60861,1,50752,54731,50784.75,54754.66,-32.75,-23.66,0.303826,100.00,1
62851,1,60901,1,50774,54753,50784.73,54754.66,-10.73,-1.66,0.303872,100.00,1
62891,1,60941,1,50785,54771,50784.73,54754.69,0.27,16.31,0.303917,100.00,1
62931,1,60981,1,50800,54802,50784.76,54754.79,15.24,47.21,0.303962,100.00,1
62971,1,61021,1,50812,54827,50784.81,54754.93,27.19,72.07,0.304008,100.00,1
63011,1,61061,1,50831,54883,50784.91,54755.19,46.09,127.81,0.304054,100.00,1
63051,1,61101,1,50872,54940,50785.08,54755.56,86.92,184.44,0.304106,100.00,1
63091,1,61141,1,50881,54970,50785.27,54755.99,95.73,214.01,0.304164,100.00,1
63131,1,61181,1,50907,55041,50785.52,54756.56,121.48,284.44,0.304232,100.00,1
63171,1,61221,1,50934,55082,50785.82,54757.21,148.18,324.79,0.304314,100.00,1
63212,1,61262,1,50949,55113,50786.14,54757.93,162.86,355.07,0.304414,100.00,1
63252,1,61302,1,50967,55037,50786.51,54758.49,180.49,278.51,0.304542,100.00,1
63292,1,61342,1,50894,54882,50786.72,54758.74,107.28,123.26,0.304681,100.00,1
63332,1,61382,1,50850,54830,50786.85,54758.88,63.15,71.12,0.304823,100.00,1
63372,1,61422,1,50852,54848,50786.98,54759.06,65.02,88.94,0.304969,100.00,1
63412,1,61462,1,50871,54858,50787.15,54759.26,83.85,98.74,0.305121,100.00,1
63452,1,61502,1,50881,54875,50787.34,54759.50,93.66,115.50,0.305281,100.00,1
63492,1,61542,1,50897,54909,50787.56,54759.80,109.44,149.20,0.305452,100.00,1
63532,1,61582,1,50916,54924,50787.82,54760.12,128.18,163.87,0.305637,100.00,1
63572,1,61622,1,50918,54951,50788.08,54760.51,129.92,190.49,0.305836,100.00,1
63612,1,61662,1,50941,54961,50788.39,54760.91,152.61,200.09,0.306055,100.00,1
63652,1,61702,1,50943,54979,50788.70,54761.35,154.30,217.65,0.306292,100.00,1
63692,1,61742,1,50964,54999,50789.05,54761.82,174.95,237.18,0.306554,100.00,1
63732,1,61782,1,50979,55015,50789.43,54762.33,189.57,252.67,0.306843,100.00,1
63772,1,61822,1,50985,55010,50789.82,54762.83,195.18,247.17,0.307160,100.00,1
63812,1,61862,1,50988,55045,50790.22,54763.39,197.78,281.61,0.307504,100.00,1
63852,1,61902,1,51001,55044,50790.64,54763.96,210.36,280.04,0.307876,100.00,1
63892,1,61942,1,51004,55023,50791.07,54764.48,212.93,258.52,0.308279,100.00,1
63932,1,61982,1,50955,54841,50791.40,54764.63,163.60,76.37,0.308705,100.00,1
63972,1,62022,1,50880,54721,50791.58,54764.55,88.42,-43.55,0.309135,100.00,1
64012,1,62062,1,50857,54704,50791.71,54764.43,65.29,-60.43,0.309568,100.00,1
64052,1,62102,1,50863,54732,50791.86,54764.36,71.14,-32.36,0.310004,100.00,1
64092,1,62142,1,50870,54728,50792.01,54764.29,77.99,-36.29,0.310443,100.00,1
64132,1,62182,1,50878,54758,50792.18,54764.28,85.82,-6.28,0.310889,100.00,1
64173,1,62223,1,50887,54773,50792.37,54764.30,94.62,8.70,0.311341,100.00,1
64213,1,62263,1,50892,54781,50792.57,54764.34,99.43,16.66,0.311801,100.00,1
64253,1,62303,1,50906,54805,50792.80,54764.42,113.20,40.58,0.312271,100.00,1
