t_ms,trial_id,t_trial_ms,phase,red_raw,ir_raw,red_dc,ir_dc,red_ac,ir_ac,R,spo2,spo2_valid
136138,1,0,0,54302,56795,53685.30,55762.51,616.70,1032.49,0.848138,88.66,1
136178,1,40,0,54265,56754,53686.46,55764.49,578.54,989.51,0.847867,88.66,1
136218,1,80,0,54261,56758,53687.62,55766.48,573.38,991.52,0.847593,88.67,1
136258,1,120,0,54262,56760,53688.77,55768.47,573.23,991.53,0.847315,88.67,1
136298,1,160,0,54260,56755,53689.91,55770.44,570.09,984.56,0.847033,88.68,1
136338,1,200,0,54253,56773,53691.04,55772.45,561.96,1000.55,0.846747,88.68,1
136378,1,240,0,54260,56788,53692.18,55774.48,567.82,1013.52,0.846456,88.69,1
136418,1,280,0,54271,56797,53693.34,55776.53,577.66,1020.47,0.846161,88.69,1
136458,1,320,0,54273,56804,53694.50,55778.58,578.50,1025.42,0.845861,88.70,1
136498,1,360,0,54269,56819,53695.65,55780.66,573.35,1038.34,0.845557,88.70,1
136538,1,400,0,54274,56830,53696.80,55782.77,577.20,1047.23,0.845248,88.71,1
136578,1,440,0,54272,56842,53697.96,55784.89,574.04,1057.11,0.844934,88.71,1
136618,1,480,0,54275,56848,53699.11,55787.02,575.89,1060.98,0.844614,88.72,1
136658,1,520,0,54278,56861,53700.27,55789.16,577.73,1071.84,0.844290,88.72,1
136699,1,561,0,54281,56864,53701.44,55791.32,579.56,1072.68,0.843961,88.73,1
136739,1,601,0,54277,56876,53702.59,55793.49,574.41,1082.51,0.843626,88.73,1
136779,1,641,0,54274,56877,53703.73,55795.66,570.27,1081.34,0.843286,88.74,1
136819,1,681,0,54258,56818,53704.84,55797.70,553.16,1020.30,0.842941,88.74,1
136859,1,721,0,54223,56780,53705.88,55799.67,517.12,980.33,0.842593,88.75,1
136899,1,761,0,54212,56793,53706.89,55801.66,505.11,991.34,0.842240,88.76,1
136939,1,801,0,54220,56806,53707.92,55803.67,512.08,1002.33,0.841883,88.76,1
136979,1,841,0,54226,56812,53708.96,55805.69,517.04,1006.31,0.841521,88.77,1
137019,1,881,0,54222,56823,53709.99,55807.72,512.01,1015.28,0.841154,88.77,1
137059,1,921,0,54228,56837,53711.03,55809.78,516.97,1027.22,0.840782,88.78,1
137099,1,961,0,54228,56840,53712.06,55811.84,515.94,1028.16,0.840406,88.79,1
137139,1,1001,0,54227,56852,53713.09,55813.93,513.91,1038.07,0.840024,88.79,1
137179,1,1041,0,54233,56872,53714.14,55816.04,518.86,1055.96,0.839637,88.80,1
137219,1,1081,0,54246,56894,53715.20,55818.20,530.80,1075.80,0.839245,88.81,1
137259,1,1121,0,54252,56915,53716.28,55820.39,535.72,1094.61,0.838847,88.81,1
137299,1,1161,0,54261,56932,53717.37,55822.62,543.63,1109.38,0.838444,88.82,1
137339,1,1201,0,54263,56944,53718.46,55824.87,544.54,1119.13,0.838035,88.83,1
137379,1,1241,0,54268,56956,53719.56,55827.13,548.44,1128.87,0.837619,88.83,1
137419,1,1281,0,54270,56983,53720.66,55829.45,549.34,1153.55,0.837198,88.84,1
137459,1,1321,0,54277,56985,53721.78,55831.76,555.22,1153.24,0.836771,88.85,1
137499,1,1361,0,54253,56928,53722.84,55833.95,530.16,1094.05,0.836338,88.85,1
137539,1,1401,0,54225,56897,53723.84,55836.08,501.16,1060.92,0.835901,88.86,1
137579,1,1441,0,54222,56904,53724.84,55838.22,497.16,1065.78,0.835459,88.87,1
137619,1,1481,0,54229,56919,53725.85,55840.38,503.15,1078.62,0.835011,88.88,1
137659,1,1521,0,54230,56938,53726.86,55842.58,503.14,1095.42,0.834558,88.89,1
137699,1,1561,0,54236,56966,53727.87,55844.83,508.12,1121.17,0.834099,88.89,1
137739,1,1601,0,54248,56999,53728.92,55847.14,519.08,1151.86,0.833634,88.90,1
137779,1,1641,0,54257,57020,53729.98,55849.48,527.02,1170.52,0.833163,88.91,1
137820,1,1682,0,54263,57033,53731.04,55851.85,531.96,1181.15,0.832685,88.92,1
137860,1,1722,0,54268,57050,53732.12,55854.25,535.88,1195.75,0.832201,88.93,1
137900,1,1762,0,54271,57065,53733.20,55856.67,537.80,1208.33,0.831711,88.93,1
137940,1,1802,0,54276,57083,53734.28,55859.12,541.72,1223.88,0.831213,88.94,1
137980,1,1842,0,54280,57105,53735.37,55861.62,544.62,1243.38,0.830709,88.95,1
138020,1,1882,0,54285,57123,53736.48,55864.14,548.52,1258.86,0.830198,88.96,1
138060,1,1922,0,54288,57143,53737.58,55866.70,550.42,1276.30,0.829680,88.97,1
138100,1,1962,0,54297,57168,53738.70,55869.30,558.30,1298.70,0.829154,88.98,1
138140,1,2002,0,54310,57177,53739.85,55871.92,570.15,1305.08,0.828621,88.99,1
138180,1,2042,0,54288,57123,53740.95,55874.43,547.05,1248.57,0.828082,89.00,1
138220,1,2082,0,54266,57113,53742.00,55876.91,524.00,1236.09,0.827536,89.01,1
138260,1,2122,0,54267,57131,53743.05,55879.41,523.95,1251.59,0.826985,89.02,1
138300,1,2162,0,54276,57141,53744.11,55881.94,531.89,1259.06,0.826426,89.03,1
138340,1,2202,0,54282,57148,53745.19,55884.47,536.81,1263.53,0.825862,89.04,1
138380,1,2242,0,54286,57169,53746.27,55887.04,539.73,1281.96,0.825292,89.05,1
138420,1,2282,0,54295,57190,53747.37,55889.65,547.63,1300.35,0.824715,89.06,1
138460,1,2322,0,54299,57204,53748.48,55892.28,550.52,1311.72,0.824131,89.07,1
138500,1,2362,0,54304,57228,53749.59,55894.95,554.41,1333.05,0.823541,89.08,1
138540,1,2402,0,54312,57262,53750.71,55897.68,561.29,1364.32,0.822944,89.09,1
138580,1,2442,0,54323,57288,53751.86,55900.46,571.14,1387.54,0.822340,89.10,1
138620,1,2482,0,54332,57315,53753.02,55903.30,578.98,1411.70,0.821728,89.11,1
138660,1,2522,0,54345,57344,53754.20,55906.18,590.80,1437.82,0.821110,89.12,1
138700,1,2562,0,54355,57371,53755.41,55909.11,599.59,1461.89,0.820484,89.13,1
138740,1,2602,0,54363,57397,53756.62,55912.09,606.38,1484.91,0.819850,89.14,1
138780,1,2642,0,54367,57417,53757.84,55915.10,609.16,1501.90,0.819208,89.15,1
138820,1,2682,0,54373,57427,53759.07,55918.12,613.93,1508.88,0.818560,89.16,1
138860,1,2722,0,54368,57399,53760.29,55921.09,607.71,1477.91,0.817904,89.18,1
138900,1,2762,0,54338,57350,53761.45,55923.95,576.55,1426.05,0.817243,89.19,1
138941,1,2803,0,54320,57346,53762.57,55926.79,557.43,1419.21,0.816575,89.20,1
138981,1,2843,0,54324,57360,53763.69,55929.66,560.31,1430.34,0.815901,89.21,1
139021,1,2883,0,54328,57373,53764.82,55932.54,563.18,1440.46,0.815221,89.22,1
139061,1,2923,0,54330,57377,53765.95,55935.43,564.05,1441.57,0.814535,89.24,1
139101,1,2963,0,54331,57401,53767.09,55938.37,563.91,1462.63,0.813843,89.25,1
139141,1,3003,0,54335,57415,53768.22,55941.32,566.78,1473.68,0.813145,89.26,1
139181,1,3043,0,54334,57421,53769.36,55944.28,564.64,1476.72,0.812440,89.27,1
139221,1,3083,0,54340,57428,53770.50,55947.25,569.50,1480.75,0.811729,89.29,1
139261,1,3123,0,54342,57436,53771.64,55950.23,570.36,1485.77,0.811013,89.30,1
139301,1,3163,0,54338,57444,53772.78,55953.22,565.22,1490.78,0.810291,89.31,1
139341,1,3203,0,54340,57458,53773.91,55956.23,566.09,1501.77,0.809562,89.33,1
139381,1,3243,0,54344,57471,53775.05,55959.26,568.95,1511.74,0.808828,89.34,1
139421,1,3283,0,54348,57481,53776.20,55962.31,571.80,1518.69,0.808089,89.35,1
139461,1,3323,0,54350,57483,53777.35,55965.35,572.65,1517.65,0.807344,89.37,1
139501,1,3363,0,54351,57497,53778.50,55968.42,572.50,1528.58,0.806593,89.38,1
139541,1,3403,0,54355,57506,53779.66,55971.50,575.34,1534.50,0.805837,89.40,1
139581,1,3443,0,54352,57491,53780.80,55974.54,571.20,1516.46,0.805076,89.41,1
139621,1,3483,0,54325,57426,53781.89,55977.44,543.11,1448.56,0.804311,89.43,1
139661,1,3523,0,54296,57400,53782.92,55980.29,513.08,1419.71,0.803542,89.44,1
139701,1,3563,0,54285,57387,53783.93,55983.11,501.07,1403.89,0.802768,89.45,1
139741,1,3603,0,54279,57382,53784.92,55985.91,494.08,1396.09,0.801990,89.47,1
139781,1,3643,0,54273,57365,53785.89,55988.66,487.11,1376.34,0.801209,89.48,1
139821,1,3683,0,54264,57371,53786.85,55991.43,477.15,1379.57,0.800423,89.50,1
139861,1,3723,0,54266,57370,53787.81,55994.19,478.19,1375.81,0.799634,89.51,1
139901,1,3763,0,54256,57366,53788.75,55996.93,467.25,1369.07,0.798841,89.53,1
139941,1,3803,0,54247,57358,53789.67,55999.66,457.33,1358.34,0.798044,89.55,1
139981,1,3843,0,54239,57346,53790.57,56002.35,448.43,1343.65,0.797244,89.56,1
140022,1,3884,0,54233,57351,53791.45,56005.05,441.55,1345.95,0.796440,89.58,1
140062,1,3924,0,54233,57349,53792.34,56007.74,440.66,1341.26,0.795632,89.59,1
140102,1,3964,0,54228,57350,53793.21,56010.43,434.79,1339.57,0.794821,89.61,1
140142,1,4004,0,54223,57347,53794.07,56013.10,428.93,1333.90,0.794006,89.63,1
140182,1,4044,0,54212,57353,53794.90,56015.78,417.10,1337.22,0.793188,89.64,1
140222,1,4084,0,54211,57364,53795.73,56018.48,415.27,1345.52,0.792365,89.66,1
140262,1,4124,0,54211,57379,53796.57,56021.20,414.43,1357.80,0.791539,89.67,1
140302,1,4164,0,54214,57384,53797.40,56023.93,416.60,1360.07,0.790710,89.69,1
140342,1,4204,0,54210,57347,53798.23,56026.58,411.77,1320.42,0.789877,89.71,1
140382,1,4244,0,54183,57322,53799.00,56029.17,384.00,1292.83,0.789040,89.73,1
140422,1,4284,0,54178,57336,53799.76,56031.79,378.24,1304.21,0.788201,89.74,1
140462,1,4324,0,54182,57349,53800.52,56034.42,381.48,1314.58,0.787357,89.76,1
140502,1,4364,0,54181,57360,53801.29,56037.07,379.71,1322.93,0.786511,89.78,1
140542,1,4404,0,54185,57382,53802.05,56039.77,382.95,1342.23,0.785660,89.79,1
140582,1,4444,0,54201,57403,53802.86,56042.49,398.14,1360.51,0.784806,89.81,1
140622,1,4484,0,54209,57421,53803.67,56045.25,405.33,1375.75,0.783949,89.83,1
140662,1,4524,0,54212,57435,53804.48,56048.03,407.52,1386.97,0.783088,89.85,1
140702,1,4564,0,54221,57455,53805.32,56050.85,415.68,1404.15,0.782223,89.87,1
140742,1,4604,0,54225,57477,53806.16,56053.70,418.84,1423.30,0.781355,89.88,1
140782,1,4644,0,54229,57494,53807.01,56056.59,421.99,1437.41,0.780482,89.90,1
140822,1,4684,0,54232,57516,53807.86,56059.51,424.14,1456.49,0.779606,89.92,1
140862,1,4724,0,54238,57539,53808.72,56062.47,429.28,1476.53,0.778726,89.94,1
140902,1,4764,0,54250,57563,53809.61,56065.47,440.39,1497.53,0.777842,89.96,1
140942,1,4804,0,54257,57589,53810.50,56068.52,446.50,1520.48,0.776954,89.98,1
140982,1,4844,0,54266,57615,53811.41,56071.61,454.59,1543.39,0.776061,89.99,1
141022,1,4884,0,54274,57605,53812.34,56074.68,461.66,1530.32,0.775165,90.01,1
141062,1,4924,0,54245,57552,53813.21,56077.64,431.79,1474.36,0.774266,90.03,1
141102,1,4964,0,54232,57573,53814.05,56080.63,417.95,1492.37,0.773363,90.05,1
141142,1,5004,0,54243,57593,53814.91,56083.66,428.09,1509.34,0.772456,90.07,1
141183,1,5045,0,54245,57601,53815.77,56086.69,429.23,1514.31,0.771546,90.09,1
141223,1,5085,0,54245,57597,53816.63,56089.71,428.37,1507.29,0.770632,90.11,1
141263,1,5125,0,54241,57605,53817.48,56092.75,423.52,1512.25,0.769715,90.13,1
141303,1,5165,0,54242,57625,53818.33,56095.81,423.67,1529.19,0.768794,90.15,1
141343,1,5205,0,54238,57639,53819.17,56098.90,418.83,1540.10,0.767869,90.17,1
141383,1,5245,0,54246,57649,53820.03,56102.00,425.97,1547.00,0.766940,90.19,1
141423,1,5285,0,54246,57640,53820.88,56105.08,425.12,1534.92,0.766009,90.21,1
141463,1,5325,0,54244,57663,53821.73,56108.20,422.27,1554.80,0.765073,90.23,1
141503,1,5365,0,54250,57675,53822.59,56111.33,427.41,1563.67,0.764135,90.25,1
141543,1,5405,0,54253,57710,53823.45,56114.53,429.55,1595.47,0.763192,90.27,1
141583,1,5445,0,54262,57735,53824.33,56117.77,437.67,1617.23,0.762246,90.29,1
141623,1,5485,0,54274,57767,53825.23,56121.07,448.77,1645.93,0.761296,90.31,1
141663,1,5525,0,54288,57796,53826.16,56124.43,461.84,1671.57,0.760342,90.33,1
141703,1,5565,0,54297,57812,53827.10,56127.80,469.90,1684.20,0.759385,90.35,1
141743,1,5605,0,54308,57813,53828.06,56131.17,479.94,1681.83,0.758424,90.37,1
141783,1,5645,0,54286,57750,53828.98,56134.41,457.02,1615.59,0.757461,90.39,1
141823,1,5685,0,54261,57731,53829.85,56137.61,431.15,1593.39,0.756495,90.41,1
141863,1,5725,0,54258,57746,53830.71,56140.82,427.29,1605.18,0.755526,90.43,1
141903,1,5765,0,54262,57753,53831.57,56144.05,430.43,1608.95,0.754554,90.45,1
141943,1,5805,0,54260,57760,53832.43,56147.29,427.57,1612.71,0.753579,90.47,1
141983,1,5845,0,54259,57768,53833.29,56150.53,425.71,1617.47,0.752602,90.50,1
142023,1,5885,0,54267,57770,53834.15,56153.77,432.85,1616.23,0.751621,90.52,1
142063,1,5925,0,54265,57776,53835.02,56157.02,429.98,1618.98,0.750639,90.54,1
142103,1,5965,0,54262,57785,53835.87,56160.27,426.13,1624.73,0.749653,90.56,1
142143,1,6005,0,54262,57791,53836.73,56163.54,425.27,1627.46,0.748665,90.58,1
142183,1,6045,0,54263,57804,53837.58,56166.82,425.42,1637.18,0.747675,90.60,1
142223,1,6085,0,54265,57809,53838.44,56170.10,426.56,1638.90,0.746682,90.63,1
142263,1,6125,0,54262,57813,53839.29,56173.39,422.71,1639.61,0.745686,90.65,1
142304,1,6166,0,54259,57823,53840.12,56176.69,418.87,1646.31,0.744688,90.67,1
142344,1,6206,0,54251,57812,53840.95,56179.96,410.05,1632.04,0.743688,90.69,1
142384,1,6246,0,54246,57809,53841.76,56183.22,404.24,1625.78,0.742685,90.71,1
142424,1,6286,0,54248,57820,53842.57,56186.50,405.43,1633.50,0.741680,90.74,1
142464,1,6326,0,54239,57812,53843.37,56189.75,395.63,1622.25,0.740672,90.76,1
142504,1,6366,0,54214,57741,53844.11,56192.86,369.89,1548.14,0.739663,90.78,1
142544,1,6406,0,54180,57694,53844.78,56195.86,335.22,1498.14,0.738652,90.80,1
142584,1,6446,0,54171,57690,53845.43,56198.85,325.57,1491.15,0.737638,90.83,1
142624,1,6486,0,54169,57684,53846.08,56201.82,322.92,1482.18,0.736623,90.85,1
142664,1,6526,0,54164,57685,53846.72,56204.79,317.28,1480.21,0.735607,90.87,1
142704,1,6566,0,54162,57695,53847.35,56207.77,314.65,1487.23,0.734588,90.90,1
142744,1,6606,0,54163,57702,53847.98,56210.76,315.02,1491.24,0.733568,90.92,1
142784,1,6646,0,54161,57707,53848.61,56213.75,312.39,1493.25,0.732546,90.94,1
142824,1,6686,0,54161,57711,53849.24,56216.75,311.76,1494.25,0.731522,90.96,1
142864,1,6726,0,54165,57726,53849.87,56219.77,315.13,1506.23,0.730496,90.99,1
142904,1,6766,0,54171,57745,53850.52,56222.82,320.48,1522.18,0.729468,91.01,1
142944,1,6806,0,54177,57755,53851.17,56225.88,325.83,1529.12,0.728439,91.03,1
142984,1,6846,0,54182,57765,53851.84,56228.96,330.16,1536.04,0.727408,91.06,1
143024,1,6886,0,54176,57767,53852.48,56232.04,323.52,1534.96,0.726375,91.08,1
143064,1,6926,0,54172,57770,53853.12,56235.12,318.87,1534.88,0.725340,91.10,1
143104,1,6966,0,54174,57787,53853.77,56238.22,320.23,1548.78,0.724304,91.13,1
143144,1,7006,0,54181,57784,53854.43,56241.32,326.57,1542.68,0.723266,91.15,1
143184,1,7046,0,54166,57721,53855.05,56244.28,310.95,1476.72,0.722227,91.18,1
143224,1,7086,0,54128,57683,53855.60,56247.16,272.40,1435.84,0.721187,91.20,1
143264,1,7126,0,54115,57685,53856.12,56250.04,258.88,1434.96,0.720145,91.22,1
143304,1,7166,0,54115,57693,53856.64,56252.92,258.36,1440.08,0.719102,91.25,1
143344,1,7206,0,54118,57698,53857.16,56255.81,260.84,1442.19,0.718058,91.27,1
143385,1,7247,0,54119,57708,53857.68,56258.72,261.32,1449.28,0.717012,91.30,1
143425,1,7287,0,54121,57712,53858.21,56261.62,262.79,1450.38,0.715965,91.32,1
143465,1,7327,0,54116,57711,53858.73,56264.52,257.27,1446.48,0.714916,91.34,1
143505,1,7367,0,54109,57713,53859.23,56267.42,249.77,1445.58,0.713866,91.37,1
143545,1,7407,0,54107,57721,53859.72,56270.33,247.28,1450.67,0.712815,91.39,1
143585,1,7447,0,54109,57741,53860.22,56273.27,248.78,1467.73,0.711763,91.42,1
143625,1,7487,0,54116,57753,53860.73,56276.23,255.27,1476.77,0.710708,91.44,1
143665,1,7527,0,54116,57756,53861.25,56279.20,254.75,1476.80,0.709653,91.47,1
143705,1,7567,0,54116,57770,53861.76,56282.18,254.24,1487.82,0.708596,91.49,1
143745,1,7607,0,54118,57797,53862.27,56285.21,255.73,1511.79,0.707538,91.52,1
143785,1,7647,0,54125,57808,53862.80,56288.26,262.20,1519.74,0.706477,91.54,1
143825,1,7687,0,54121,57787,53863.32,56291.26,257.68,1495.74,0.705416,91.56,1
143865,1,7727,0,54095,57728,53863.79,56294.13,231.21,1433.87,0.704354,91.59,1
143905,1,7767,0,54077,57719,53864.21,56296.98,212.79,1422.02,0.703290,91.61,1
143945,1,7807,0,54082,57728,53864.65,56299.85,217.35,1428.15,0.702225,91.64,1
143985,1,7847,0,54085,57733,53865.09,56302.71,219.91,1430.29,0.701159,91.66,1
144025,1,7887,0,54090,57744,53865.55,56305.60,224.45,1438.40,0.700092,91.69,1
144065,1,7927,0,54091,57759,53866.00,56308.51,225.00,1450.49,0.699024,91.71,1
144105,1,7967,0,54093,57770,53866.46,56311.43,226.54,1458.57,0.697955,91.74,1
144145,1,8007,0,54093,57782,53866.91,56314.37,226.09,1467.63,0.696884,91.76,1
144185,1,8047,0,54095,57791,53867.37,56317.33,227.63,1473.67,0.695813,91.79,1
144225,1,8087,0,54100,57801,53867.83,56320.30,232.17,1480.70,0.694740,91.81,1
144265,1,8127,0,54105,57831,53868.31,56323.32,236.69,1507.68,0.693666,91.84,1
144305,1,8167,0,54112,57852,53868.80,56326.38,243.20,1525.62,0.692591,91.87,1
144345,1,8207,0,54120,57867,53869.30,56329.46,250.70,1537.54,0.691514,91.89,1
144385,1,8247,0,54119,57888,53869.80,56332.58,249.20,1555.42,0.690436,91.92,1
144425,1,8287,0,54129,57906,53870.32,56335.73,258.68,1570.27,0.689357,91.94,1
144465,1,8327,0,54132,57904,53870.84,56338.86,261.16,1565.14,0.688277,91.97,1
144506,1,8368,0,54109,57843,53871.32,56341.87,237.68,1501.13,0.687196,91.99,1
144546,1,8408,0,54086,57817,53871.75,56344.82,214.25,1472.18,0.686114,92.02,1
144586,1,8448,0,54082,57827,53872.17,56347.79,209.83,1479.21,0.685031,92.04,1
144626,1,8488,0,54086,57842,53872.60,56350.78,213.40,1491.22,0.683947,92.07,1
144666,1,8528,0,54088,57847,53873.04,56353.77,214.96,1493.23,0.682861,92.10,1
144706,1,8568,0,54087,57869,53873.46,56356.80,213.54,1512.20,0.681775,92.12,1
144746,1,8608,0,54098,57892,53873.91,56359.87,224.09,1532.13,0.680688,92.15,1
144786,1,8648,0,54106,57905,53874.38,56362.96,231.62,1542.04,0.679600,92.17,1
144826,1,8688,0,54112,57923,53874.86,56366.08,237.14,1556.92,0.678510,92.20,1
144866,1,8728,0,54120,57947,53875.35,56369.25,244.65,1577.75,0.677420,92.23,1
144906,1,8768,0,54126,57970,53875.85,56372.45,250.15,1597.55,0.676329,92.25,1
144946,1,8808,0,54131,57992,53876.36,56375.69,254.64,1616.31,0.675236,92.28,1
144986,1,8848,0,54141,58017,53876.89,56378.98,264.11,1638.02,0.674143,92.30,1
145026,1,8888,0,54149,58040,53877.44,56382.30,271.56,1657.70,0.673048,92.33,1
145066,1,8928,0,54163,58065,53878.02,56385.67,284.98,1679.33,0.671952,92.36,1
145106,1,8968,0,54175,58095,53878.61,56389.09,296.39,1705.91,0.670856,92.38,1
145146,1,9008,0,54186,58090,53879.23,56392.49,306.77,1697.51,0.669759,92.41,1
145186,1,9048,0,54164,58045,53879.80,56395.80,284.20,1649.20,0.668661,92.43,1
145226,1,9088,0,54148,58041,53880.34,56399.09,267.66,1641.91,0.667562,92.46,1
145266,1,9128,0,54153,58063,53880.88,56402.42,272.12,1660.58,0.666463,92.49,1
145306,1,9168,0,54162,58074,53881.45,56405.76,280.55,1668.24,0.665363,92.51,1
145346,1,9208,0,54162,58076,53882.01,56409.11,279.99,1666.89,0.664263,92.54,1
145386,1,9248,0,54162,58079,53882.57,56412.45,279.43,1666.55,0.663162,92.57,1
145426,1,9288,0,54163,58070,53883.13,56415.76,279.87,1654.24,0.662060,92.59,1
145466,1,9328,0,54154,58058,53883.68,56419.05,270.32,1638.95,0.660959,92.62,1
145506,1,9368,0,54152,58081,53884.21,56422.37,267.79,1658.63,0.659856,92.65,1
145546,1,9408,0,54161,58106,53884.77,56425.74,276.23,1680.26,0.658754,92.67,1
145586,1,9448,0,54170,58132,53885.34,56429.15,284.66,1702.85,0.657650,92.70,1
145627,1,9489,0,54180,58155,53885.93,56432.61,294.07,1722.39,0.656547,92.73,1
145667,1,9529,0,54185,58176,53886.53,56436.09,298.47,1739.91,0.655442,92.75,1
145707,1,9569,0,54193,58198,53887.14,56439.62,305.86,1758.38,0.654338,92.78,1
145747,1,9609,0,54200,58220,53887.77,56443.18,312.23,1776.82,0.653233,92.81,1
145787,1,9649,0,54207,58250,53888.41,56446.79,318.59,1803.21,0.652128,92.83,1
145827,1,9689,0,54215,58253,53889.07,56450.41,325.93,1802.59,0.651023,92.86,1
145867,1,9729,0,54202,58206,53889.70,56453.92,312.30,1752.08,0.649917,92.89,1
145907,1,9769,0,54177,58180,53890.27,56457.37,286.73,1722.63,0.648812,92.91,1
145947,1,9809,0,54182,58196,53890.86,56460.85,291.14,1735.15,0.647706,92.94,1
145987,1,9849,0,54186,58218,53891.45,56464.37,294.55,1753.63,0.646600,92.97,1
146027,1,9889,0,54184,58223,53892.03,56467.89,291.97,1755.11,0.645494,92.99,1
146067,1,9929,0,54188,58239,53892.62,56471.43,295.37,1767.57,0.644388,93.02,1
146107,1,9969,0,54197,58259,53893.23,56475.01,303.77,1783.99,0.643282,93.05,1
146147,1,10009,0,54200,58270,53893.85,56478.60,306.15,1791.40,0.642175,93.07,1
146187,1,10049,0,54202,58281,53894.46,56482.20,307.54,1798.80,0.641069,93.10,1
146227,1,10089,0,54211,58293,53895.10,56485.83,315.90,1807.17,0.639963,93.13,1
146267,1,10129,0,54216,58303,53895.74,56489.46,320.26,1813.54,0.638857,93.16,1
146307,1,10169,0,54219,58311,53896.39,56493.11,322.61,1817.89,0.637751,93.18,1
146347,1,10209,0,54219,58331,53897.04,56496.79,321.96,1834.21,0.636645,93.21,1
146387,1,10249,0,54222,58350,53897.69,56500.49,324.31,1849.51,0.635540,93.24,1
146427,1,10289,0,54221,58357,53898.34,56504.21,322.66,1852.79,0.634435,93.26,1
146467,1,10329,0,54225,58363,53899.00,56507.93,326.00,1855.07,0.633330,93.29,1
146507,1,10369,0,54231,58377,53899.66,56511.66,331.34,1865.34,0.632225,93.32,1
146547,1,10409,0,54229,58360,53900.32,56515.36,328.68,1844.64,0.631121,93.34,1
146587,1,10449,0,54201,58295,53900.92,56518.93,300.08,1776.07,0.630018,93.37,1
146627,1,10489,0,54175,58273,53901.47,56522.43,273.53,1750.57,0.628914,93.40,1
146667,1,10529,0,54171,58276,53902.01,56525.94,268.99,1750.06,0.627811,93.43,1
146707,1,10569,0,54168,58274,53902.55,56529.44,265.45,1744.56,0.626708,93.45,1
146748,1,10610,0,54162,58270,53903.07,56532.92,258.93,1737.08,0.625605,93.48,1
146788,1,10650,0,54162,58278,53903.59,56536.41,258.41,1741.59,0.624503,93.51,1
146828,1,10690,0,54160,58284,53904.10,56539.91,255.90,1744.09,0.623400,93.53,1
146868,1,10730,0,54152,58288,53904.60,56543.41,247.40,1744.59,0.622298,93.56,1
146908,1,10770,0,54148,58290,53905.09,56546.90,242.91,1743.10,0.621196,93.59,1
146948,1,10810,0,54147,58295,53905.57,56550.40,241.43,1744.60,0.620094,93.62,1
146988,1,10850,0,54143,58300,53906.05,56553.90,236.95,1746.10,0.618992,93.64,1
147028,1,10890,0,54147,58309,53906.53,56557.41,240.47,1751.59,0.617890,93.67,1
147068,1,10930,0,54144,58315,53907.01,56560.93,236.99,1754.07,0.616788,93.70,1
147108,1,10970,0,54143,58315,53907.48,56564.43,235.52,1750.57,0.615687,93.73,1
147148,1,11010,0,54137,58327,53907.94,56567.96,229.06,1759.04,0.614585,93.75,1
147188,1,11050,0,54145,58338,53908.42,56571.50,236.58,1766.50,0.613484,93.78,1
147228,1,11090,0,54140,58342,53908.88,56575.05,231.12,1766.95,0.612382,93.81,1
147268,1,11130,0,54134,58300,53909.34,56578.50,224.66,1721.50,0.611281,93.83,1
147308,1,11170,0,54104,58234,53909.73,56581.81,194.27,1652.19,0.610181,93.86,1
147348,1,11210,0,54083,58221,53910.07,56585.09,172.93,1635.91,0.609080,93.89,1
147388,1,11250,0,54078,58213,53910.41,56588.35,167.59,1624.65,0.607980,93.92,1
147428,1,11290,0,54068,58211,53910.73,56591.60,157.27,1619.40,0.606880,93.94,1
147468,1,11330,0,54063,58204,53911.03,56594.82,151.97,1609.18,0.605780,93.97,1
147508,1,11370,0,54059,58214,53911.33,56598.06,147.67,1615.94,0.604680,94.00,1
147548,1,11410,0,54052,58208,53911.61,56601.29,140.39,1606.71,0.603581,94.03,1
147588,1,11450,0,54047,58203,53911.88,56604.49,135.12,1598.51,0.602481,94.05,1
147628,1,11490,0,54044,58195,53912.15,56607.67,131.85,1587.33,0.601382,94.08,1
147668,1,11530,0,54037,58193,53912.40,56610.84,124.60,1582.16,0.600283,94.11,1
147708,1,11570,0,54028,58190,53912.63,56614.00,115.37,1576.00,0.599184,94.14,1
147748,1,11610,0,54022,58192,53912.85,56617.16,109.15,1574.84,0.598086,94.16,1
147788,1,11650,0,54014,58191,53913.05,56620.31,100.95,1570.69,0.596987,94.19,1
147828,1,11690,0,54014,58191,53913.26,56623.45,100.74,1567.55,0.595889,94.22,1
147869,1,11731,0,54005,58187,53913.44,56626.58,91.56,1560.42,0.594791,94.25,1
147909,1,11771,0,54001,58187,53913.62,56629.70,87.38,1557.30,0.593693,94.27,1
147949,1,11811,0,53993,58186,53913.78,56632.82,79.22,1553.18,0.592595,94.30,1
147989,1,11851,0,53985,58134,53913.92,56635.82,71.08,1498.18,0.591498,94.33,1
148029,1,11891,0,53942,58076,53913.98,56638.70,28.02,1437.30,0.590401,94.35,1
148069,1,11931,0,53922,58066,53914.00,56641.56,8.00,1424.44,0.589305,94.38,1
148109,1,11971,0,53920,58065,53914.01,56644.41,5.99,1420.59,0.588209,94.41,1
148149,1,12011,0,53916,58066,53914.01,56647.25,1.99,1418.75,0.587114,94.44,1
148189,1,12051,0,53918,58070,53914.02,56650.10,3.98,1419.90,0.586019,94.46,1
148229,1,12091,0,53917,58081,53914.03,56652.96,2.97,1428.04,0.584925,94.49,1
148269,1,12131,0,53915,58075,53914.03,56655.80,0.97,1419.20,0.583832,94.52,1
148309,1,12171,0,53909,58082,53914.02,56658.66,-5.02,1423.34,0.582739,94.55,1
148349,1,12211,0,53908,58093,53914.01,56661.53,-6.01,1431.47,0.581647,94.57,1
148389,1,12251,0,53917,58107,53914.02,56664.42,2.98,1442.58,0.580555,94.60,1
148429,1,12291,0,53916,58111,53914.02,56667.32,1.98,1443.68,0.579463,94.63,1
148469,1,12331,0,53918,58116,53914.03,56670.21,3.97,1445.79,0.578373,94.66,1
148509,1,12371,0,53928,58131,53914.06,56673.14,13.94,1457.86,0.577282,94.68,1
148549,1,12411,0,53926,58142,53914.09,56676.07,11.91,1465.93,0.576193,94.71,1
148589,1,12451,0,53933,58161,53914.12,56679.05,18.87,1481.95,0.575103,94.74,1
148629,1,12491,0,53934,58163,53914.17,56682.02,19.83,1480.98,0.574014,94.77,1
148669,1,12531,0,53918,58098,53914.18,56684.85,3.82,1413.15,0.572926,94.79,1
148709,1,12571,0,53889,58049,53914.12,56687.58,-25.12,1361.42,0.571838,94.82,1
148749,1,12611,0,53878,58049,53914.05,56690.30,-36.05,1358.70,0.570752,94.85,1
148789,1,12651,0,53882,58057,53913.99,56693.04,-31.99,1363.96,0.569666,94.87,1
148829,1,12691,0,53883,58064,53913.93,56695.78,-30.93,1368.22,0.568581,94.90,1
148869,1,12731,0,53885,58074,53913.87,56698.54,-28.87,1375.46,0.567497,94.93,1
148909,1,12771,0,53887,58084,53913.82,56701.31,-26.82,1382.69,0.566414,94.96,1
148949,1,12811,0,53889,58084,53913.78,56704.07,-24.78,1379.93,0.565332,94.98,1
148990,1,12852,0,53891,58085,53913.73,56706.84,-22.73,1378.16,0.564251,95.01,1
149030,1,12892,0,53889,58090,53913.69,56709.61,-24.69,1380.39,0.563170,95.04,1
149070,1,12932,0,53893,58107,53913.65,56712.40,-20.65,1394.60,0.562090,95.07,1
149110,1,12972,0,53902,58119,53913.62,56715.22,-11.63,1403.78,0.561011,95.09,1
149150,1,13012,0,53901,58126,53913.60,56718.04,-12.60,1407.96,0.559932,95.12,1
149190,1,13052,0,53905,58149,53913.59,56720.91,-8.59,1428.09,0.558855,95.15,1
149230,1,13092,0,53914,58174,53913.59,56723.81,0.41,1450.19,0.558855,95.15,0
149270,1,13132,0,53919,58182,53913.60,56726.73,5.40,1455.27,0.558855,95.15,0
149310,1,13172,0,53933,58173,53913.64,56729.62,19.36,1443.38,0.558855,95.15,0
149350,1,13212,0,53912,58097,53913.64,56732.36,-1.64,1364.64,0.558855,95.15,0
149390,1,13252,0,53879,58061,53913.57,56735.02,-34.57,1325.98,0.558855,95.15,0
149430,1,13292,0,53877,58062,53913.50,56737.68,-36.50,1324.32,0.558855,95.15,0
149470,1,13332,0,53873,58047,53913.43,56740.30,-40.43,1306.70,0.558855,95.15,0
149510,1,13372,0,53878,58052,53913.36,56742.92,-35.36,1309.08,0.558855,95.15,0
149550,1,13412,0,53893,58070,53913.32,56745.58,-20.32,1324.42,0.558855,95.15,0
149590,1,13452,0,53908,58092,53913.31,56748.27,-5.31,1343.73,0.558855,95.15,0
149630,1,13492,0,53921,58101,53913.32,56750.98,7.68,1350.02,0.558855,95.15,0
149670,1,13532,0,53928,58101,53913.36,56753.68,14.64,1347.32,0.558855,95.15,0
149710,1,13572,0,53926,58102,53913.38,56756.38,12.62,1345.62,0.558855,95.15,0
149750,1,13612,0,53931,58110,53913.42,56759.09,17.58,1350.91,0.558855,95.15,0
149790,1,13652,0,53932,58116,53913.46,56761.80,18.54,1354.20,0.558855,95.15,0
149830,1,13692,0,53934,58122,53913.50,56764.53,20.50,1357.47,0.558855,95.15,0
149870,1,13732,0,53938,58130,53913.55,56767.26,24.45,1362.74,0.558855,95.15,0
149910,1,13772,0,53949,58137,53913.62,56770.00,35.38,1367.00,0.558855,95.15,0
149950,1,13812,0,53950,58150,53913.70,56772.76,36.30,1377.24,0.558855,95.15,0
149990,1,13852,0,53954,58152,53913.78,56775.52,40.22,1376.48,0.558855,95.15,0
150030,1,13892,0,53938,58084,53913.83,56778.14,24.17,1305.86,0.558855,95.15,0
150070,1,13932,0,53900,58018,53913.80,56780.62,-13.80,1237.38,0.558855,95.15,0
150110,1,13972,0,53888,58001,53913.75,56783.06,-25.75,1217.94,0.558855,95.15,0
150151,1,14013,0,53887,57992,53913.70,56785.48,-26.70,1206.52,0.558855,95.15,0
150191,1,14053,0,53885,57983,53913.65,56787.88,-28.65,1195.12,0.558855,95.15,0
150231,1,14093,0,53881,57978,53913.59,56790.26,-32.59,1187.74,0.558855,95.15,0
150271,1,14133,0,53883,57982,53913.53,56792.65,-30.53,1189.35,0.558855,95.15,0
150311,1,14173,0,53885,57984,53913.47,56795.03,-28.47,1188.97,0.558855,95.15,0
150351,1,14213,0,53886,57988,53913.42,56797.42,-27.42,1190.58,0.558855,95.15,0
150391,1,14253,0,53884,57985,53913.36,56799.79,-29.36,1185.21,0.558855,95.15,0
150431,1,14293,0,53885,57988,53913.30,56802.17,-28.30,1185.83,0.558855,95.15,0
150471,1,14333,0,53888,57994,53913.25,56804.56,-25.25,1189.44,0.558855,95.15,0
150511,1,14373,0,53887,58002,53913.20,56806.95,-26.20,1195.05,0.558855,95.15,0
150551,1,14413,0,53890,58007,53913.16,56809.36,-23.16,1197.64,0.558855,95.15,0
150591,1,14453,0,53892,58018,53913.12,56811.77,-21.12,1206.23,0.558855,95.15,0
150631,1,14493,0,53893,58025,53913.08,56814.20,-20.08,1210.80,0.558855,95.15,0
150671,1,14533,0,53897,58039,53913.05,56816.65,-16.05,1222.35,0.558855,95.15,0
150711,1,14573,0,53896,58010,53913.02,56819.04,-17.02,1190.96,0.558855,95.15,0
150751,1,14613,0,53874,57942,53912.94,56821.29,-38.94,1120.71,0.558855,95.15,0
150791,1,14653,0,53856,57913,53912.82,56823.47,-56.82,1089.53,0.558855,95.15,0
150831,1,14693,0,53846,57909,53912.69,56825.64,-66.69,1083.36,0.558855,95.15,0
150871,1,14733,0,53840,57901,53912.55,56827.79,-72.55,1073.21,0.558855,95.15,0
150911,1,14773,0,53840,57901,53912.40,56829.94,-72.40,1071.06,0.558855,95.15,0
150951,1,14813,0,53839,57905,53912.26,56832.09,-73.26,1072.91,0.558855,95.15,0
150991,1,14853,0,53837,57911,53912.11,56834.25,-75.11,1076.75,0.558855,95.15,0
151031,1,14893,0,53837,57906,53911.96,56836.40,-74.96,1069.60,0.558855,95.15,0
151071,1,14933,0,53840,57901,53911.82,56838.53,-71.82,1062.47,0.558855,95.15,0
151111,1,14973,0,53837,57906,53911.67,56840.66,-74.67,1065.34,0.558855,95.15,0
151151,1,15013,0,53832,57908,53911.52,56842.80,-79.52,1065.20,0.558855,95.15,0
151191,1,15053,0,53832,57911,53911.36,56844.94,-79.36,1066.06,0.558855,95.15,0
151231,1,15093,0,53825,57914,53911.19,56847.08,-86.19,1066.92,0.558855,95.15,0
151271,1,15133,0,53824,57916,53911.02,56849.22,-87.02,1066.78,0.558855,95.15,0
151311,1,15173,0,53819,57922,53910.83,56851.37,-91.83,1070.63,0.558855,95.15,0
151352,1,15214,0,53817,57926,53910.64,56853.52,-93.64,1072.48,0.558855,95.15,0
151392,1,15254,0,53818,57932,53910.46,56855.68,-92.46,1076.32,0.558855,95.15,0
151432,1,15294,0,53805,57876,53910.25,56857.72,-105.25,1018.28,0.558855,95.15,0
151472,1,15334,0,53777,57839,53909.98,56859.69,-132.98,979.31,0.558855,95.15,0
151512,1,15374,0,53764,57835,53909.70,56861.64,-145.70,973.36,0.558855,95.15,0
151552,1,15414,0,53758,57837,53909.39,56863.59,-151.39,973.41,0.558855,95.15,0
151592,1,15454,0,53759,57841,53909.09,56865.55,-150.09,975.45,0.558855,95.15,0
151632,1,15494,0,53760,57846,53908.80,56867.51,-148.80,978.49,0.558855,95.15,0
151672,1,15534,0,53760,57854,53908.50,56869.48,-148.50,984.52,0.558855,95.15,0
151712,1,15574,0,53763,57857,53908.21,56871.46,-145.21,985.54,0.558855,95.15,0
151752,1,15614,0,53762,57866,53907.92,56873.45,-145.92,992.55,0.558855,95.15,0
151792,1,15654,0,53762,57876,53907.63,56875.46,-145.63,1000.54,0.558855,95.15,0
151832,1,15694,0,53761,57890,53907.34,56877.49,-146.34,1012.51,0.558855,95.15,0
151872,1,15734,0,53763,57897,53907.05,56879.53,-144.05,1017.47,0.558855,95.15,0
151912,1,15774,0,53765,57912,53906.77,56881.60,-141.77,1030.40,0.558855,95.15,0
151952,1,15814,0,53775,57923,53906.50,56883.68,-131.50,1039.32,0.558855,95.15,0
151992,1,15854,0,53780,57931,53906.25,56885.78,-126.25,1045.22,0.558855,95.15,0
152032,1,15894,0,53782,57949,53906.01,56887.91,-124.01,1061.09,0.558855,95.15,0
152072,1,15934,0,53784,57941,53905.77,56890.02,-121.77,1050.98,0.558855,95.15,0
152112,1,15974,0,53773,57899,53905.50,56892.04,-132.50,1006.96,0.558855,95.15,0
152152,1,16014,0,53756,57883,53905.20,56894.02,-149.20,988.98,0.558855,95.15,0
152192,1,16054,0,53746,57892,53904.89,56896.02,-158.89,995.98,0.558855,95.15,0
152232,1,16094,0,53752,57903,53904.58,56898.04,-152.58,1004.96,0.558855,95.15,0
152272,1,16134,0,53755,57909,53904.29,56900.06,-149.29,1008.94,0.558855,95.15,0
152312,1,16174,0,53761,57923,53904.00,56902.11,-143.00,1020.89,0.558855,95.15,0
152352,1,16214,0,53761,57934,53903.71,56904.17,-142.71,1029.83,0.558855,95.15,0
152392,1,16254,0,53766,57936,53903.44,56906.24,-137.44,1029.76,0.558855,95.15,0
152432,1,16294,0,53761,57946,53903.16,56908.32,-142.16,1037.68,0.558855,95.15,0
152472,1,16334,0,53763,57962,53902.88,56910.43,-139.88,1051.57,0.558855,95.15,0
152512,1,16374,0,53768,57975,53902.61,56912.56,-134.61,1062.44,0.558855,95.15,0
152553,1,16415,0,53773,57990,53902.35,56914.71,-129.35,1075.29,0.558855,95.15,0
152593,1,16455,0,53780,58007,53902.11,56916.90,-122.11,1090.10,0.558855,95.15,0
152633,1,16495,0,53782,58020,53901.87,56919.11,-119.87,1100.89,0.558855,95.15,0
152673,1,16535,0,53786,58042,53901.64,56921.36,-115.64,1120.64,0.558855,95.15,0
152713,1,16575,0,53790,58053,53901.42,56923.62,-111.42,1129.38,0.558855,95.15,0
152753,1,16615,0,53782,58016,53901.18,56925.81,-119.18,1090.19,0.558855,95.15,0
152793,1,16655,0,53763,57992,53900.91,56927.94,-137.91,1064.06,0.558855,95.15,0
152833,1,16695,0,53760,57995,53900.62,56930.08,-140.62,1064.92,0.558855,95.15,0
152873,1,16735,0,53760,58004,53900.34,56932.23,-140.34,1071.77,0.558855,95.15,0
152913,1,16775,0,53767,58013,53900.08,56934.39,-133.08,1078.61,0.558855,95.15,0
152953,1,16815,0,53769,58029,53899.82,56936.58,-130.82,1092.42,0.558855,95.15,0
152993,1,16855,0,53776,58048,53899.57,56938.80,-123.57,1109.20,0.558855,95.15,0
153033,1,16895,0,53780,58061,53899.33,56941.05,-119.33,1119.95,0.558855,95.15,0
153073,1,16935,0,53787,58072,53899.11,56943.31,-112.11,1128.69,0.558855,95.15,0
153113,1,16975,0,53792,58082,53898.90,56945.59,-106.90,1136.41,0.558855,95.15,0
153153,1,17015,0,53804,58099,53898.71,56947.90,-94.71,1151.10,0.558855,95.15,0
153193,1,17055,0,53809,58115,53898.53,56950.23,-89.53,1164.77,0.558855,95.15,0
153233,1,17095,0,53811,58128,53898.36,56952.59,-87.36,1175.41,0.558855,95.15,0
153273,1,17135,0,53819,58141,53898.20,56954.97,-79.20,1186.03,0.558855,95.15,0
153313,1,17175,0,53820,58155,53898.05,56957.37,-78.05,1197.63,0.558855,95.15,0
153353,1,17215,0,53820,58171,53897.89,56959.80,-77.89,1211.20,0.558855,95.15,0
153393,1,17255,0,53829,58175,53897.75,56962.23,-68.75,1212.77,0.558855,95.15,0
153433,1,17295,0,53810,58130,53897.58,56964.57,-87.58,1165.43,0.558855,95.15,0
153473,1,17335,0,53794,58090,53897.37,56966.82,-103.37,1123.18,0.558855,95.15,0
153513,1,17375,0,53791,58089,53897.16,56969.07,-106.16,1119.93,0.558855,95.15,0
153553,1,17415,0,53786,58083,53896.94,56971.30,-110.94,1111.70,0.558855,95.15,0
153593,1,17455,0,53782,58076,53896.71,56973.51,-114.71,1102.49,0.558855,95.15,0
153633,1,17495,0,53772,58081,53896.46,56975.73,-124.46,1105.27,0.558855,95.15,0
153673,1,17535,0,53783,58093,53896.24,56977.96,-113.24,1115.04,0.558855,95.15,0
153713,1,17575,0,53780,58097,53896.01,56980.20,-116.01,1116.80,0.558855,95.15,0
153754,1,17616,0,53783,58100,53895.78,56982.44,-112.78,1117.56,0.558855,95.15,0
153794,1,17656,0,53786,58108,53895.56,56984.70,-109.56,1123.30,0.558855,95.15,0
153834,1,17696,0,53786,58117,53895.34,56986.96,-109.34,1130.04,0.558855,95.15,0
153874,1,17736,0,53789,58127,53895.13,56989.24,-106.13,1137.76,0.558855,95.15,0
153914,1,17776,0,53789,58136,53894.92,56991.54,-105.92,1144.46,0.558855,95.15,0
153954,1,17816,0,53793,58156,53894.72,56993.87,-101.72,1162.13,0.558855,95.15,0
153994,1,17856,0,53792,58166,53894.52,56996.22,-102.52,1169.78,0.558855,95.15,0
154034,1,17896,0,53799,58176,53894.32,56998.58,-95.32,1177.42,0.558855,95.15,0
154074,1,17936,0,53802,58192,53894.14,57000.96,-92.14,1191.04,0.558855,95.15,0
154114,1,17976,0,53809,58168,53893.97,57003.30,-84.97,1164.70,0.558855,95.15,0
154154,1,18016,0,53786,58113,53893.76,57005.52,-107.76,1107.48,0.558855,95.15,0
154194,1,18056,0,53761,58085,53893.49,57007.68,-132.49,1077.32,0.558855,95.15,0
154234,1,18096,0,53756,58093,53893.22,57009.86,-137.22,1083.14,0.558855,95.15,0
154274,1,18136,0,53761,58093,53892.96,57012.02,-131.96,1080.98,0.558855,95.15,0
154314,1,18176,0,53761,58108,53892.70,57014.22,-131.70,1093.78,0.558855,95.15,0
154354,1,18216,0,53779,58127,53892.47,57016.45,-113.47,1110.55,0.558855,95.15,0
154394,1,18256,0,53790,58138,53892.27,57018.69,-102.27,1119.31,0.558855,95.15,0
154434,1,18296,0,53800,58141,53892.08,57020.94,-92.08,1120.06,0.558855,95.15,0
154474,1,18336,0,53804,58144,53891.91,57023.18,-87.91,1120.82,0.558855,95.15,0
154514,1,18376,0,53807,58157,53891.74,57025.45,-84.74,1131.55,0.558855,95.15,0
154554,1,18416,0,53816,58162,53891.59,57027.73,-75.59,1134.27,0.558855,95.15,0
154594,1,18456,0,53811,58169,53891.43,57030.01,-80.43,1138.99,0.558855,95.15,0
154634,1,18496,0,53813,58175,53891.27,57032.30,-78.27,1142.70,0.558855,95.15,0
154674,1,18536,0,53816,58181,53891.12,57034.61,-75.12,1146.39,0.558855,95.15,0
154714,1,18576,0,53818,58185,53890.98,57036.91,-72.98,1148.09,0.558855,95.15,0
154754,1,18616,0,53821,58196,53890.84,57039.23,-69.84,1156.77,0.558855,95.15,0
154794,1,18656,0,53824,58202,53890.71,57041.55,-66.71,1160.45,0.558855,95.15,0
154834,1,18696,0,53819,58185,53890.57,57043.84,-71.57,1141.16,0.558855,95.15,0
154874,1,18736,0,53796,58123,53890.38,57046.00,-94.38,1077.00,0.558855,95.15,0
154914,1,18776,0,53774,58090,53890.15,57048.09,-116.15,1041.91,0.558855,95.15,0
154954,1,18816,0,53764,58085,53889.90,57050.17,-125.90,1034.83,0.558855,95.15,0
154995,1,18857,0,53764,58081,53889.65,57052.23,-125.65,1028.77,0.558855,95.15,0
155035,1,18897,0,53762,58067,53889.40,57054.26,-127.40,1012.74,0.558855,95.15,0
155075,1,18937,0,53759,58066,53889.14,57056.29,-130.14,1009.71,0.558855,95.15,0
155115,1,18977,0,53759,58073,53888.88,57058.32,-129.88,1014.68,0.558855,95.15,0
155155,1,19017,0,53757,58069,53888.62,57060.34,-131.62,1008.66,0.558855,95.15,0
155195,1,19057,0,53754,58073,53888.35,57062.37,-134.35,1010.63,0.558855,95.15,0
155235,1,19097,0,53755,58076,53888.09,57064.40,-133.09,1011.60,0.558855,95.15,0
155275,1,19137,0,53759,58083,53887.83,57066.44,-128.83,1016.56,0.558855,95.15,0
155315,1,19177,0,53761,58087,53887.57,57068.48,-126.57,1018.52,0.558855,95.15,0
155355,1,19217,0,53762,58093,53887.32,57070.53,-125.32,1022.47,0.558855,95.15,0
155395,1,19257,0,53765,58104,53887.08,57072.60,-122.08,1031.40,0.558855,95.15,0
155435,1,19297,0,53765,58113,53886.84,57074.68,-121.84,1038.32,0.558855,95.15,0
155475,1,19337,0,53769,58122,53886.61,57076.78,-117.61,1045.22,0.558855,95.15,0
155515,1,19377,0,53769,58130,53886.37,57078.89,-117.37,1051.11,0.558855,95.15,0
155555,1,19417,0,53774,58145,53886.15,57081.02,-112.15,1063.98,0.558855,95.15,0
155595,1,19457,0,53779,58119,53885.93,57083.10,-106.93,1035.90,0.558855,95.15,0
155635,1,19497,0,53753,58064,53885.67,57085.07,-132.67,978.93,0.558855,95.15,0
155675,1,19537,0,53743,58055,53885.38,57087.01,-142.38,967.99,0.558855,95.15,0
155715,1,19577,0,53743,58063,53885.10,57088.96,-142.10,974.04,0.558855,95.15,0
155755,1,19617,0,53753,58063,53884.84,57090.91,-131.84,972.09,0.558855,95.15,0
155795,1,19657,0,53752,58071,53884.57,57092.87,-132.57,978.13,0.558855,95.15,0
155835,1,19697,0,53752,58086,53884.30,57094.86,-132.30,991.14,0.558855,95.15,0
155875,1,19737,0,53753,58090,53884.04,57096.85,-131.04,993.15,0.558855,95.15,0
155915,1,19777,0,53753,58090,53883.78,57098.84,-130.78,991.16,0.558855,95.15,0
155955,1,19817,0,53762,58102,53883.54,57100.85,-121.54,1001.15,0.558855,95.15,0
155995,1,19857,0,53768,58107,53883.31,57102.86,-115.31,1004.14,0.558855,95.15,0
156035,1,19897,0,53766,58123,53883.07,57104.91,-117.07,1018.09,0.558855,95.15,0
156075,1,19937,0,53774,58134,53882.86,57106.96,-108.86,1027.04,0.558855,95.15,0
156115,1,19977,0,53773,58145,53882.64,57109.04,-109.64,1035.96,0.558855,95.15,0
156155,1,20017,0,53781,58160,53882.44,57111.14,-101.44,1048.86,0.558855,95.15,0
156195,1,20057,0,53785,58169,53882.24,57113.26,-97.24,1055.74,0.558855,95.15,0
156236,1,20098,0,53789,58181,53882.06,57115.40,-93.06,1065.60,0.558855,95.15,0
156276,1,20138,0,53793,58197,53881.88,57117.56,-88.88,1079.44,0.558855,95.15,0
156316,1,20178,0,53793,58177,53881.71,57119.68,-88.71,1057.32,0.558855,95.15,0
156356,1,20218,0,53771,58130,53881.49,57121.71,-110.49,1008.29,0.558855,95.15,0
156396,1,20258,0,53765,58132,53881.26,57123.73,-116.26,1008.27,0.558855,95.15,0
156436,1,20298,0,53764,58142,53881.02,57125.77,-117.02,1016.23,0.558855,95.15,0
156476,1,20338,0,53766,58150,53880.79,57127.82,-114.79,1022.18,0.558855,95.15,0
156516,1,20378,0,53772,58160,53880.58,57129.89,-108.58,1030.11,0.558855,95.15,0
156556,1,20418,0,53781,58173,53880.38,57131.97,-99.38,1041.03,0.558855,95.15,0
156596,1,20458,0,53783,58180,53880.18,57134.07,-97.18,1045.93,0.558855,95.15,0
156636,1,20498,0,53787,58189,53880.00,57136.18,-93.00,1052.82,0.558855,95.15,0
156676,1,20538,0,53791,58201,53879.82,57138.32,-88.82,1062.68,0.558855,95.15,0
156716,1,20578,0,53794,58220,53879.65,57140.48,-85.65,1079.52,0.558855,95.15,0
156756,1,20618,0,53804,58235,53879.50,57142.67,-75.50,1092.33,0.558855,95.15,0
156796,1,20658,0,53815,58252,53879.37,57144.89,-64.37,1107.11,0.558855,95.15,0
156836,1,20698,0,53820,58265,53879.26,57147.13,-59.26,1117.87,0.558855,95.15,0
156876,1,20738,0,53825,58277,53879.15,57149.39,-54.15,1127.61,0.558855,95.15,0
156916,1,20778,0,53840,58293,53879.07,57151.68,-39.07,1141.32,0.558855,95.15,0
156956,1,20818,0,53848,58312,53879.01,57154.00,-31.01,1158.00,0.558855,95.15,0
156996,1,20858,0,53853,58331,53878.96,57156.36,-25.96,1174.64,0.558855,95.15,0
157036,1,20898,0,53856,58330,53878.92,57158.71,-22.92,1171.29,0.558855,95.15,0
157076,1,20938,0,53846,58287,53878.86,57160.96,-32.86,1126.04,0.558855,95.15,0
157116,1,20978,0,53827,58261,53878.75,57163.17,-51.75,1097.83,0.558855,95.15,0
157156,1,21018,0,53820,58262,53878.64,57165.37,-58.64,1096.63,0.558855,95.15,0
157196,1,21058,0,53828,58265,53878.54,57167.57,-50.54,1097.43,0.558855,95.15,0
157236,1,21098,0,53829,58263,53878.44,57169.76,-49.44,1093.24,0.558855,95.15,0
157276,1,21138,0,53825,58270,53878.33,57171.96,-53.33,1098.04,0.558855,95.15,0
157316,1,21178,0,53832,58279,53878.24,57174.18,-46.24,1104.82,0.558855,95.15,0
157356,1,21218,0,53834,58285,53878.16,57176.40,-44.16,1108.60,0.558855,95.15,0
157396,1,21258,0,53834,58285,53878.07,57178.62,-44.07,1106.38,0.558855,95.15,0
157436,1,21298,0,53837,58298,53877.99,57180.86,-40.99,1117.14,0.558855,95.15,0
157477,1,21339,0,53843,58312,53877.92,57183.12,-34.92,1128.88,0.558855,95.15,0
157517,1,21379,0,53847,58316,53877.86,57185.39,-30.86,1130.61,0.558855,95.15,0
157557,1,21419,0,53850,58326,53877.80,57187.67,-27.80,1138.33,0.558855,95.15,0
157597,1,21459,0,53854,58338,53877.76,57189.97,-23.76,1148.03,0.558855,95.15,0
157637,1,21499,0,53857,58353,53877.72,57192.30,-20.72,1160.70,0.558855,95.15,0
157677,1,21539,0,53857,58369,53877.68,57194.66,-20.68,1174.34,0.558855,95.15,0
157717,1,21579,0,53861,58376,53877.65,57197.02,-16.65,1178.98,0.558855,95.15,0
157757,1,21619,0,53864,58387,53877.62,57199.40,-13.62,1187.60,0.558855,95.15,0
157797,1,21659,0,53866,58375,53877.60,57201.75,-11.60,1173.25,0.558855,95.15,0
157837,1,21699,0,53848,58313,53877.54,57203.98,-29.54,1109.02,0.558855,95.15,0
157877,1,21739,0,53828,58292,53877.44,57206.15,-49.44,1085.85,0.558855,95.15,0
157917,1,21779,0,53828,58287,53877.34,57208.32,-49.34,1078.68,0.558855,95.15,0
157957,1,21819,0,53829,58290,53877.25,57210.48,-48.25,1079.52,0.558855,95.15,0
157997,1,21859,0,53832,58290,53877.16,57212.64,-45.16,1077.36,0.558855,95.15,0
158037,1,21899,0,53829,58293,53877.07,57214.80,-48.07,1078.20,0.558855,95.15,0
158077,1,21939,0,53833,58298,53876.98,57216.97,-43.98,1081.03,0.558855,95.15,0
158117,1,21979,0,53842,58303,53876.91,57219.14,-34.91,1083.86,0.558855,95.15,0
158157,1,22019,0,53841,58301,53876.84,57221.31,-35.84,1079.69,0.558855,95.15,0
158197,1,22059,0,53844,58302,53876.78,57223.47,-32.78,1078.53,0.558855,95.15,0
158237,1,22099,0,53852,58312,53876.73,57225.65,-24.73,1086.35,0.558855,95.15,0
158277,1,22139,0,53856,58323,53876.69,57227.85,-20.69,1095.15,0.558855,95.15,0
158317,1,22179,0,53855,58332,53876.65,57230.06,-21.65,1101.94,0.558855,95.15,0
158357,1,22219,0,53857,58337,53876.61,57232.27,-19.61,1104.73,0.558855,95.15,0
158397,1,22259,0,53864,58343,53876.59,57234.50,-12.59,1108.50,0.558855,95.15,0
158437,1,22299,0,53866,58352,53876.57,57236.73,-10.57,1115.27,0.558855,95.15,0
158477,1,22339,0,53869,58355,53876.55,57238.97,-7.55,1116.03,0.558855,95.15,0
158517,1,22379,0,53868,58359,53876.54,57241.21,-8.54,1117.79,0.558855,95.15,0
158557,1,22419,0,53873,58358,53876.53,57243.45,-3.53,1114.55,0.558855,95.15,0
158597,1,22459,0,53856,58290,53876.49,57245.54,-20.49,1044.46,0.558855,95.15,0
158637,1,22499,0,53825,58238,53876.39,57247.53,-51.39,990.47,0.558855,95.15,0
158677,1,22539,0,53814,58222,53876.27,57249.48,-62.27,972.52,0.558855,95.15,0
158717,1,22579,0,53817,58213,53876.15,57251.41,-59.15,961.59,0.558855,95.15,0
158758,1,22620,0,53816,58203,53876.03,57253.32,-60.03,949.68,0.558855,95.15,0
158798,1,22660,0,53812,58199,53875.91,57255.21,-63.91,943.79,0.558855,95.15,0
158838,1,22700,0,53815,58197,53875.79,57257.10,-60.79,939.90,0.558855,95.15,0
158878,1,22740,0,53814,58192,53875.66,57258.97,-61.66,933.03,0.558855,95.15,0
158918,1,22780,0,53814,58188,53875.54,57260.83,-61.54,927.17,0.558855,95.15,0
158958,1,22820,0,53812,58189,53875.42,57262.69,-63.42,926.31,0.558855,95.15,0
158998,1,22860,0,53814,58185,53875.30,57264.54,-61.30,920.46,0.558855,95.15,0
159038,1,22900,0,53821,58190,53875.19,57266.39,-54.19,923.61,0.558855,95.15,0
159078,1,22940,0,53827,58189,53875.10,57268.23,-48.10,920.77,0.558855,95.15,0
159118,1,22980,0,53830,58194,53875.01,57270.09,-45.01,923.91,0.558855,95.15,0
159158,1,23020,0,53836,58198,53874.93,57271.94,-38.93,926.06,0.558855,95.15,0
159198,1,23060,0,53836,58205,53874.85,57273.81,-38.85,931.19,0.558855,95.15,0
159238,1,23100,0,53840,58215,53874.79,57275.69,-34.79,939.31,0.558855,95.15,0
159278,1,23140,0,53846,58224,53874.73,57277.59,-28.73,946.41,0.558855,95.15,0
159318,1,23180,0,53851,58224,53874.68,57279.48,-23.68,944.52,0.558855,95.15,0
159358,1,23220,0,53847,58169,53874.63,57281.27,-27.63,887.73,0.558855,95.15,0
159398,1,23260,0,53824,58097,53874.53,57282.90,-50.53,814.10,0.558855,95.15,0
159438,1,23300,0,53808,58073,53874.39,57284.48,-66.39,788.52,0.558855,95.15,0
159478,1,23340,0,53816,58061,53874.28,57286.04,-58.28,774.96,0.558855,95.15,0
159518,1,23380,0,53818,58059,53874.17,57287.58,-56.17,771.42,0.558855,95.15,0
159558,1,23420,0,53821,58053,53874.06,57289.11,-53.06,763.89,0.558855,95.15,0
159598,1,23460,0,53827,58062,53873.97,57290.66,-46.97,771.34,0.558855,95.15,0
159638,1,23500,0,53834,58054,53873.89,57292.19,-39.89,761.81,0.558855,95.15,0
159678,1,23540,0,53842,58053,53873.83,57293.71,-31.83,759.29,0.558855,95.15,0
159718,1,23580,0,53848,58041,53873.78,57295.21,-25.78,745.79,0.558855,95.15,0
159758,1,23620,0,53861,58053,53873.75,57296.72,-12.75,756.28,0.558855,95.15,0
159798,1,23660,0,53869,58060,53873.75,57298.25,-4.75,761.75,0.558855,95.15,0
159838,1,23700,0,53877,58067,53873.75,57299.79,3.25,767.21,0.558855,95.15,0
159878,1,23740,0,53884,58081,53873.78,57301.35,10.22,779.65,0.558855,95.15,0
159918,1,23780,0,53893,58092,53873.82,57302.93,19.18,789.07,0.558855,95.15,0
159958,1,23820,0,53898,58096,53873.87,57304.52,24.13,791.48,0.558855,95.15,0
159999,1,23861,0,53909,58104,53873.94,57306.12,35.06,797.88,0.558855,95.15,0
160039,1,23901,0,53920,58110,53874.03,57307.73,45.97,802.27,0.558855,95.15,0
160079,1,23941,0,53920,58059,53874.12,57309.23,45.88,749.77,0.558855,95.15,0
160119,1,23981,0,53894,57984,53874.17,57310.59,19.83,673.41,0.558855,95.15,0
160159,1,24021,0,53879,57953,53874.18,57311.87,4.82,641.13,0.558855,95.15,0
160199,1,24061,0,53876,57950,53874.18,57313.15,1.82,636.85,0.558855,95.15,0
160239,1,24101,0,53891,57954,53874.22,57314.43,16.78,639.57,0.558855,95.15,0
160279,1,24141,0,53906,57956,53874.29,57315.71,31.71,640.29,0.558855,95.15,0
160319,1,24181,0,53923,57962,53874.38,57317.01,48.62,644.99,0.558855,95.15,0
160359,1,24221,0,53937,57958,53874.51,57318.29,62.49,639.71,0.558855,95.15,0
160399,1,24261,0,53945,57966,53874.65,57319.59,70.35,646.41,0.558855,95.15,0
160439,1,24301,0,53951,57979,53874.80,57320.91,76.20,658.09,0.558855,95.15,0
160479,1,24341,0,53969,58001,53874.99,57322.27,94.01,678.73,0.558855,95.15,0
160519,1,24381,0,53991,58024,53875.23,57323.68,115.77,700.32,0.558855,95.15,0
160559,1,24421,0,54010,58046,53875.50,57325.12,134.50,720.87,0.558855,95.15,0
160599,1,24461,0,54030,58058,53875.80,57326.59,154.20,731.41,0.558855,95.15,0
160639,1,24501,0,54043,58074,53876.14,57328.09,166.86,745.91,0.558855,95.15,0
160679,1,24541,0,54057,58072,53876.50,57329.58,180.50,742.42,0.558855,95.15,0
160719,1,24581,0,54059,58078,53876.87,57331.08,182.13,746.92,0.558855,95.15,0
160759,1,24621,0,54071,58083,53877.26,57332.58,193.74,750.42,0.558855,95.15,0
160799,1,24661,0,54065,57999,53877.64,57333.92,187.36,665.08,0.558855,95.15,0
160839,1,24701,0,54031,57923,53877.95,57335.10,153.05,587.90,0.558855,95.15,0
160879,1,24741,0,54018,57889,53878.23,57336.21,139.77,552.79,0.558855,95.15,0
160919,1,24781,0,54025,57871,53878.52,57337.28,146.48,533.72,0.558855,95.15,0
160959,1,24821,0,54032,57851,53878.83,57338.30,153.17,512.70,0.558855,95.15,0
160999,1,24861,0,54038,57842,53879.15,57339.31,158.85,502.69,0.558855,95.15,0
161039,1,24901,0,54048,57853,53879.49,57340.34,168.51,512.66,0.558855,95.15,0
161079,1,24941,0,54063,57860,53879.86,57341.38,183.14,518.62,0.558855,95.15,0
161119,1,24981,0,54071,57859,53880.24,57342.41,190.76,516.59,0.558855,95.15,0
161159,1,25021,0,54081,57868,53880.64,57343.46,200.36,524.54,0.558855,95.15,0
161199,1,25061,0,54090,57874,53881.07,57344.53,208.93,529.47,0.558855,95.15,0
161240,1,25102,0,54106,57881,53881.52,57345.60,224.48,535.40,0.558855,95.15,0
161280,1,25142,0,54113,57892,53881.98,57346.70,231.02,545.30,0.558855,95.15,0
161320,1,25182,0,54134,57906,53882.49,57347.82,251.51,558.18,0.558855,95.15,0
161360,1,25222,0,54143,57912,53883.01,57348.95,259.99,563.05,0.558855,95.15,0
161400,1,25262,0,54149,57924,53883.55,57350.10,265.45,573.90,0.558855,95.15,0
161440,1,25302,0,54159,57939,53884.10,57351.28,274.90,587.72,0.558855,95.15,0
161480,1,25342,0,54169,57911,53884.67,57352.40,284.33,558.60,0.558855,95.15,0
161520,1,25382,0,54143,57805,53885.19,57353.30,257.81,451.70,0.558855,95.15,0
161560,1,25422,0,54114,57732,53885.65,57354.06,228.35,377.94,0.558855,95.15,0
161600,1,25462,0,54111,57717,53886.10,57354.79,224.90,362.21,0.558855,95.15,0
161640,1,25502,0,54120,57713,53886.57,57355.51,233.43,357.49,0.558855,95.15,0
161680,1,25542,0,54127,57705,53887.05,57356.21,239.95,348.79,0.558855,95.15,0
161720,1,25582,0,54139,57707,53887.55,57356.91,251.45,350.09,0.558855,95.15,0
161760,1,25622,0,54152,57716,53888.09,57357.63,263.91,358.37,0.558855,95.15,0
161800,1,25662,0,54162,57716,53888.64,57358.35,273.36,357.65,0.558855,95.15,0
161840,1,25702,0,54176,57718,53889.21,57359.07,286.79,358.93,0.558855,95.15,0
161880,1,25742,0,54187,57725,53889.81,57359.80,297.19,365.20,0.558855,95.15,0
161920,1,25782,0,54205,57747,53890.44,57360.58,314.56,386.42,0.558855,95.15,0
161960,1,25822,0,54219,57761,53891.10,57361.38,327.90,399.62,0.558855,95.15,0
162000,1,25862,0,54237,57780,53891.79,57362.22,345.21,417.78,0.558855,95.15,0
162040,1,25902,0,54248,57797,53892.51,57363.09,355.49,433.91,0.558855,95.15,0
162080,1,25942,0,54261,57818,53893.25,57364.00,367.75,454.00,0.558855,95.15,0
162120,1,25982,0,54270,57842,53894.00,57364.96,376.00,477.04,0.558855,95.15,0
162160,1,26022,0,54284,57840,53894.78,57365.91,389.22,474.09,0.557786,95.17,1
162200,1,26062,0,54267,57748,53895.53,57366.68,371.47,381.32,0.556735,95.20,1
162240,1,26102,0,54240,57678,53896.22,57367.30,343.78,310.70,0.555698,95.23,1
162280,1,26142,0,54229,57660,53896.89,57367.89,332.11,292.11,0.554676,95.26,1
162320,1,26182,0,54233,57665,53897.56,57368.48,335.44,296.52,0.553668,95.28,1
162360,1,26222,0,54238,57666,53898.24,57369.08,339.76,296.92,0.552675,95.31,1
162400,1,26262,0,54244,57670,53898.93,57369.68,345.07,300.32,0.551696,95.34,1
162440,1,26302,0,54253,57680,53899.64,57370.30,353.36,309.70,0.550732,95.36,1
162480,1,26342,0,54258,57681,53900.36,57370.93,357.64,310.07,0.549783,95.39,1
162520,1,26382,0,54261,57681,53901.09,57371.55,359.91,309.45,0.548850,95.42,1
162561,1,26423,0,54260,57684,53901.80,57372.17,358.20,311.83,0.547931,95.44,1
162601,1,26463,0,54264,57679,53902.53,57372.79,361.47,306.21,0.547027,95.47,1
162641,1,26503,0,54268,57683,53903.26,57373.41,364.74,309.59,0.546138,95.50,1
162681,1,26543,0,54263,57699,53903.98,57374.06,359.02,324.94,0.545264,95.52,1
162721,1,26583,0,54270,57717,53904.72,57374.75,365.28,342.25,0.544404,95.55,1
162761,1,26623,0,54278,57753,53905.46,57375.50,372.54,377.50,0.543559,95.57,1
162801,1,26663,0,54294,57779,53906.24,57376.31,387.76,402.69,0.542729,95.60,1
162841,1,26703,0,54297,57771,53907.02,57377.10,389.98,393.90,0.541915,95.63,1
162881,1,26743,0,54277,57694,53907.77,57377.74,369.23,316.26,0.541116,95.65,1
162921,1,26783,0,54249,57647,53908.45,57378.28,340.55,268.72,0.540329,95.68,1
162961,1,26823,0,54240,57652,53909.11,57378.83,330.89,273.17,0.539554,95.70,1
163001,1,26863,0,54246,57659,53909.79,57379.39,336.21,279.61,0.538791,95.73,1
163041,1,26903,0,54244,57675,53910.46,57379.98,333.54,295.02,0.538039,95.75,1
163081,1,26943,0,54253,57695,53911.14,57380.62,341.86,314.38,0.537300,95.78,1
163121,1,26983,0,54268,57720,53911.86,57381.30,356.14,338.70,0.536574,95.80,1
163161,1,27023,0,54272,57733,53912.58,57382.00,359.42,351.00,0.535861,95.82,1
163201,1,27063,0,54281,57747,53913.32,57382.73,367.68,364.27,0.535161,95.85,1
163241,1,27103,0,54285,57759,53914.07,57383.48,370.93,375.52,0.534474,95.87,1
163281,1,27143,0,54294,57778,53914.83,57384.27,379.17,393.73,0.533801,95.90,1
163321,1,27183,0,54299,57787,53915.60,57385.08,383.40,401.92,0.533141,95.92,1
163361,1,27223,0,54303,57805,53916.37,57385.92,386.62,419.08,0.532496,95.94,1
163401,1,27263,0,54306,57819,53917.16,57386.79,388.84,432.21,0.531864,95.96,1
163441,1,27303,0,54309,57848,53917.94,57387.71,391.06,460.29,0.531245,95.99,1
163481,1,27343,0,54317,57867,53918.74,57388.68,398.26,478.32,0.530640,96.01,1
163521,1,27383,0,54317,57840,53919.54,57389.58,397.46,450.42,0.530049,96.03,1
163561,1,27423,0,54297,57799,53920.30,57390.40,376.70,408.60,0.529471,96.05,1
163601,1,27463,0,54282,57794,53921.02,57391.21,360.98,402.79,0.528903,96.08,1
163641,1,27503,0,54281,57802,53921.75,57392.03,359.25,409.97,0.528347,96.10,1
163681,1,27543,0,54283,57812,53922.47,57392.87,360.53,419.13,0.527802,96.12,1
163721,1,27583,0,54284,57832,53923.19,57393.75,360.81,438.25,0.527268,96.14,1
163761,1,27623,0,54293,57857,53923.93,57394.68,369.07,462.32,0.526745,96.16,1
163802,1,27664,0,54304,57874,53924.70,57395.64,379.30,478.36,0.526234,96.18,1
163842,1,27704,0,54303,57897,53925.45,57396.64,377.55,500.36,0.525734,96.20,1
163882,1,27744,0,54312,57921,53926.23,57397.70,385.77,523.30,0.525245,96.22,1
163922,1,27784,0,54321,57952,53927.02,57398.80,393.98,553.20,0.524767,96.24,1
163962,1,27824,0,54329,57987,53927.82,57399.98,401.18,587.02,0.524301,96.26,1
164002,1,27864,0,54338,58021,53928.64,57401.23,409.36,619.77,0.523847,96.28,1
164042,1,27904,0,54347,58055,53929.48,57402.54,417.52,652.46,0.523403,96.30,1
164082,1,27944,0,54362,58078,53930.35,57403.89,431.65,674.11,0.522971,96.32,1
164122,1,27984,0,54370,58097,53931.23,57405.27,438.77,691.73,0.522552,96.34,1
164162,1,28024,0,54373,58099,53932.11,57406.66,440.89,692.34,0.522144,96.35,1
164202,1,28064,0,54355,58060,53932.96,57407.97,422.04,652.03,0.521747,96.37,1
164242,1,28104,0,54340,58052,53933.78,57409.26,406.22,642.74,0.521360,96.39,1
164282,1,28144,0,54339,58069,53934.59,57410.58,404.41,658.42,0.520982,96.41,1
164322,1,28184,0,54341,58077,53935.40,57411.92,405.60,665.08,0.520613,96.42,1
164362,1,28224,0,54341,58087,53936.21,57413.27,404.79,673.73,0.520254,96.44,1
164402,1,28264,0,54347,58093,53937.04,57414.63,409.96,678.37,0.519903,96.46,1
164442,1,28304,0,54351,58103,53937.87,57416.01,413.13,686.99,0.519561,96.48,1
164482,1,28344,0,54356,58116,53938.70,57417.41,417.30,698.59,0.519228,96.49,1
164522,1,28384,0,54359,58124,53939.55,57418.82,419.45,705.18,0.518905,96.51,1
164562,1,28424,0,54356,58138,53940.38,57420.27,415.62,717.73,0.518589,96.52,1
164602,1,28464,0,54360,58153,53941.22,57421.73,418.78,731.27,0.518281,96.54,1
164642,1,28504,0,54361,58168,53942.06,57423.23,418.94,744.77,0.517981,96.55,1
164682,1,28544,0,54362,58180,53942.90,57424.74,419.10,755.26,0.517689,96.57,1
164722,1,28584,0,54363,58190,53943.74,57426.27,419.26,763.73,0.517403,96.58,1
164762,1,28624,0,54368,58201,53944.59,57427.82,423.41,773.18,0.517125,96.60,1
164802,1,28664,0,54368,58212,53945.44,57429.39,422.56,782.61,0.516854,96.61,1
164842,1,28704,0,54362,58172,53946.28,57430.88,415.72,741.12,0.516589,96.63,1
164882,1,28744,0,54340,58148,53947.07,57432.32,392.93,715.68,0.516331,96.64,1
164922,1,28784,0,54329,58149,53947.83,57433.75,381.17,715.25,0.516078,96.66,1
164962,1,28824,0,54327,58157,53948.59,57435.20,378.41,721.80,0.515829,96.67,1
165002,1,28864,0,54332,58174,53949.36,57436.68,382.64,737.32,0.515586,96.68,1
165043,1,28905,0,54333,58192,53950.13,57438.20,382.87,753.80,0.515347,96.70,1
165083,1,28945,0,54340,58214,53950.91,57439.75,389.09,774.25,0.515112,96.71,1
165123,1,28985,0,54347,58218,53951.70,57441.31,395.30,776.69,0.514882,96.72,1
165163,1,29025,0,54344,58231,53952.49,57442.89,391.51,788.11,0.514656,96.73,1
165203,1,29065,0,54341,58239,53953.27,57444.48,387.73,794.52,0.514433,96.75,1
165243,1,29105,0,54338,58251,53954.04,57446.10,383.96,804.90,0.514214,96.76,1
165283,1,29145,0,54334,58256,53954.80,57447.72,379.20,808.28,0.513998,96.77,1
165323,1,29185,0,54337,58267,53955.56,57449.36,381.44,817.64,0.513785,96.78,1
165363,1,29225,0,54339,58273,53956.33,57451.01,382.67,821.99,0.513574,96.79,1
165403,1,29265,0,54340,58281,53957.10,57452.67,382.90,828.33,0.513366,96.80,1
165443,1,29305,0,54338,58285,53957.86,57454.34,380.14,830.66,0.513160,96.81,1
165483,1,29345,0,54334,58281,53958.62,57455.99,375.38,825.01,0.512956,96.82,1
165523,1,29385,0,54318,58240,53959.34,57457.56,358.66,782.44,0.512755,96.84,1
165563,1,29425,0,54297,58218,53960.01,57459.09,336.99,758.91,0.512555,96.85,1
165603,1,29465,0,54295,58227,53960.68,57460.62,334.32,766.37,0.512356,96.86,1
165643,1,29505,0,54296,58230,53961.36,57462.16,334.64,767.84,0.512158,96.87,1
165683,1,29545,0,54296,58229,53962.03,57463.70,333.97,765.30,0.511962,96.88,1
165723,1,29585,0,54293,58234,53962.69,57465.24,330.31,768.76,0.511766,96.89,1
165763,1,29625,0,54295,58244,53963.36,57466.80,331.64,777.20,0.511571,96.90,1
165803,1,29665,0,54297,58256,53964.02,57468.38,332.98,787.62,0.511377,96.91,1
165843,1,29705,0,54299,58271,53964.70,57469.98,334.30,801.02,0.511184,96.92,1
165883,1,29745,0,54305,58292,53965.38,57471.63,339.62,820.37,0.510991,96.92,1
165923,1,29785,0,54307,58302,53966.06,57473.29,340.94,828.71,0.510798,96.93,1
165963,1,29825,0,54304,58317,53966.74,57474.98,337.26,842.02,0.510605,96.94,1
166003,1,29865,0,54308,58323,53967.42,57476.68,340.58,846.32,0.510412,96.95,1
166043,1,29905,0,54307,58334,53968.10,57478.39,338.90,855.61,0.510219,96.96,1
166083,1,29945,0,54308,58345,53968.78,57480.13,339.22,864.87,0.510025,96.97,1
166123,1,29985,0,54310,58360,53969.46,57481.89,340.54,878.11,0.509831,96.98,1
166163,1,30025,0,54306,58357,53970.14,57483.64,335.86,873.36,0.509636,96.99,1
166203,1,30065,0,54295,58323,53970.79,57485.32,324.21,837.68,0.509440,96.99,1
166243,1,30105,0,54284,58320,53971.42,57486.99,312.58,833.01,0.509243,97.00,1
166283,1,30145,0,54280,58329,53972.04,57488.68,307.96,840.32,0.509045,97.01,1
166324,1,30186,0,54280,58339,53972.66,57490.38,307.34,848.62,0.508846,97.02,1
166364,1,30226,0,54284,58345,53973.28,57492.09,310.72,852.91,0.508645,97.03,1
166404,1,30266,0,54284,58366,53973.90,57493.84,310.10,872.16,0.508443,97.03,1
166444,1,30306,0,54288,58382,53974.53,57495.62,313.47,886.38,0.508239,97.04,1
166484,1,30346,0,54285,58382,53975.15,57497.39,309.85,884.61,0.508033,97.05,1
166524,1,30386,0,54284,58399,53975.77,57499.20,308.23,899.80,0.507825,97.06,1
166564,1,30426,0,54286,58404,53976.39,57501.01,309.61,902.99,0.507615,97.07,1
166604,1,30466,0,54289,58412,53977.02,57502.83,311.98,909.17,0.507403,97.07,1
166644,1,30506,0,54289,58425,53977.64,57504.68,311.36,920.32,0.507188,97.08,1
166684,1,30546,0,54288,58430,53978.26,57506.53,309.74,923.47,0.506971,97.09,1
166724,1,30586,0,54288,58447,53978.88,57508.41,309.12,938.59,0.506751,97.10,1
166764,1,30626,0,54291,58464,53979.51,57510.33,311.49,953.67,0.506529,97.10,1
166804,1,30666,0,54298,58483,53980.14,57512.27,317.86,970.73,0.506304,97.11,1
166844,1,30706,0,54298,58460,53980.78,57514.17,317.22,945.83,0.506076,97.12,1
166884,1,30746,0,54278,58433,53981.38,57516.01,296.62,916.99,0.505846,97.12,1
166924,1,30786,0,54278,58436,53981.97,57517.85,296.03,918.15,0.505613,97.13,1
166964,1,30826,0,54282,58451,53982.57,57519.72,299.43,931.28,0.505378,97.14,1
167004,1,30866,0,54284,58457,53983.18,57521.59,300.82,935.41,0.505141,97.14,1
167044,1,30906,0,54284,58474,53983.78,57523.50,300.22,950.50,0.504900,97.15,1
167084,1,30946,0,54287,58491,53984.39,57525.44,302.61,965.56,0.504657,97.16,1
167124,1,30986,0,54285,58497,53984.99,57527.38,300.01,969.62,0.504411,97.17,1
167164,1,31026,0,54282,58501,53985.59,57529.33,296.41,971.67,0.504161,97.17,1
167204,1,31066,0,54284,58510,53986.18,57531.29,297.82,978.71,0.503909,97.18,1
167244,1,31106,0,54286,58515,53986.79,57533.26,299.21,981.74,0.503654,97.19,1
167284,1,31146,0,54283,58524,53987.38,57535.25,295.62,988.75,0.503395,97.19,1
167324,1,31186,0,54282,58533,53987.97,57537.24,294.03,995.76,0.503133,97.20,1
167364,1,31226,0,54283,58546,53988.56,57539.26,294.44,1006.74,0.502867,97.21,1
167404,1,31266,0,54286,58561,53989.16,57541.31,296.84,1019.69,0.502598,97.21,1
167444,1,31306,0,54286,58579,53989.75,57543.39,296.25,1035.61,0.502325,97.22,1
167485,1,31347,0,54293,58594,53990.36,57545.49,302.64,1048.51,0.502049,97.23,1
167525,1,31387,0,54283,58560,53990.95,57547.52,292.05,1012.48,0.501769,97.23,1
167565,1,31427,0,54265,58539,53991.50,57549.50,273.50,989.50,0.501486,97.24,1
167605,1,31467,0,54266,58544,53992.05,57551.50,273.95,992.50,0.501199,97.25,1
167645,1,31507,0,54264,58555,53992.59,57553.50,271.41,1001.50,0.500909,97.25,1
167685,1,31547,0,54260,58558,53993.13,57555.52,266.87,1002.48,0.500615,97.26,1
167725,1,31587,0,54261,58571,53993.67,57557.55,267.33,1013.45,0.500317,97.27,1
167765,1,31627,0,54264,58576,53994.21,57559.59,269.79,1016.41,0.500016,97.28,1
167805,1,31667,0,54265,58581,53994.75,57561.63,270.25,1019.37,0.499711,97.28,1
167845,1,31707,0,54262,58585,53995.29,57563.68,266.71,1021.32,0.499402,97.29,1
167885,1,31747,0,54257,58594,53995.81,57565.74,261.19,1028.26,0.499090,97.30,1
167925,1,31787,0,54258,58606,53996.34,57567.82,261.66,1038.18,0.498773,97.30,1
167965,1,31827,0,54263,58617,53996.87,57569.92,266.12,1047.08,0.498453,97.31,1
168005,1,31867,0,54262,58630,53997.41,57572.04,264.59,1057.96,0.498128,97.32,1
168045,1,31907,0,54268,58646,53997.95,57574.19,270.05,1071.81,0.497800,97.32,1
168085,1,31947,0,54272,58662,53998.50,57576.37,273.50,1085.63,0.497468,97.33,1
168125,1,31987,0,54279,58673,53999.06,57578.56,279.94,1094.44,0.497132,97.34,1
168165,1,32027,0,54283,58680,53999.63,57580.77,283.37,1099.23,0.496792,97.35,1
168205,1,32067,0,54275,58635,54000.18,57582.87,274.82,1052.13,0.496449,97.35,1
168245,1,32107,0,54250,58594,54000.68,57584.90,249.32,1009.10,0.496103,97.36,1
168285,1,32147,0,54236,58582,54001.16,57586.89,234.84,995.11,0.495753,97.37,1
168325,1,32187,0,54229,58585,54001.61,57588.89,227.39,996.11,0.495401,97.38,1
168365,1,32227,0,54229,58586,54002.07,57590.89,226.93,995.11,0.495045,97.38,1
168405,1,32267,0,54229,58586,54002.53,57592.88,226.47,993.12,0.494685,97.39,1
168445,1,32307,0,54228,58582,54002.98,57594.86,225.02,987.14,0.494323,97.40,1
168485,1,32347,0,54229,58583,54003.43,57596.84,225.57,986.16,0.493957,97.41,1
168525,1,32387,0,54220,58577,54003.87,57598.80,216.13,978.20,0.493588,97.41,1
168565,1,32427,0,54221,58581,54004.30,57600.76,216.70,980.24,0.493216,97.42,1
168605,1,32467,0,54217,58585,54004.73,57602.73,212.27,982.27,0.492841,97.43,1
168645,1,32507,0,54218,58589,54005.16,57604.70,212.84,984.30,0.492463,97.44,1
168685,1,32547,0,54222,58596,54005.59,57606.69,216.41,989.31,0.492081,97.44,1
168725,1,32587,0,54218,58596,54006.02,57608.67,211.98,987.33,0.491697,97.45,1
168766,1,32628,0,54215,58601,54006.44,57610.65,208.56,990.35,0.491309,97.46,1
168806,1,32668,0,54211,58603,54006.85,57612.64,204.15,990.36,0.490918,97.47,1
168846,1,32708,0,54213,58608,54007.26,57614.63,205.74,993.37,0.490525,97.48,1
168886,1,32748,0,54207,58559,54007.66,57616.52,199.34,942.48,0.490128,97.48,1
168926,1,32788,0,54176,58516,54008.00,57618.32,168.00,897.68,0.489729,97.49,1
168966,1,32828,0,54165,58505,54008.32,57620.09,156.68,884.91,0.489327,97.50,1
169006,1,32868,0,54163,58511,54008.63,57621.88,154.37,889.12,0.488922,97.51,1
169046,1,32908,0,54168,58511,54008.95,57623.66,159.05,887.34,0.488515,97.52,1
169086,1,32948,0,54172,58527,54009.28,57625.47,162.72,901.53,0.488105,97.53,1
169126,1,32988,0,54179,58530,54009.62,57627.28,169.38,902.72,0.487692,97.53,1
169166,1,33028,0,54177,58525,54009.96,57629.08,167.04,895.92,0.487277,97.54,1
169206,1,33068,0,54172,58534,54010.28,57630.89,161.72,903.11,0.486859,97.55,1
169246,1,33108,0,54181,58542,54010.62,57632.71,170.37,909.29,0.486439,97.56,1
169286,1,33148,0,54182,58550,54010.97,57634.55,171.03,915.45,0.486017,97.57,1
169326,1,33188,0,54188,58562,54011.32,57636.41,176.68,925.59,0.485592,97.58,1
169366,1,33228,0,54197,58567,54011.70,57638.27,185.30,928.73,0.485164,97.59,1
169406,1,33268,0,54205,58578,54012.08,57640.15,192.92,937.85,0.484735,97.60,1
169446,1,33308,0,54206,58587,54012.47,57642.05,193.53,944.95,0.484303,97.60,1
169486,1,33348,0,54208,58594,54012.86,57643.95,195.14,950.05,0.483869,97.61,1
169526,1,33388,0,54211,58579,54013.26,57645.82,197.74,933.18,0.483434,97.62,1
169566,1,33428,0,54187,58522,54013.61,57647.58,173.39,874.42,0.482996,97.63,1
169606,1,33468,0,54174,58494,54013.93,57649.27,160.07,844.73,0.482557,97.64,1
169646,1,33508,0,54171,58499,54014.25,57650.97,156.75,848.03,0.482117,97.65,1
169686,1,33548,0,54182,58504,54014.58,57652.68,167.42,851.32,0.481674,97.66,1
169726,1,33588,0,54186,58512,54014.93,57654.40,171.07,857.60,0.481231,97.67,1
169766,1,33628,0,54193,58524,54015.29,57656.14,177.71,867.86,0.480785,97.68,1
169806,1,33668,0,54196,58520,54015.65,57657.87,180.35,862.13,0.480339,97.69,1
169846,1,33708,0,54191,58516,54016.00,57659.59,175.00,856.41,0.479891,97.70,1
169886,1,33748,0,54197,58525,54016.36,57661.32,180.64,863.68,0.479442,97.71,1
169926,1,33788,0,54204,58534,54016.74,57663.07,187.26,870.93,0.478992,97.72,1
169967,1,33829,0,54211,58551,54017.13,57664.84,193.87,886.16,0.478541,97.73,1
170007,1,33869,0,54218,58557,54017.53,57666.63,200.47,890.37,0.478088,97.73,1
170047,1,33909,0,54222,58567,54017.94,57668.43,204.06,898.57,0.477635,97.74,1
170087,1,33949,0,54229,58581,54018.36,57670.26,210.64,910.74,0.477181,97.75,1
170127,1,33989,0,54234,58594,54018.80,57672.11,215.20,921.89,0.476726,97.76,1
170167,1,34029,0,54239,58603,54019.24,57673.97,219.76,929.03,0.476271,97.77,1
170207,1,34069,0,54230,58542,54019.66,57675.71,210.34,866.29,0.475815,97.78,1
170247,1,34109,0,54205,58488,54020.03,57677.33,184.97,810.67,0.475358,97.79,1
170287,1,34149,0,54204,58477,54020.40,57678.93,183.60,798.07,0.474901,97.80,1
170327,1,34189,0,54212,58490,54020.79,57680.56,191.21,809.44,0.474445,97.81,1
170367,1,34229,0,54226,58502,54021.20,57682.20,204.80,819.80,0.473988,97.82,1
170407,1,34269,0,54230,58509,54021.61,57683.86,208.39,825.14,0.473531,97.83,1
170447,1,34309,0,54241,58524,54022.05,57685.54,218.95,838.46,0.473074,97.84,1
170487,1,34349,0,54253,58525,54022.52,57687.22,230.48,837.78,0.472619,97.85,1
170527,1,34389,0,54259,58533,54022.99,57688.91,236.01,844.09,0.472164,97.86,1
170567,1,34429,0,54271,58541,54023.49,57690.62,247.51,850.38,0.471710,97.88,1
170607,1,34469,0,54283,58554,54024.01,57692.35,258.99,861.65,0.471257,97.89,1
170647,1,34509,0,54296,58565,54024.55,57694.09,271.45,870.91,0.470806,97.90,1
170687,1,34549,0,54307,58582,54025.12,57695.87,281.88,886.13,0.470358,97.91,1
170727,1,34589,0,54314,58596,54025.70,57697.67,288.30,898.33,0.469911,97.92,1
170767,1,34629,0,54324,58608,54026.30,57699.49,297.70,908.51,0.469466,97.93,1
170807,1,34669,0,54331,58627,54026.91,57701.35,304.09,925.65,0.469024,97.94,1
170847,1,34709,0,54338,58609,54027.53,57703.16,310.47,905.84,0.468585,97.95,1
170887,1,34749,0,54317,58531,54028.11,57704.82,288.89,826.18,0.468149,97.96,1
170927,1,34789,0,54295,58472,54028.65,57706.36,266.35,765.64,0.467715,97.97,1
170967,1,34829,0,54290,58473,54029.17,57707.89,260.83,765.11,0.467283,97.98,1
171007,1,34869,0,54298,58472,54029.71,57709.42,268.29,762.58,0.466854,97.99,1
171047,1,34909,0,54304,58473,54030.26,57710.95,273.74,762.05,0.466428,98.00,1
171087,1,34949,0,54309,58476,54030.82,57712.48,278.18,763.52,0.466004,98.01,1
171127,1,34989,0,54319,58479,54031.40,57714.02,287.60,764.98,0.465584,98.02,1
171167,1,35029,0,54324,58478,54031.98,57715.55,292.02,762.45,0.465168,98.03,1
171208,1,35070,0,54327,58484,54032.57,57717.09,294.43,766.91,0.464755,98.04,1
171248,1,35110,0,54338,58491,54033.19,57718.64,304.81,772.36,0.464345,98.05,1
171288,1,35150,0,54347,58505,54033.82,57720.21,313.18,784.79,0.463940,98.06,1
171328,1,35190,0,54357,58524,54034.46,57721.82,322.54,802.18,0.463539,98.07,1
171368,1,35230,0,54365,58530,54035.13,57723.44,329.87,806.56,0.463142,98.08,1
171408,1,35270,0,54367,58550,54035.79,57725.09,331.21,824.91,0.462749,98.09,1
171448,1,35310,0,54381,58567,54036.48,57726.78,344.52,840.22,0.462361,98.10,1
171488,1,35350,0,54390,58584,54037.19,57728.49,352.81,855.51,0.461978,98.12,1
171528,1,35390,0,54396,58547,54037.91,57730.13,358.09,816.87,0.461601,98.13,1
171568,1,35430,0,54369,58463,54038.57,57731.60,330.43,731.40,0.461228,98.14,1
171608,1,35470,0,54343,58420,54039.18,57732.98,303.82,687.02,0.460860,98.15,1
171648,1,35510,0,54345,58429,54039.80,57734.37,305.20,694.63,0.460496,98.16,1
171688,1,35550,0,54355,58438,54040.43,57735.78,314.57,702.22,0.460136,98.17,1
171728,1,35590,0,54358,58445,54041.07,57737.20,316.93,707.80,0.459780,98.18,1
171768,1,35630,0,54376,58459,54041.74,57738.65,334.26,720.35,0.459430,98.19,1
171808,1,35670,0,54383,58455,54042.42,57740.08,340.58,714.92,0.459085,98.20,1
171848,1,35710,0,54386,58455,54043.11,57741.51,342.89,713.49,0.458746,98.21,1
171888,1,35750,0,54395,58461,54043.82,57742.95,351.18,718.05,0.458412,98.22,1
171928,1,35790,0,54397,58471,54044.52,57744.41,352.48,726.59,0.458084,98.23,1
171968,1,35830,0,54406,58486,54045.25,57745.89,360.75,740.11,0.457762,98.24,1
172008,1,35870,0,54412,58504,54045.98,57747.41,366.02,756.59,0.457446,98.25,1
172048,1,35910,0,54416,58512,54046.72,57748.95,369.28,763.05,0.457135,98.26,1
172088,1,35950,0,54422,58521,54047.47,57750.49,374.53,770.51,0.456831,98.27,1
172128,1,35990,0,54432,58524,54048.24,57752.04,383.76,771.96,0.456532,98.28,1
172168,1,36030,0,54429,58530,54049.00,57753.60,380.00,776.40,0.456240,98.29,1
172208,1,36070,0,54435,58543,54049.78,57755.18,385.22,787.82,0.455954,98.29,1
172248,1,36110,0,54425,58474,54050.53,57756.62,374.47,717.38,0.455675,98.30,1
172288,1,36150,0,54390,58397,54051.21,57757.90,338.79,639.10,0.455400,98.31,1
172328,1,36190,0,54370,58370,54051.85,57759.12,318.15,610.87,0.455130,98.32,1
172369,1,36231,0,54366,58367,54052.48,57760.34,313.52,606.66,0.454865,98.33,1
172409,1,36271,0,54368,58354,54053.11,57761.53,314.89,592.47,0.454605,98.34,1
172449,1,36311,0,54360,58351,54053.72,57762.71,306.28,588.29,0.454348,98.35,1
172489,1,36351,0,54364,58355,54054.34,57763.90,309.66,591.10,0.454096,98.36,1
172529,1,36391,0,54363,58353,54054.96,57765.08,308.04,587.92,0.453849,98.37,1
172569,1,36431,0,54365,58363,54055.58,57766.28,309.42,596.72,0.453606,98.38,1
172609,1,36471,0,54375,58379,54056.22,57767.50,318.78,611.50,0.453367,98.39,1
172649,1,36511,0,54381,58383,54056.87,57768.74,324.12,614.26,0.453133,98.39,1
172689,1,36551,0,54389,58390,54057.54,57769.98,331.46,620.02,0.452903,98.40,1
172729,1,36591,0,54389,58391,54058.20,57771.22,330.80,619.78,0.452679,98.41,1
172769,1,36631,0,54389,58394,54058.87,57772.47,330.13,621.53,0.452460,98.42,1
172809,1,36671,0,54386,58398,54059.52,57773.72,326.48,624.28,0.452244,98.43,1
172849,1,36711,0,54387,58402,54060.18,57774.98,326.82,627.02,0.452034,98.44,1
172889,1,36751,0,54391,58411,54060.84,57776.25,330.16,634.75,0.451828,98.44,1
172929,1,36791,0,54394,58414,54061.51,57777.53,332.49,636.47,0.451626,98.45,1
172969,1,36831,0,54391,58349,54062.17,57778.68,328.83,570.32,0.451430,98.46,1
173009,1,36871,0,54355,58279,54062.76,57779.68,292.24,499.32,0.451238,98.47,1
173049,1,36911,0,54339,58257,54063.31,57780.64,275.69,476.36,0.451049,98.47,1
173089,1,36951,0,54346,58266,54063.88,57781.61,282.12,484.39,0.450865,98.48,1
173129,1,36991,0,54346,58269,54064.45,57782.59,281.55,486.41,0.450684,98.49,1
173169,1,37031,0,54352,58286,54065.02,57783.59,286.98,502.41,0.450507,98.50,1
173209,1,37071,0,54356,58289,54065.61,57784.61,290.39,504.39,0.450334,98.50,1
173249,1,37111,0,54358,58289,54066.19,57785.62,291.81,503.38,0.450165,98.51,1
173289,1,37151,0,54365,58298,54066.79,57786.64,298.21,511.36,0.450001,98.52,1
173329,1,37191,0,54374,58319,54067.41,57787.71,306.59,531.29,0.449841,98.53,1
173369,1,37231,0,54383,58337,54068.04,57788.81,314.96,548.19,0.449685,98.53,1
173409,1,37271,0,54392,58352,54068.69,57789.94,323.31,562.06,0.449534,98.54,1
173449,1,37311,0,54395,58369,54069.34,57791.10,325.66,577.90,0.449387,98.55,1
173489,1,37351,0,54401,58378,54070.00,57792.28,331.00,585.72,0.449246,98.55,1
173529,1,37391,0,54401,58379,54070.67,57793.45,330.33,585.55,0.449109,98.56,1
173570,1,37432,0,54401,58384,54071.33,57794.64,329.67,589.36,0.448976,98.57,1
173610,1,37472,0,54399,58404,54071.98,57795.86,327.02,608.14,0.448848,98.57,1
173650,1,37512,0,54412,58399,54072.66,57797.06,339.34,601.94,0.448725,98.58,1
173690,1,37552,0,54397,58344,54073.31,57798.16,323.69,545.84,0.448606,98.59,1
173730,1,37592,0,54373,58312,54073.91,57799.18,299.09,512.82,0.448491,98.59,1
173770,1,37632,0,54368,58320,54074.50,57800.23,293.50,519.77,0.448380,98.60,1
173810,1,37672,0,54376,58333,54075.11,57801.29,300.89,531.71,0.448272,98.60,1
173850,1,37712,0,54383,58336,54075.73,57802.36,307.27,533.64,0.448169,98.61,1
173890,1,37752,0,54391,58344,54076.36,57803.45,314.64,540.55,0.448070,98.61,1
173930,1,37792,0,54394,58346,54077.00,57804.54,317.00,541.46,0.447975,98.62,1
173970,1,37832,0,54393,58344,54077.63,57805.62,315.37,538.38,0.447884,98.63,1
174010,1,37872,0,54395,58357,54078.27,57806.72,316.73,550.28,0.447798,98.63,1
174050,1,37912,0,54408,58377,54078.93,57807.86,329.07,569.14,0.447716,98.64,1
174090,1,37952,0,54413,58397,54079.59,57809.04,333.41,587.96,0.447638,98.64,1
174130,1,37992,0,54423,58421,54080.28,57810.27,342.72,610.73,0.447565,98.65,1
174170,1,38032,0,54439,58436,54081.00,57811.52,358.00,624.48,0.447497,98.65,1
174210,1,38072,0,54449,58452,54081.74,57812.80,367.26,639.20,0.447434,98.66,1
174250,1,38112,0,54459,58473,54082.50,57814.12,376.50,658.87,0.447376,98.66,1
174290,1,38152,0,54464,58493,54083.26,57815.48,380.74,677.52,0.447324,98.67,1
174330,1,38192,0,54471,58491,54084.04,57816.84,386.96,674.16,0.447278,98.67,1
174370,1,38232,0,54453,58425,54084.78,57818.05,368.22,606.95,0.447236,98.67,1
174410,1,38272,0,54422,58359,54085.45,57819.14,336.55,539.86,0.447200,98.68,1
174450,1,38312,0,54412,58347,54086.11,57820.20,325.89,526.80,0.447168,98.68,1
174490,1,38352,0,54414,58336,54086.77,57821.23,327.23,514.77,0.447141,98.69,1
174530,1,38392,0,54411,58332,54087.41,57822.25,323.59,509.75,0.447118,98.69,1
174570,1,38432,0,54415,58335,54088.07,57823.28,326.93,511.72,0.447099,98.70,1
174610,1,38472,0,54418,58342,54088.73,57824.32,329.27,517.68,0.447085,98.70,1
174650,1,38512,0,54419,58338,54089.39,57825.34,329.61,512.66,0.447076,98.70,1
174690,1,38552,0,54418,58350,54090.05,57826.39,327.95,523.61,0.447071,98.71,1
174730,1,38592,0,54427,58356,54090.73,57827.46,336.27,528.54,0.447071,98.71,1
174771,1,38633,0,54435,58368,54091.42,57828.54,343.58,539.46,0.447076,98.71,1
174811,1,38673,0,54439,58379,54092.11,57829.64,346.89,549.36,0.447085,98.72,1
174851,1,38713,0,54444,58389,54092.82,57830.76,351.18,558.24,0.447100,98.72,1
174891,1,38753,0,54445,58397,54093.53,57831.89,351.47,565.11,0.447119,98.72,1
174931,1,38793,0,54448,58408,54094.24,57833.05,353.76,574.95,0.447143,98.73,1
174971,1,38833,0,54450,58424,54094.95,57834.23,355.05,589.77,0.447171,98.73,1
175011,1,38873,0,54456,58423,54095.68,57835.41,360.32,587.59,0.447204,98.73,1
175051,1,38913,0,54444,58352,54096.37,57836.45,347.62,515.55,0.447243,98.73,1
175091,1,38953,0,54412,58277,54097.01,57837.33,314.99,439.67,0.447285,98.74,1
175131,1,38993,0,54399,58265,54097.61,57838.18,301.39,426.82,0.447332,98.74,1
175171,1,39033,0,54401,58263,54098.22,57839.04,302.78,423.96,0.447383,98.74,1
175211,1,39073,0,54402,58259,54098.83,57839.87,303.17,419.12,0.447438,98.74,1
175251,1,39113,0,54404,58260,54099.45,57840.71,304.55,419.29,0.447497,98.75,1
175291,1,39153,0,54411,58265,54100.07,57841.57,310.93,423.43,0.447561,98.75,1
175331,1,39193,0,54413,58262,54100.70,57842.41,312.30,419.59,0.447629,98.75,1
175371,1,39233,0,54420,58267,54101.34,57843.26,318.66,423.74,0.447702,98.75,1
175411,1,39273,0,54425,58274,54101.99,57844.12,323.01,429.87,0.447780,98.75,1
175451,1,39313,0,54437,58289,54102.66,57845.02,334.34,443.98,0.447863,98.75,1
175491,1,39353,0,54445,58309,54103.35,57845.95,341.65,463.05,0.447951,98.76,1
175531,1,39393,0,54452,58325,54104.05,57846.91,347.95,478.09,0.448045,98.76,1
175571,1,39433,0,54468,58345,54104.78,57847.90,363.22,497.10,0.448144,98.76,1
175611,1,39473,0,54470,58363,54105.51,57848.93,364.49,514.07,0.448249,98.76,1
175651,1,39513,0,54480,58379,54106.26,57850.00,373.74,529.00,0.448361,98.76,1
175691,1,39553,0,54485,58386,54107.02,57851.07,377.98,534.93,0.448478,98.76,1
175731,1,39593,0,54479,58309,54107.76,57851.99,371.24,457.01,0.448601,98.76,1
175771,1,39633,0,54449,58248,54108.45,57852.78,340.55,395.22,0.448731,98.76,1
175811,1,39673,0,54435,58235,54109.10,57853.55,325.90,381.45,0.448866,98.76,1
175851,1,39713,0,54436,58247,54109.76,57854.34,326.24,392.66,0.449006,98.76,1
175891,1,39753,0,54442,58254,54110.42,57855.14,331.58,398.86,0.449152,98.76,1
175931,1,39793,0,54449,58265,54111.10,57855.96,337.90,409.04,0.449302,98.76,1
175971,1,39833,0,54451,58269,54111.78,57856.79,339.22,412.21,0.449459,98.76,1
176011,1,39873,0,54455,58274,54112.47,57857.62,342.53,416.38,0.449621,98.76,1
176052,1,39914,0,54458,58283,54113.16,57858.47,344.84,424.53,0.449788,98.76,1
176092,1,39954,0,54464,58294,54113.86,57859.34,350.14,434.66,0.449962,98.76,1
176132,1,39994,0,54471,58310,54114.58,57860.25,356.42,449.75,0.450140,98.76,1
176172,1,40034,0,54477,58334,54115.30,57861.20,361.70,472.80,0.450325,98.76,1
176212,1,40074,0,54485,58355,54116.05,57862.18,368.95,492.82,0.450515,98.76,1
176252,1,40114,0,54488,58377,54116.79,57863.21,371.21,513.79,0.450711,98.76,1
176292,1,40154,0,54501,58399,54117.56,57864.29,383.44,534.71,0.450912,98.76,1
176332,1,40194,0,54511,58424,54118.35,57865.41,392.65,558.59,0.451118,98.76,1
176372,1,40234,0,54516,58404,54119.15,57866.49,396.85,537.51,0.451331,98.76,1
176412,1,40274,0,54496,58340,54119.90,57867.44,376.10,472.56,0.451550,98.76,1
176452,1,40314,0,54469,58319,54120.60,57868.34,348.40,450.66,0.451774,98.75,1
176492,1,40354,0,54467,58336,54121.30,57869.28,345.70,466.72,0.452003,98.75,1
176532,1,40394,0,54478,58346,54122.01,57870.23,355.99,475.77,0.452236,98.75,1
176572,1,40434,0,54481,58363,54122.73,57871.22,358.27,491.78,0.452474,98.75,1
176612,1,40474,0,54492,58385,54123.47,57872.25,368.53,512.75,0.452716,98.75,1
176652,1,40514,0,54502,58393,54124.23,57873.29,377.77,519.71,0.452964,98.74,1
176692,1,40554,0,54508,58402,54125.00,57874.35,383.00,527.65,0.453217,98.74,1
176732,1,40594,0,54512,58420,54125.77,57875.45,386.23,544.55,0.453475,98.74,1
176772,1,40634,0,54521,58437,54126.57,57876.57,394.43,560.43,0.453737,98.74,1
176812,1,40674,0,54526,58457,54127.37,57877.73,398.63,579.27,0.454005,98.73,1
176852,1,40714,0,54539,58479,54128.19,57878.94,410.81,600.06,0.454278,98.73,1
176892,1,40754,0,54545,58506,54129.03,57880.19,415.97,625.81,0.454555,98.73,1
176932,1,40794,0,54551,58524,54129.87,57881.48,421.13,642.52,0.454837,98.73,1
176972,1,40834,0,54553,58543,54130.72,57882.80,422.28,660.20,0.455123,98.72,1
177012,1,40874,0,54564,58560,54131.59,57884.16,432.41,675.84,0.455413,98.72,1
177052,1,40914,0,54562,58514,54132.45,57885.42,429.55,628.58,0.455708,98.72,1
177092,1,40954,0,54533,58474,54133.25,57886.60,399.75,587.40,0.456007,98.71,1
177132,1,40994,0,54521,58474,54134.03,57887.78,386.97,586.22,0.456310,98.71,1
177172,1,41034,0,54523,58479,54134.81,57888.96,388.19,590.04,0.456616,98.71,1
177212,1,41074,0,54522,58488,54135.59,57890.16,386.41,597.84,0.456925,98.70,1
177252,1,41114,0,54527,58503,54136.37,57891.39,390.63,611.61,0.457236,98.70,1
177292,1,41154,0,54533,58511,54137.16,57892.63,395.84,618.37,0.457551,98.69,1
177333,1,41195,0,54532,58523,54137.96,57893.89,394.04,629.11,0.457868,98.69,1
177373,1,41235,0,54539,58531,54138.76,57895.17,400.24,635.83,0.458188,98.69,1
177413,1,41275,0,54539,58550,54139.56,57896.48,399.44,653.52,0.458510,98.68,1
177453,1,41315,0,54541,58565,54140.37,57897.82,400.63,667.18,0.458833,98.68,1
177493,1,41355,0,54545,58582,54141.18,57899.19,403.82,682.81,0.459158,98.67,1
177533,1,41395,0,54553,58607,54142.00,57900.61,411.00,706.39,0.459485,98.67,1
177573,1,41435,0,54556,58623,54142.83,57902.05,413.17,720.95,0.459812,98.66,1
177613,1,41475,0,54561,58643,54143.67,57903.54,417.33,739.46,0.460139,98.66,1
177653,1,41515,0,54568,58654,54144.52,57905.04,423.48,748.96,0.460467,98.65,1
177693,1,41555,0,54576,58676,54145.38,57906.59,430.62,769.41,0.460795,98.65,1
177733,1,41595,0,54582,58683,54146.26,57908.14,435.74,774.86,0.461124,98.64,1
177773,1,41635,0,54569,58636,54147.11,57909.60,421.89,726.40,0.461454,98.64,1
177813,1,41675,0,54543,58609,54147.90,57911.00,395.10,698.00,0.461784,98.63,1
177853,1,41715,0,54543,58618,54148.69,57912.41,394.31,705.59,0.462114,98.63,1
177893,1,41755,0,54545,58628,54149.48,57913.84,395.52,714.16,0.462443,98.62,1
177933,1,41795,0,54546,58625,54150.28,57915.27,395.72,709.73,0.462773,98.61,1
177973,1,41835,0,54548,58635,54151.07,57916.71,396.93,718.29,0.463102,98.61,1
178013,1,41875,0,54550,58646,54151.87,57918.17,398.12,727.83,0.463431,98.60,1
178053,1,41915,0,54559,58651,54152.69,57919.64,406.31,731.36,0.463760,98.60,1
178093,1,41955,0,54555,58658,54153.50,57921.11,401.50,736.89,0.464088,98.59,1
178133,1,41995,0,54559,58675,54154.31,57922.62,404.69,752.38,0.464415,98.58,1
178173,1,42035,0,54558,58684,54155.12,57924.14,402.88,759.86,0.464742,98.58,1
178213,1,42075,0,54561,58700,54155.93,57925.70,405.07,774.30,0.465066,98.57,1
178253,1,42115,0,54567,58714,54156.75,57927.28,410.25,786.72,0.465389,98.57,1
178293,1,42155,0,54569,58723,54157.58,57928.87,411.42,794.13,0.465710,98.56,1
178333,1,42195,0,54570,58734,54158.41,57930.48,411.59,803.52,0.466029,98.55,1
178373,1,42235,0,54575,58747,54159.24,57932.12,415.76,814.88,0.466347,98.55,1
178413,1,42275,0,54576,58755,54160.08,57933.77,415.92,821.23,0.466661,98.54,1
178453,1,42315,0,54579,58768,54160.92,57935.44,418.08,832.56,0.466974,98.53,1
178493,1,42355,0,54570,58771,54161.74,57937.11,408.26,833.89,0.467283,98.53,1
178533,1,42395,0,54555,58714,54162.53,57938.66,392.47,775.34,0.467590,98.52,1
178574,1,42436,0,54535,58687,54163.27,57940.16,371.73,746.84,0.467895,98.51,1
178614,1,42476,0,54529,58688,54164.01,57941.66,364.99,746.34,0.468198,98.51,1
178654,1,42516,0,54529,58687,54164.74,57943.15,364.26,743.85,0.468498,98.50,1
178694,1,42556,0,54526,58687,54165.46,57944.64,360.54,742.36,0.468796,98.49,1
178734,1,42596,0,54521,58695,54166.17,57946.14,354.83,748.86,0.469090,98.49,1
178774,1,42636,0,54519,58703,54166.88,57947.66,352.12,755.34,0.469381,98.48,1
178814,1,42676,0,54516,58710,54167.58,57949.19,348.42,760.81,0.469669,98.47,1
178854,1,42716,0,54520,58711,54168.29,57950.71,351.71,760.29,0.469953,98.47,1
178894,1,42756,0,54522,58718,54168.99,57952.25,353.01,765.75,0.470234,98.46,1
178934,1,42796,0,54526,58737,54169.71,57953.82,356.29,783.18,0.470511,98.45,1
178974,1,42836,0,54533,58745,54170.43,57955.40,362.57,789.60,0.470785,98.45,1
179014,1,42876,0,54531,58755,54171.16,57957.00,359.84,798.00,0.471055,98.44,1
179054,1,42916,0,54531,58769,54171.88,57958.62,359.12,810.37,0.471321,98.43,1
179094,1,42956,0,54536,58782,54172.61,57960.27,363.39,821.73,0.471582,98.43,1
179134,1,42996,0,54538,58796,54173.34,57961.95,364.66,834.05,0.471839,98.42,1
179174,1,43036,0,54546,58806,54174.09,57963.64,371.91,842.36,0.472092,98.41,1
179214,1,43076,0,54548,58809,54174.84,57965.33,373.16,843.67,0.472340,98.41,1
179254,1,43116,0,54548,58825,54175.58,57967.05,372.42,857.95,0.472584,98.40,1
179294,1,43156,0,54551,58820,54176.34,57968.76,374.66,851.24,0.472824,98.39,1
179334,1,43196,0,54535,58766,54177.05,57970.36,357.95,795.64,0.473061,98.39,1
179374,1,43236,0,54510,58726,54177.72,57971.87,332.28,754.13,0.473294,98.38,1
179414,1,43276,0,54502,58735,54178.37,57973.39,323.63,761.61,0.473523,98.37,1
179454,1,43316,0,54500,58731,54179.02,57974.91,320.98,756.09,0.473749,98.37,1
179494,1,43356,0,54498,58726,54179.66,57976.41,318.34,749.59,0.473971,98.36,1
179534,1,43396,0,54496,58730,54180.29,57977.92,315.71,752.08,0.474189,98.36,1
179574,1,43436,0,54499,58732,54180.93,57979.43,318.07,752.57,0.474403,98.35,1
179614,1,43476,0,54492,58724,54181.55,57980.92,310.45,743.08,0.474614,98.34,1
179654,1,43516,0,54491,58726,54182.18,57982.41,308.82,743.59,0.474821,98.34,1
179694,1,43556,0,54488,58730,54182.79,57983.91,305.21,746.09,0.475024,98.33,1
179734,1,43596,0,54490,58736,54183.41,57985.41,306.59,750.59,0.475224,98.32,1
179774,1,43636,0,54487,58742,54184.02,57986.93,302.98,755.07,0.475419,98.32,1
179814,1,43676,0,54488,58749,54184.62,57988.46,303.37,760.54,0.475610,98.31,1
179855,1,43717,0,54484,58753,54185.23,57989.99,298.77,763.01,0.475797,98.30,1
179895,1,43757,0,54486,58756,54185.83,57991.52,300.17,764.48,0.475979,98.30,1
179935,1,43797,0,54485,58761,54186.43,57993.06,298.57,767.94,0.476157,98.29,1
179975,1,43837,0,54483,58770,54187.02,57994.62,295.98,775.38,0.476331,98.29,1
180015,1,43877,0,54480,58773,54187.61,57996.18,292.39,776.82,0.476500,98.28,1
180055,1,43917,0,54477,58787,54188.19,57997.76,288.81,789.24,0.476664,98.27,1
180095,1,43957,0,54477,58792,54188.77,57999.35,288.23,792.65,0.476822,98.27,1
180135,1,43997,0,54477,58772,54189.35,58000.89,287.65,771.11,0.476976,98.26,1
180175,1,44037,0,54460,58714,54189.89,58002.32,270.11,711.68,0.477127,98.26,1
180215,1,44077,0,54439,58689,54190.39,58003.70,248.61,685.30,0.477273,98.25,1
180255,1,44117,0,54431,58687,54190.87,58005.06,240.12,681.94,0.477416,98.25,1
180295,1,44157,0,54431,58690,54191.36,58006.43,239.64,683.57,0.477555,98.24,1
180335,1,44197,0,54431,58690,54191.84,58007.80,239.16,682.20,0.477689,98.23,1
180375,1,44237,0,54429,58693,54192.31,58009.17,236.69,683.83,0.477820,98.23,1
180415,1,44277,0,54434,58695,54192.80,58010.55,241.20,684.45,0.477946,98.22,1
180455,1,44317,0,54431,58688,54193.27,58011.90,237.73,676.10,0.478069,98.22,1
180495,1,44357,0,54435,58694,54193.76,58013.27,241.24,680.73,0.478188,98.21,1
180535,1,44397,0,54435,58688,54194.24,58014.62,240.76,673.38,0.478304,98.21,1
180575,1,44437,0,54432,58694,54194.72,58015.98,237.28,678.02,0.478416,98.20,1
180615,1,44477,0,54431,58702,54195.19,58017.36,235.81,684.64,0.478524,98.20,1
180655,1,44517,0,54431,58709,54195.66,58018.74,235.34,690.26,0.478628,98.19,1
180695,1,44557,0,54432,58708,54196.14,58020.12,235.86,687.88,0.478728,98.19,1
180735,1,44597,0,54430,58711,54196.61,58021.50,233.39,689.50,0.478824,98.18,1
180775,1,44637,0,54427,58709,54197.07,58022.88,229.93,686.12,0.478916,98.18,1
180815,1,44677,0,54426,58714,54197.53,58024.26,228.47,689.74,0.479005,98.17,1
180855,1,44717,0,54423,58719,54197.98,58025.65,225.02,693.35,0.479089,98.17,1
180895,1,44757,0,54424,58728,54198.43,58027.06,225.57,700.94,0.479168,98.17,1
180935,1,44797,0,54423,58734,54198.88,58028.47,224.12,705.53,0.479243,98.16,1
180975,1,44837,0,54420,58699,54199.33,58029.82,220.67,669.18,0.479315,98.16,1
181015,1,44877,0,54389,58644,54199.71,58031.05,189.29,612.95,0.479383,98.15,1
181056,1,44918,0,54378,58631,54200.07,58032.25,177.93,598.75,0.479448,98.15,1
181096,1,44958,0,54376,58633,54200.42,58033.45,175.58,599.55,0.479509,98.14,1
181136,1,44998,0,54373,58635,54200.77,58034.66,172.23,600.34,0.479566,98.14,1
181176,1,45038,0,54374,58650,54201.11,58035.89,172.89,614.11,0.479620,98.14,1
181216,1,45078,0,54377,58653,54201.46,58037.12,175.54,615.88,0.479670,98.13,1
181256,1,45118,0,54374,58653,54201.81,58038.36,172.19,614.64,0.479716,98.13,1
181296,1,45158,0,54375,58658,54202.16,58039.60,172.84,618.40,0.479758,98.13,1
181336,1,45198,0,54377,58661,54202.51,58040.84,174.49,620.16,0.479797,98.12,1
181376,1,45238,0,54382,58673,54202.87,58042.11,179.13,630.89,0.479831,98.12,1
181416,1,45278,0,54386,58682,54203.24,58043.39,182.76,638.61,0.479862,98.11,1
181456,1,45318,0,54389,58701,54203.61,58044.71,185.39,656.29,0.479889,98.11,1
181496,1,45358,0,54388,58717,54203.98,58046.05,184.02,670.95,0.479911,98.11,1
181536,1,45398,0,54394,58727,54204.36,58047.42,189.64,679.58,0.479928,98.10,1
181576,1,45438,0,54399,58743,54204.75,58048.81,194.25,694.19,0.479941,98.10,1
181616,1,45478,0,54406,58772,54205.16,58050.26,200.84,721.74,0.479950,98.10,1
181656,1,45518,0,54420,58795,54205.59,58051.75,214.41,743.25,0.479953,98.10,1
181696,1,45558,0,54433,58815,54206.04,58053.28,226.96,761.72,0.479951,98.09,1
181736,1,45598,0,54435,58787,54206.50,58054.75,228.50,732.25,0.479946,98.09,1
181776,1,45638,0,54415,58736,54206.92,58056.11,208.08,679.89,0.479937,98.09,1
181816,1,45678,0,54395,58713,54207.30,58057.43,187.70,655.57,0.479924,98.08,1
181856,1,45718,0,54390,58710,54207.67,58058.74,182.33,651.26,0.479907,98.08,1
181896,1,45758,0,54386,58706,54208.03,58060.04,177.97,645.96,0.479887,98.08,1
181936,1,45798,0,54382,58706,54208.37,58061.33,173.62,644.67,0.479863,98.08,1
181976,1,45838,0,54377,58700,54208.71,58062.61,168.29,637.39,0.479835,98.08,1
182016,1,45878,0,54373,58692,54209.04,58063.87,163.96,628.13,0.479803,98.07,1
182056,1,45918,0,54366,58676,54209.36,58065.09,156.64,610.91,0.479768,98.07,1
182096,1,45958,0,54361,58671,54209.66,58066.31,151.34,604.69,0.479730,98.07,1
182136,1,45998,0,54355,58666,54209.96,58067.51,145.04,598.49,0.479688,98.07,1
182176,1,46038,0,54351,58660,54210.24,58068.70,140.76,591.30,0.479642,98.07,1
182216,1,46078,0,54345,58669,54210.51,58069.90,134.49,599.10,0.479593,98.06,1
182256,1,46118,0,54349,58685,54210.79,58071.13,138.21,613.87,0.479540,98.06,1
182296,1,46158,0,54353,58704,54211.07,58072.39,141.93,631.61,0.479483,98.06,1
182337,1,46199,0,54361,58720,54211.37,58073.69,149.62,646.31,0.479421,98.06,1
182377,1,46239,0,54366,58724,54211.69,58074.99,154.31,649.01,0.479356,98.06,1
182417,1,46279,0,54364,58727,54211.99,58076.30,152.01,650.70,0.479287,98.06,1
182457,1,46319,0,54362,58716,54212.29,58077.58,149.71,638.42,0.479213,98.06,1
182497,1,46359,0,54342,58664,54212.55,58078.75,129.45,585.25,0.479136,98.06,1
182537,1,46399,0,54320,58638,54212.77,58079.87,107.23,558.12,0.479056,98.05,1
182577,1,46439,0,54317,58643,54212.98,58081.00,104.02,562.00,0.478973,98.05,1
182617,1,46479,0,54320,58658,54213.20,58082.16,106.80,575.84,0.478885,98.05,1
182657,1,46519,0,54330,58659,54213.43,58083.32,116.57,575.68,0.478795,98.05,1
182697,1,46559,0,54330,58664,54213.66,58084.48,116.34,579.52,0.478700,98.05,1
182737,1,46599,0,54336,58673,54213.91,58085.66,122.09,587.34,0.478603,98.05,1
182777,1,46639,0,54329,58670,54214.14,58086.83,114.86,583.17,0.478502,98.05,1
182817,1,46679,0,54330,58676,54214.37,58088.01,115.62,587.99,0.478397,98.05,1
182857,1,46719,0,54338,58689,54214.62,58089.21,123.37,599.79,0.478288,98.05,1
182897,1,46759,0,54342,58705,54214.88,58090.45,127.12,614.55,0.478176,98.05,1
182937,1,46799,0,54354,58718,54215.16,58091.71,138.84,626.29,0.478060,98.05,1
182977,1,46839,0,54364,58729,54215.46,58092.98,148.54,636.02,0.477941,98.05,1
183017,1,46879,0,54365,58737,54215.77,58094.27,149.23,642.73,0.477818,98.05,1
183057,1,46919,0,54370,58742,54216.07,58095.57,153.93,646.43,0.477691,98.05,1
183097,1,46959,0,54373,58760,54216.39,58096.90,156.61,663.10,0.477561,98.05,1
183137,1,46999,0,54376,58766,54216.71,58098.24,159.29,667.76,0.477426,98.05,1
183177,1,47039,0,54370,58731,54217.02,58099.51,152.98,631.49,0.477289,98.05,1
183217,1,47079,0,54344,58663,54217.27,58100.64,126.73,562.36,0.477149,98.05,1
183257,1,47119,0,54321,58629,54217.48,58101.70,103.52,527.30,0.477006,98.05,1
183297,1,47159,0,54319,58624,54217.68,58102.74,101.32,521.26,0.476860,98.05,1
183337,1,47199,0,54319,58624,54217.89,58103.79,101.11,520.21,0.476713,98.05,1
183377,1,47239,0,54318,58624,54218.09,58104.83,99.91,519.17,0.476562,98.06,1
183417,1,47279,0,54317,58630,54218.29,58105.88,98.71,524.12,0.476409,98.06,1
183457,1,47319,0,54322,58630,54218.50,58106.93,103.50,523.07,0.476254,98.06,1
183497,1,47359,0,54320,58619,54218.70,58107.96,101.30,511.04,0.476096,98.06,1
183537,1,47399,0,54314,58626,54218.89,58109.00,95.11,517.00,0.475935,98.06,1
183578,1,47440,0,54319,58626,54219.09,58110.03,99.91,515.97,0.475773,98.06,1
183618,1,47480,0,54319,58626,54219.30,58111.07,99.70,514.93,0.475607,98.06,1
183658,1,47520,0,54318,58626,54219.50,58112.10,98.50,513.90,0.475440,98.06,1
183698,1,47560,0,54318,58642,54219.70,58113.16,98.30,528.84,0.475269,98.07,1
183738,1,47600,0,54321,58652,54219.90,58114.24,101.10,537.76,0.475096,98.07,1
183778,1,47640,0,54323,58661,54220.11,58115.33,102.89,545.67,0.474920,98.07,1
183818,1,47680,0,54325,58669,54220.32,58116.44,104.68,552.56,0.474742,98.07,1
183858,1,47720,0,54326,58647,54220.53,58117.50,105.47,529.50,0.474561,98.07,1
183898,1,47760,0,54302,58576,54220.69,58118.42,81.31,457.58,0.474378,98.08,1
183938,1,47800,0,54278,58545,54220.81,58119.28,57.19,425.72,0.474193,98.08,1
183978,1,47840,0,54272,58543,54220.91,58120.12,51.09,422.87,0.474006,98.08,1
184018,1,47880,0,54275,58550,54221.02,58120.98,53.98,429.02,0.473818,98.08,1
184058,1,47920,0,54273,58547,54221.13,58121.84,51.87,425.16,0.473627,98.08,1
184098,1,47960,0,54270,58551,54221.23,58122.70,48.77,428.30,0.473435,98.09,1
184138,1,48000,0,54278,58553,54221.34,58123.56,56.66,429.44,0.473241,98.09,1
184178,1,48040,0,54283,58550,54221.46,58124.42,61.54,425.58,0.473045,98.09,1
184218,1,48080,0,54283,58551,54221.59,58125.27,61.41,425.73,0.472847,98.09,1
184258,1,48120,0,54286,58550,54221.72,58126.12,64.28,423.87,0.472648,98.10,1
184298,1,48160,0,54284,58559,54221.84,58126.99,62.16,432.01,0.472447,98.10,1
184338,1,48200,0,54287,58571,54221.98,58127.88,65.02,443.12,0.472244,98.10,1
184378,1,48240,0,54285,58573,54222.11,58128.77,62.89,444.23,0.472039,98.11,1
184418,1,48280,0,54283,58575,54222.23,58129.67,60.77,445.33,0.471832,98.11,1
184458,1,48320,0,54283,58569,54222.35,58130.55,60.65,438.45,0.471623,98.11,1
184498,1,48360,0,54281,58573,54222.47,58131.43,58.53,441.57,0.471412,98.11,1
184538,1,48400,0,54285,58563,54222.59,58132.30,62.41,430.70,0.471200,98.12,1
184578,1,48440,0,54260,58494,54222.67,58133.02,37.33,360.98,0.470986,98.12,1
184618,1,48480,0,54236,58452,54222.70,58133.66,13.30,318.34,0.470771,98.12,1
184658,1,48520,0,54224,58444,54222.70,58134.29,1.30,309.71,0.470555,98.13,1
184698,1,48560,0,54216,58437,54222.69,58134.89,-6.69,302.11,0.470339,98.13,1
184738,1,48600,0,54210,58427,54222.67,58135.48,-12.67,291.52,0.470121,98.13,1
184779,1,48641,0,54211,58429,54222.64,58136.07,-11.64,292.93,0.469904,98.14,1
184819,1,48681,0,54208,58425,54222.62,58136.64,-14.62,288.36,0.469685,98.14,1
184859,1,48721,0,54210,58420,54222.59,58137.21,-12.59,282.79,0.469466,98.15,1
184899,1,48761,0,54201,58425,54222.55,58137.79,-21.55,287.21,0.469246,98.15,1
184939,1,48801,0,54203,58436,54222.51,58138.39,-19.51,297.61,0.469026,98.15,1
184979,1,48841,0,54201,58441,54222.47,58138.99,-21.47,302.01,0.468804,98.16,1
185019,1,48881,0,54208,58451,54222.44,58139.62,-14.44,311.38,0.468582,98.16,1
185059,1,48921,0,54210,58459,54222.42,58140.26,-12.42,318.74,0.468359,98.16,1
185099,1,48961,0,54213,58468,54222.40,58140.91,-9.40,327.09,0.468135,98.17,1
185139,1,49001,0,54217,58479,54222.39,58141.59,-5.39,337.41,0.467909,98.17,1
185179,1,49041,0,54219,58493,54222.39,58142.29,-3.39,350.71,0.467682,98.18,1
185219,1,49081,0,54220,58477,54222.39,58142.96,-2.39,334.04,0.467454,98.18,1
185259,1,49121,0,54201,58434,54222.34,58143.55,-21.34,290.45,0.467225,98.18,1
185299,1,49161,0,54187,58422,54222.27,58144.11,-35.27,277.89,0.466996,98.19,1
185339,1,49201,0,54186,58426,54222.20,58144.67,-36.20,281.33,0.466766,98.19,1
185379,1,49241,0,54196,58431,54222.15,58145.25,-26.15,285.75,0.466535,98.20,1
185419,1,49281,0,54198,58440,54222.11,58145.84,-24.11,294.16,0.466304,98.20,1
185459,1,49321,0,54204,58454,54222.07,58146.45,-18.07,307.55,0.466072,98.21,1
185499,1,49361,0,54206,58450,54222.04,58147.06,-16.04,302.94,0.465838,98.21,1
185539,1,49401,0,54209,58462,54222.02,58147.70,-13.02,314.30,0.465604,98.22,1
185579,1,49441,0,54205,58475,54221.98,58148.35,-16.98,326.65,0.465369,98.22,1
185619,1,49481,0,54212,58488,54221.96,58149.03,-9.96,338.97,0.465132,98.22,1
185659,1,49521,0,54218,58502,54221.96,58149.74,-3.96,352.26,0.464894,98.23,1
185699,1,49561,0,54224,58512,54221.96,58150.46,2.04,361.54,0.464654,98.23,1
185739,1,49601,0,54228,58516,54221.97,58151.20,6.03,364.80,0.464412,98.24,1
185779,1,49641,0,54226,58523,54221.98,58151.95,4.02,371.05,0.464169,98.24,1
185819,1,49681,0,54225,58540,54221.99,58152.72,3.01,387.28,0.463923,98.25,1
185859,1,49721,0,54226,58545,54222.00,58153.51,4.00,391.49,0.463676,98.25,1
185899,1,49761,0,54222,58521,54222.00,58154.25,0.00,366.75,0.463427,98.26,1
185939,1,49801,0,54206,58478,54221.96,58154.89,-15.96,323.11,0.463176,98.26,1
185980,1,49842,0,54192,58469,54221.91,58155.52,-29.91,313.48,0.462925,98.27,1
186020,1,49882,0,54187,58470,54221.84,58156.15,-34.84,313.85,0.462672,98.27,1
186060,1,49922,0,54185,58465,54221.76,58156.77,-36.76,308.23,0.462419,98.28,1
186100,1,49962,0,54184,58474,54221.69,58157.41,-37.69,316.59,0.462165,98.28,1
186140,1,50002,0,54186,58482,54221.62,58158.06,-35.62,323.94,0.461910,98.29,1
186180,1,50042,0,54186,58491,54221.55,58158.73,-35.55,332.27,0.461653,98.29,1
186220,1,50082,0,54188,58494,54221.48,58159.40,-33.48,334.60,0.461396,98.30,1
186260,1,50122,0,54191,58506,54221.42,58160.10,-30.42,345.90,0.461137,98.30,1
186300,1,50162,0,54193,58512,54221.37,58160.80,-28.37,351.20,0.460876,98.31,1
186340,1,50202,0,54198,58517,54221.32,58161.52,-23.32,355.48,0.460614,98.31,1
186380,1,50242,0,54199,58535,54221.28,58162.27,-22.28,372.73,0.460351,98.32,1
186420,1,50282,0,54200,58538,54221.23,58163.02,-21.23,374.98,0.460085,98.32,1
186460,1,50322,0,54198,58549,54221.19,58163.80,-23.19,385.20,0.459817,98.33,1
186500,1,50362,0,54207,58559,54221.16,58164.59,-14.16,394.41,0.459547,98.34,1
186540,1,50402,0,54209,58570,54221.14,58165.40,-12.14,404.60,0.459274,98.34,1
186580,1,50442,0,54214,58573,54221.12,58166.22,-7.12,406.78,0.458999,98.35,1
186620,1,50482,0,54202,58521,54221.09,58166.93,-19.09,354.07,0.458723,98.35,1
186660,1,50522,0,54182,58483,54221.01,58167.56,-39.01,315.44,0.458445,98.36,1
186700,1,50562,0,54175,58479,54220.92,58168.19,-45.92,310.81,0.458167,98.36,1
186740,1,50602,0,54172,58482,54220.82,58168.82,-48.82,313.18,0.457888,98.37,1
186780,1,50642,0,54168,58478,54220.72,58169.44,-52.72,308.56,0.457609,98.37,1
186820,1,50682,0,54168,58478,54220.61,58170.05,-52.61,307.95,0.457329,98.38,1
186860,1,50722,0,54168,58478,54220.51,58170.67,-52.51,307.33,0.457048,98.39,1
186900,1,50762,0,54170,58476,54220.41,58171.29,-50.41,304.71,0.456767,98.39,1
186940,1,50802,0,54170,58475,54220.31,58171.89,-50.31,303.11,0.456485,98.40,1
186980,1,50842,0,54165,58480,54220.20,58172.51,-55.20,307.49,0.456203,98.40,1
187020,1,50882,0,54164,58480,54220.09,58173.13,-56.09,306.87,0.455920,98.41,1
187060,1,50922,0,54161,58485,54219.97,58173.75,-58.97,311.25,0.455636,98.42,1
187100,1,50962,0,54161,58488,54219.86,58174.38,-58.86,313.62,0.455352,98.42,1
187141,1,51003,0,54163,58487,54219.74,58175.01,-56.74,311.99,0.455068,98.43,1
187181,1,51043,0,54158,58485,54219.62,58175.63,-61.62,309.37,0.454783,98.43,1
187221,1,51083,0,54155,58487,54219.49,58176.25,-64.49,310.75,0.454497,98.44,1
187261,1,51123,0,54155,58494,54219.36,58176.89,-64.36,317.11,0.454211,98.45,1
187301,1,51163,0,54156,58499,54219.24,58177.54,-63.24,321.46,0.453924,98.45,1
187341,1,51203,0,54152,58485,54219.11,58178.15,-67.11,306.85,0.453637,98.46,1
187381,1,51243,0,54130,58422,54218.93,58178.64,-88.93,243.36,0.453352,98.46,1
187421,1,51283,0,54108,58395,54218.71,58179.07,-110.71,215.93,0.453068,98.47,1
187461,1,51323,0,54105,58391,54218.48,58179.50,-113.48,211.50,0.452787,98.48,1
187501,1,51363,0,54104,58390,54218.26,58179.92,-114.26,210.08,0.452508,98.48,1
187541,1,51403,0,54103,58391,54218.03,58180.34,-115.03,210.66,0.452232,98.49,1
187581,1,51443,0,54104,58395,54217.80,58180.77,-113.80,214.23,0.451959,98.50,1
187621,1,51483,0,54104,58400,54217.57,58181.21,-113.57,218.79,0.451687,98.50,1
187661,1,51523,0,54113,58409,54217.37,58181.67,-104.37,227.33,0.451418,98.51,1
187701,1,51563,0,54119,58419,54217.17,58182.15,-98.17,236.85,0.451150,98.52,1
187741,1,51603,0,54129,58432,54217.00,58182.65,-88.00,249.35,0.450883,98.52,1
187781,1,51643,0,54139,58448,54216.84,58183.18,-77.84,264.82,0.450616,98.53,1
187821,1,51683,0,54140,58453,54216.69,58183.72,-76.69,269.28,0.450350,98.53,1
187861,1,51723,0,54147,58464,54216.55,58184.29,-69.55,279.71,0.450084,98.54,1
187901,1,51763,0,54146,58473,54216.41,58184.86,-70.41,288.14,0.449817,98.55,1
187941,1,51803,0,54147,58479,54216.27,58185.45,-69.27,293.55,0.449550,98.55,1
187981,1,51843,0,54152,58492,54216.14,58186.07,-64.14,305.93,0.449283,98.56,1
188021,1,51883,0,54159,58506,54216.03,58186.71,-57.03,319.29,0.449015,98.57,1
188061,1,51923,0,54165,58513,54215.93,58187.36,-50.93,325.64,0.448745,98.57,1
188101,1,51963,0,54170,58501,54215.84,58187.99,-45.84,313.01,0.448474,98.58,1
188141,1,52003,0,54148,58459,54215.71,58188.53,-67.71,270.47,0.448204,98.59,1
188181,1,52043,0,54135,58443,54215.55,58189.04,-80.55,253.96,0.447934,98.59,1
188221,1,52083,0,54134,58451,54215.39,58189.57,-81.39,261.43,0.447664,98.60,1
188262,1,52124,0,54138,58456,54215.23,58190.11,-77.23,265.89,0.447395,98.61,1
188302,1,52164,0,54145,58459,54215.09,58190.64,-70.09,268.36,0.447126,98.61,1
188342,1,52204,0,54148,58472,54214.96,58191.21,-66.96,280.79,0.446857,98.62,1
188382,1,52244,0,54151,58485,54214.84,58191.80,-63.84,293.20,0.446587,98.62,1
188422,1,52284,0,54162,58502,54214.73,58192.42,-52.73,309.58,0.446317,98.63,1
188462,1,52324,0,54170,58526,54214.64,58193.09,-44.64,332.91,0.446045,98.64,1
188502,1,52364,0,54181,58547,54214.57,58193.80,-33.57,353.20,0.445770,98.64,1
188542,1,52404,0,54191,58568,54214.53,58194.55,-23.53,373.45,0.445493,98.65,1
188582,1,52444,0,54199,58578,54214.50,58195.32,-15.50,382.68,0.445213,98.66,1
188622,1,52484,0,54211,58600,54214.49,58196.13,-3.49,403.87,0.444929,98.66,1
188662,1,52524,0,54219,58615,54214.50,58196.97,4.50,418.03,0.444642,98.67,1
188702,1,52564,0,54221,58630,54214.52,58197.84,6.48,432.16,0.444351,98.68,1
188742,1,52604,0,54228,58648,54214.55,58198.74,13.45,449.26,0.444056,98.68,1
188782,1,52644,0,54238,58670,54214.59,58199.68,23.41,470.32,0.443756,98.69,1
188822,1,52684,0,54251,58695,54214.67,58200.68,36.33,494.32,0.443450,98.70,1
188862,1,52724,0,54260,58711,54214.76,58201.70,45.24,509.30,0.443140,98.70,1
188902,1,52764,0,54265,58667,54214.86,58202.63,50.14,464.37,0.442826,98.71,1
188942,1,52804,0,54240,58620,54214.91,58203.47,25.09,416.53,0.442509,98.72,1
188982,1,52844,0,54232,58615,54214.95,58204.29,17.05,410.71,0.442188,98.72,1
189022,1,52884,0,54232,58622,54214.98,58205.13,17.02,416.87,0.441864,98.73,1
189062,1,52924,0,54233,58623,54215.02,58205.96,17.98,417.04,0.441537,98.74,1
189102,1,52964,0,54234,58626,54215.06,58206.80,18.94,419.20,0.441207,98.75,1
189142,1,53004,0,54241,58632,54215.12,58207.66,25.88,424.34,0.440873,98.75,1
189182,1,53044,0,54247,58638,54215.18,58208.52,31.82,429.48,0.440536,98.76,1
189222,1,53084,0,54255,58640,54215.27,58209.38,39.73,430.62,0.440196,98.77,1
189262,1,53124,0,54257,58646,54215.35,58210.26,41.65,435.74,0.439853,98.77,1
189302,1,53164,0,54257,58658,54215.44,58211.16,41.56,446.84,0.439506,98.78,1
189342,1,53204,0,54265,58671,54215.54,58212.08,49.46,458.92,0.439156,98.79,1
189382,1,53244,0,54269,58684,54215.65,58213.02,53.35,470.98,0.438802,98.80,1
189423,1,53285,0,54275,58692,54215.77,58213.98,59.23,478.02,0.438445,98.80,1
189463,1,53325,0,54279,58699,54215.90,58214.96,63.10,484.04,0.438085,98.81,1
189503,1,53365,0,54285,58710,54216.04,58215.95,68.96,494.05,0.437721,98.82,1
189543,1,53405,0,54287,58718,54216.18,58216.95,70.82,501.05,0.437354,98.82,1
189583,1,53445,0,54283,58726,54216.32,58217.97,66.68,508.03,0.436983,98.83,1
189623,1,53485,0,54287,58715,54216.46,58218.97,70.54,496.03,0.436608,98.84,1
189663,1,53525,0,54264,58654,54216.56,58219.84,47.44,434.16,0.436231,98.85,1
189703,1,53565,0,54244,58624,54216.62,58220.65,27.38,403.35,0.435852,98.86,1
189743,1,53605,0,54246,58616,54216.68,58221.44,29.32,394.56,0.435471,98.86,1
189783,1,53645,0,54250,58614,54216.74,58222.23,33.26,391.77,0.435087,98.87,1
189823,1,53685,0,54250,58615,54216.81,58223.01,33.19,391.99,0.434702,98.88,1
189863,1,53725,0,54251,58630,54216.88,58223.83,34.12,406.17,0.434314,98.89,1
189903,1,53765,0,54260,58638,54216.96,58224.66,43.04,413.34,0.433924,98.89,1
189943,1,53805,0,54268,58643,54217.07,58225.50,50.93,417.50,0.433532,98.90,1
189983,1,53845,0,54270,58647,54217.17,58226.34,52.83,420.66,0.433137,98.91,1
190023,1,53885,0,54275,58657,54217.29,58227.20,57.71,429.80,0.432741,98.92,1
190063,1,53925,0,54289,58669,54217.43,58228.09,71.57,440.91,0.432343,98.93,1
190103,1,53965,0,54297,58678,54217.59,58228.99,79.41,449.01,0.431944,98.94,1
190143,1,54005,0,54304,58684,54217.77,58229.90,86.23,454.10,0.431543,98.94,1
190183,1,54045,0,54307,58693,54217.95,58230.83,89.05,462.17,0.431141,98.95,1
190223,1,54085,0,54310,58699,54218.13,58231.77,91.87,467.23,0.430738,98.96,1
190263,1,54125,0,54309,58714,54218.32,58232.73,90.68,481.27,0.430333,98.97,1
190303,1,54165,0,54314,58727,54218.51,58233.72,95.49,493.28,0.429927,98.98,1
190343,1,54205,0,54322,58701,54218.71,58234.66,103.29,466.34,0.429520,98.99,1
190383,1,54245,0,54296,58643,54218.87,58235.47,77.13,407.53,0.429113,98.99,1
190423,1,54285,0,54281,58623,54219.00,58236.25,62.00,386.75,0.428705,99.00,1
190463,1,54325,0,54280,58623,54219.12,58237.02,60.88,385.98,0.428296,99.01,1
190503,1,54365,0,54274,58624,54219.23,58237.80,54.77,386.20,0.427885,99.02,1
190543,1,54405,0,54276,58625,54219.34,58238.58,56.66,386.42,0.427474,99.03,1
190583,1,54445,0,54275,58630,54219.46,58239.36,55.54,390.64,0.427061,99.04,1
190623,1,54485,0,54280,58627,54219.58,58240.14,60.42,386.86,0.426648,99.05,1
190664,1,54526,0,54279,58632,54219.70,58240.93,59.30,391.07,0.426233,99.06,1
190704,1,54566,0,54284,58636,54219.83,58241.72,64.17,394.28,0.425817,99.06,1
190744,1,54606,0,54276,58637,54219.94,58242.51,56.06,394.49,0.425401,99.07,1
190784,1,54646,0,54280,58644,54220.06,58243.32,59.94,400.68,0.424983,99.08,1
190824,1,54686,0,54277,58655,54220.18,58244.14,56.82,410.86,0.424563,99.09,1
190864,1,54726,0,54280,58666,54220.30,58244.98,59.70,421.02,0.424143,99.10,1
190904,1,54766,0,54280,58671,54220.42,58245.84,59.58,425.16,0.423720,99.11,1
190944,1,54806,0,54282,58675,54220.55,58246.70,61.45,428.30,0.423296,99.12,1
190984,1,54846,0,54286,58680,54220.68,58247.57,65.32,432.43,0.422871,99.13,1
191024,1,54886,0,54284,58688,54220.81,58248.45,63.19,439.55,0.422444,99.14,1
191064,1,54926,0,54275,58656,54220.92,58249.27,54.08,406.73,0.422016,99.15,1
191104,1,54966,0,54252,58606,54220.98,58249.98,31.02,356.02,0.421586,99.16,1
191144,1,55006,0,54238,58605,54221.02,58250.69,16.98,354.31,0.421155,99.17,1
191184,1,55046,0,54240,58610,54221.05,58251.41,18.95,358.59,0.420723,99.18,1
191224,1,55086,0,54245,58624,54221.11,58252.16,23.89,371.84,0.420289,99.19,1
191264,1,55126,0,54251,58623,54221.17,58252.90,29.83,370.10,0.419854,99.19,1
191304,1,55166,0,54255,58632,54221.24,58253.66,33.76,378.34,0.419418,99.20,1
191344,1,55206,0,54254,58630,54221.30,58254.41,32.70,375.59,0.418980,99.21,1
191384,1,55246,0,54256,58640,54221.37,58255.18,34.63,384.82,0.418541,99.22,1
191424,1,55286,0,54257,58649,54221.45,58255.97,35.55,393.03,0.418100,99.23,1
191464,1,55326,0,54260,58667,54221.53,58256.80,38.47,410.20,0.417658,99.24,1
191504,1,55366,0,54264,58684,54221.61,58257.65,42.39,426.35,0.417213,99.25,1
191544,1,55406,0,54269,58700,54221.71,58258.54,47.29,441.46,0.416766,99.26,1
191584,1,55446,0,54276,58711,54221.82,58259.45,54.18,451.55,0.416318,99.27,1
191624,1,55486,0,54281,58720,54221.94,58260.37,59.06,459.63,0.415867,99.28,1
191664,1,55526,0,54281,58737,54222.06,58261.32,58.94,475.68,0.415415,99.29,1
191704,1,55566,0,54282,58754,54222.18,58262.31,59.82,491.69,0.414959,99.30,1
191744,1,55606,0,54287,58742,54222.32,58263.27,64.68,478.73,0.414502,99.31,1
191784,1,55646,0,54266,58702,54222.41,58264.15,43.59,437.85,0.414043,99.32,1
191824,1,55686,0,54252,58698,54222.47,58265.02,29.53,432.98,0.413582,99.33,1
191865,1,55727,0,54256,58710,54222.54,58265.91,33.46,444.09,0.413119,99.34,1
191905,1,55767,0,54257,58715,54222.61,58266.81,34.39,448.19,0.412653,99.35,1
191945,1,55807,0,54262,58732,54222.69,58267.74,39.31,464.26,0.412185,99.36,1
191985,1,55847,0,54262,58752,54222.77,58268.71,39.23,483.29,0.411714,99.37,1
192025,1,55887,0,54262,58760,54222.85,58269.70,39.15,490.30,0.411241,99.38,1
192065,1,55927,0,54262,58771,54222.93,58270.70,39.07,500.30,0.410764,99.39,1
192105,1,55967,0,54266,58785,54223.01,58271.73,42.99,513.27,0.410285,99.41,1
192145,1,56007,0,54271,58801,54223.11,58272.79,47.89,528.21,0.409802,99.42,1
192185,1,56047,0,54276,58818,54223.21,58273.88,52.79,544.12,0.409316,99.43,1
192225,1,56087,0,54279,58838,54223.33,58275.01,55.67,562.99,0.408826,99.44,1
192265,1,56127,0,54285,58854,54223.45,58276.17,61.55,577.83,0.408334,99.45,1
192305,1,56167,0,54285,58874,54223.58,58277.37,61.42,596.63,0.407837,99.46,1
192345,1,56207,0,54287,58888,54223.71,58278.59,63.29,609.41,0.407337,99.47,1
192385,1,56247,0,54293,58905,54223.85,58279.84,69.15,625.16,0.406833,99.48,1
192425,1,56287,0,54300,58906,54224.00,58281.10,76.00,624.90,0.406325,99.49,1
192465,1,56327,0,54287,58859,54224.13,58282.25,62.87,576.75,0.405815,99.50,1
192505,1,56367,0,54269,58839,54224.22,58283.37,44.78,555.63,0.405302,99.51,1
192545,1,56407,0,54270,58851,54224.31,58284.50,45.69,566.50,0.404786,99.52,1
192585,1,56447,0,54269,58853,54224.40,58285.64,44.60,567.36,0.404266,99.53,1
192625,1,56487,0,54267,58854,54224.49,58286.78,42.51,567.22,0.403744,99.55,1
192665,1,56527,0,54263,58868,54224.57,58287.94,38.43,580.06,0.403218,99.56,1
192705,1,56567,0,54262,58869,54224.64,58289.11,37.36,579.89,0.402689,99.57,1
192745,1,56607,0,54259,58871,54224.71,58290.27,34.29,580.73,0.402156,99.58,1
192785,1,56647,0,54258,58874,54224.78,58291.44,33.22,582.56,0.401620,99.59,1
192825,1,56687,0,54259,58884,54224.85,58292.62,34.15,591.37,0.401081,99.60,1
192865,1,56727,0,54263,58893,54224.93,58293.83,38.07,599.17,0.400538,99.61,1
192905,1,56767,0,54255,58898,54224.99,58295.04,30.01,602.96,0.399992,99.63,1
192945,1,56807,0,54257,58905,54225.06,58296.26,31.94,608.74,0.399443,99.64,1
192985,1,56847,0,54255,58915,54225.12,58297.50,29.88,617.50,0.398890,99.65,1
193025,1,56887,0,54253,58923,54225.18,58298.75,27.82,624.25,0.398333,99.66,1
193065,1,56927,0,54253,58930,54225.24,58300.02,27.76,629.98,0.397772,99.67,1
193106,1,56968,0,54249,58933,54225.29,58301.29,23.71,631.71,0.397208,99.68,1
193146,1,57008,0,54241,58901,54225.32,58302.48,15.68,598.52,0.396641,99.69,1
193186,1,57048,0,54220,58855,54225.31,58303.59,-5.31,551.41,0.396071,99.70,1
193226,1,57088,0,54197,58845,54225.26,58304.68,-28.26,540.32,0.395500,99.71,1
193266,1,57128,0,54192,58844,54225.19,58305.76,-33.19,538.24,0.394926,99.72,1
193306,1,57168,0,54190,58839,54225.12,58306.82,-35.12,532.18,0.394352,99.72,1
193346,1,57208,0,54179,58838,54225.03,58307.89,-46.03,530.11,0.393775,99.73,1
193386,1,57248,0,54178,58835,54224.94,58308.94,-46.94,526.06,0.393198,99.74,1
193426,1,57288,0,54183,58835,54224.86,58310.00,-41.86,525.00,0.392620,99.75,1
193466,1,57328,0,54173,58835,54224.75,58311.05,-51.75,523.95,0.392620,99.75,0
193506,1,57368,0,54165,58833,54224.64,58312.09,-59.64,520.91,0.392620,99.75,0
193546,1,57408,0,54158,58840,54224.50,58313.15,-66.50,526.85,0.392620,99.75,0
193586,1,57448,0,54162,58848,54224.38,58314.22,-62.38,533.78,0.392620,99.75,0
193626,1,57488,0,54161,58855,54224.25,58315.30,-63.25,539.70,0.392620,99.75,0
193666,1,57528,0,54159,58859,54224.12,58316.39,-65.12,542.61,0.392620,99.75,0
193706,1,57568,0,54158,58853,54224.00,58317.47,-66.00,535.53,0.392620,99.75,0
193746,1,57608,0,54161,58855,54223.87,58318.55,-62.87,536.45,0.392620,99.75,0
193786,1,57648,0,54153,58860,54223.73,58319.63,-70.73,540.37,0.392620,99.75,0
193826,1,57688,0,54156,58862,54223.60,58320.72,-67.60,541.28,0.392620,99.75,0
193866,1,57728,0,54151,58849,54223.45,58321.78,-72.45,527.22,0.392620,99.75,0
193906,1,57768,0,54129,58786,54223.27,58322.71,-94.27,463.29,0.392620,99.75,0
193946,1,57808,0,54099,58753,54223.02,58323.57,-124.02,429.43,0.392620,99.75,0
193986,1,57848,0,54088,58740,54222.75,58324.41,-134.75,415.59,0.392620,99.75,0
194026,1,57888,0,54082,58732,54222.47,58325.22,-140.47,406.78,0.392620,99.75,0
194066,1,57928,0,54076,58720,54222.18,58326.02,-146.18,393.98,0.392620,99.75,0
194106,1,57968,0,54068,58711,54221.87,58326.79,-153.87,384.21,0.392049,99.76,1
194146,1,58008,0,54058,58699,54221.54,58327.53,-163.54,371.47,0.391487,99.76,1
194186,1,58048,0,54052,58682,54221.20,58328.24,-169.20,353.76,0.390936,99.77,1
194226,1,58088,0,54040,58678,54220.84,58328.94,-180.84,349.06,0.390396,99.78,1
194266,1,58128,0,54035,58673,54220.47,58329.63,-185.47,343.37,0.389869,99.78,1
194306,1,58168,0,54027,58669,54220.09,58330.31,-193.09,338.69,0.389355,99.79,1
194346,1,58208,0,54019,58668,54219.68,58330.99,-200.68,337.01,0.388854,99.80,1
194387,1,58249,0,54016,58663,54219.28,58331.65,-203.28,331.35,0.388368,99.80,1
194427,1,58289,0,54011,58653,54218.86,58332.30,-207.86,320.70,0.387895,99.81,1
194467,1,58329,0,54001,58655,54218.43,58332.95,-217.43,322.05,0.387439,99.81,1
194507,1,58369,0,54001,58657,54218.00,58333.59,-217.00,323.41,0.386997,99.82,1
194547,1,58409,0,53999,58659,54217.56,58334.25,-218.56,324.75,0.386571,99.83,1
194587,1,58449,0,53993,58660,54217.11,58334.90,-224.11,325.10,0.386160,99.83,1
194627,1,58489,0,53982,58612,54216.64,58335.45,-234.64,276.55,0.385766,99.84,1
194667,1,58529,0,53954,58570,54216.12,58335.92,-262.12,234.08,0.385393,99.84,1
194707,1,58569,0,53948,58560,54215.58,58336.37,-267.58,223.63,0.385043,99.85,1
194747,1,58609,0,53945,58555,54215.04,58336.81,-270.04,218.19,0.384714,99.85,1
194787,1,58649,0,53942,58560,54214.50,58337.26,-272.50,222.74,0.384407,99.85,1
194827,1,58689,0,53947,58564,54213.96,58337.71,-266.96,226.29,0.384121,99.86,1
194867,1,58729,0,53941,58567,54213.42,58338.17,-272.42,228.83,0.383855,99.86,1
194907,1,58769,0,53943,58566,54212.88,58338.63,-269.88,227.37,0.383609,99.87,1
194947,1,58809,0,53945,58569,54212.35,58339.09,-267.35,229.91,0.383383,99.87,1
194987,1,58849,0,53950,58578,54211.82,58339.57,-261.82,238.43,0.383175,99.87,1
195027,1,58889,0,53952,58587,54211.30,58340.07,-259.30,246.93,0.382984,99.88,1
195067,1,58929,0,53958,58595,54210.80,58340.58,-252.80,254.42,0.382809,99.88,1
195107,1,58969,0,53965,58602,54210.31,58341.10,-245.31,260.90,0.382649,99.89,1
195147,1,59009,0,53971,58613,54209.84,58341.65,-238.84,271.35,0.382502,99.89,1
195187,1,59049,0,53970,58621,54209.36,58342.21,-239.36,278.79,0.382369,99.89,1
195227,1,59089,0,53973,58635,54208.89,58342.79,-235.89,292.21,0.382248,99.90,1
195267,1,59129,0,53976,58644,54208.42,58343.40,-232.42,300.60,0.382140,99.90,1
195307,1,59169,0,53985,58642,54207.98,58344.00,-222.98,298.00,0.382042,99.90,1
195347,1,59209,0,53965,58579,54207.49,58344.47,-242.49,234.53,0.381958,99.90,1
195387,1,59249,0,53949,58548,54206.98,58344.88,-257.98,203.12,0.381890,99.91,1
195427,1,59289,0,53945,58544,54206.45,58345.28,-261.45,198.72,0.381838,99.91,1
195467,1,59329,0,53945,58544,54205.93,58345.68,-260.93,198.32,0.381803,99.91,1
195507,1,59369,0,53944,58544,54205.41,58346.07,-261.41,197.93,0.381783,99.92,1
195547,1,59409,0,53951,58550,54204.90,58346.48,-253.90,203.52,0.381778,99.92,1
195587,1,59449,0,53949,58543,54204.39,58346.88,-255.39,196.12,0.381788,99.92,1
195627,1,59489,0,53950,58544,54203.88,58347.27,-253.88,196.73,0.381812,99.92,1
195668,1,59530,0,53953,58546,54203.38,58347.67,-250.38,198.33,0.381850,99.93,1
195708,1,59570,0,53956,58555,54202.89,58348.09,-246.89,206.91,0.381902,99.93,1
195748,1,59610,0,53963,58558,54202.41,58348.51,-239.41,209.49,0.381966,99.93,1
195788,1,59650,0,53968,58573,54201.94,58348.96,-233.94,224.04,0.382041,99.93,1
195828,1,59690,0,53974,58586,54201.49,58349.44,-227.49,236.56,0.382127,99.93,1
195868,1,59730,0,53978,58602,54201.04,58349.95,-223.04,252.05,0.382222,99.94,1
195908,1,59770,0,53980,58608,54200.60,58350.46,-220.60,257.54,0.382326,99.94,1
195948,1,59810,0,53993,58620,54200.19,58351.00,-207.19,269.00,0.382437,99.94,1
195988,1,59850,0,54002,58636,54199.79,58351.57,-197.79,284.43,0.382555,99.94,1
196028,1,59890,0,54004,58628,54199.40,58352.13,-195.40,275.87,0.382678,99.94,1
196068,1,59930,0,53993,58562,54198.99,58352.55,-205.99,209.45,0.382810,99.95,1
196108,1,59970,0,53966,58512,54198.53,58352.87,-232.53,159.13,0.382954,99.95,1
196148,1,60010,0,53957,58501,54198.05,58353.17,-241.05,147.83,0.383110,99.95,1
196188,1,60050,1,53962,58500,54197.58,58353.46,-235.58,146.54,0.383278,99.95,1
196228,1,60090,1,53968,58498,54197.12,58353.75,-229.12,144.25,0.383457,99.95,1
196268,1,60130,1,53976,58493,54196.68,58354.04,-220.68,138.96,0.383647,99.95,1
196308,1,60170,1,53985,58491,54196.26,58354.31,-211.26,136.69,0.383846,99.95,1
196348,1,60210,1,53993,58483,54195.85,58354.57,-202.85,128.43,0.384054,99.96,1
196388,1,60250,1,53994,58475,54195.45,58354.81,-201.45,120.19,0.384270,99.96,1
196428,1,60290,1,53999,58484,54195.06,58355.07,-196.06,128.93,0.384494,99.96,1
196468,1,60330,1,54006,58489,54194.68,58355.34,-188.68,133.66,0.384726,99.96,1
196508,1,60370,1,54018,58503,54194.33,58355.64,-176.33,147.36,0.384963,99.96,1
196548,1,60410,1,54025,58516,54194.00,58355.96,-169.00,160.04,0.385205,99.96,1
196588,1,60450,1,54030,58521,54193.67,58356.29,-163.67,164.71,0.385453,99.96,1
196628,1,60490,1,54036,58528,54193.36,58356.64,-157.36,171.36,0.385704,99.96,1
196668,1,60530,1,54047,58529,54193.06,58356.98,-146.06,172.02,0.385958,99.97,1
196708,1,60570,1,54052,58544,54192.78,58357.36,-140.78,186.64,0.386215,99.97,1
196748,1,60610,1,54060,58550,54192.52,58357.75,-132.52,192.25,0.386473,99.97,1
196788,1,60650,1,54058,58510,54192.25,58358.05,-134.25,151.95,0.386734,99.97,1
196828,1,60690,1,54030,58420,54191.92,58358.18,-161.92,61.82,0.387001,99.97,1
196868,1,60730,1,54006,58380,54191.55,58358.22,-185.55,21.78,0.387276,99.97,1
196908,1,60770,1,54003,58368,54191.18,58358.24,-188.18,9.76,0.387559,99.97,1
196948,1,60810,1,54011,58349,54190.82,58358.23,-179.82,-9.23,0.387850,99.97,1
196989,1,60851,1,54005,58314,54190.45,58358.14,-185.45,-44.14,0.388148,99.97,1
197029,1,60891,1,53999,58301,54190.06,58358.03,-191.06,-57.03,0.388455,99.97,1
197069,1,60931,1,53998,58287,54189.68,58357.89,-191.68,-70.89,0.388770,99.97,1
197109,1,60971,1,53997,58273,54189.30,58357.72,-192.30,-84.72,0.389094,99.98,1
197149,1,61011,1,53997,58266,54188.91,58357.54,-191.91,-91.54,0.389426,99.98,1
197189,1,61051,1,54005,58273,54188.55,58357.37,-183.55,-84.37,0.389765,99.98,1
197229,1,61091,1,54013,58280,54188.20,58357.21,-175.20,-77.21,0.390111,99.98,1
197269,1,61131,1,54026,58282,54187.87,58357.07,-161.87,-75.07,0.390462,99.98,1
197309,1,61171,1,54029,58289,54187.55,58356.93,-158.55,-67.93,0.390819,99.98,1
197349,1,61211,1,54036,58303,54187.25,58356.83,-151.25,-53.83,0.391180,99.98,1
197389,1,61251,1,54043,58310,54186.97,58356.73,-143.97,-46.73,0.391546,99.98,1
197429,1,61291,1,54045,58321,54186.69,58356.66,-141.69,-35.66,0.391917,99.98,1
197469,1,61331,1,54055,58331,54186.43,58356.61,-131.43,-25.61,0.392290,99.98,1
197509,1,61371,1,54060,58328,54186.18,58356.56,-126.18,-28.56,0.392667,99.98,1
