t_ms,trial_id,t_trial_ms,phase,red_raw,ir_raw,red_dc,ir_dc,red_ac,ir_ac,R,spo2,spo2_valid
175213,1,0,0,46785,50841,46477.31,50959.62,307.69,-118.62,0.999927,85.61,1
175254,1,41,0,46672,50793,46477.70,50959.29,194.30,-166.29,1.000732,85.59,1
175294,1,81,0,46710,50861,46478.17,50959.09,231.83,-98.09,1.001538,85.57,1
175334,1,121,0,46728,50959,46478.67,50959.09,249.33,-0.09,1.002346,85.55,1
175374,1,161,0,46788,51075,46479.29,50959.32,308.71,115.68,1.003157,85.53,1
175414,1,201,0,46846,51208,46480.02,50959.82,365.98,248.18,1.003970,85.51,1
175454,1,241,0,46896,51298,46480.86,50960.50,415.14,337.50,1.004782,85.49,1
175494,1,281,0,46939,51409,46481.77,50961.40,457.23,447.60,1.005586,85.48,1
175534,1,321,0,47040,51643,46482.89,50962.76,557.11,680.24,1.006365,85.46,1
175574,1,361,0,47145,51841,46484.21,50964.52,660.79,876.48,1.007099,85.44,1
175614,1,401,0,47250,52107,46485.75,50966.80,764.25,1140.20,1.007752,85.42,1
175654,1,441,0,47323,52220,46487.42,50969.31,835.58,1250.69,1.008319,85.40,1
175694,1,481,0,47381,52334,46489.21,50972.04,891.79,1361.96,1.008794,85.38,1
175734,1,521,0,47406,52339,46491.05,50974.78,914.95,1364.22,1.009189,85.36,1
175774,1,561,0,47384,52297,46492.83,50977.42,891.17,1319.58,1.009518,85.34,1
175815,1,602,0,47351,52136,46494.55,50979.74,856.45,1156.26,1.009807,85.33,1
175855,1,642,0,47226,51789,46496.02,50981.36,729.98,807.64,1.010089,85.31,1
175895,1,682,0,47074,51522,46497.17,50982.45,576.83,539.55,1.010371,85.29,1
175935,1,722,0,46987,51451,46498.15,50983.38,488.85,467.62,1.010654,85.28,1
175975,1,762,0,46997,51501,46499.15,50984.42,497.85,516.58,1.010935,85.26,1
176015,1,802,0,47002,51524,46500.16,50985.50,501.84,538.50,1.011212,85.24,1
176055,1,842,0,47000,51565,46501.16,50986.66,498.84,578.34,1.011483,85.23,1
176095,1,882,0,47044,51630,46502.25,50987.95,541.75,642.05,1.011746,85.21,1
176135,1,922,0,47063,51673,46503.37,50989.32,559.63,683.68,1.012000,85.20,1
176175,1,962,0,47100,51746,46504.56,50990.84,595.44,755.16,1.012241,85.18,1
176215,1,1002,0,47142,51825,46505.84,50992.50,636.16,832.50,1.012464,85.17,1
176255,1,1042,0,47174,51875,46507.18,50994.27,666.82,880.73,1.012670,85.15,1
176295,1,1082,0,47186,51902,46508.54,50996.09,677.46,905.91,1.012856,85.14,1
176335,1,1122,0,47181,51898,46509.88,50997.89,671.12,900.11,1.013023,85.12,1
176376,1,1163,0,47180,51930,46511.22,50999.76,668.78,930.24,1.013170,85.11,1
176416,1,1203,0,47187,51958,46512.57,51001.68,674.43,956.32,1.013295,85.10,1
176456,1,1243,0,47169,51803,46513.89,51003.28,655.11,799.72,1.013411,85.08,1
176496,1,1283,0,47064,51578,46514.99,51004.43,549.01,573.57,1.013527,85.07,1
176536,1,1323,0,47004,51522,46515.97,51005.47,488.03,516.53,1.013642,85.06,1
176576,1,1363,0,47015,51578,46516.97,51006.61,498.03,571.39,1.013753,85.05,1
176616,1,1403,0,47052,51653,46518.04,51007.91,533.96,645.09,1.013860,85.04,1
176656,1,1443,0,47093,51741,46519.19,51009.37,573.81,731.62,1.013957,85.02,1
176696,1,1483,0,47138,51842,46520.43,51011.04,617.57,830.96,1.014041,85.01,1
176736,1,1523,0,47175,51890,46521.74,51012.80,653.26,877.20,1.014111,85.00,1
176776,1,1563,0,47205,51955,46523.11,51014.69,681.89,940.31,1.014164,84.99,1
176816,1,1603,0,47226,51995,46524.51,51016.65,701.49,978.35,1.014199,84.98,1
176856,1,1643,0,47251,52065,46525.96,51018.75,725.04,1046.25,1.014212,84.97,1
176897,1,1684,0,47271,52121,46527.46,51020.95,743.54,1100.05,1.014201,84.96,1
176937,1,1724,0,47296,52184,46529.00,51023.28,767.00,1160.72,1.014163,84.95,1
176977,1,1764,0,47321,52254,46530.58,51025.74,790.42,1228.26,1.014095,84.94,1
177017,1,1804,0,47360,52329,46532.24,51028.35,827.76,1300.65,1.013996,84.93,1
177057,1,1844,0,47376,52261,46533.93,51030.82,842.07,1230.18,1.013873,84.92,1
177097,1,1884,0,47305,52068,46535.47,51032.89,769.53,1035.11,1.013740,84.92,1
177137,1,1924,0,47236,51956,46536.87,51034.74,699.12,921.26,1.013600,84.91,1
177177,1,1964,0,47224,51988,46538.25,51036.64,685.75,951.36,1.013449,84.90,1
177217,1,2004,0,47243,52041,46539.66,51038.66,703.34,1002.34,1.013287,84.89,1
177257,1,2044,0,47269,52128,46541.12,51040.84,727.88,1087.16,1.013109,84.89,1
177297,1,2084,0,47306,52206,46542.65,51043.17,763.35,1162.83,1.012913,84.88,1
177337,1,2124,0,47334,52261,46544.23,51045.61,789.77,1215.39,1.012697,84.88,1
177377,1,2164,0,47347,52290,46545.84,51048.09,801.16,1241.91,1.012462,84.87,1
177417,1,2204,0,47344,52302,46547.44,51050.60,796.56,1251.40,1.012207,84.86,1
177458,1,2245,0,47344,52334,46549.03,51053.17,794.97,1280.83,1.011931,84.86,1
177498,1,2285,0,47369,52407,46550.67,51055.87,818.33,1351.13,1.011632,84.86,1
177538,1,2325,0,47386,52467,46552.34,51058.70,833.66,1408.30,1.011308,84.85,1
177578,1,2365,0,47414,52533,46554.07,51061.65,859.93,1471.35,1.010957,84.85,1
177618,1,2405,0,47442,52594,46555.84,51064.71,886.16,1529.29,1.010579,84.84,1
177658,1,2445,0,47431,52471,46557.59,51067.53,873.41,1403.47,1.010184,84.84,1
177698,1,2485,0,47327,52237,46559.13,51069.87,767.87,1167.13,1.009780,84.84,1
177738,1,2525,0,47246,52128,46560.51,51071.98,685.49,1056.02,1.009368,84.84,1
177778,1,2565,0,47218,52125,46561.82,51074.09,656.18,1050.91,1.008948,84.83,1
177818,1,2605,0,47228,52186,46563.16,51076.32,664.84,1109.68,1.008518,84.83,1
177858,1,2645,0,47254,52186,46564.54,51078.54,689.46,1107.46,1.008079,84.83,1
177898,1,2685,0,47187,52157,46565.79,51080.70,621.21,1076.30,1.007629,84.83,1
177938,1,2725,0,47212,52237,46567.08,51083.01,644.92,1153.99,1.007168,84.83,1
177978,1,2765,0,47251,52306,46568.45,51085.46,682.55,1220.54,1.006693,84.83,1
178019,1,2806,0,47272,52339,46569.86,51087.96,702.14,1251.04,1.006204,84.83,1
178059,1,2846,0,47267,52388,46571.25,51090.57,695.75,1297.43,1.005700,84.83,1
178099,1,2886,0,47294,52457,46572.70,51093.30,721.30,1363.70,1.005178,84.83,1
178139,1,2926,0,47321,52530,46574.19,51096.18,746.81,1433.82,1.004637,84.84,1
178179,1,2966,0,47349,52558,46575.74,51099.10,773.26,1458.90,1.004079,84.84,1
178219,1,3006,0,47342,52558,46577.28,51102.02,764.72,1455.98,1.003503,84.84,1
178259,1,3046,0,47298,52382,46578.72,51104.58,719.28,1277.42,1.002918,84.84,1
178299,1,3086,0,47227,52266,46580.02,51106.91,646.98,1159.09,1.002324,84.84,1
178339,1,3126,0,47209,52266,46581.27,51109.23,627.73,1156.77,1.001722,84.85,1
178379,1,3166,0,47209,52272,46582.53,51111.55,626.47,1160.45,1.001111,84.85,1
178419,1,3206,0,47230,52321,46583.83,51113.98,646.17,1207.02,1.000492,84.86,1
178459,1,3246,0,47224,52338,46585.11,51116.43,638.89,1221.57,0.999862,84.86,1
178499,1,3286,0,47217,52345,46586.37,51118.88,630.62,1226.12,0.999223,84.87,1
178539,1,3326,0,47210,52365,46587.62,51121.37,622.37,1243.63,0.998574,84.87,1
178580,1,3367,0,47230,52392,46588.91,51123.92,641.09,1268.08,0.997914,84.88,1
178620,1,3407,0,47233,52427,46590.20,51126.53,642.80,1300.47,0.997242,84.88,1
178660,1,3447,0,47251,52484,46591.52,51129.24,659.48,1354.76,0.996559,84.89,1
178700,1,3487,0,47286,52556,46592.91,51132.10,693.09,1423.90,0.995862,84.89,1
178740,1,3527,0,47295,52582,46594.32,51135.00,700.68,1447.00,0.995152,84.90,1
178780,1,3567,0,47309,52639,46595.75,51138.01,713.25,1500.99,0.994428,84.91,1
178820,1,3607,0,47314,52603,46597.19,51140.94,716.81,1462.06,0.993692,84.92,1
178860,1,3647,0,47260,52444,46598.52,51143.55,661.48,1300.45,0.992948,84.92,1
178900,1,3687,0,47184,52342,46599.69,51145.95,584.31,1196.05,0.992197,84.93,1
178940,1,3727,0,47167,52349,46600.82,51148.35,566.18,1200.65,0.991439,84.94,1
178980,1,3767,0,47166,52359,46601.96,51150.77,564.04,1208.23,0.990673,84.95,1
179020,1,3807,0,47169,52386,46603.09,51153.25,565.91,1232.75,0.989899,84.96,1
179060,1,3847,0,47189,52430,46604.27,51155.80,584.73,1274.20,0.989117,84.97,1
179100,1,3887,0,47185,52431,46605.43,51158.35,579.57,1272.65,0.988327,84.98,1
179141,1,3928,0,47163,52406,46606.55,51160.85,556.45,1245.15,0.987529,84.99,1
179181,1,3968,0,47140,52405,46607.61,51163.34,532.39,1241.66,0.986722,85.00,1
179221,1,4008,0,47128,52421,46608.66,51165.85,519.34,1255.15,0.985907,85.01,1
179261,1,4048,0,47114,52423,46609.67,51168.37,504.33,1254.63,0.985082,85.02,1
179301,1,4088,0,47110,52458,46610.67,51170.95,499.33,1287.05,0.984248,85.03,1
179341,1,4128,0,47121,52503,46611.69,51173.61,509.31,1329.39,0.983403,85.04,1
179381,1,4168,0,47129,52545,46612.73,51176.36,516.27,1368.64,0.982547,85.05,1
179421,1,4208,0,47149,52553,46613.80,51179.11,535.20,1373.89,0.981680,85.07,1
179461,1,4248,0,47111,52423,46614.80,51181.60,496.20,1241.40,0.980806,85.08,1
179501,1,4288,0,47060,52350,46615.69,51183.94,444.31,1166.06,0.979926,85.09,1
179541,1,4328,0,47027,52335,46616.51,51186.24,410.49,1148.76,0.979038,85.10,1
179581,1,4368,0,47028,52346,46617.34,51188.56,410.66,1157.44,0.978143,85.12,1
179621,1,4408,0,47022,52358,46618.14,51190.90,403.86,1167.10,0.977242,85.13,1
179661,1,4448,0,47040,52431,46618.99,51193.38,421.01,1237.62,0.976331,85.14,1
179701,1,4488,0,47051,52452,46619.85,51195.90,431.15,1256.10,0.975413,85.16,1
179742,1,4529,0,47068,52490,46620.75,51198.49,447.25,1291.51,0.974485,85.17,1
179782,1,4569,0,47075,52518,46621.66,51201.13,453.34,1316.87,0.973549,85.19,1
179822,1,4609,0,47083,52554,46622.59,51203.84,460.41,1350.16,0.972603,85.20,1
179862,1,4649,0,47104,52603,46623.55,51206.64,480.45,1396.36,0.971647,85.22,1
179902,1,4689,0,47125,52652,46624.55,51209.53,500.45,1442.47,0.970681,85.23,1
179942,1,4729,0,47134,52690,46625.57,51212.49,508.43,1477.51,0.969704,85.25,1
179982,1,4769,0,47166,52752,46626.66,51215.57,539.34,1536.43,0.968716,85.27,1
180022,1,4809,0,47190,52785,46627.79,51218.71,562.21,1566.29,0.967717,85.28,1
180062,1,4849,0,47187,52724,46628.91,51221.73,558.09,1502.27,0.966710,85.30,1
180102,1,4889,0,47151,52643,46629.95,51224.57,521.05,1418.43,0.965695,85.31,1
180142,1,4929,0,47116,52597,46630.93,51227.32,485.07,1369.68,0.964673,85.33,1
180182,1,4969,0,47106,52611,46631.88,51230.09,474.12,1380.91,0.963644,85.35,1
180222,1,5009,0,47101,52620,46632.82,51232.87,468.18,1387.13,0.962607,85.37,1
180262,1,5049,0,47108,52654,46633.77,51235.71,474.23,1418.29,0.961563,85.38,1
180303,1,5090,0,47118,52675,46634.74,51238.59,483.26,1436.41,0.960511,85.40,1
180343,1,5130,0,47122,52711,46635.71,51241.54,486.29,1469.46,0.959451,85.42,1
180383,1,5170,0,47145,52750,46636.73,51244.55,508.27,1505.45,0.958383,85.44,1
180423,1,5210,0,47155,52788,46637.77,51247.64,517.23,1540.36,0.957307,85.46,1
180463,1,5250,0,47181,52825,46638.86,51250.80,542.14,1574.20,0.956223,85.48,1
180503,1,5290,0,47179,52845,46639.94,51253.99,539.06,1591.01,0.955130,85.50,1
180543,1,5330,0,47192,52900,46641.05,51257.29,550.95,1642.71,0.954028,85.52,1
180583,1,5370,0,47221,52933,46642.21,51260.64,578.79,1672.36,0.952918,85.54,1
180623,1,5410,0,47230,52975,46643.38,51264.07,586.62,1710.93,0.951798,85.56,1
180663,1,5450,0,47247,52961,46644.59,51267.46,602.41,1693.54,0.950672,85.58,1
180703,1,5490,0,47226,52875,46645.75,51270.68,580.25,1604.32,0.949539,85.60,1
180743,1,5530,0,47192,52830,46646.85,51273.80,545.15,1556.20,0.948402,85.62,1
180783,1,5570,0,47184,52833,46647.92,51276.92,536.08,1556.08,0.947258,85.64,1
180823,1,5610,0,47180,52840,46648.99,51280.05,531.01,1559.95,0.946109,85.66,1
180864,1,5651,0,47180,52865,46650.05,51283.22,529.95,1581.78,0.944954,85.68,1
180904,1,5691,0,47189,52904,46651.13,51286.46,537.87,1617.54,0.943793,85.70,1
180944,1,5731,0,47205,52926,46652.24,51289.74,552.76,1636.26,0.942627,85.73,1
180984,1,5771,0,47211,52949,46653.36,51293.06,557.64,1655.94,0.941454,85.75,1
181024,1,5811,0,47230,52970,46654.51,51296.42,575.49,1673.58,0.940276,85.77,1
181064,1,5851,0,47223,53003,46655.65,51299.83,567.35,1703.17,0.939092,85.79,1
181104,1,5891,0,47253,53054,46656.84,51303.34,596.16,1750.66,0.937902,85.82,1
181144,1,5931,0,47273,53086,46658.08,51306.91,614.92,1779.09,0.936707,85.84,1
181184,1,5971,0,47281,53109,46659.32,51310.51,621.68,1798.49,0.935505,85.86,1
181224,1,6011,0,47292,53147,46660.59,51314.19,631.41,1832.81,0.934299,85.88,1
181264,1,6051,0,47302,53101,46661.87,51317.76,640.12,1783.24,0.933088,85.91,1
181304,1,6091,0,47261,52989,46663.07,51321.11,597.93,1667.89,0.931874,85.93,1
181344,1,6131,0,47215,52929,46664.18,51324.32,550.82,1604.68,0.930656,85.96,1
181384,1,6171,0,47207,52928,46665.27,51327.53,541.73,1600.47,0.929436,85.98,1
181425,1,6212,0,47201,52913,46666.34,51330.70,534.66,1582.30,0.928214,86.01,1
181465,1,6252,0,47181,52905,46667.37,51333.85,513.63,1571.15,0.926988,86.03,1
181505,1,6292,0,47168,52899,46668.37,51336.98,499.62,1562.02,0.925759,86.05,1
181545,1,6332,0,47145,52876,46669.33,51340.06,475.67,1535.94,0.924527,86.08,1
181585,1,6372,0,47142,52899,46670.27,51343.18,471.73,1555.82,0.923292,86.10,1
181625,1,6412,0,47168,52938,46671.27,51346.37,496.73,1591.63,0.922054,86.13,1
181665,1,6452,0,47176,52963,46672.28,51349.61,503.72,1613.39,0.920813,86.16,1
181705,1,6492,0,47203,53010,46673.34,51352.93,529.66,1657.07,0.919568,86.18,1
181745,1,6532,0,47226,53044,46674.45,51356.31,551.55,1687.69,0.918321,86.21,1
181785,1,6572,0,47237,53079,46675.57,51359.76,561.43,1719.24,0.917071,86.23,1
181825,1,6612,0,47247,53109,46676.72,51363.26,570.28,1745.74,0.915817,86.26,1
181865,1,6652,0,47257,53045,46677.88,51366.62,579.12,1678.38,0.914562,86.29,1
181905,1,6692,0,47199,52922,46678.92,51369.73,520.08,1552.27,0.913306,86.31,1
181945,1,6732,0,47156,52839,46679.88,51372.68,476.12,1466.32,0.912049,86.34,1
181986,1,6773,0,47132,52821,46680.79,51375.57,451.21,1445.43,0.910791,86.37,1
182026,1,6813,0,47135,52833,46681.70,51378.49,453.30,1454.51,0.909531,86.39,1
182066,1,6853,0,47134,52842,46682.60,51381.42,451.40,1460.58,0.908271,86.42,1
182106,1,6893,0,47134,52851,46683.50,51384.36,450.50,1466.64,0.907010,86.45,1
182146,1,6933,0,47137,52859,46684.41,51387.31,452.59,1471.69,0.905747,86.47,1
182186,1,6973,0,47142,52872,46685.33,51390.28,456.67,1481.72,0.904484,86.50,1
182226,1,7013,0,47147,52885,46686.25,51393.27,460.75,1491.73,0.903219,86.53,1
182266,1,7053,0,47173,52937,46687.23,51396.36,485.77,1540.64,0.901953,86.56,1
182306,1,7093,0,47191,52955,46688.24,51399.48,502.76,1555.52,0.900687,86.58,1
182346,1,7133,0,47199,53002,46689.26,51402.69,509.74,1599.31,0.899419,86.61,1
182386,1,7173,0,47223,53039,46690.33,51405.96,532.67,1633.04,0.898150,86.64,1
182426,1,7213,0,47242,53073,46691.44,51409.30,550.56,1663.70,0.896881,86.67,1
182466,1,7253,0,47259,53053,46692.57,51412.59,566.43,1640.41,0.895611,86.70,1
182506,1,7293,0,47211,52902,46693.61,51415.57,517.39,1486.43,0.894342,86.72,1
182547,1,7334,0,47154,52775,46694.54,51418.29,459.46,1356.71,0.893074,86.75,1
182587,1,7374,0,47128,52752,46695.40,51420.95,432.60,1331.05,0.891807,86.78,1
182627,1,7414,0,47127,52754,46696.27,51423.62,430.73,1330.38,0.890540,86.81,1
182667,1,7454,0,47137,52776,46697.15,51426.33,439.85,1349.67,0.889275,86.84,1
182707,1,7494,0,47150,52797,46698.05,51429.07,451.95,1367.93,0.888010,86.87,1
182747,1,7534,0,47163,52823,46698.98,51431.86,464.02,1391.14,0.886746,86.90,1
182787,1,7574,0,47181,52829,46699.95,51434.66,481.05,1394.34,0.885484,86.93,1
182827,1,7614,0,47190,52845,46700.93,51437.48,489.07,1407.52,0.884222,86.95,1
182867,1,7654,0,47209,52866,46701.95,51440.34,507.05,1425.66,0.882962,86.98,1
182907,1,7694,0,47207,52873,46702.96,51443.20,504.04,1429.80,0.881703,87.01,1
182947,1,7734,0,47224,52915,46704.00,51446.15,520.00,1468.85,0.880446,87.04,1
182987,1,7774,0,47250,52945,46705.09,51449.15,544.91,1495.85,0.879191,87.07,1
183027,1,7814,0,47265,52980,46706.21,51452.21,558.79,1527.79,0.877937,87.10,1
183067,1,7854,0,47274,52994,46707.35,51455.30,566.65,1538.70,0.876684,87.13,1
183108,1,7895,0,47269,52914,46708.48,51458.21,560.52,1455.79,0.875435,87.16,1
183148,1,7935,0,47216,52747,46709.49,51460.79,506.51,1286.21,0.874188,87.19,1
183188,1,7975,0,47155,52673,46710.38,51463.22,444.62,1209.78,0.872944,87.22,1
183228,1,8015,0,47148,52669,46711.26,51465.63,436.74,1203.37,0.871702,87.25,1
183268,1,8055,0,47164,52694,46712.16,51468.09,451.84,1225.91,0.870463,87.28,1
183308,1,8095,0,47179,52734,46713.10,51470.62,465.90,1263.38,0.869226,87.31,1
183348,1,8135,0,47206,52771,46714.09,51473.22,491.91,1297.78,0.867992,87.34,1
183388,1,8175,0,47226,52777,46715.11,51475.83,510.89,1301.17,0.866761,87.37,1
183428,1,8215,0,47232,52783,46716.14,51478.45,515.86,1304.55,0.865533,87.40,1
183468,1,8255,0,47238,52817,46717.19,51481.13,520.81,1335.87,0.864308,87.43,1
183508,1,8295,0,47255,52841,46718.27,51483.85,536.73,1357.15,0.863086,87.46,1
183548,1,8335,0,47276,52880,46719.38,51486.64,556.62,1393.36,0.861867,87.49,1
183588,1,8375,0,47295,52935,46720.54,51489.54,574.46,1445.46,0.860651,87.52,1
183628,1,8415,0,47318,52981,46721.73,51492.53,596.27,1488.47,0.859438,87.55,1
183669,1,8456,0,47335,53000,46722.96,51495.54,612.04,1504.46,0.858229,87.58,1
183709,1,8496,0,47333,52992,46724.18,51498.54,608.82,1493.46,0.857023,87.61,1
183749,1,8536,0,47314,52859,46725.36,51501.26,588.64,1357.74,0.855821,87.64,1
183789,1,8576,0,47250,52738,46726.41,51503.74,523.59,1234.26,0.854624,87.67,1
183829,1,8616,0,47230,52728,46727.42,51506.19,502.58,1221.81,0.853430,87.70,1
183869,1,8656,0,47239,52748,46728.44,51508.67,510.56,1239.33,0.852239,87.73,1
183909,1,8696,0,47255,52777,46729.50,51511.21,525.50,1265.79,0.851052,87.76,1
183949,1,8736,0,47285,52831,46730.61,51513.85,554.39,1317.15,0.849869,87.79,1
183989,1,8776,0,47303,52857,46731.75,51516.54,571.25,1340.46,0.848690,87.82,1
184029,1,8816,0,47311,52862,46732.91,51519.23,578.09,1342.77,0.847515,87.85,1
184069,1,8856,0,47316,52880,46734.08,51521.95,581.92,1358.05,0.846344,87.88,1
184109,1,8896,0,47328,52913,46735.27,51524.74,592.73,1388.26,0.845177,87.91,1
184149,1,8936,0,47341,52944,46736.48,51527.58,604.52,1416.42,0.844014,87.94,1
184190,1,8977,0,47351,52969,46737.71,51530.46,613.29,1438.54,0.842855,87.97,1
184230,1,9017,0,47362,53010,46738.96,51533.42,623.04,1476.58,0.841700,88.00,1
184270,1,9057,0,47378,53046,46740.24,51536.45,637.76,1509.55,0.840549,88.03,1
184310,1,9097,0,47391,53072,46741.54,51539.52,649.46,1532.48,0.839401,88.05,1
184350,1,9137,0,47394,52996,46742.84,51542.44,651.16,1453.56,0.838258,88.08,1
184390,1,9177,0,47331,52847,46744.02,51545.05,586.98,1301.95,0.837120,88.11,1
184430,1,9217,0,47289,52765,46745.11,51547.49,543.89,1217.51,0.835987,88.14,1
184470,1,9257,0,47281,52770,46746.18,51549.93,534.82,1220.07,0.834857,88.17,1
184510,1,9297,0,47302,52801,46747.30,51552.44,554.70,1248.56,0.833731,88.20,1
184550,1,9337,0,47316,52834,46748.43,51555.00,567.57,1279.00,0.832610,88.23,1
184590,1,9377,0,47346,52882,46749.63,51557.66,596.37,1324.34,0.831493,88.26,1
184630,1,9417,0,47360,52895,46750.85,51560.34,609.15,1334.66,0.830381,88.29,1
184670,1,9457,0,47359,52899,46752.07,51563.02,606.93,1335.98,0.829274,88.32,1
184710,1,9497,0,47371,52937,46753.31,51565.77,617.69,1371.23,0.828171,88.35,1
184751,1,9538,0,47386,52961,46754.57,51568.56,631.43,1392.44,0.827073,88.38,1
184791,1,9578,0,47405,53010,46755.87,51571.44,649.12,1438.56,0.825980,88.41,1
184831,1,9618,0,47422,53057,46757.21,51574.41,664.79,1482.59,0.824891,88.44,1
184871,1,9658,0,47450,53099,46758.59,51577.46,691.41,1521.54,0.823806,88.47,1
184911,1,9698,0,47472,53147,46760.02,51580.61,711.98,1566.39,0.822727,88.50,1
184951,1,9738,0,47481,53169,46761.46,51583.79,719.54,1585.21,0.821653,88.52,1
184991,1,9778,0,47484,53057,46762.91,51586.73,721.09,1470.27,0.820584,88.55,1
185031,1,9818,0,47419,52878,46764.22,51589.32,654.78,1288.68,0.819522,88.58,1
185071,1,9858,0,47359,52793,46765.41,51591.73,593.59,1201.27,0.818465,88.61,1
185111,1,9898,0,47348,52785,46766.58,51594.11,581.42,1190.89,0.817413,88.64,1
185151,1,9938,0,47356,52794,46767.76,51596.52,588.24,1197.48,0.816367,88.67,1
185191,1,9978,0,47368,52841,46768.96,51599.01,599.04,1241.99,0.815325,88.70,1
185231,1,10018,0,47388,52866,46770.20,51601.54,617.80,1264.46,0.814288,88.72,1
185272,1,10059,0,47389,52860,46771.44,51604.06,617.56,1255.94,0.813257,88.75,1
185312,1,10099,0,47369,52829,46772.64,51606.52,596.36,1222.48,0.812230,88.78,1
185352,1,10139,0,47367,52865,46773.83,51609.04,593.17,1255.96,0.811208,88.81,1
185392,1,10179,0,47381,52883,46775.04,51611.59,605.96,1271.41,0.810190,88.84,1
185432,1,10219,0,47392,52932,46776.28,51614.23,615.72,1317.77,0.809177,88.87,1
185472,1,10259,0,47423,52981,46777.57,51616.96,645.43,1364.04,0.808169,88.89,1
185512,1,10299,0,47433,53016,46778.88,51619.76,654.12,1396.24,0.807165,88.92,1
185552,1,10339,0,47463,53053,46780.25,51622.63,682.75,1430.37,0.806166,88.95,1
185592,1,10379,0,47483,53087,46781.66,51625.56,701.34,1461.44,0.805173,88.98,1
185632,1,10419,0,47489,53031,46783.07,51628.37,705.93,1402.63,0.804185,89.00,1
185672,1,10459,0,47437,52836,46784.38,51630.79,652.62,1205.21,0.803203,89.03,1
185712,1,10499,0,47360,52692,46785.54,51632.91,574.46,1059.09,0.802227,89.06,1
185752,1,10539,0,47323,52665,46786.61,51634.98,536.39,1030.02,0.801256,89.09,1
185792,1,10579,0,47333,52681,46787.70,51637.07,545.30,1043.93,0.800290,89.11,1
185833,1,10620,0,47345,52706,46788.82,51639.21,556.18,1066.79,0.799329,89.14,1
185873,1,10660,0,47368,52757,46789.98,51641.45,578.02,1115.55,0.798373,89.17,1
185913,1,10700,0,47393,52785,46791.19,51643.74,601.81,1141.26,0.797422,89.19,1
185953,1,10740,0,47397,52792,46792.40,51646.04,604.60,1145.96,0.796477,89.22,1
185993,1,10780,0,47413,52834,46793.64,51648.42,619.36,1185.58,0.795536,89.25,1
186033,1,10820,0,47438,52869,46794.93,51650.86,643.07,1218.14,0.794602,89.27,1
186073,1,10860,0,47459,52908,46796.26,51653.37,662.74,1254.63,0.793673,89.30,1
186113,1,10900,0,47489,52962,46797.64,51655.99,691.36,1306.01,0.792751,89.33,1
186153,1,10940,0,47502,53000,46799.05,51658.68,702.95,1341.32,0.791834,89.35,1
186193,1,10980,0,47531,53043,46800.52,51661.45,730.48,1381.55,0.790924,89.38,1
186233,1,11020,0,47551,53076,46802.02,51664.28,748.98,1411.72,0.790020,89.41,1
186273,1,11060,0,47564,53108,46803.55,51667.17,760.45,1440.83,0.789122,89.43,1
186313,1,11100,0,47566,53034,46805.07,51669.91,760.93,1364.09,0.788231,89.46,1
186354,1,11141,0,47503,52818,46806.47,51672.20,696.53,1145.80,0.787348,89.48,1
186394,1,11181,0,47426,52678,46807.71,51674.21,618.29,1003.79,0.786472,89.51,1
186434,1,11221,0,47391,52667,46808.88,51676.20,582.12,990.80,0.785601,89.53,1
186474,1,11261,0,47424,52689,46810.11,51678.23,613.89,1010.77,0.784736,89.56,1
186514,1,11301,0,47431,52729,46811.36,51680.33,619.64,1048.67,0.783877,89.59,1
186554,1,11341,0,47464,52782,46812.66,51682.54,651.34,1099.46,0.783025,89.61,1
186594,1,11381,0,47482,52800,46814.00,51684.77,668.00,1115.23,0.782179,89.64,1
186634,1,11421,0,47494,52806,46815.36,51687.01,678.64,1118.99,0.781341,89.66,1
186674,1,11461,0,47498,52830,46816.73,51689.30,681.27,1140.70,0.780509,89.69,1
186714,1,11501,0,47525,52868,46818.14,51691.66,706.86,1176.34,0.779684,89.71,1
186754,1,11541,0,47539,52906,46819.59,51694.09,719.41,1211.91,0.778865,89.73,1
186794,1,11581,0,47561,52965,46821.07,51696.63,739.93,1268.37,0.778054,89.76,1
186834,1,11621,0,47587,53001,46822.60,51699.24,764.40,1301.76,0.777250,89.78,1
186875,1,11662,0,47604,53047,46824.16,51701.94,779.84,1345.06,0.776453,89.81,1
186915,1,11702,0,47625,53089,46825.77,51704.71,799.23,1384.29,0.775664,89.83,1
186955,1,11742,0,47637,53115,46827.39,51707.54,809.61,1407.46,0.774881,89.86,1
186995,1,11782,0,47646,53122,46829.03,51710.37,816.97,1411.63,0.774106,89.88,1
187035,1,11822,0,47626,52966,46830.62,51712.88,795.38,1253.12,0.773339,89.90,1
187075,1,11862,0,47534,52751,46832.03,51714.96,701.97,1036.04,0.772580,89.93,1
187115,1,11902,0,47473,52664,46833.31,51716.86,639.69,947.14,0.771827,89.95,1
187155,1,11942,0,47465,52666,46834.57,51718.75,630.43,947.25,0.771081,89.97,1
187195,1,11982,0,47477,52681,46835.86,51720.68,641.14,960.32,0.770341,90.00,1
187235,1,12022,0,47488,52734,46837.16,51722.71,650.84,1011.29,0.769607,90.02,1
187275,1,12062,0,47521,52762,46838.53,51724.79,682.47,1037.21,0.768881,90.04,1
187315,1,12102,0,47520,52761,46839.89,51726.86,680.11,1034.14,0.768161,90.06,1
187355,1,12142,0,47519,52765,46841.25,51728.94,677.75,1036.06,0.767448,90.09,1
187395,1,12182,0,47523,52781,46842.62,51731.04,680.38,1049.96,0.766741,90.11,1
187436,1,12223,0,47531,52807,46844.00,51733.20,687.00,1073.80,0.766040,90.13,1
187476,1,12263,0,47538,52844,46845.39,51735.42,692.61,1108.58,0.765346,90.15,1
187516,1,12303,0,47559,52898,46846.82,51737.75,712.18,1160.25,0.764658,90.18,1
187556,1,12343,0,47584,52933,46848.29,51740.14,735.71,1192.86,0.763976,90.20,1
187596,1,12383,0,47600,52964,46849.80,51742.59,750.20,1221.41,0.763301,90.22,1
187636,1,12423,0,47609,52996,46851.32,51745.09,757.68,1250.91,0.762632,90.24,1
187676,1,12463,0,47623,53013,46852.86,51747.63,770.14,1265.37,0.761970,90.26,1
187716,1,12503,0,47632,52981,46854.42,51750.10,777.58,1230.90,0.761314,90.28,1
187756,1,12543,0,47574,52765,46855.86,51752.13,718.14,1012.87,0.760666,90.30,1
187796,1,12583,0,47483,52593,46857.11,51753.82,625.89,839.18,0.760024,90.32,1
187836,1,12623,0,47445,52556,46858.29,51755.42,586.71,800.58,0.759388,90.35,1
187876,1,12663,0,47450,52582,46859.47,51757.08,590.53,824.92,0.758758,90.37,1
187916,1,12703,0,47465,52619,46860.68,51758.80,604.32,860.20,0.758134,90.39,1
187957,1,12744,0,47488,52662,46861.94,51760.61,626.06,901.39,0.757515,90.41,1
187997,1,12784,0,47494,52671,46863.20,51762.43,630.80,908.57,0.756903,90.43,1
188037,1,12824,0,47488,52677,46864.45,51764.27,623.55,912.73,0.756296,90.45,1
188077,1,12864,0,47496,52694,46865.72,51766.12,630.28,927.87,0.755695,90.47,1
188117,1,12904,0,47514,52732,46867.02,51768.06,646.98,963.94,0.755099,90.49,1
188157,1,12944,0,47529,52785,46868.34,51770.09,660.66,1014.91,0.754509,90.51,1
188197,1,12984,0,47559,52830,46869.72,51772.21,689.28,1057.79,0.753925,90.53,1
188237,1,13024,0,47581,52876,46871.14,51774.42,709.86,1101.58,0.753347,90.54,1
188277,1,13064,0,47607,52918,46872.62,51776.71,734.38,1141.29,0.752774,90.56,1
188317,1,13104,0,47622,52946,46874.12,51779.05,747.88,1166.95,0.752208,90.58,1
188357,1,13144,0,47627,52970,46875.62,51781.43,751.37,1188.57,0.751648,90.60,1
188397,1,13184,0,47638,52946,46877.15,51783.77,760.85,1162.23,0.751094,90.62,1
188437,1,13224,0,47577,52718,46878.55,51785.64,698.45,932.36,0.750547,90.64,1
188477,1,13264,0,47487,52553,46879.77,51787.17,607.23,765.83,0.750007,90.66,1
188518,1,13305,0,47452,52536,46880.92,51788.67,571.08,747.33,0.749472,90.67,1
188558,1,13345,0,47462,52567,46882.08,51790.23,579.92,776.77,0.748942,90.69,1
188598,1,13385,0,47477,52616,46883.27,51791.88,593.73,824.12,0.748417,90.71,1
188638,1,13425,0,47516,52685,46884.54,51793.67,631.46,891.33,0.747898,90.73,1
188678,1,13465,0,47524,52702,46885.82,51795.49,638.18,906.51,0.747385,90.75,1
188718,1,13505,0,47537,52719,46887.12,51797.34,649.87,921.66,0.746877,90.76,1
188758,1,13545,0,47549,52743,46888.45,51799.23,660.55,943.77,0.746375,90.78,1
188798,1,13585,0,47563,52775,46889.80,51801.18,673.20,973.82,0.745878,90.80,1
188838,1,13625,0,47584,52831,46891.19,51803.25,692.81,1027.75,0.745387,90.82,1
188878,1,13665,0,47608,52883,46892.62,51805.41,715.37,1077.59,0.744902,90.83,1
188918,1,13705,0,47631,52921,46894.10,51807.64,736.90,1113.36,0.744423,90.85,1
188958,1,13745,0,47646,52961,46895.61,51809.95,750.39,1151.05,0.743949,90.87,1
188998,1,13785,0,47664,52997,46897.14,51812.32,766.86,1184.68,0.743481,90.88,1
189038,1,13825,0,47670,53016,46898.69,51814.73,771.31,1201.27,0.743018,90.90,1
189079,1,13866,0,47666,52929,46900.23,51816.96,765.77,1112.04,0.742561,90.91,1
189119,1,13906,0,47580,52670,46901.59,51818.67,678.41,851.33,0.742112,90.93,1
189159,1,13946,0,47482,52519,46902.75,51820.07,579.25,698.93,0.741668,90.95,1
189199,1,13986,0,47440,52482,46903.82,51821.40,536.18,660.60,0.741228,90.96,1
189239,1,14026,0,47436,52512,46904.89,51822.78,531.11,689.22,0.740794,90.98,1
189279,1,14066,0,47458,52555,46906.00,51824.25,552.00,730.75,0.740363,90.99,1
189319,1,14106,0,47490,52606,46907.16,51825.81,582.84,780.19,0.739938,91.01,1
189359,1,14146,0,47504,52624,46908.36,51827.41,595.64,796.59,0.739518,91.02,1
189399,1,14186,0,47509,52636,46909.56,51829.03,599.44,806.97,0.739102,91.04,1
189439,1,14226,0,47517,52648,46910.78,51830.67,606.22,817.33,0.738692,91.05,1
189479,1,14266,0,47521,52670,46912.00,51832.35,609.00,837.65,0.738287,91.07,1
189519,1,14306,0,47535,52719,46913.25,51834.12,621.75,884.88,0.737886,91.08,1
189559,1,14346,0,47543,52760,46914.51,51835.97,628.49,924.03,0.737490,91.10,1
189600,1,14387,0,47568,52814,46915.82,51837.93,652.18,976.07,0.737097,91.11,1
189640,1,14427,0,47587,52844,46917.16,51839.94,669.84,1004.06,0.736710,91.12,1
189680,1,14467,0,47607,52894,46918.54,51842.05,688.46,1051.95,0.736326,91.14,1
189720,1,14507,0,47615,52921,46919.94,51844.21,695.06,1076.79,0.735947,91.15,1
189760,1,14547,0,47622,52823,46921.34,51846.17,700.66,976.83,0.735574,91.17,1
189800,1,14587,0,47535,52572,46922.57,51847.62,612.43,724.38,0.735206,91.18,1
189840,1,14627,0,47447,52429,46923.62,51848.79,523.37,580.21,0.734843,91.19,1
189880,1,14667,0,47424,52417,46924.63,51849.92,499.37,567.08,0.734485,91.21,1
189920,1,14707,0,47433,52434,46925.65,51851.09,507.35,582.91,0.734131,91.22,1
189960,1,14747,0,47446,52473,46926.69,51852.34,519.31,620.66,0.733782,91.23,1
190000,1,14787,0,47465,52522,46927.77,51853.68,537.23,668.32,0.733437,91.25,1
190040,1,14827,0,47488,52539,46928.89,51855.05,559.11,683.95,0.733098,91.26,1
190080,1,14867,0,47478,52555,46929.99,51856.45,548.01,698.55,0.732762,91.27,1
190120,1,14907,0,47490,52582,46931.11,51857.90,558.89,724.10,0.732432,91.28,1
190161,1,14948,0,47500,52610,46932.25,51859.41,567.75,750.59,0.732105,91.30,1
190201,1,14988,0,47519,52665,46933.43,51861.02,585.57,803.98,0.731783,91.31,1
190241,1,15028,0,47544,52735,46934.65,51862.77,609.35,872.23,0.731464,91.32,1
190281,1,15068,0,47572,52780,46935.93,51864.61,636.07,915.39,0.731150,91.33,1
190321,1,15108,0,47588,52821,46937.23,51866.52,650.77,954.48,0.730840,91.34,1
190361,1,15148,0,47606,52869,46938.57,51868.53,667.43,1000.47,0.730534,91.36,1
190401,1,15188,0,47623,52903,46939.94,51870.60,683.06,1032.40,0.730232,91.37,1
190441,1,15228,0,47637,52830,46941.34,51872.52,695.66,957.48,0.729935,91.38,1
190481,1,15268,0,47561,52570,46942.58,51873.91,618.42,696.09,0.729644,91.39,1
190521,1,15308,0,47460,52412,46943.61,51874.99,516.39,537.01,0.729358,91.40,1
190561,1,15348,0,47430,52398,46944.59,51876.04,485.41,521.96,0.729077,91.41,1
190601,1,15388,0,47442,52413,46945.58,51877.11,496.42,535.89,0.728800,91.42,1
190641,1,15428,0,47438,52448,46946.57,51878.26,491.43,569.74,0.728527,91.44,1
190681,1,15468,0,47466,52507,46947.61,51879.52,518.39,627.48,0.728258,91.45,1
190722,1,15509,0,47482,52519,46948.68,51880.80,533.32,638.20,0.727994,91.46,1
190762,1,15549,0,47470,52517,46949.72,51882.07,520.28,634.93,0.727734,91.47,1
190802,1,15589,0,47477,52556,46950.77,51883.42,526.23,672.58,0.727477,91.48,1
190842,1,15629,0,47492,52580,46951.86,51884.81,540.14,695.19,0.727225,91.49,1
190882,1,15669,0,47506,52643,46952.96,51886.33,553.04,756.67,0.726976,91.50,1
190922,1,15709,0,47538,52709,46954.14,51887.98,583.86,821.02,0.726731,91.51,1
190962,1,15749,0,47558,52746,46955.34,51889.70,602.66,856.30,0.726490,91.52,1
191002,1,15789,0,47575,52786,46956.59,51891.49,618.41,894.51,0.726252,91.53,1
191042,1,15829,0,47594,52822,46957.86,51893.36,636.14,928.64,0.726017,91.54,1
191082,1,15869,0,47598,52838,46959.14,51895.25,638.86,942.75,0.725786,91.55,1
191122,1,15909,0,47610,52800,46960.45,51897.06,649.55,902.94,0.725559,91.56,1
191162,1,15949,0,47545,52532,46961.62,51898.33,583.38,633.67,0.725337,91.57,1
191202,1,15989,0,47430,52343,46962.56,51899.22,467.44,443.78,0.725121,91.57,1
191242,1,16029,0,47392,52324,46963.42,51900.07,428.58,423.93,0.724907,91.58,1
191283,1,16070,0,47397,52346,46964.29,51900.96,432.71,445.04,0.724698,91.59,1
191323,1,16110,0,47397,52374,46965.15,51901.91,431.85,472.09,0.724492,91.60,1
191363,1,16150,0,47433,52452,46966.09,51903.02,466.91,548.98,0.724290,91.61,1
191403,1,16190,0,47460,52484,46967.08,51904.18,492.92,579.82,0.724091,91.62,1
191443,1,16230,0,47466,52485,46968.08,51905.34,497.92,579.66,0.723897,91.63,1
191483,1,16270,0,47469,52512,46969.08,51906.56,499.92,605.44,0.723706,91.64,1
191523,1,16310,0,47482,52542,46970.11,51907.83,511.89,634.17,0.723519,91.64,1
191563,1,16350,0,47497,52575,46971.16,51909.17,525.84,665.83,0.723335,91.65,1
191603,1,16390,0,47516,52633,46972.25,51910.62,543.75,722.38,0.723156,91.66,1
191643,1,16430,0,47542,52679,46973.39,51912.16,568.61,766.84,0.722979,91.67,1
191683,1,16470,0,47561,52722,46974.57,51913.78,586.43,808.22,0.722806,91.68,1
191723,1,16510,0,47577,52750,46975.78,51915.45,601.22,834.55,0.722637,91.68,1
191763,1,16550,0,47578,52768,46976.98,51917.16,601.02,850.84,0.722471,91.69,1
191803,1,16590,0,47575,52693,46978.18,51918.71,596.82,774.29,0.722309,91.70,1
191844,1,16631,0,47496,52436,46979.21,51919.75,516.79,516.25,0.722152,91.71,1
191884,1,16671,0,47393,52272,46980.04,51920.45,412.96,351.55,0.721999,91.71,1
191924,1,16711,0,47360,52276,46980.80,51921.16,379.20,354.84,0.721849,91.72,1
191964,1,16751,0,47379,52302,46981.60,51921.93,397.40,380.07,0.721703,91.73,1
192004,1,16791,0,47390,52367,46982.42,51922.82,407.58,444.18,0.721559,91.74,1
192044,1,16831,0,47425,52416,46983.30,51923.80,441.70,492.20,0.721419,91.74,1
192084,1,16871,0,47439,52440,46984.22,51924.84,454.78,515.16,0.721283,91.75,1
192124,1,16911,0,47450,52435,46985.15,51925.86,464.85,509.14,0.721150,91.76,1
192164,1,16951,0,47451,52463,46986.09,51926.94,464.91,536.06,0.721021,91.76,1
192204,1,16991,0,47463,52505,46987.04,51928.09,475.96,576.91,0.720895,91.77,1
192244,1,17031,0,47478,52551,46988.02,51929.34,489.98,621.66,0.720772,91.77,1
192284,1,17071,0,47491,52591,46989.03,51930.66,501.97,660.34,0.720652,91.78,1
192324,1,17111,0,47509,52633,46990.07,51932.07,518.93,700.93,0.720535,91.79,1
192364,1,17151,0,47525,52670,46991.14,51933.55,533.86,736.45,0.720421,91.79,1
192405,1,17192,0,47535,52699,46992.23,51935.08,542.77,763.92,0.720309,91.80,1
192445,1,17232,0,47543,52746,46993.34,51936.70,549.66,809.30,0.720199,91.81,1
192485,1,17272,0,47538,52580,46994.43,51937.99,543.57,642.01,0.720093,91.81,1
192525,1,17312,0,47430,52333,46995.30,51938.79,434.70,394.21,0.719991,91.82,1
192565,1,17352,0,47355,52253,46996.02,51939.41,358.98,313.59,0.719893,91.82,1
192605,1,17392,0,47344,52272,46996.71,51940.08,347.29,331.92,0.719797,91.83,1
192645,1,17432,0,47362,52303,46997.44,51940.81,364.56,362.19,0.719704,91.83,1
192685,1,17472,0,47385,52360,46998.22,51941.65,386.78,418.35,0.719614,91.84,1
192725,1,17512,0,47409,52405,46999.04,51942.58,409.96,462.42,0.719526,91.84,1
192765,1,17552,0,47415,52419,46999.87,51943.53,415.12,475.47,0.719442,91.85,1
192805,1,17592,0,47416,52427,47000.71,51944.50,415.29,482.50,0.719360,91.85,1
192845,1,17632,0,47428,52466,47001.56,51945.54,426.44,520.46,0.719281,91.86,1
192885,1,17672,0,47444,52519,47002.45,51946.69,441.55,572.31,0.719204,91.86,1
192926,1,17713,0,47467,52564,47003.38,51947.93,463.62,616.07,0.719129,91.87,1
192966,1,17753,0,47476,52614,47004.32,51949.26,471.68,664.74,0.719057,91.87,1
193006,1,17793,0,47497,52666,47005.31,51950.69,491.69,715.31,0.718985,91.88,1
193046,1,17833,0,47509,52706,47006.32,51952.20,502.68,753.80,0.718915,91.88,1
193086,1,17873,0,47536,52745,47007.38,51953.79,528.62,791.21,0.718846,91.89,1
193126,1,17913,0,47541,52762,47008.45,51955.41,532.55,806.59,0.718779,91.89,1
193166,1,17953,0,47519,52568,47009.48,51956.63,509.52,611.37,0.718714,91.90,1
193206,1,17993,0,47409,52337,47010.28,51957.39,398.72,379.61,0.718654,91.90,1
193246,1,18033,0,47341,52257,47010.94,51958.00,330.06,299.00,0.718596,91.90,1
193286,1,18073,0,47337,52295,47011.59,51958.67,325.41,336.33,0.718540,91.91,1
193326,1,18113,0,47348,52306,47012.27,51959.37,335.73,346.63,0.718487,91.91,1
193366,1,18153,0,47363,52376,47012.97,51960.20,350.03,415.80,0.718435,91.92,1
193406,1,18193,0,47395,52404,47013.74,51961.09,381.26,442.91,0.718386,91.92,1
193446,1,18233,0,47373,52385,47014.46,51961.94,358.54,423.06,0.718339,91.92,1
193487,1,18274,0,47381,52436,47015.19,51962.89,365.81,473.11,0.718293,91.93,1
193527,1,18314,0,47410,52489,47015.98,51963.95,394.02,525.05,0.718249,91.93,1
193567,1,18354,0,47428,52533,47016.80,51965.09,411.20,567.91,0.718207,91.93,1
193607,1,18394,0,47443,52587,47017.66,51966.33,425.34,620.67,0.718165,91.94,1
193647,1,18434,0,47469,52636,47018.56,51967.67,450.44,668.33,0.718125,91.94,1
193687,1,18474,0,47488,52696,47019.50,51969.13,468.50,726.87,0.718085,91.94,1
193727,1,18514,0,47510,52743,47020.48,51970.68,489.52,772.32,0.718044,91.95,1
193767,1,18554,0,47532,52777,47021.51,51972.29,510.49,804.71,0.718004,91.95,1
193807,1,18594,0,47548,52818,47022.56,51973.98,525.44,844.02,0.717964,91.95,1
193847,1,18634,0,47547,52693,47023.61,51975.42,523.39,717.58,0.717926,91.96,1
193887,1,18674,0,47440,52422,47024.45,51976.32,415.55,445.68,0.717891,91.96,1
193927,1,18714,0,47341,52297,47025.08,51976.96,315.92,320.04,0.717858,91.96,1
193967,1,18754,0,47320,52301,47025.67,51977.61,294.33,323.39,0.717827,91.96,1
194007,1,18794,0,47323,52330,47026.27,51978.32,296.73,351.68,0.717798,91.97,1
194048,1,18835,0,47348,52381,47026.91,51979.12,321.09,401.87,0.717770,91.97,1
194088,1,18875,0,47361,52427,47027.58,51980.02,333.42,446.98,0.717743,91.97,1
194128,1,18915,0,47376,52456,47028.28,51980.98,347.72,475.02,0.717717,91.97,1
194168,1,18955,0,47385,52464,47029.00,51981.95,356.00,482.05,0.717693,91.98,1
194208,1,18995,0,47388,52513,47029.71,51983.01,358.29,529.99,0.717669,91.98,1
194248,1,19035,0,47411,52567,47030.48,51984.18,380.52,582.82,0.717645,91.98,1
194288,1,19075,0,47439,52628,47031.30,51985.46,407.70,642.54,0.717621,91.98,1
194328,1,19115,0,47467,52685,47032.17,51986.87,434.83,698.13,0.717597,91.99,1
194368,1,19155,0,47480,52739,47033.07,51988.37,446.93,750.63,0.717572,91.99,1
194408,1,19195,0,47514,52790,47034.03,51989.98,479.97,800.02,0.717546,91.99,1
194448,1,19235,0,47532,52833,47035.03,51991.66,496.97,841.34,0.717518,91.99,1
194488,1,19275,0,47545,52870,47036.05,51993.42,508.95,876.58,0.717488,92.00,1
194528,1,19315,0,47556,52851,47037.09,51995.14,518.91,855.86,0.717457,92.00,1
194569,1,19356,0,47498,52627,47038.01,51996.40,459.99,630.60,0.717427,92.00,1
194609,1,19396,0,47392,52472,47038.72,51997.36,353.28,474.64,0.717400,92.00,1
194649,1,19436,0,47352,52458,47039.35,51998.28,312.65,459.72,0.717372,92.00,1
194689,1,19476,0,47363,52488,47040.00,51999.26,323.00,488.74,0.717346,92.00,1
194729,1,19516,0,47375,52538,47040.67,52000.34,334.33,537.66,0.717319,92.01,1
194769,1,19556,0,47410,52605,47041.41,52001.55,368.59,603.45,0.717291,92.01,1
194809,1,19596,0,47430,52639,47042.19,52002.82,387.81,636.18,0.717263,92.01,1
194849,1,19636,0,47436,52657,47042.98,52004.13,393.02,652.87,0.717234,92.01,1
194889,1,19676,0,47446,52688,47043.79,52005.50,402.21,682.50,0.717204,92.01,1
194929,1,19716,0,47456,52731,47044.61,52006.95,411.39,724.05,0.717173,92.02,1
194969,1,19756,0,47476,52781,47045.47,52008.50,430.53,772.50,0.717139,92.02,1
195009,1,19796,0,47493,52838,47046.37,52010.16,446.63,827.84,0.717103,92.02,1
195049,1,19836,0,47509,52888,47047.29,52011.92,461.71,876.08,0.717062,92.02,1
195090,1,19877,0,47525,52932,47048.25,52013.76,476.75,918.24,0.717017,92.02,1
195130,1,19917,0,47550,52985,47049.25,52015.71,500.75,969.29,0.716967,92.02,1
195170,1,19957,0,47561,53018,47050.28,52017.71,510.72,1000.29,0.716912,92.03,1
195210,1,19997,0,47567,53061,47051.31,52019.80,515.69,1041.20,0.716851,92.03,1
195250,1,20037,0,47573,52973,47052.36,52021.71,520.64,951.29,0.716786,92.03,1
195290,1,20077,0,47494,52769,47053.24,52023.21,440.76,745.79,0.716720,92.03,1
195330,1,20117,0,47417,52646,47053.97,52024.45,363.03,621.55,0.716654,92.03,1
195370,1,20157,0,47385,52634,47054.63,52025.67,330.37,608.33,0.716586,92.03,1
195410,1,20197,0,47388,52661,47055.30,52026.95,332.70,634.05,0.716517,92.04,1
195450,1,20237,0,47400,52694,47055.99,52028.28,344.01,665.72,0.716446,92.04,1
195490,1,20277,0,47418,52740,47056.72,52029.71,361.28,710.29,0.716372,92.04,1
195530,1,20317,0,47427,52761,47057.46,52031.17,369.54,729.83,0.716296,92.04,1
195570,1,20357,0,47437,52787,47058.22,52032.68,378.78,754.32,0.716217,92.04,1
195611,1,20398,0,47445,52818,47059.00,52034.25,386.00,783.75,0.716134,92.04,1
195651,1,20438,0,47459,52867,47059.80,52035.92,399.20,831.08,0.716047,92.04,1
195691,1,20478,0,47475,52925,47060.63,52037.70,414.37,887.30,0.715955,92.05,1
195731,1,20518,0,47504,52984,47061.52,52039.60,442.48,944.40,0.715857,92.05,1
195771,1,20558,0,47529,53048,47062.45,52041.62,466.55,1006.38,0.715753,92.05,1
195811,1,20598,0,47548,53096,47063.43,52043.73,484.57,1052.27,0.715642,92.05,1
195851,1,20638,0,47576,53146,47064.45,52045.93,511.55,1100.07,0.715523,92.05,1
195891,1,20678,0,47601,53178,47065.53,52048.20,535.47,1129.80,0.715397,92.06,1
195931,1,20718,0,47604,53213,47066.61,52050.53,537.39,1162.47,0.715263,92.06,1
195971,1,20758,0,47596,53063,47067.66,52052.56,528.34,1010.44,0.715125,92.06,1
196011,1,20798,0,47500,52880,47068.53,52054.21,431.47,825.79,0.714986,92.06,1
196051,1,20838,0,47444,52809,47069.29,52055.73,374.71,753.27,0.714844,92.06,1
196091,1,20878,0,47428,52801,47070.00,52057.22,358.00,743.78,0.714700,92.07,1
196132,1,20919,0,47427,52819,47070.72,52058.74,356.28,760.26,0.714552,92.07,1
196172,1,20959,0,47439,52863,47071.46,52060.35,367.54,802.65,0.714402,92.07,1
196212,1,20999,0,47448,52891,47072.21,52062.02,375.79,828.98,0.714247,92.07,1
196252,1,21039,0,47459,52912,47072.98,52063.72,386.02,848.28,0.714089,92.07,1
196292,1,21079,0,47469,52937,47073.78,52065.46,395.22,871.54,0.713926,92.08,1
196332,1,21119,0,47481,52966,47074.59,52067.27,406.41,898.73,0.713759,92.08,1
196372,1,21159,0,47497,53005,47075.44,52069.14,421.56,935.86,0.713587,92.08,1
196412,1,21199,0,47517,53053,47076.32,52071.11,440.68,981.89,0.713410,92.08,1
196452,1,21239,0,47540,53103,47077.25,52073.18,462.75,1029.82,0.713226,92.09,1
196492,1,21279,0,47554,53138,47078.21,52075.31,475.79,1062.69,0.713037,92.09,1
196532,1,21319,0,47560,53175,47079.17,52077.51,480.83,1097.49,0.712841,92.09,1
196572,1,21359,0,47578,53224,47080.17,52079.80,497.83,1144.20,0.712638,92.09,1
196613,1,21400,0,47586,53234,47081.18,52082.11,504.82,1151.89,0.712427,92.10,1
196653,1,21440,0,47594,53267,47082.21,52084.48,511.79,1182.52,0.712209,92.10,1
196693,1,21480,0,47581,53137,47083.21,52086.59,497.79,1050.41,0.711986,92.10,1
196733,1,21520,0,47500,52955,47084.05,52088.32,415.95,866.68,0.711762,92.11,1
196773,1,21560,0,47440,52888,47084.76,52089.93,355.24,798.07,0.711534,92.11,1
196813,1,21600,0,47432,52885,47085.46,52091.52,346.54,793.48,0.711304,92.11,1
196853,1,21640,0,47433,52890,47086.15,52093.11,346.85,796.89,0.711071,92.12,1
196893,1,21680,0,47446,52930,47086.87,52094.79,359.12,835.21,0.710835,92.12,1
196933,1,21720,0,47461,52953,47087.62,52096.51,373.37,856.49,0.710595,92.12,1
196973,1,21760,0,47463,52949,47088.38,52098.21,374.62,850.79,0.710352,92.13,1
197013,1,21800,0,47458,52953,47089.12,52099.93,368.88,853.07,0.710107,92.13,1
197053,1,21840,0,47455,52965,47089.86,52101.66,365.14,863.34,0.709857,92.13,1
197093,1,21880,0,47457,52976,47090.59,52103.41,366.41,872.59,0.709604,92.14,1
197134,1,21921,0,47467,53024,47091.34,52105.25,375.66,918.75,0.709346,92.14,1
197174,1,21961,0,47491,53072,47092.14,52107.18,398.86,964.82,0.709084,92.15,1
197214,1,22001,0,47504,53111,47092.97,52109.19,411.03,1001.81,0.708817,92.15,1
197254,1,22041,0,47525,53148,47093.84,52111.27,431.16,1036.73,0.708544,92.15,1
197294,1,22081,0,47539,53184,47094.73,52113.42,444.27,1070.58,0.708265,92.16,1
197334,1,22121,0,47549,53204,47095.64,52115.60,453.36,1088.40,0.707981,92.16,1
197374,1,22161,0,47560,53198,47096.57,52117.77,463.43,1080.23,0.707693,92.17,1
197414,1,22201,0,47525,53016,47097.43,52119.57,427.57,896.43,0.707402,92.17,1
197454,1,22241,0,47439,52872,47098.11,52121.07,340.89,750.93,0.707110,92.18,1
197494,1,22281,0,47411,52851,47098.74,52122.54,312.26,728.46,0.706817,92.18,1
197534,1,22321,0,47414,52848,47099.37,52123.99,314.63,724.01,0.706522,92.18,1
197574,1,22361,0,47415,52876,47100.00,52125.49,315.00,750.51,0.706225,92.19,1
197614,1,22401,0,47429,52895,47100.66,52127.03,328.34,767.97,0.705926,92.19,1
197655,1,22442,0,47419,52892,47101.30,52128.56,317.70,763.44,0.705625,92.20,1
197695,1,22482,0,47420,52903,47101.94,52130.11,318.06,772.89,0.705321,92.20,1
197735,1,22522,0,47415,52911,47102.57,52131.68,312.43,779.32,0.705015,92.21,1
197775,1,22562,0,47432,52949,47103.23,52133.31,328.77,815.69,0.704706,92.21,1
197815,1,22602,0,47447,52996,47103.91,52135.04,343.09,860.96,0.704395,92.22,1
197855,1,22642,0,47477,53051,47104.66,52136.87,372.34,914.13,0.704079,92.23,1
197895,1,22682,0,47503,53092,47105.46,52138.78,397.54,953.22,0.703760,92.23,1
197935,1,22722,0,47521,53127,47106.29,52140.76,414.71,986.24,0.703437,92.24,1
197975,1,22762,0,47534,53154,47107.14,52142.79,426.86,1011.21,0.703111,92.24,1
198015,1,22802,0,47535,53165,47108.00,52144.83,427.00,1020.17,0.702780,92.25,1
198055,1,22842,0,47542,53173,47108.87,52146.89,433.13,1026.11,0.702446,92.25,1
198095,1,22882,0,47513,53028,47109.68,52148.65,403.32,879.35,0.702111,92.26,1
198135,1,22922,0,47443,52877,47110.35,52150.11,332.65,726.89,0.701775,92.26,1
198175,1,22962,0,47393,52825,47110.91,52151.46,282.09,673.54,0.701438,92.27,1
198216,1,23003,0,47388,52832,47111.47,52152.82,276.53,679.18,0.701099,92.28,1
198256,1,23043,0,47382,52840,47112.01,52154.20,269.99,685.80,0.700759,92.28,1
198296,1,23083,0,47387,52872,47112.56,52155.64,274.44,716.36,0.700417,92.29,1
198336,1,23123,0,47411,52900,47113.16,52157.12,297.84,742.87,0.700074,92.30,1
198376,1,23163,0,47408,52911,47113.75,52158.63,294.25,752.37,0.699728,92.30,1
198416,1,23203,0,47417,52932,47114.36,52160.18,302.64,771.82,0.699380,92.31,1
198456,1,23243,0,47435,52969,47115.00,52161.80,320.00,807.20,0.699030,92.31,1
198496,1,23283,0,47454,53008,47115.68,52163.49,338.32,844.51,0.698677,92.32,1
198536,1,23323,0,47475,53059,47116.40,52165.29,358.60,893.71,0.698322,92.33,1
198576,1,23363,0,47483,53094,47117.13,52167.14,365.87,926.86,0.697963,92.33,1
198616,1,23403,0,47507,53132,47117.91,52169.07,389.09,962.93,0.697601,92.34,1
198656,1,23443,0,47526,53163,47118.73,52171.06,407.27,991.94,0.697235,92.35,1
198696,1,23483,0,47521,53194,47119.54,52173.11,401.46,1020.89,0.696866,92.36,1
198736,1,23523,0,47545,53215,47120.39,52175.20,424.61,1039.80,0.696493,92.36,1
198777,1,23564,0,47526,53082,47121.20,52177.01,404.80,904.99,0.696118,92.37,1
198817,1,23604,0,47444,52913,47121.85,52178.48,322.15,734.52,0.695743,92.38,1
198857,1,23644,0,47390,52851,47122.39,52179.83,267.61,671.17,0.695367,92.38,1
198897,1,23684,0,47381,52840,47122.91,52181.15,258.09,658.85,0.694990,92.39,1
198937,1,23724,0,47381,52855,47123.42,52182.50,257.58,672.50,0.694612,92.40,1
198977,1,23764,0,47389,52885,47123.95,52183.91,265.05,701.09,0.694232,92.41,1
199017,1,23804,0,47414,52916,47124.54,52185.37,289.46,730.63,0.693851,92.41,1
199057,1,23844,0,47421,52928,47125.13,52186.86,295.87,741.14,0.693469,92.42,1
199097,1,23884,0,47434,52951,47125.75,52188.39,308.25,762.61,0.693085,92.43,1
199137,1,23924,0,47439,52989,47126.37,52189.99,312.62,799.01,0.692700,92.44,1
199177,1,23964,0,47468,53046,47127.06,52191.71,340.94,854.29,0.692312,92.44,1
199217,1,24004,0,47495,53106,47127.80,52193.54,367.20,912.46,0.691922,92.45,1
199257,1,24044,0,47525,53160,47128.59,52195.47,396.41,964.53,0.691529,92.46,1
199297,1,24084,0,47547,53204,47129.43,52197.49,417.57,1006.51,0.691133,92.47,1
199338,1,24125,0,47565,53243,47130.30,52199.58,434.70,1043.42,0.690735,92.47,1
199378,1,24165,0,47591,53299,47131.23,52201.78,459.77,1097.22,0.690334,92.48,1
199418,1,24205,0,47600,53312,47132.16,52204.00,467.84,1108.00,0.689930,92.49,1
199458,1,24245,0,47604,53272,47133.11,52206.14,470.89,1065.86,0.689525,92.50,1
199498,1,24285,0,47543,53075,47133.93,52207.88,409.07,867.12,0.689119,92.51,1
199538,1,24325,0,47458,52932,47134.58,52209.33,323.42,722.67,0.688714,92.52,1
199578,1,24365,0,47426,52901,47135.16,52210.71,290.84,690.29,0.688308,92.52,1
199618,1,24405,0,47437,52900,47135.77,52212.09,301.23,687.91,0.687903,92.53,1
199658,1,24445,0,47444,52916,47136.39,52213.50,307.61,702.50,0.687497,92.54,1
199698,1,24485,0,47454,52941,47137.02,52214.96,316.98,726.04,0.687091,92.55,1
199738,1,24525,0,47450,52942,47137.65,52216.41,312.35,725.59,0.686685,92.56,1
199778,1,24565,0,47460,52953,47138.30,52217.89,321.70,735.11,0.686279,92.57,1
199818,1,24605,0,47461,52975,47138.95,52219.40,322.05,755.60,0.685873,92.57,1
199858,1,24645,0,47491,53032,47139.65,52221.03,351.35,810.97,0.685465,92.58,1
199899,1,24686,0,47504,53035,47140.38,52222.66,363.62,812.34,0.685058,92.59,1
199939,1,24726,0,47490,53038,47141.08,52224.29,348.92,813.71,0.684650,92.60,1
199979,1,24766,0,47474,53030,47141.75,52225.90,332.25,804.10,0.684241,92.61,1
200019,1,24806,0,47482,53070,47142.43,52227.59,339.57,842.41,0.683830,92.62,1
200059,1,24846,0,47503,53122,47143.16,52229.38,359.84,892.62,0.683418,92.63,1
200099,1,24886,0,47523,53133,47143.92,52231.19,379.08,901.81,0.683005,92.64,1
200139,1,24926,0,47583,53166,47144.80,52233.06,438.20,932.94,0.682592,92.65,1
200179,1,24966,0,47553,53150,47145.61,52234.90,407.39,915.10,0.682178,92.65,1
200219,1,25006,0,47530,52971,47146.38,52236.37,383.62,734.63,0.681767,92.66,1
200259,1,25046,0,47448,52837,47146.99,52237.57,301.01,599.43,0.681356,92.67,1
200299,1,25086,0,47439,52818,47147.57,52238.74,291.43,579.26,0.680948,92.68,1
200339,1,25126,0,47429,52812,47148.14,52239.89,280.86,572.11,0.680540,92.69,1
200379,1,25166,0,47426,52797,47148.70,52241.00,277.30,556.00,0.680134,92.70,1
200419,1,25206,0,47394,52776,47149.19,52242.07,244.81,533.93,0.679729,92.71,1
200459,1,25246,0,47384,52760,47149.66,52243.11,234.34,516.89,0.679325,92.72,1
200500,1,25287,0,47367,52741,47150.10,52244.11,216.90,496.89,0.678921,92.73,1
200540,1,25327,0,47370,52752,47150.54,52245.12,219.46,506.87,0.678517,92.74,1
200580,1,25367,0,47377,52774,47150.99,52246.18,226.01,527.82,0.678114,92.75,1
200620,1,25407,0,47396,52829,47151.48,52247.35,244.52,581.65,0.677712,92.76,1
200660,1,25447,0,47420,52872,47152.02,52248.60,267.98,623.40,0.677309,92.76,1
200700,1,25487,0,47428,52909,47152.58,52249.92,275.42,659.08,0.676906,92.77,1
200740,1,25527,0,47454,52933,47153.18,52251.29,300.82,681.71,0.676504,92.78,1
200780,1,25567,0,47442,52905,47153.76,52252.60,288.24,652.40,0.676101,92.79,1
200820,1,25607,0,47433,52910,47154.32,52253.91,278.68,656.09,0.675699,92.80,1
200860,1,25647,0,47415,52840,47154.84,52255.09,260.16,584.91,0.675297,92.81,1
200900,1,25687,0,47358,52628,47155.25,52255.83,202.75,372.17,0.674897,92.82,1
200940,1,25727,0,47271,52459,47155.48,52256.24,115.52,202.76,0.674498,92.83,1
200980,1,25767,0,47219,52440,47155.61,52256.61,63.39,183.39,0.674100,92.84,1
201020,1,25807,0,47268,52507,47155.84,52257.11,112.16,249.89,0.673703,92.85,1
201061,1,25848,0,47297,52542,47156.12,52257.68,140.87,284.32,0.673307,92.86,1
201101,1,25888,0,47326,52593,47156.46,52258.35,169.54,334.65,0.672913,92.87,1
201141,1,25928,0,47330,52597,47156.81,52259.03,173.19,337.97,0.672520,92.88,1
201181,1,25968,0,47325,52602,47157.15,52259.72,167.85,342.28,0.672128,92.89,1
201221,1,26008,0,47346,52633,47157.53,52260.46,188.47,372.54,0.671738,92.90,1
201261,1,26048,0,47356,52667,47157.93,52261.28,198.07,405.72,0.671349,92.91,1
201301,1,26088,0,47375,52701,47158.36,52262.16,216.64,438.84,0.670960,92.92,1
201341,1,26128,0,47381,52711,47158.80,52263.05,222.20,447.95,0.670574,92.93,1
201381,1,26168,0,47384,52714,47159.26,52263.96,224.74,450.04,0.670188,92.94,1
201421,1,26208,0,47355,52685,47159.65,52264.80,195.35,420.20,0.669804,92.95,1
201461,1,26248,0,47336,52681,47160.01,52265.63,175.99,415.37,0.669420,92.96,1
201501,1,26288,0,47332,52635,47160.35,52266.37,171.65,368.63,0.669037,92.96,1
201541,1,26328,0,47272,52425,47160.57,52266.69,111.43,158.31,0.668655,92.97,1
201581,1,26368,0,47185,52269,47160.62,52266.70,24.37,2.30,0.668275,92.98,1
201622,1,26409,0,47173,52284,47160.65,52266.73,12.35,17.27,0.667896,92.99,1
201662,1,26449,0,47228,52360,47160.79,52266.92,67.21,93.08,0.667518,93.00,1
201702,1,26489,0,47254,52386,47160.98,52267.16,93.02,118.84,0.667141,93.01,1
201742,1,26529,0,47242,52377,47161.14,52267.38,80.86,109.62,0.666766,93.02,1
201782,1,26569,0,47242,52375,47161.30,52267.60,80.70,107.40,0.666393,93.03,1
201822,1,26609,0,47186,52272,47161.36,52267.61,24.64,4.39,0.666020,93.04,1
201862,1,26649,0,47128,52244,47161.29,52267.56,-33.29,-23.56,0.665649,93.05,1
201902,1,26689,0,47138,52287,47161.24,52267.60,-23.24,19.40,0.665279,93.06,1
201942,1,26729,0,47196,52394,47161.31,52267.86,34.69,126.14,0.664909,93.07,1
201982,1,26769,0,47263,52511,47161.52,52268.34,101.48,242.66,0.664541,93.08,1
202022,1,26809,0,47330,52606,47161.86,52269.02,168.14,336.98,0.664174,93.09,1
202062,1,26849,0,47365,52638,47162.26,52269.76,202.74,368.24,0.663808,93.10,1
202102,1,26889,0,47356,52632,47162.65,52270.48,193.35,361.52,0.663444,93.11,1
202142,1,26929,0,47331,52560,47162.99,52271.07,168.01,288.93,0.663082,93.12,1
202183,1,26970,0,47252,52297,47163.17,52271.12,88.83,25.88,0.662721,93.13,1
202223,1,27010,0,47135,52122,47163.12,52270.82,-28.12,-148.82,0.662361,93.14,1
202263,1,27050,0,47101,52105,47163.00,52270.49,-62.00,-165.49,0.662002,93.15,1
202303,1,27090,0,47108,52120,47162.89,52270.19,-54.89,-150.19,0.661644,93.15,1
202343,1,27130,0,47132,52200,47162.82,52270.05,-30.82,-70.05,0.661286,93.16,1
202383,1,27170,0,47185,52261,47162.87,52270.04,22.13,-9.04,0.660930,93.17,1
202423,1,27210,0,47182,52277,47162.91,52270.05,19.09,6.95,0.660575,93.18,1
202463,1,27250,0,47204,52310,47162.99,52270.13,41.01,39.87,0.660222,93.19,1
202503,1,27290,0,47219,52340,47163.11,52270.27,55.89,69.73,0.659869,93.20,1
202543,1,27330,0,47238,52388,47163.26,52270.51,74.74,117.49,0.659518,93.21,1
202583,1,27370,0,47253,52439,47163.44,52270.85,89.56,168.15,0.659167,93.22,1
202623,1,27410,0,47282,52488,47163.68,52271.29,118.32,216.71,0.658818,93.23,1
202663,1,27450,0,47307,52542,47163.96,52271.83,143.04,270.17,0.658471,93.24,1
202703,1,27490,0,47332,52608,47164.30,52272.50,167.70,335.50,0.658124,93.25,1
202743,1,27530,0,47353,52650,47164.68,52273.26,188.32,376.74,0.657779,93.26,1
202784,1,27571,0,47369,52616,47165.09,52273.95,203.91,342.05,0.657435,93.27,1
202824,1,27611,0,47305,52421,47165.37,52274.25,139.63,146.75,0.657094,93.28,1
202864,1,27651,0,47230,52301,47165.50,52274.30,64.50,26.70,0.656754,93.28,1
202904,1,27691,0,47203,52298,47165.58,52274.35,37.42,23.65,0.656416,93.29,1
202944,1,27731,0,47213,52318,47165.68,52274.44,47.32,43.56,0.656078,93.30,1
202984,1,27771,0,47224,52376,47165.79,52274.64,58.21,101.36,0.655742,93.31,1
203024,1,27811,0,47270,52447,47166.00,52274.99,104.00,172.01,0.655407,93.32,1
203064,1,27851,0,47293,52486,47166.26,52275.41,126.74,210.59,0.655073,93.33,1
203104,1,27891,0,47304,52507,47166.54,52275.87,137.46,231.12,0.654741,93.34,1
203144,1,27931,0,47307,52540,47166.82,52276.41,140.18,263.59,0.654410,93.35,1
203184,1,27971,0,47333,52595,47167.15,52277.04,165.85,317.96,0.654080,93.36,1
203224,1,28011,0,47351,52650,47167.52,52277.79,183.48,372.21,0.653751,93.37,1
203264,1,28051,0,47371,52708,47167.92,52278.65,203.08,429.35,0.653424,93.38,1
203304,1,28091,0,47396,52749,47168.38,52279.59,227.62,469.41,0.653096,93.38,1
203345,1,28132,0,47399,52787,47168.84,52280.61,230.16,506.39,0.652770,93.39,1
203385,1,28172,0,47413,52837,47169.33,52281.72,243.67,555.28,0.652443,93.40,1
203425,1,28212,0,47427,52866,47169.84,52282.89,257.16,583.11,0.652115,93.41,1
203465,1,28252,0,47425,52765,47170.36,52283.86,254.64,481.14,0.651789,93.42,1
203505,1,28292,0,47356,52602,47170.73,52284.49,185.27,317.51,0.651466,93.43,1
203545,1,28332,0,47277,52521,47170.94,52284.96,106.06,236.04,0.651143,93.44,1
203585,1,28372,0,47261,52518,47171.12,52285.43,89.88,232.57,0.650820,93.45,1
203625,1,28412,0,47265,52535,47171.31,52285.93,93.69,249.07,0.650498,93.45,1
203665,1,28452,0,47278,52583,47171.52,52286.53,106.48,296.47,0.650176,93.46,1
203705,1,28492,0,47304,52639,47171.79,52287.23,132.21,351.77,0.649854,93.47,1
203745,1,28532,0,47323,52663,47172.09,52287.99,150.91,375.01,0.649532,93.48,1
203785,1,28572,0,47336,52699,47172.42,52288.81,163.58,410.19,0.649209,93.49,1
203825,1,28612,0,47340,52721,47172.76,52289.68,167.24,431.32,0.648887,93.50,1
203865,1,28652,0,47351,52751,47173.12,52290.61,177.88,460.39,0.648563,93.51,1
203906,1,28693,0,47345,52777,47173.46,52291.58,171.54,485.42,0.648237,93.52,1
203946,1,28733,0,47360,52819,47173.84,52292.63,186.16,526.37,0.647910,93.52,1
203986,1,28773,0,47363,52852,47174.21,52293.75,188.79,558.25,0.647580,93.53,1
204026,1,28813,0,47380,52896,47174.63,52294.96,205.37,601.04,0.647248,93.54,1
204066,1,28853,0,47404,52940,47175.09,52296.25,228.91,643.75,0.646911,93.55,1
204106,1,28893,0,47413,52970,47175.57,52297.60,237.43,672.40,0.646572,93.56,1
204146,1,28933,0,47412,52887,47176.04,52298.78,235.96,588.22,0.646231,93.57,1
204186,1,28973,0,47345,52729,47176.38,52299.64,168.62,429.36,0.645889,93.58,1
204226,1,29013,0,47302,52682,47176.63,52300.41,125.37,381.59,0.645547,93.58,1
204266,1,29053,0,47285,52688,47176.85,52301.19,108.15,386.81,0.645204,93.59,1
204306,1,29093,0,47300,52706,47177.10,52302.00,122.90,404.00,0.644860,93.60,1
204346,1,29133,0,47307,52745,47177.36,52302.89,129.64,442.11,0.644514,93.61,1
204386,1,29173,0,47317,52764,47177.64,52303.81,139.36,460.19,0.644166,93.62,1
204426,1,29213,0,47320,52790,47177.93,52304.78,142.07,485.22,0.643816,93.63,1
204467,1,29254,0,47320,52791,47178.21,52305.75,141.79,485.25,0.643463,93.64,1
204507,1,29294,0,47320,52824,47178.50,52306.79,141.50,517.21,0.643108,93.64,1
204547,1,29334,0,47336,52871,47178.81,52307.92,157.19,563.08,0.642749,93.65,1
204587,1,29374,0,47350,52919,47179.16,52309.14,170.84,609.86,0.642386,93.66,1
204627,1,29414,0,47373,52963,47179.55,52310.45,193.45,652.55,0.642018,93.67,1
204667,1,29454,0,47390,53008,47179.97,52311.85,210.03,696.15,0.641645,93.68,1
204707,1,29494,0,47403,53033,47180.42,52313.29,222.58,719.71,0.641266,93.69,1
204747,1,29534,0,47414,53056,47180.89,52314.78,233.11,741.22,0.640883,93.70,1
204787,1,29574,0,47427,53100,47181.38,52316.35,245.62,783.65,0.640493,93.70,1
204827,1,29614,0,47439,53064,47181.89,52317.85,257.11,746.15,0.640099,93.71,1
204867,1,29654,0,47393,52942,47182.32,52319.10,210.68,622.90,0.639703,93.72,1
204907,1,29694,0,47359,52874,47182.67,52320.21,176.33,553.79,0.639304,93.73,1
204947,1,29734,0,47335,52872,47182.98,52321.31,152.02,550.69,0.638903,93.74,1
204987,1,29774,0,47344,52881,47183.30,52322.43,160.70,558.57,0.638499,93.75,1
205028,1,29815,0,47332,52885,47183.60,52323.56,148.40,561.44,0.638091,93.76,1
205068,1,29855,0,47342,52919,47183.91,52324.75,158.09,594.25,0.637680,93.77,1
205108,1,29895,0,47347,52946,47184.24,52325.99,162.76,620.01,0.637265,93.78,1
205148,1,29935,0,47357,52966,47184.59,52327.27,172.41,638.73,0.636846,93.79,1
205188,1,29975,0,47369,53005,47184.96,52328.63,184.04,676.37,0.636422,93.79,1
205228,1,30015,0,47385,53045,47185.36,52330.06,199.64,714.94,0.635992,93.80,1
205268,1,30055,1,47400,53080,47185.79,52331.56,214.21,748.44,0.635558,93.81,1
205308,1,30095,1,47418,53128,47186.26,52333.16,231.74,794.84,0.635117,93.82,1
205348,1,30135,1,47438,53162,47186.76,52334.82,251.24,827.18,0.634671,93.83,1
205388,1,30175,1,47452,53202,47187.29,52336.55,264.71,865.45,0.634218,93.84,1
205428,1,30215,1,47471,53244,47187.86,52338.37,283.14,905.63,0.633759,93.85,1
205468,1,30255,1,47481,53249,47188.45,52340.19,292.55,908.81,0.633295,93.86,1
205508,1,30295,1,47478,53279,47189.03,52342.07,288.97,936.93,0.632824,93.87,1
205548,1,30335,1,47491,53283,47189.64,52343.95,301.36,939.05,0.632347,93.88,1
205589,1,30376,1,47467,53159,47190.19,52345.59,276.81,813.41,0.631867,93.89,1
205629,1,30416,1,47435,53101,47190.68,52347.10,244.32,753.90,0.631385,93.90,1
205669,1,30456,1,47408,53074,47191.12,52348.55,216.88,725.45,0.630899,93.91,1
205709,1,30496,1,47398,53047,47191.54,52349.95,206.46,697.05,0.630410,93.92,1
205749,1,30536,1,47373,53038,47191.90,52351.33,181.10,686.67,0.629918,93.93,1
205789,1,30576,1,47373,53068,47192.26,52352.77,180.74,715.23,0.629422,93.94,1
205829,1,30616,1,47395,53109,47192.67,52354.28,202.33,754.72,0.628921,93.95,1
205869,1,30656,1,47418,53139,47193.12,52355.85,224.88,783.15,0.628416,93.96,1
205909,1,30696,1,47427,53149,47193.59,52357.44,233.41,791.56,0.627907,93.97,1
205949,1,30736,1,47435,53192,47194.07,52359.11,240.93,832.89,0.627394,93.98,1
205989,1,30776,1,47448,53222,47194.58,52360.84,253.42,861.16,0.626877,93.99,1
206029,1,30816,1,47466,53258,47195.12,52362.63,270.87,895.37,0.626355,94.00,1
206069,1,30856,1,47476,53293,47195.69,52364.50,280.31,928.50,0.625828,94.01,1
206109,1,30896,1,47487,53336,47196.27,52366.44,290.73,969.56,0.625296,94.02,1
206150,1,30937,1,47502,53354,47196.88,52368.42,305.12,985.58,0.624760,94.03,1
206190,1,30977,1,47510,53393,47197.51,52370.47,312.49,1022.53,0.624218,94.04,1
206230,1,31017,1,47536,53446,47198.19,52372.62,337.81,1073.38,0.623672,94.05,1
206270,1,31057,1,47552,53485,47198.90,52374.85,353.10,1110.15,0.623120,94.07,1
206310,1,31097,1,47563,53429,47199.63,52376.96,363.37,1052.04,0.622566,94.08,1
206350,1,31137,1,47499,53271,47200.23,52378.75,298.77,892.25,0.622011,94.09,1
206390,1,31177,1,47421,53156,47200.67,52380.30,220.33,775.70,0.621454,94.10,1
206430,1,31217,1,47397,53119,47201.07,52381.78,195.93,737.22,0.620894,94.11,1
206470,1,31257,1,47386,53121,47201.44,52383.26,184.56,737.74,0.620331,94.12,1
206510,1,31297,1,47410,53176,47201.86,52384.85,208.14,791.15,0.619765,94.13,1
206550,1,31337,1,47452,53228,47202.36,52386.54,249.64,841.46,0.619196,94.14,1
206590,1,31377,1,47468,53233,47202.89,52388.23,265.11,844.77,0.618626,94.16,1
206630,1,31417,1,47447,53197,47203.37,52389.85,243.62,807.15,0.618055,94.17,1
206670,1,31457,1,47421,53190,47203.81,52391.45,217.19,798.55,0.617481,94.18,1
206710,1,31497,1,47417,53190,47204.24,52393.05,212.76,796.95,0.616904,94.19,1
206751,1,31538,1,47421,53235,47204.67,52394.73,216.33,840.27,0.616323,94.20,1
206791,1,31578,1,47461,53295,47205.19,52396.53,255.81,898.47,0.615740,94.22,1
206831,1,31618,1,47478,53320,47205.73,52398.38,272.27,921.62,0.615154,94.23,1
206871,1,31658,1,47485,53353,47206.29,52400.29,278.71,952.71,0.614565,94.24,1
206911,1,31698,1,47493,53375,47206.87,52402.24,286.13,972.76,0.613973,94.25,1
206951,1,31738,1,47499,53395,47207.45,52404.23,291.55,990.77,0.613378,94.27,1
206991,1,31778,1,47518,53420,47208.07,52406.26,309.93,1013.74,0.612781,94.28,1
207031,1,31818,1,47536,53456,47208.73,52408.36,327.27,1047.64,0.612182,94.29,1
207071,1,31858,1,47535,53378,47209.38,52410.30,325.62,967.70,0.611582,94.30,1
207111,1,31898,1,47474,53222,47209.91,52411.93,264.09,810.07,0.610983,94.32,1
207151,1,31938,1,47414,53119,47210.32,52413.34,203.68,705.66,0.610383,94.33,1
207191,1,31978,1,47393,53112,47210.69,52414.74,182.31,697.26,0.609781,94.34,1
207231,1,32018,1,47400,53111,47211.07,52416.13,188.93,694.87,0.609179,94.35,1
207272,1,32059,1,47396,53114,47211.44,52417.53,184.56,696.47,0.608576,94.37,1
207312,1,32099,1,47398,53119,47211.82,52418.93,186.18,700.07,0.607973,94.38,1
207352,1,32139,1,47395,53133,47212.18,52420.36,182.82,712.64,0.607367,94.39,1
207392,1,32179,1,47403,53133,47212.57,52421.79,190.43,711.21,0.606761,94.41,1
207432,1,32219,1,47420,53179,47212.98,52423.30,207.02,755.70,0.606154,94.42,1
207472,1,32259,1,47438,53212,47213.44,52424.88,224.56,787.12,0.605546,94.43,1
207512,1,32299,1,47458,53241,47213.93,52426.52,244.07,814.48,0.604937,94.45,1
207552,1,32339,1,47457,53234,47214.42,52428.13,242.58,805.87,0.604328,94.46,1
207592,1,32379,1,47448,53249,47214.89,52429.78,233.11,819.22,0.603717,94.47,1
207632,1,32419,1,47457,53280,47215.37,52431.48,241.63,848.52,0.603106,94.49,1
207672,1,32459,1,47485,53330,47215.91,52433.28,269.09,896.72,0.602493,94.50,1
207712,1,32499,1,47520,53381,47216.52,52435.18,303.48,945.82,0.601880,94.51,1
207752,1,32539,1,47543,53415,47217.17,52437.14,325.83,977.86,0.601268,94.53,1
207792,1,32579,1,47536,53329,47217.81,52438.92,318.19,890.08,0.600657,94.54,1
207833,1,32620,1,47462,53132,47218.30,52440.31,243.70,691.69,0.600048,94.55,1
207873,1,32660,1,47380,52996,47218.62,52441.42,161.37,554.58,0.599440,94.57,1
207913,1,32700,1,47343,52967,47218.87,52442.47,124.12,524.53,0.598832,94.58,1
207953,1,32740,1,47358,52972,47219.16,52443.53,138.84,528.47,0.598224,94.60,1
207993,1,32780,1,47365,52992,47219.45,52444.63,145.55,547.37,0.597616,94.61,1
208033,1,32820,1,47391,53035,47219.79,52445.81,171.21,589.19,0.597010,94.62,1
208073,1,32860,1,47413,53041,47220.18,52447.00,192.82,594.00,0.596404,94.64,1
208113,1,32900,1,47419,53044,47220.58,52448.20,198.42,595.80,0.595800,94.65,1
208153,1,32940,1,47421,53060,47220.98,52449.43,200.02,610.57,0.595196,94.67,1
208193,1,32980,1,47443,53077,47221.43,52450.68,221.57,626.32,0.594595,94.68,1
208233,1,33020,1,47444,53108,47221.87,52452.00,222.13,656.00,0.593995,94.69,1
208273,1,33060,1,47468,53154,47222.36,52453.41,245.64,700.59,0.593396,94.71,1
208313,1,33100,1,47485,53188,47222.89,52454.87,262.11,733.12,0.592800,94.72,1
208354,1,33141,1,47502,53226,47223.45,52456.42,278.55,769.58,0.592206,94.74,1
208394,1,33181,1,47529,53276,47224.06,52458.06,304.94,817.94,0.591614,94.75,1
208434,1,33221,1,47554,53323,47224.72,52459.79,329.28,863.21,0.591025,94.76,1
208474,1,33261,1,47567,53341,47225.41,52461.55,341.59,879.45,0.590440,94.78,1
208514,1,33301,1,47565,53307,47226.09,52463.25,338.91,843.75,0.589858,94.79,1
208554,1,33341,1,47498,53087,47226.64,52464.50,271.36,622.50,0.589281,94.81,1
208594,1,33381,1,47388,52881,47226.96,52465.33,161.04,415.67,0.588705,94.82,1
208634,1,33421,1,47341,52843,47227.19,52466.09,113.81,376.91,0.588131,94.84,1
208674,1,33461,1,47373,52901,47227.48,52466.96,145.52,434.04,0.587559,94.85,1
208714,1,33501,1,47416,52945,47227.86,52467.92,188.14,477.08,0.586988,94.86,1
208754,1,33541,1,47455,52999,47228.32,52468.98,226.68,530.02,0.586421,94.88,1
208794,1,33581,1,47460,52980,47228.79,52470.00,231.21,510.00,0.585858,94.89,1
208834,1,33621,1,47431,52942,47229.19,52470.95,201.81,471.05,0.585297,94.91,1
208875,1,33662,1,47409,52922,47229.55,52471.85,179.45,450.15,0.584738,94.92,1
208915,1,33702,1,47409,52966,47229.91,52472.84,179.09,493.16,0.584181,94.94,1
208955,1,33742,1,47449,53039,47230.35,52473.97,218.65,565.03,0.583627,94.95,1
208995,1,33782,1,47496,53110,47230.88,52475.25,265.12,634.75,0.583076,94.96,1
209035,1,33822,1,47532,53172,47231.48,52476.64,300.52,695.36,0.582529,94.98,1
209075,1,33862,1,47559,53221,47232.14,52478.13,326.86,742.87,0.581987,94.99,1
209115,1,33902,1,47569,53239,47232.81,52479.65,336.19,759.35,0.581450,95.01,1
209155,1,33942,1,47577,53254,47233.50,52481.20,343.50,772.80,0.580919,95.02,1
209195,1,33982,1,47578,53273,47234.20,52482.79,343.80,790.21,0.580392,95.03,1
209235,1,34022,1,47585,53302,47234.90,52484.43,350.10,817.57,0.579870,95.05,1
209275,1,34062,1,47599,53237,47235.63,52485.94,363.37,751.06,0.579355,95.06,1
209315,1,34102,1,47527,53032,47236.21,52487.03,290.79,544.97,0.578845,95.08,1
209355,1,34142,1,47451,52904,47236.64,52487.87,214.36,416.13,0.578339,95.09,1
209396,1,34183,1,47421,52871,47237.01,52488.64,183.99,382.36,0.577836,95.10,1
209436,1,34223,1,47414,52864,47237.37,52489.39,176.63,374.61,0.577335,95.12,1
209476,1,34263,1,47406,52874,47237.71,52490.16,168.29,383.84,0.576837,95.13,1
209516,1,34303,1,47423,52907,47238.08,52491.00,184.92,416.00,0.576341,95.15,1
209556,1,34343,1,47438,52922,47238.48,52491.86,199.52,430.14,0.575848,95.16,1
209596,1,34383,1,47447,52946,47238.90,52492.77,208.10,453.23,0.575357,95.17,1
209636,1,34423,1,47457,52955,47239.34,52493.70,217.66,461.30,0.574871,95.19,1
209676,1,34463,1,47477,52989,47239.81,52494.69,237.19,494.31,0.574387,95.20,1
209716,1,34503,1,47482,53018,47240.30,52495.73,241.70,522.27,0.573907,95.21,1
209756,1,34543,1,47500,53048,47240.82,52496.84,259.18,551.16,0.573431,95.23,1
209796,1,34583,1,47506,53063,47241.35,52497.97,264.65,565.03,0.572959,95.24,1
209836,1,34623,1,47514,53089,47241.89,52499.16,272.11,589.84,0.572491,95.25,1
209876,1,34663,1,47522,53117,47242.46,52500.39,279.54,616.61,0.572026,95.27,1
209917,1,34704,1,47538,53150,47243.05,52501.70,294.95,648.30,0.571565,95.28,1
209957,1,34744,1,47559,53190,47243.68,52503.07,315.32,686.93,0.571109,95.29,1
209997,1,34784,1,47568,53197,47244.33,52504.46,323.67,692.54,0.570658,95.31,1
210037,1,34824,1,47542,53036,47244.93,52505.53,297.07,530.47,0.570213,95.32,1
210077,1,34864,1,47454,52844,47245.35,52506.21,208.65,337.79,0.569771,95.33,1
210117,1,34904,1,47404,52772,47245.67,52506.74,158.33,265.26,0.569333,95.35,1
210157,1,34944,1,47399,52769,47245.98,52507.27,153.02,261.73,0.568897,95.36,1
210197,1,34984,1,47412,52797,47246.31,52507.85,165.69,289.15,0.568464,95.37,1
210237,1,35024,1,47425,52834,47246.67,52508.50,178.33,325.50,0.568034,95.39,1
210277,1,35064,1,47447,52853,47247.07,52509.19,199.93,343.81,0.567607,95.40,1
210317,1,35104,1,47450,52848,47247.48,52509.87,202.52,338.13,0.567184,95.41,1
210357,1,35144,1,47449,52858,47247.88,52510.57,201.12,347.43,0.566764,95.42,1
210398,1,35185,1,47462,52877,47248.31,52511.30,213.69,365.70,0.566349,95.44,1
210438,1,35225,1,47468,52920,47248.75,52512.12,219.25,407.87,0.565937,95.45,1
210478,1,35265,1,47492,52970,47249.24,52513.04,242.76,456.96,0.565529,95.46,1
210518,1,35305,1,47518,53019,47249.78,52514.05,268.22,504.95,0.565125,95.47,1
210558,1,35345,1,47541,53066,47250.36,52515.16,290.64,550.84,0.564727,95.49,1
210598,1,35385,1,47565,53099,47250.99,52516.33,314.01,582.67,0.564335,95.50,1
210638,1,35425,1,47577,53122,47251.64,52517.54,325.36,604.46,0.563949,95.51,1
210678,1,35465,1,47590,53156,47252.32,52518.82,337.68,637.18,0.563570,95.52,1
210718,1,35505,1,47607,53151,47253.03,52520.08,353.97,630.92,0.563198,95.53,1
210758,1,35545,1,47567,52963,47253.66,52520.97,313.34,442.03,0.562834,95.55,1
210798,1,35585,1,47481,52777,47254.12,52521.48,226.88,255.52,0.562475,95.56,1
210838,1,35625,1,47427,52717,47254.46,52521.87,172.54,195.13,0.562119,95.57,1
210878,1,35665,1,47427,52727,47254.81,52522.28,172.19,204.72,0.561767,95.58,1
210919,1,35706,1,47435,52743,47255.18,52522.72,179.82,220.28,0.561419,95.59,1
210959,1,35746,1,47452,52784,47255.57,52523.25,196.43,260.75,0.561074,95.60,1
210999,1,35786,1,47461,52812,47255.98,52523.82,205.02,288.18,0.560734,95.61,1
211039,1,35826,1,47476,52820,47256.42,52524.42,219.58,295.58,0.560398,95.63,1
211079,1,35866,1,47488,52845,47256.89,52525.06,231.11,319.94,0.560067,95.64,1
211119,1,35906,1,47503,52893,47257.38,52525.80,245.62,367.20,0.559741,95.65,1
211159,1,35946,1,47529,52919,47257.92,52526.59,271.08,392.41,0.559421,95.66,1
211199,1,35986,1,47548,52975,47258.50,52527.48,289.50,447.52,0.559108,95.67,1
211239,1,36026,1,47579,53020,47259.14,52528.47,319.86,491.53,0.558801,95.68,1
211279,1,36066,1,47593,53061,47259.81,52529.54,333.19,531.46,0.558503,95.69,1
211319,1,36106,1,47616,53095,47260.53,52530.67,355.47,564.33,0.558213,95.70,1
211359,1,36146,1,47627,53127,47261.26,52531.87,365.74,595.13,0.557931,95.71,1
211399,1,36186,1,47642,53157,47262.02,52533.12,379.98,623.88,0.557659,95.72,1
211440,1,36227,1,47649,53169,47262.80,52534.39,386.20,634.61,0.557395,95.73,1
211480,1,36267,1,47630,53003,47263.53,52535.33,366.47,467.67,0.557142,95.74,1
211520,1,36307,1,47529,52785,47264.06,52535.83,264.94,249.17,0.556895,95.75,1
211560,1,36347,1,47460,52694,47264.46,52536.14,195.54,157.86,0.556653,95.76,1
211600,1,36387,1,47449,52693,47264.83,52536.46,184.17,156.54,0.556415,95.77,1
211640,1,36427,1,47459,52721,47265.22,52536.83,193.78,184.17,0.556181,95.78,1
211680,1,36467,1,47481,52761,47265.65,52537.28,215.35,223.72,0.555951,95.79,1
211720,1,36507,1,47502,52791,47266.12,52537.79,235.87,253.21,0.555727,95.80,1
211760,1,36547,1,47510,52790,47266.61,52538.29,243.39,251.71,0.555509,95.81,1
211800,1,36587,1,47511,52812,47267.10,52538.84,243.90,273.16,0.555296,95.82,1
211840,1,36627,1,47525,52834,47267.62,52539.43,257.38,294.57,0.555089,95.83,1
211880,1,36667,1,47533,52865,47268.15,52540.08,264.85,324.92,0.554888,95.84,1
211920,1,36707,1,47546,52914,47268.71,52540.83,277.29,373.17,0.554693,95.85,1
211960,1,36747,1,47564,52957,47269.30,52541.66,294.70,415.34,0.554505,95.86,1
212001,1,36788,1,47590,53006,47269.95,52542.59,320.05,463.41,0.554324,95.86,1
212041,1,36828,1,47609,53052,47270.62,52543.61,338.37,508.39,0.554150,95.87,1
212081,1,36868,1,47617,53076,47271.32,52544.68,345.68,531.32,0.553983,95.88,1
212121,1,36908,1,47636,53116,47272.05,52545.82,363.95,570.18,0.553825,95.89,1
212161,1,36948,1,47651,53151,47272.81,52547.04,378.19,603.96,0.553674,95.90,1
212201,1,36988,1,47663,53123,47273.59,52548.19,389.41,574.81,0.553533,95.91,1
212241,1,37028,1,47604,52883,47274.25,52548.86,329.75,334.14,0.553401,95.91,1
212281,1,37068,1,47509,52712,47274.72,52549.19,234.28,162.81,0.553275,95.92,1
212321,1,37108,1,47467,52679,47275.11,52549.45,191.89,129.55,0.553153,95.93,1
212361,1,37148,1,47466,52683,47275.49,52549.72,190.51,133.28,0.553035,95.94,1
212401,1,37188,1,47470,52702,47275.88,52550.02,194.12,151.98,0.552920,95.94,1
212441,1,37228,1,47492,52741,47276.32,52550.41,215.68,190.59,0.552811,95.95,1
212481,1,37268,1,47501,52775,47276.77,52550.86,224.23,224.14,0.552706,95.96,1
212522,1,37309,1,47518,52779,47277.25,52551.31,240.75,227.69,0.552606,95.96,1
212562,1,37349,1,47512,52793,47277.72,52551.80,234.28,241.20,0.552512,95.97,1
212602,1,37389,1,47529,52835,47278.23,52552.36,250.77,282.64,0.552423,95.98,1
212642,1,37429,1,47531,52863,47278.73,52552.98,252.27,310.02,0.552339,95.98,1
212682,1,37469,1,47559,52921,47279.30,52553.72,279.70,367.28,0.552261,95.99,1
212722,1,37509,1,47571,52952,47279.88,52554.52,291.12,397.48,0.552189,96.00,1
212762,1,37549,1,47588,53000,47280.50,52555.41,307.50,444.59,0.552122,96.00,1
212802,1,37589,1,47609,53023,47281.16,52556.35,327.84,466.65,0.552063,96.01,1
212842,1,37629,1,47616,53047,47281.83,52557.33,334.17,489.67,0.552010,96.01,1
212882,1,37669,1,47632,53075,47282.54,52558.37,349.46,516.63,0.551963,96.02,1
212922,1,37709,1,47634,53091,47283.24,52559.43,350.76,531.57,0.551924,96.02,1
212962,1,37749,1,47647,53066,47283.97,52560.45,363.03,505.55,0.551893,96.03,1
213002,1,37789,1,47588,52841,47284.58,52561.01,303.42,279.99,0.551870,96.04,1
213042,1,37829,1,47482,52648,47284.97,52561.19,197.03,86.81,0.551851,96.04,1
213083,1,37870,1,47435,52605,47285.27,52561.28,149.73,43.72,0.551835,96.05,1
213123,1,37910,1,47427,52618,47285.56,52561.39,141.44,56.61,0.551821,96.05,1
213163,1,37950,1,47450,52662,47285.89,52561.59,164.11,100.41,0.551810,96.05,1
213203,1,37990,1,47462,52688,47286.24,52561.85,175.76,126.15,0.551802,96.06,1
213243,1,38030,1,47471,52710,47286.61,52562.14,184.39,147.86,0.551798,96.06,1
213283,1,38070,1,47481,52727,47287.00,52562.48,194.00,164.52,0.551797,96.07,1
213323,1,38110,1,47485,52735,47287.40,52562.82,197.60,172.18,0.551800,96.07,1
213363,1,38150,1,47497,52764,47287.82,52563.23,209.18,200.77,0.551807,96.08,1
213403,1,38190,1,47515,52809,47288.28,52563.72,226.72,245.28,0.551819,96.08,1
213443,1,38230,1,47537,52855,47288.78,52564.30,248.22,290.70,0.551835,96.08,1
213483,1,38270,1,47556,52893,47289.32,52564.96,266.68,328.04,0.551857,96.09,1
213523,1,38310,1,47577,52930,47289.89,52565.69,287.11,364.31,0.551885,96.09,1
213563,1,38350,1,47582,52955,47290.48,52566.47,291.52,388.53,0.551918,96.09,1
213603,1,38390,1,47593,52975,47291.09,52567.29,301.91,407.71,0.551957,96.10,1
213644,1,38431,1,47599,52993,47291.70,52568.14,307.30,424.86,0.552002,96.10,1
213684,1,38471,1,47606,53012,47292.33,52569.04,313.67,442.96,0.552052,96.10,1
213724,1,38511,1,47585,52865,47292.92,52569.63,292.08,295.37,0.552110,96.11,1
213764,1,38551,1,47487,52637,47293.31,52569.77,193.69,67.23,0.552172,96.11,1
213804,1,38591,1,47417,52551,47293.56,52569.73,123.44,-18.73,0.552236,96.11,1
213844,1,38631,1,47406,52567,47293.79,52569.73,112.21,-2.73,0.552301,96.11,1
213884,1,38671,1,47416,52588,47294.03,52569.77,121.97,18.23,0.552368,96.12,1
213924,1,38711,1,47438,52634,47294.32,52569.89,143.68,64.11,0.552437,96.12,1
213964,1,38751,1,47465,52665,47294.66,52570.09,170.34,94.91,0.552510,96.12,1
214004,1,38791,1,47466,52681,47295.01,52570.31,170.99,110.69,0.552585,96.12,1
214044,1,38831,1,47478,52694,47295.37,52570.56,182.62,123.44,0.552664,96.12,1
214084,1,38871,1,47481,52724,47295.75,52570.87,185.25,153.13,0.552747,96.13,1
214124,1,38911,1,47496,52755,47296.15,52571.24,199.85,183.76,0.552833,96.13,1
214164,1,38951,1,47514,52805,47296.59,52571.71,217.41,233.29,0.552924,96.13,1
214204,1,38991,1,47536,52847,47297.07,52572.26,238.93,274.74,0.553018,96.13,1
214245,1,39032,1,47544,52888,47297.56,52572.89,246.44,315.11,0.553118,96.13,1
214285,1,39072,1,47565,52935,47298.10,52573.62,266.90,361.38,0.553221,96.13,1
214325,1,39112,1,47579,52969,47298.66,52574.41,280.34,394.59,0.553329,96.13,1
214365,1,39152,1,47597,53002,47299.26,52575.27,297.74,426.73,0.553442,96.13,1
214405,1,39192,1,47609,53044,47299.88,52576.20,309.12,467.80,0.553559,96.14,1
214445,1,39232,1,47627,52981,47300.54,52577.02,326.46,403.98,0.553683,96.14,1
214485,1,39272,1,47550,52740,47301.04,52577.34,248.96,162.66,0.553815,96.14,1
214525,1,39312,1,47458,52580,47301.35,52577.35,156.65,2.65,0.553949,96.14,1
214565,1,39352,1,47428,52569,47301.61,52577.34,126.39,-8.34,0.554085,96.14,1
214605,1,39392,1,47434,52580,47301.87,52577.34,132.13,2.66,0.554223,96.14,1
214645,1,39432,1,47433,52593,47302.13,52577.37,130.87,15.63,0.554363,96.14,1
214685,1,39472,1,47458,52639,47302.45,52577.50,155.55,61.50,0.554506,96.14,1
214725,1,39512,1,47462,52649,47302.77,52577.64,159.23,71.36,0.554652,96.14,1
214765,1,39552,1,47466,52660,47303.09,52577.81,162.91,82.19,0.554801,96.14,1
214806,1,39593,1,47468,52681,47303.43,52578.02,164.57,102.98,0.554953,96.14,1
214846,1,39633,1,47478,52719,47303.78,52578.30,174.22,140.70,0.555108,96.14,1
214886,1,39673,1,47502,52763,47304.18,52578.68,197.82,184.32,0.555266,96.14,1
214926,1,39713,1,47525,52817,47304.62,52579.15,220.38,237.85,0.555429,96.14,1
214966,1,39753,1,47538,52852,47305.09,52579.70,232.91,272.30,0.555596,96.13,1
215006,1,39793,1,47563,52908,47305.60,52580.36,257.40,327.64,0.555768,96.13,1
215046,1,39833,1,47578,52922,47306.15,52581.04,271.85,340.96,0.555944,96.13,1
215086,1,39873,1,47590,52956,47306.72,52581.79,283.28,374.21,0.556126,96.13,1
215126,1,39913,1,47603,52985,47307.31,52582.60,295.69,402.40,0.556313,96.13,1
215166,1,39953,1,47607,52968,47307.91,52583.37,299.09,384.63,0.556505,96.13,1
215206,1,39993,1,47559,52740,47308.42,52583.69,250.58,156.31,0.556705,96.13,1
215246,1,40033,1,47451,52530,47308.70,52583.58,142.30,-53.58,0.556908,96.13,1
215286,1,40073,1,47388,52471,47308.86,52583.36,79.14,-112.36,0.557110,96.12,1
215326,1,40113,1,47383,52470,47309.01,52583.13,73.99,-113.13,0.557311,96.12,1
215367,1,40154,1,47391,52482,47309.18,52582.93,81.82,-100.93,0.557513,96.12,1
215407,1,40194,1,47390,52527,47309.34,52582.82,80.66,-55.82,0.557715,96.12,1
215447,1,40234,1,47414,52549,47309.55,52582.76,104.45,-33.76,0.557918,96.12,1
215487,1,40274,1,47409,52548,47309.75,52582.69,99.25,-34.69,0.558121,96.12,1
215527,1,40314,1,47418,52572,47309.97,52582.67,108.03,-10.67,0.558326,96.11,1
215567,1,40354,1,47425,52595,47310.20,52582.70,114.80,12.30,0.558533,96.11,1
215607,1,40394,1,47444,52640,47310.47,52582.82,133.53,57.18,0.558741,96.11,1
215647,1,40434,1,47467,52682,47310.78,52583.02,156.22,98.98,0.558953,96.11,1
215687,1,40474,1,47488,52724,47311.14,52583.30,176.86,140.70,0.559167,96.10,1
215727,1,40514,1,47501,52756,47311.52,52583.65,189.48,172.35,0.559386,96.10,1
215767,1,40554,1,47510,52777,47311.92,52584.04,198.08,192.96,0.559608,96.10,1
215807,1,40594,1,47525,52813,47312.34,52584.50,212.66,228.50,0.559834,96.10,1
215847,1,40634,1,47533,52830,47312.79,52584.99,220.21,245.01,0.560065,96.09,1
215887,1,40674,1,47533,52824,47313.23,52585.47,219.77,238.53,0.560300,96.09,1
215928,1,40715,1,47491,52617,47313.58,52585.53,177.42,31.47,0.560539,96.09,1
215968,1,40755,1,47386,52426,47313.73,52585.21,72.27,-159.21,0.560777,96.08,1
216008,1,40795,1,47329,52376,47313.76,52584.80,15.24,-208.80,0.561012,96.08,1
216048,1,40835,1,47335,52391,47313.80,52584.41,21.20,-193.41,0.561244,96.08,1
216088,1,40875,1,47341,52417,47313.86,52584.08,27.14,-167.08,0.561474,96.07,1
216128,1,40915,1,47358,52454,47313.95,52583.82,44.05,-129.82,0.561703,96.07,1
216168,1,40955,1,47377,52486,47314.07,52583.62,62.93,-97.62,0.561931,96.07,1
216208,1,40995,1,47395,52489,47314.24,52583.44,80.76,-94.44,0.562159,96.06,1
216248,1,41035,1,47390,52506,47314.39,52583.29,75.61,-77.29,0.562387,96.06,1
216288,1,41075,1,47408,52549,47314.58,52583.22,93.42,-34.22,0.562616,96.06,1
216328,1,41115,1,47424,52584,47314.80,52583.22,109.20,0.78,0.562846,96.05,1
216368,1,41155,1,47434,52626,47315.04,52583.31,118.96,42.69,0.563078,96.05,1
216408,1,41195,1,47458,52679,47315.32,52583.50,142.68,95.50,0.563313,96.04,1
216449,1,41236,1,47473,52705,47315.64,52583.75,157.36,121.25,0.563551,96.04,1
216489,1,41276,1,47490,52744,47315.99,52584.07,174.01,159.93,0.563792,96.04,1
216529,1,41316,1,47503,52784,47316.37,52584.47,186.63,199.53,0.564036,96.03,1
216569,1,41356,1,47507,52810,47316.75,52584.92,190.25,225.08,0.564284,96.03,1
216609,1,41396,1,47526,52793,47317.17,52585.34,208.83,207.66,0.564536,96.02,1
216649,1,41436,1,47469,52582,47317.47,52585.34,151.53,-3.34,0.564793,96.02,1
216689,1,41476,1,47375,52409,47317.59,52584.98,57.41,-175.98,0.565046,96.01,1
216729,1,41516,1,47337,52382,47317.63,52584.58,19.37,-202.58,0.565297,96.01,1
216769,1,41556,1,47351,52391,47317.70,52584.19,33.30,-193.19,0.565544,96.01,1
216809,1,41596,1,47350,52417,47317.76,52583.86,32.24,-166.86,0.565789,96.00,1
216849,1,41636,1,47374,52463,47317.87,52583.62,56.13,-120.62,0.566033,96.00,1
216889,1,41676,1,47383,52484,47318.01,52583.42,64.99,-99.42,0.566276,95.99,1
216929,1,41716,1,47393,52509,47318.16,52583.27,74.84,-74.27,0.566519,95.99,1
216969,1,41756,1,47399,52531,47318.32,52583.17,80.68,-52.17,0.566763,95.98,1
217009,1,41796,1,47412,52574,47318.51,52583.15,93.49,-9.15,0.567008,95.98,1
217050,1,41837,1,47437,52631,47318.75,52583.25,118.25,47.75,0.567255,95.97,1
217090,1,41877,1,47458,52686,47319.03,52583.46,138.97,102.54,0.567504,95.97,1
217130,1,41917,1,47482,52746,47319.36,52583.79,162.64,162.21,0.567757,95.96,1
217170,1,41957,1,47509,52796,47319.74,52584.21,189.26,211.79,0.568013,95.96,1
217210,1,41997,1,47529,52853,47320.16,52584.75,208.84,268.25,0.568272,95.95,1
217250,1,42037,1,47551,52894,47320.62,52585.37,230.38,308.63,0.568536,95.95,1
217290,1,42077,1,47570,52935,47321.12,52586.07,248.88,348.93,0.568802,95.94,1
217330,1,42117,1,47591,52978,47321.66,52586.86,269.34,391.14,0.569072,95.94,1
217370,1,42157,1,47591,52860,47322.20,52587.40,268.80,272.60,0.569351,95.93,1
217410,1,42197,1,47499,52649,47322.55,52587.53,176.45,61.47,0.569636,95.93,1
217450,1,42237,1,47427,52553,47322.77,52587.46,104.23,-34.46,0.569922,95.92,1
217490,1,42277,1,47418,52556,47322.96,52587.40,95.04,-31.40,0.570209,95.92,1
217530,1,42317,1,47416,52559,47323.14,52587.34,92.86,-28.34,0.570497,95.91,1
217570,1,42357,1,47419,52597,47323.34,52587.36,95.66,9.64,0.570787,95.91,1
217611,1,42398,1,47435,52633,47323.56,52587.46,111.44,45.54,0.571078,95.90,1
217651,1,42438,1,47449,52667,47323.81,52587.62,125.19,79.38,0.571371,95.90,1
217691,1,42478,1,47452,52694,47324.07,52587.83,127.93,106.17,0.571666,95.89,1
217731,1,42518,1,47478,52746,47324.38,52588.15,153.62,157.85,0.571964,95.88,1
217771,1,42558,1,47503,52797,47324.74,52588.57,178.26,208.43,0.572265,95.88,1
217811,1,42598,1,47519,52851,47325.13,52589.09,193.87,261.91,0.572568,95.87,1
217851,1,42638,1,47547,52896,47325.57,52589.71,221.43,306.29,0.572873,95.87,1
217891,1,42678,1,47557,52929,47326.04,52590.39,230.96,338.61,0.573180,95.86,1
217931,1,42718,1,47569,52972,47326.53,52591.15,242.47,380.85,0.573487,95.86,1
217971,1,42758,1,47590,53013,47327.05,52592.00,262.95,421.00,0.573794,95.85,1
218011,1,42798,1,47602,53042,47327.61,52592.90,274.39,449.10,0.574100,95.84,1
218051,1,42838,1,47618,53091,47328.19,52593.89,289.81,497.11,0.574404,95.84,1
218091,1,42878,1,47629,53116,47328.79,52594.94,300.21,521.06,0.574705,95.83,1
218131,1,42918,1,47614,52994,47329.36,52595.74,284.64,398.26,0.575009,95.82,1
218172,1,42959,1,47527,52800,47329.76,52596.15,197.24,203.85,0.575319,95.82,1
218212,1,42999,1,47461,52713,47330.02,52596.39,130.98,116.61,0.575630,95.81,1
218252,1,43039,1,47438,52711,47330.24,52596.62,107.76,114.38,0.575941,95.81,1
218292,1,43079,1,47439,52711,47330.46,52596.85,108.54,114.15,0.576253,95.80,1
218332,1,43119,1,47436,52737,47330.67,52597.13,105.33,139.87,0.576566,95.79,1
218372,1,43159,1,47448,52768,47330.91,52597.47,117.09,170.53,0.576877,95.79,1
218412,1,43199,1,47461,52787,47331.17,52597.85,129.83,189.15,0.577189,95.78,1
218452,1,43239,1,47469,52796,47331.45,52598.25,137.55,197.75,0.577501,95.77,1
218492,1,43279,1,47472,52828,47331.73,52598.71,140.27,229.29,0.577812,95.77,1
218532,1,43319,1,47488,52862,47332.04,52599.24,155.96,262.76,0.578122,95.76,1
218572,1,43359,1,47502,52904,47332.38,52599.85,169.62,304.15,0.578429,95.75,1
218612,1,43399,1,47515,52937,47332.75,52600.52,182.25,336.48,0.578733,95.75,1
218652,1,43439,1,47525,52973,47333.13,52601.27,191.87,371.73,0.579033,95.74,1
218692,1,43479,1,47539,53012,47333.55,52602.09,205.45,409.91,0.579326,95.73,1
218733,1,43520,1,47560,53047,47334.00,52602.98,226.00,444.02,0.579614,95.73,1
218773,1,43560,1,47568,53087,47334.47,52603.95,233.53,483.05,0.579894,95.72,1
218813,1,43600,1,47582,53129,47334.96,52605.00,247.04,524.00,0.580163,95.71,1
218853,1,43640,1,47594,53101,47335.48,52606.00,258.52,495.00,0.580426,95.71,1
218893,1,43680,1,47544,52925,47335.90,52606.64,208.10,318.36,0.580690,95.70,1
218933,1,43720,1,47460,52786,47336.15,52607.00,123.85,179.00,0.580954,95.69,1
218973,1,43760,1,47421,52757,47336.32,52607.30,84.68,149.70,0.581218,95.69,1
219013,1,43800,1,47427,52782,47336.51,52607.65,90.49,174.35,0.581479,95.68,1
219053,1,43840,1,47455,52831,47336.75,52608.10,118.25,222.90,0.581739,95.67,1
219093,1,43880,1,47473,52870,47337.02,52608.62,135.98,261.38,0.581997,95.67,1
219133,1,43920,1,47478,52884,47337.30,52609.17,140.70,274.83,0.582252,95.66,1
219173,1,43960,1,47486,52893,47337.60,52609.74,148.40,283.26,0.582505,95.65,1
219213,1,44000,1,47485,52904,47337.89,52610.33,147.11,293.67,0.582755,95.65,1
219253,1,44040,1,47486,52940,47338.19,52610.99,147.81,329.01,0.583000,95.64,1
219294,1,44081,1,47503,52967,47338.52,52611.71,164.48,355.29,0.583239,95.63,1
219334,1,44121,1,47504,53002,47338.86,52612.49,165.14,389.51,0.583472,95.63,1
219374,1,44161,1,47527,53069,47339.23,52613.40,187.77,455.60,0.583694,95.62,1
219414,1,44201,1,47566,53146,47339.69,52614.47,226.31,531.53,0.583905,95.61,1
219454,1,44241,1,47601,53186,47340.21,52615.61,260.79,570.39,0.584104,95.61,1
219494,1,44281,1,47617,53224,47340.77,52616.83,276.23,607.17,0.584290,95.60,1
219534,1,44321,1,47616,53237,47341.32,52618.07,274.68,618.93,0.584464,95.59,1
219574,1,44361,1,47626,53222,47341.89,52619.29,284.11,602.71,0.584628,95.59,1
219614,1,44401,1,47580,53043,47342.36,52620.13,237.64,422.87,0.584791,95.58,1
219654,1,44441,1,47501,52892,47342.68,52620.68,158.32,271.32,0.584953,95.58,1
219694,1,44481,1,47451,52842,47342.90,52621.12,108.10,220.87,0.585114,95.57,1
219734,1,44521,1,47445,52846,47343.11,52621.57,101.89,224.43,0.585274,95.56,1
219774,1,44561,1,47440,52841,47343.30,52622.02,96.70,218.98,0.585431,95.56,1
219814,1,44601,1,47424,52862,47343.47,52622.50,80.53,239.50,0.585585,95.55,1
219854,1,44641,1,47455,52901,47343.69,52623.05,111.31,277.95,0.585735,95.55,1
219895,1,44682,1,47452,52894,47343.91,52623.60,108.09,270.40,0.585882,95.54,1
219935,1,44722,1,47445,52906,47344.11,52624.16,100.89,281.84,0.586024,95.53,1
219975,1,44762,1,47449,52938,47344.32,52624.79,104.68,313.21,0.586162,95.53,1
220015,1,44802,1,47463,52961,47344.56,52625.46,118.44,335.54,0.586293,95.52,1
220055,1,44842,1,47466,52999,47344.80,52626.21,121.20,372.79,0.586417,95.52,1
220095,1,44882,1,47483,53049,47345.08,52627.06,137.92,421.94,0.586532,95.51,1
220135,1,44922,1,47508,53094,47345.41,52628.00,162.59,466.00,0.586635,95.51,1
220175,1,44962,1,47534,53139,47345.79,52629.02,188.21,509.98,0.586728,95.50,1
220215,1,45002,1,47562,53185,47346.22,52630.13,215.78,554.87,0.586809,95.50,1
220255,1,45042,1,47573,53212,47346.68,52631.30,226.32,580.70,0.586878,95.49,1
220295,1,45082,1,47585,53227,47347.15,52632.49,237.85,594.51,0.586935,95.49,1
220335,1,45122,1,47559,53097,47347.58,52633.42,211.42,463.58,0.586987,95.48,1
220375,1,45162,1,47479,52905,47347.84,52633.96,131.16,271.04,0.587038,95.48,1
220415,1,45202,1,47401,52808,47347.95,52634.31,53.05,173.69,0.587087,95.47,1
220456,1,45243,1,47390,52814,47348.04,52634.67,41.96,179.33,0.587135,95.47,1
220496,1,45283,1,47390,52819,47348.12,52635.04,41.88,183.96,0.587180,95.46,1
220536,1,45323,1,47399,52857,47348.23,52635.48,50.77,221.52,0.587223,95.46,1
220576,1,45363,1,47417,52890,47348.37,52636.00,68.63,254.00,0.587262,95.45,1
220616,1,45403,1,47427,52893,47348.53,52636.51,78.47,256.49,0.587297,95.45,1
220656,1,45443,1,47418,52908,47348.67,52637.05,69.33,270.95,0.587329,95.45,1
220696,1,45483,1,47432,52920,47348.84,52637.62,83.16,282.38,0.587356,95.44,1
220736,1,45523,1,47445,52962,47349.03,52638.27,95.97,323.73,0.587378,95.44,1
220776,1,45563,1,47479,53016,47349.29,52639.03,129.71,376.97,0.587394,95.44,1
220816,1,45603,1,47501,53055,47349.60,52639.86,151.40,415.14,0.587404,95.43,1
220856,1,45643,1,47513,53086,47349.93,52640.75,163.07,445.25,0.587406,95.43,1
220896,1,45683,1,47523,53096,47350.27,52641.66,172.73,454.34,0.587401,95.42,1
220936,1,45723,1,47504,53088,47350.58,52642.56,153.42,445.44,0.587389,95.42,1
220976,1,45763,1,47492,53085,47350.87,52643.45,141.13,441.55,0.587368,95.42,1
221017,1,45804,1,47500,53116,47351.17,52644.39,148.83,471.61,0.587338,95.42,1
221057,1,45844,1,47507,53010,47351.48,52645.12,155.52,364.87,0.587305,95.41,1
221097,1,45884,1,47431,52863,47351.64,52645.56,79.36,217.44,0.587270,95.41,1
221137,1,45924,1,47403,52789,47351.75,52645.85,51.25,143.15,0.587235,95.41,1
221177,1,45964,1,47363,52738,47351.77,52646.04,11.23,91.96,0.587200,95.40,1
221217,1,46004,1,47340,52735,47351.75,52646.22,-11.75,88.78,0.587164,95.40,1
221257,1,46044,1,47344,52749,47351.73,52646.43,-7.73,102.57,0.587127,95.40,1
221297,1,46084,1,47355,52768,47351.74,52646.67,3.26,121.33,0.587090,95.40,1
221337,1,46124,1,47376,52809,47351.79,52647.00,24.21,162.00,0.587051,95.39,1
221377,1,46164,1,47402,52837,47351.89,52647.38,50.11,189.62,0.587010,95.39,1
221417,1,46204,1,47417,52865,47352.02,52647.82,64.98,217.18,0.586967,95.39,1
221457,1,46244,1,47429,52881,47352.18,52648.29,76.82,232.71,0.586922,95.39,1
221497,1,46284,1,47426,52886,47352.33,52648.76,73.67,237.24,0.586875,95.39,1
221537,1,46324,1,47420,52882,47352.46,52649.23,67.54,232.77,0.586825,95.39,1
221578,1,46365,1,47397,52880,47352.55,52649.70,44.45,230.30,0.586772,95.38,1
221618,1,46405,1,47407,52930,47352.66,52650.26,54.34,279.74,0.586714,95.38,1
221658,1,46445,1,47440,52976,47352.84,52650.91,87.16,325.09,0.586651,95.38,1
221698,1,46485,1,47458,53007,47353.05,52651.62,104.95,355.37,0.586582,95.38,1
221738,1,46525,1,47478,52997,47353.30,52652.32,124.70,344.68,0.586509,95.38,1
221778,1,46565,1,47452,52818,47353.50,52652.65,98.50,165.35,0.586437,95.38,1
221818,1,46605,1,47367,52679,47353.53,52652.70,13.47,26.30,0.586365,95.38,1
221858,1,46645,1,47344,52647,47353.51,52652.69,-9.51,-5.69,0.586293,95.37,1
221898,1,46685,1,47334,52643,47353.47,52652.67,-19.47,-9.67,0.586222,95.37,1
221938,1,46725,1,47338,52666,47353.44,52652.70,-15.44,13.30,0.586151,95.37,1
221978,1,46765,1,47371,52728,47353.47,52652.85,17.53,75.15,0.586080,95.37,1
222018,1,46805,1,47394,52748,47353.55,52653.04,40.45,94.96,0.586009,95.37,1
222058,1,46845,1,47409,52775,47353.67,52653.29,55.33,121.71,0.585938,95.37,1
222098,1,46885,1,47417,52785,47353.80,52653.55,63.20,131.45,0.585867,95.37,1
222139,1,46926,1,47431,52818,47353.95,52653.89,77.05,164.11,0.585796,95.37,1
222179,1,46966,1,47445,52856,47354.14,52654.29,90.86,201.71,0.585725,95.37,1
222219,1,47006,1,47459,52902,47354.35,52654.79,104.65,247.21,0.585652,95.37,1
222259,1,47046,1,47483,52961,47354.61,52655.40,128.39,305.60,0.585577,95.37,1
222299,1,47086,1,47515,53000,47354.93,52656.09,160.07,343.91,0.585501,95.37,1
222339,1,47126,1,47535,53048,47355.29,52656.88,179.71,391.12,0.585423,95.37,1
222379,1,47166,1,47557,53079,47355.70,52657.72,201.30,421.28,0.585345,95.37,1
222419,1,47206,1,47577,53075,47356.14,52658.56,220.86,416.44,0.585267,95.37,1
222459,1,47246,1,47544,52889,47356.52,52659.02,187.48,229.98,0.585197,95.37,1
222499,1,47286,1,47446,52705,47356.70,52659.11,89.30,45.89,0.585130,95.37,1
222539,1,47326,1,47398,52641,47356.78,52659.08,41.22,-18.08,0.585063,95.37,1
222579,1,47366,1,47389,52641,47356.84,52659.04,32.16,-18.04,0.584996,95.37,1
222619,1,47406,1,47392,52662,47356.91,52659.05,35.09,2.95,0.584930,95.37,1
222659,1,47446,1,47414,52700,47357.03,52659.13,56.97,40.87,0.584866,95.37,1
222700,1,47487,1,47428,52720,47357.18,52659.26,70.82,60.74,0.584802,95.37,1
222740,1,47527,1,47428,52722,47357.32,52659.38,70.68,62.62,0.584741,95.37,1
222780,1,47567,1,47428,52734,47357.46,52659.54,70.54,74.46,0.584680,95.37,1
222820,1,47607,1,47433,52741,47357.62,52659.70,75.38,81.30,0.584621,95.37,1
222860,1,47647,1,47438,52773,47357.78,52659.93,80.22,113.07,0.584564,95.37,1
222900,1,47687,1,47442,52801,47357.95,52660.21,84.05,140.79,0.584507,95.37,1
222940,1,47727,1,47451,52830,47358.13,52660.55,92.87,169.45,0.584451,95.37,1
222980,1,47767,1,47470,52847,47358.36,52660.93,111.64,186.07,0.584396,95.37,1
223020,1,47807,1,47464,52853,47358.57,52661.31,105.43,191.69,0.584342,95.37,1
223060,1,47847,1,47472,52882,47358.80,52661.75,113.20,220.25,0.584288,95.37,1
223100,1,47887,1,47496,52879,47359.07,52662.19,136.93,216.81,0.584237,95.37,1
223140,1,47927,1,47465,52701,47359.29,52662.27,105.71,38.73,0.584189,95.38,1
223180,1,47967,1,47357,52494,47359.29,52661.93,-2.29,-167.93,0.584139,95.38,1
223220,1,48007,1,47294,52425,47359.16,52661.46,-65.16,-236.46,0.584086,95.38,1
223261,1,48048,1,47281,52429,47359.00,52661.00,-78.00,-232.00,0.584029,95.38,1
223301,1,48088,1,47303,52474,47358.89,52660.62,-55.89,-186.62,0.583971,95.38,1
223341,1,48128,1,47326,52526,47358.82,52660.36,-32.82,-134.36,0.583912,95.38,1
223381,1,48168,1,47361,52585,47358.83,52660.21,2.17,-75.21,0.583852,95.38,1
223421,1,48208,1,47373,52579,47358.86,52660.05,14.14,-81.05,0.583792,95.38,1
223461,1,48248,1,47355,52595,47358.85,52659.92,-3.85,-64.92,0.583732,95.38,1
223501,1,48288,1,47403,52664,47358.94,52659.93,44.06,4.07,0.583673,95.38,1
223541,1,48328,1,47423,52688,47359.07,52659.98,63.93,28.02,0.583615,95.38,1
223581,1,48368,1,47424,52712,47359.20,52660.09,64.80,51.91,0.583559,95.38,1
223621,1,48408,1,47426,52703,47359.34,52660.18,66.66,42.82,0.583505,95.38,1
223661,1,48448,1,47402,52682,47359.43,52660.22,42.57,21.78,0.583451,95.39,1
223701,1,48488,1,47387,52674,47359.48,52660.25,27.52,13.75,0.583398,95.39,1
223741,1,48528,1,47379,52671,47359.52,52660.27,19.48,10.73,0.583345,95.39,1
223781,1,48568,1,47370,52617,47359.54,52660.19,10.46,-43.19,0.583292,95.39,1
223822,1,48609,1,47330,52431,47359.48,52659.73,-29.48,-228.73,0.583234,95.39,1
223862,1,48649,1,47260,52335,47359.29,52659.08,-99.29,-324.08,0.583170,95.39,1
223902,1,48689,1,47255,52350,47359.08,52658.46,-104.08,-308.46,0.583100,95.39,1
223942,1,48729,1,47276,52396,47358.91,52657.94,-82.91,-261.94,0.583026,95.39,1
223982,1,48769,1,47309,52441,47358.82,52657.51,-49.82,-216.51,0.582948,95.39,1
224022,1,48809,1,47338,52519,47358.78,52657.23,-20.78,-138.23,0.582869,95.39,1
224062,1,48849,1,47351,52498,47358.76,52656.91,-7.76,-158.91,0.582787,95.40,1
224102,1,48889,1,47334,52478,47358.71,52656.56,-24.71,-178.56,0.582702,95.40,1
224142,1,48929,1,47313,52456,47358.62,52656.16,-45.63,-200.16,0.582615,95.40,1
224182,1,48969,1,47305,52483,47358.52,52655.82,-53.52,-172.82,0.582525,95.40,1
224222,1,49009,1,47311,52510,47358.43,52655.53,-47.43,-145.53,0.582435,95.40,1
224262,1,49049,1,47337,52574,47358.38,52655.37,-21.38,-81.37,0.582344,95.40,1
224302,1,49089,1,47374,52636,47358.41,52655.33,15.59,-19.33,0.582254,95.40,1
224342,1,49129,1,47396,52683,47358.49,52655.39,37.51,27.61,0.582165,95.40,1
224383,1,49170,1,47420,52718,47358.62,52655.51,61.38,62.49,0.582077,95.40,1
224423,1,49210,1,47406,52660,47358.71,52655.52,47.29,4.48,0.581990,95.41,1
224463,1,49250,1,47333,52442,47358.66,52655.10,-25.66,-213.10,0.581899,95.41,1
224503,1,49290,1,47216,52246,47358.38,52654.28,-142.38,-408.28,0.581798,95.41,1
224543,1,49330,1,47178,52221,47358.02,52653.42,-180.02,-432.42,0.581692,95.41,1
224583,1,49370,1,47201,52296,47357.71,52652.70,-156.71,-356.70,0.581584,95.41,1
224623,1,49410,1,47249,52363,47357.49,52652.12,-108.49,-289.12,0.581472,95.41,1
224663,1,49450,1,47320,52465,47357.42,52651.75,-37.42,-186.75,0.581358,95.42,1
224703,1,49490,1,47342,52465,47357.39,52651.38,-15.39,-186.38,0.581240,95.42,1
224743,1,49530,1,47325,52451,47357.32,52650.98,-32.32,-199.98,0.581118,95.42,1
224783,1,49570,1,47299,52435,47357.21,52650.55,-58.21,-215.55,0.580994,95.42,1
224823,1,49610,1,47288,52423,47357.07,52650.10,-69.07,-227.10,0.580866,95.42,1
224863,1,49650,1,47266,52411,47356.89,52649.62,-90.89,-238.62,0.580736,95.42,1
224903,1,49690,1,47258,52429,47356.70,52649.18,-98.70,-220.18,0.580607,95.43,1
224944,1,49731,1,47267,52452,47356.52,52648.79,-89.52,-196.79,0.580476,95.43,1
224984,1,49771,1,47271,52484,47356.35,52648.46,-85.35,-164.46,0.580347,95.43,1
225024,1,49811,1,47290,52537,47356.21,52648.24,-66.21,-111.24,0.580219,95.43,1
225064,1,49851,1,47312,52535,47356.13,52648.01,-44.13,-113.01,0.580091,95.43,1
225104,1,49891,1,47281,52379,47355.98,52647.48,-74.98,-268.48,0.579958,95.44,1
225144,1,49931,1,47194,52197,47355.66,52646.58,-161.66,-449.58,0.579815,95.44,1
225184,1,49971,1,47133,52130,47355.21,52645.55,-222.21,-515.55,0.579667,95.44,1
225224,1,50011,1,47128,52124,47354.76,52644.50,-226.76,-520.50,0.579516,95.44,1
225264,1,50051,1,47128,52125,47354.30,52643.46,-226.30,-518.46,0.579360,95.44,1
225304,1,50091,1,47131,52159,47353.86,52642.50,-222.86,-483.50,0.579203,95.45,1
225344,1,50131,1,47162,52221,47353.48,52641.66,-191.48,-420.66,0.579046,95.45,1
225384,1,50171,1,47189,52254,47353.15,52640.88,-164.15,-386.88,0.578886,95.45,1
225424,1,50211,1,47209,52285,47352.86,52640.17,-143.86,-355.17,0.578724,95.45,1
225464,1,50251,1,47210,52308,47352.58,52639.51,-142.58,-331.51,0.578560,95.46,1
225504,1,50291,1,47227,52328,47352.33,52638.89,-125.33,-310.89,0.578394,95.46,1
225545,1,50332,1,47208,52333,47352.04,52638.28,-144.04,-305.28,0.578229,95.46,1
225585,1,50372,1,47221,52390,47351.78,52637.78,-130.78,-247.78,0.578065,95.46,1
225625,1,50412,1,47239,52426,47351.55,52637.36,-112.55,-211.36,0.577904,95.47,1
225665,1,50452,1,47273,52492,47351.40,52637.07,-78.40,-145.07,0.577743,95.47,1
225705,1,50492,1,47297,52535,47351.29,52636.87,-54.29,-101.87,0.577583,95.47,1
225745,1,50532,1,47297,52449,47351.18,52636.49,-54.18,-187.49,0.577422,95.47,1
225785,1,50572,1,47241,52271,47350.96,52635.76,-109.96,-364.76,0.577253,95.48,1
225825,1,50612,1,47179,52181,47350.62,52634.86,-171.62,-453.86,0.577078,95.48,1
225865,1,50652,1,47175,52182,47350.27,52633.95,-175.27,-451.95,0.576898,95.48,1
225905,1,50692,1,47169,52180,47349.91,52633.04,-180.91,-453.04,0.576714,95.49,1
225945,1,50732,1,47177,52218,47349.57,52632.21,-172.57,-414.21,0.576526,95.49,1
225985,1,50772,1,47197,52245,47349.26,52631.44,-152.26,-386.44,0.576336,95.49,1
226025,1,50812,1,47205,52268,47348.97,52630.71,-143.97,-362.71,0.576144,95.50,1
226065,1,50852,1,47213,52299,47348.70,52630.05,-135.70,-331.05,0.575949,95.50,1
226106,1,50893,1,47230,52323,47348.47,52629.44,-118.47,-306.44,0.575753,95.50,1
226146,1,50933,1,47240,52368,47348.25,52628.92,-108.25,-260.92,0.575557,95.51,1
226186,1,50973,1,47252,52415,47348.06,52628.49,-96.06,-213.49,0.575361,95.51,1
226226,1,51013,1,47277,52454,47347.92,52628.14,-70.92,-174.14,0.575165,95.51,1
226266,1,51053,1,47292,52495,47347.81,52627.88,-55.81,-132.88,0.574969,95.52,1
226306,1,51093,1,47306,52536,47347.73,52627.70,-41.73,-91.70,0.574774,95.52,1
226346,1,51133,1,47329,52568,47347.70,52627.58,-18.70,-59.58,0.574579,95.52,1
226386,1,51173,1,47337,52574,47347.68,52627.47,-10.68,-53.47,0.574385,95.53,1
226426,1,51213,1,47323,52411,47347.63,52627.04,-24.63,-216.04,0.574187,95.53,1
226466,1,51253,1,47229,52229,47347.39,52626.25,-118.39,-397.25,0.573981,95.53,1
226506,1,51293,1,47177,52172,47347.05,52625.34,-170.05,-453.34,0.573770,95.54,1
226546,1,51333,1,47179,52190,47346.72,52624.47,-167.72,-434.47,0.573556,95.54,1
226586,1,51373,1,47195,52221,47346.42,52623.67,-151.42,-402.67,0.573337,95.54,1
226626,1,51413,1,47213,52263,47346.15,52622.95,-133.15,-359.95,0.573115,95.55,1
226667,1,51454,1,47228,52282,47345.92,52622.27,-117.92,-340.27,0.572890,95.55,1
226707,1,51494,1,47232,52297,47345.69,52621.62,-113.69,-324.62,0.572663,95.56,1
226747,1,51534,1,47233,52310,47345.47,52621.00,-112.47,-311.00,0.572433,95.56,1
226787,1,51574,1,47253,52351,47345.29,52620.46,-92.29,-269.46,0.572201,95.56,1
226827,1,51614,1,47270,52391,47345.14,52620.00,-75.14,-229.00,0.571968,95.57,1
226867,1,51654,1,47290,52443,47345.03,52619.65,-55.03,-176.65,0.571734,95.57,1
226907,1,51694,1,47306,52469,47344.95,52619.35,-38.95,-150.35,0.571499,95.58,1
226947,1,51734,1,47321,52497,47344.90,52619.11,-23.90,-122.11,0.571265,95.58,1
226987,1,51774,1,47336,52530,47344.89,52618.93,-8.89,-88.93,0.571030,95.58,1
227027,1,51814,1,47345,52552,47344.89,52618.80,0.11,-66.80,0.570795,95.59,1
227067,1,51854,1,47347,52484,47344.89,52618.53,2.11,-134.53,0.570560,95.59,1
227107,1,51894,1,47279,52257,47344.76,52617.81,-65.76,-360.81,0.570316,95.60,1
227147,1,51934,1,47186,52118,47344.45,52616.81,-158.45,-498.81,0.570062,95.60,1
227187,1,51974,1,47142,52087,47344.04,52615.75,-202.04,-528.75,0.569803,95.61,1
227228,1,52015,1,47141,52088,47343.64,52614.70,-202.64,-526.70,0.569540,95.61,1
227268,1,52055,1,47155,52137,47343.26,52613.74,-188.26,-476.74,0.569275,95.62,1
227308,1,52095,1,47187,52190,47342.95,52612.89,-155.95,-422.89,0.569006,95.62,1
227348,1,52135,1,47197,52206,47342.66,52612.08,-145.66,-406.08,0.568735,95.63,1
227388,1,52175,1,47213,52237,47342.40,52611.33,-129.40,-374.33,0.568460,95.63,1
227428,1,52215,1,47255,52320,47342.23,52610.75,-87.23,-290.75,0.568183,95.64,1
227468,1,52255,1,47296,52384,47342.14,52610.30,-46.14,-226.30,0.567904,95.64,1
227508,1,52295,1,47335,52454,47342.13,52609.98,-7.13,-155.98,0.567623,95.65,1
227548,1,52335,1,47369,52500,47342.18,52609.77,26.82,-109.77,0.567343,95.65,1
227588,1,52375,1,47386,52538,47342.27,52609.62,43.73,-71.62,0.567064,95.66,1
227628,1,52415,1,47401,52586,47342.39,52609.58,58.61,-23.58,0.566787,95.66,1
227668,1,52455,1,47438,52645,47342.58,52609.65,95.42,35.35,0.566515,95.67,1
227708,1,52495,1,47460,52658,47342.82,52609.75,117.18,48.25,0.566250,95.67,1
227748,1,52535,1,47434,52482,47343.00,52609.49,91.00,-127.49,0.565988,95.68,1
227789,1,52576,1,47324,52241,47342.96,52608.76,-18.96,-367.76,0.565715,95.68,1
227829,1,52616,1,47235,52127,47342.75,52607.80,-107.75,-480.80,0.565430,95.69,1
227869,1,52656,1,47209,52139,47342.48,52606.86,-133.48,-467.86,0.565136,95.69,1
227909,1,52696,1,47227,52163,47342.25,52605.97,-115.25,-442.97,0.564834,95.70,1
227949,1,52736,1,47260,52233,47342.09,52605.23,-82.09,-372.23,0.564525,95.70,1
227989,1,52776,1,47287,52260,47341.98,52604.54,-54.98,-344.54,0.564209,95.71,1
228029,1,52816,1,47287,52246,47341.87,52603.82,-54.87,-357.82,0.563885,95.72,1
228069,1,52856,1,47275,52229,47341.74,52603.07,-66.74,-374.07,0.563555,95.72,1
228109,1,52896,1,47282,52267,47341.62,52602.40,-59.62,-335.40,0.563218,95.73,1
228149,1,52936,1,47300,52324,47341.54,52601.85,-41.54,-277.85,0.562877,95.73,1
228189,1,52976,1,47337,52392,47341.53,52601.43,-4.53,-209.43,0.562535,95.74,1
228229,1,53016,1,47361,52431,47341.57,52601.09,19.43,-170.09,0.562191,95.75,1
228269,1,53056,1,47374,52463,47341.64,52600.82,32.36,-137.82,0.561847,95.75,1
228309,1,53096,1,47388,52501,47341.73,52600.62,46.27,-99.62,0.561505,95.76,1
228350,1,53137,1,47411,52540,47341.87,52600.50,69.13,-60.50,0.561166,95.77,1
228390,1,53177,1,47419,52569,47342.03,52600.43,76.97,-31.43,0.560830,95.77,1
228430,1,53217,1,47414,52445,47342.17,52600.12,71.83,-155.12,0.560496,95.78,1
228470,1,53257,1,47320,52197,47342.13,52599.32,-22.13,-402.32,0.560151,95.78,1
228510,1,53297,1,47232,52078,47341.91,52598.28,-109.91,-520.28,0.559792,95.79,1
228550,1,53337,1,47204,52071,47341.64,52597.22,-137.64,-526.22,0.559423,95.80,1
228590,1,53377,1,47218,52097,47341.39,52596.22,-123.39,-499.22,0.559044,95.80,1
228630,1,53417,1,47250,52154,47341.21,52595.34,-91.21,-441.34,0.558657,95.81,1
228670,1,53457,1,47275,52189,47341.08,52594.53,-66.08,-405.53,0.558261,95.82,1
228710,1,53497,1,47284,52207,47340.96,52593.75,-56.96,-386.75,0.557858,95.83,1
228750,1,53537,1,47292,52212,47340.87,52592.99,-48.87,-380.99,0.557448,95.83,1
228790,1,53577,1,47290,52227,47340.77,52592.26,-50.77,-365.26,0.557032,95.84,1
228830,1,53617,1,47301,52275,47340.69,52591.63,-39.69,-316.63,0.556611,95.85,1
228870,1,53657,1,47328,52314,47340.66,52591.07,-12.66,-277.07,0.556186,95.85,1
228911,1,53698,1,47341,52360,47340.66,52590.61,0.34,-230.61,0.555759,95.86,1
228951,1,53738,1,47361,52389,47340.71,52590.21,20.29,-201.21,0.555331,95.87,1
228991,1,53778,1,47363,52413,47340.75,52589.86,22.25,-176.86,0.554902,95.88,1
229031,1,53818,1,47367,52421,47340.81,52589.52,26.19,-168.52,0.554473,95.89,1
229071,1,53858,1,47366,52444,47340.86,52589.23,25.14,-145.23,0.554044,95.89,1
229111,1,53898,1,47375,52382,47340.93,52588.82,34.07,-206.82,0.553614,95.90,1
229151,1,53938,1,47295,52150,47340.84,52587.95,-45.84,-437.95,0.553174,95.91,1
229191,1,53978,1,47207,51997,47340.57,52586.77,-133.57,-589.77,0.552722,95.92,1
229231,1,54018,1,47187,52000,47340.27,52585.59,-153.27,-585.59,0.552260,95.93,1
229271,1,54058,1,47201,52029,47339.99,52584.48,-138.99,-555.48,0.551791,95.93,1
229311,1,54098,1,47218,52069,47339.75,52583.45,-121.75,-514.45,0.551314,95.94,1
229351,1,54138,1,47244,52109,47339.56,52582.50,-95.56,-473.50,0.550830,95.95,1
229391,1,54178,1,47247,52114,47339.37,52581.56,-92.37,-467.56,0.550339,95.96,1
229431,1,54218,1,47248,52121,47339.20,52580.64,-91.20,-459.64,0.549842,95.97,1
229471,1,54258,1,47254,52141,47339.03,52579.77,-85.03,-438.77,0.549339,95.98,1
229512,1,54299,1,47273,52188,47338.90,52578.98,-65.90,-390.98,0.548832,95.99,1
229552,1,54339,1,47286,52221,47338.79,52578.27,-52.79,-357.27,0.548320,96.00,1
229592,1,54379,1,47292,52274,47338.70,52577.66,-46.70,-303.66,0.547806,96.01,1
229632,1,54419,1,47317,52307,47338.66,52577.12,-21.66,-270.12,0.547290,96.01,1
229672,1,54459,1,47337,52362,47338.65,52576.70,-1.65,-214.70,0.546773,96.02,1
229712,1,54499,1,47371,52405,47338.72,52576.35,32.28,-171.35,0.546256,96.03,1
229752,1,54539,1,47372,52429,47338.79,52576.06,33.21,-147.06,0.545741,96.04,1
229792,1,54579,1,47386,52338,47338.88,52575.58,47.12,-237.58,0.545224,96.05,1
229832,1,54619,1,47292,52086,47338.79,52574.61,-46.79,-488.61,0.544698,96.06,1
229872,1,54659,1,47202,51955,47338.51,52573.37,-136.51,-618.37,0.544162,96.07,1
229912,1,54699,1,47176,51943,47338.19,52572.11,-162.19,-629.11,0.543621,96.08,1
229952,1,54739,1,47182,51953,47337.87,52570.87,-155.87,-617.87,0.543073,96.09,1
229992,1,54779,1,47181,51996,47337.56,52569.72,-156.56,-573.72,0.542522,96.10,1
230032,1,54819,1,47206,52020,47337.30,52568.62,-131.30,-548.62,0.541967,96.11,1
230073,1,54860,1,47200,52036,47337.03,52567.56,-137.03,-531.56,0.541409,96.12,1
230113,1,54900,1,47230,52063,47336.82,52566.55,-106.82,-503.55,0.540846,96.14,1
230153,1,54940,1,47220,52085,47336.59,52565.59,-116.59,-480.59,0.540281,96.15,1
230193,1,54980,1,47245,52134,47336.40,52564.73,-91.40,-430.73,0.539713,96.16,1
230233,1,55020,1,47256,52143,47336.24,52563.89,-80.24,-420.89,0.539142,96.17,1
230273,1,55060,1,47244,52185,47336.06,52563.13,-92.06,-378.13,0.538570,96.18,1
230313,1,55100,1,47282,52251,47335.95,52562.51,-53.95,-311.51,0.537996,96.19,1
230353,1,55140,1,47308,52281,47335.90,52561.95,-27.90,-280.95,0.537422,96.20,1
230393,1,55180,1,47319,52308,47335.87,52561.44,-16.87,-253.44,0.536847,96.21,1
230433,1,55220,1,47348,52356,47335.89,52561.03,12.11,-205.03,0.536271,96.22,1
230473,1,55260,1,47344,52217,47335.91,52560.34,8.09,-343.34,0.535693,96.24,1
230513,1,55300,1,47257,51975,47335.75,52559.17,-78.75,-584.17,0.535104,96.25,1
230553,1,55340,1,47163,51864,47335.41,52557.78,-172.41,-693.78,0.534511,96.26,1
230593,1,55380,1,47150,51870,47335.04,52556.41,-185.04,-686.41,0.533915,96.27,1
230634,1,55421,1,47156,51895,47334.68,52555.09,-178.68,-660.09,0.533318,96.28,1
230674,1,55461,1,47187,51959,47334.39,52553.89,-147.39,-594.89,0.532719,96.29,1
230714,1,55501,1,47202,51973,47334.13,52552.73,-132.13,-579.73,0.532116,96.31,1
230754,1,55541,1,47206,51994,47333.87,52551.62,-127.87,-557.62,0.531510,96.32,1
230794,1,55581,1,47221,52017,47333.65,52550.55,-112.65,-533.55,0.530901,96.33,1
230834,1,55621,1,47234,52073,47333.45,52549.60,-99.45,-476.60,0.530290,96.34,1
230874,1,55661,1,47276,52132,47333.34,52548.77,-57.34,-416.77,0.529676,96.36,1
230914,1,55701,1,47299,52202,47333.27,52548.07,-34.27,-346.07,0.529061,96.37,1
230954,1,55741,1,47359,52328,47333.32,52547.64,25.68,-219.64,0.528445,96.38,1
230994,1,55781,1,47466,52476,47333.59,52547.50,132.41,-71.50,0.527839,96.39,1
231034,1,55821,1,47487,52466,47333.90,52547.34,153.10,-81.34,0.527243,96.41,1
231074,1,55861,1,47479,52479,47334.19,52547.20,144.81,-68.20,0.526658,96.42,1
231114,1,55901,1,47462,52418,47334.45,52546.94,127.55,-128.94,0.526081,96.43,1
231154,1,55941,1,47376,52183,47334.54,52546.21,41.46,-363.21,0.525501,96.45,1
231194,1,55981,1,47292,52005,47334.45,52545.13,-42.45,-540.13,0.524913,96.46,1
231235,1,56022,1,47247,51923,47334.28,52543.89,-87.28,-620.89,0.524316,96.47,1
231275,1,56062,1,47210,51910,47334.04,52542.62,-124.04,-632.62,0.523713,96.48,1
231315,1,56102,1,47216,51917,47333.80,52541.37,-117.80,-624.37,0.523104,96.50,1
231355,1,56142,1,47185,51866,47333.50,52540.03,-148.50,-674.03,0.522491,96.51,1
231395,1,56182,1,47148,51836,47333.13,52538.62,-185.13,-702.62,0.521877,96.52,1
231435,1,56222,1,47119,51800,47332.71,52537.14,-213.71,-737.14,0.521266,96.54,1
231475,1,56262,1,47109,51787,47332.26,52535.64,-223.26,-748.64,0.520658,96.55,1
231515,1,56302,1,47096,51792,47331.79,52534.16,-235.79,-742.16,0.520055,96.56,1
231555,1,56342,1,47101,51813,47331.33,52532.72,-230.33,-719.72,0.519457,96.58,1
231595,1,56382,1,47086,51815,47330.84,52531.29,-244.84,-716.29,0.518867,96.59,1
231635,1,56422,1,47095,51860,47330.37,52529.95,-235.37,-669.95,0.518285,96.60,1
231675,1,56462,1,47110,51887,47329.93,52528.66,-219.93,-641.66,0.517708,96.62,1
231715,1,56502,1,47117,51926,47329.50,52527.46,-212.50,-601.46,0.517138,96.63,1
231755,1,56542,1,47140,51979,47329.12,52526.36,-189.12,-547.36,0.516572,96.65,1
231796,1,56583,1,47168,51965,47328.80,52525.24,-160.80,-560.24,0.516008,96.66,1
231836,1,56623,1,47119,51744,47328.39,52523.68,-209.39,-779.68,0.515442,96.67,1
231876,1,56663,1,47026,51590,47327.78,52521.81,-301.78,-931.81,0.514882,96.69,1
231916,1,56703,1,46988,51561,47327.10,52519.89,-339.10,-958.89,0.514334,96.70,1
231956,1,56743,1,47009,51608,47326.46,52518.07,-317.46,-910.07,0.513795,96.71,1
231996,1,56783,1,47032,51666,47325.88,52516.36,-293.88,-850.36,0.513263,96.73,1
232036,1,56823,1,47066,51722,47325.36,52514.78,-259.36,-792.78,0.512734,96.74,1
232076,1,56863,1,47075,51716,47324.86,52513.18,-249.86,-797.18,0.512209,96.75,1
232116,1,56903,1,47088,51725,47324.39,52511.61,-236.39,-786.61,0.511684,96.77,1
232156,1,56943,1,47088,51743,47323.91,52510.07,-235.91,-767.07,0.511161,96.78,1
232196,1,56983,1,47097,51772,47323.46,52508.59,-226.46,-736.59,0.510640,96.80,1
232236,1,57023,1,47114,51829,47323.04,52507.23,-209.04,-678.23,0.510121,96.81,1
232276,1,57063,1,47142,51889,47322.68,52506.00,-180.68,-617.00,0.509603,96.82,1
232316,1,57103,1,47167,51944,47322.37,52504.88,-155.37,-560.88,0.509085,96.84,1
232357,1,57144,1,47184,51967,47322.10,52503.80,-138.10,-536.80,0.508567,96.85,1
232397,1,57184,1,47194,51999,47321.84,52502.80,-127.84,-503.80,0.508049,96.86,1
232437,1,57224,1,47202,51986,47321.61,52501.77,-119.61,-515.77,0.507530,96.88,1
232477,1,57264,1,47149,51750,47321.26,52500.26,-172.26,-750.26,0.507008,96.89,1
232517,1,57304,1,47030,51532,47320.68,52498.33,-290.68,-966.33,0.506487,96.90,1
232557,1,57344,1,46977,51500,47319.99,52496.33,-342.99,-996.33,0.505974,96.92,1
232597,1,57384,1,46988,51526,47319.33,52494.39,-331.33,-968.39,0.505467,96.93,1
232637,1,57424,1,47012,51580,47318.71,52492.57,-306.71,-912.57,0.504966,96.94,1
232677,1,57464,1,47039,51617,47318.16,52490.82,-279.16,-873.82,0.504467,96.96,1
232717,1,57504,1,47051,51652,47317.62,52489.14,-266.62,-837.14,0.503971,96.97,1
232757,1,57544,1,47057,51644,47317.11,52487.45,-260.11,-843.45,0.503477,96.98,1
232797,1,57584,1,47072,51677,47316.62,52485.83,-244.62,-808.83,0.502984,97.00,1
232837,1,57624,1,47076,51689,47316.14,52484.24,-240.14,-795.24,0.502492,97.01,1
232877,1,57664,1,47092,51748,47315.69,52482.77,-223.69,-734.77,0.502001,97.02,1
232917,1,57704,1,47103,51761,47315.27,52481.32,-212.27,-720.32,0.501512,97.04,1
232958,1,57745,1,47095,51776,47314.83,52479.91,-219.83,-703.91,0.501024,97.05,1
232998,1,57785,1,47090,51781,47314.38,52478.52,-224.38,-697.52,0.500538,97.06,1
233038,1,57825,1,47084,51793,47313.92,52477.15,-229.92,-684.15,0.500056,97.08,1
233078,1,57865,1,47077,51719,47313.45,52475.63,-236.45,-756.63,0.499575,97.09,1
233118,1,57905,1,46997,51465,47312.81,52473.61,-315.81,-1008.61,0.499097,97.10,1
233158,1,57945,1,46895,51297,47311.98,52471.26,-416.98,-1174.26,0.498627,97.11,1
233198,1,57985,1,46852,51261,47311.06,52468.84,-459.06,-1207.84,0.498171,97.13,1
233238,1,58025,1,46856,51285,47310.15,52466.48,-454.15,-1181.48,0.497727,97.14,1
233278,1,58065,1,46882,51328,47309.29,52464.20,-427.29,-1136.20,0.497292,97.15,1
233318,1,58105,1,46888,51346,47308.45,52461.96,-420.45,-1115.96,0.496866,97.17,1
233358,1,58145,1,46888,51356,47307.61,52459.75,-419.61,-1103.75,0.496448,97.18,1
233398,1,58185,1,46900,51360,47306.80,52457.55,-406.80,-1097.55,0.496037,97.19,1
233438,1,58225,1,46892,51372,47305.97,52455.39,-413.97,-1083.39,0.495634,97.20,1
233478,1,58265,1,46914,51441,47305.19,52453.36,-391.19,-1012.36,0.495237,97.22,1
233518,1,58305,1,46941,51495,47304.46,52451.45,-363.46,-956.45,0.494847,97.23,1
233559,1,58346,1,46967,51542,47303.79,52449.63,-336.79,-907.63,0.494460,97.24,1
233599,1,58386,1,46990,51613,47303.17,52447.96,-313.17,-834.96,0.494077,97.25,1
233639,1,58426,1,47031,51674,47302.62,52446.41,-271.62,-772.41,0.493697,97.27,1
233679,1,58466,1,47045,51678,47302.11,52444.87,-257.11,-766.87,0.493318,97.28,1
233719,1,58506,1,47031,51531,47301.57,52443.05,-270.57,-912.05,0.492937,97.29,1
233759,1,58546,1,46937,51320,47300.84,52440.80,-363.84,-1120.80,0.492557,97.30,1
233799,1,58586,1,46918,51295,47300.08,52438.51,-382.08,-1143.51,0.492179,97.31,1
233839,1,58626,1,46942,51349,47299.36,52436.34,-357.36,-1087.34,0.491802,97.32,1
233879,1,58666,1,46980,51386,47298.73,52434.24,-318.73,-1048.24,0.491423,97.34,1
233919,1,58706,1,46976,51391,47298.08,52432.15,-322.08,-1041.15,0.491045,97.35,1
233959,1,58746,1,46962,51371,47297.41,52430.03,-335.41,-1059.03,0.490666,97.36,1
233999,1,58786,1,46941,51352,47296.70,52427.87,-355.70,-1075.88,0.490288,97.37,1
234039,1,58826,1,46925,51347,47295.96,52425.71,-370.96,-1078.71,0.489913,97.38,1
234079,1,58866,1,46937,51383,47295.24,52423.63,-358.24,-1040.63,0.489540,97.39,1
234120,1,58907,1,46947,51408,47294.55,52421.60,-347.55,-1013.60,0.489169,97.41,1
234160,1,58947,1,46953,51468,47293.86,52419.69,-340.86,-951.69,0.488801,97.42,1
234200,1,58987,1,46987,51542,47293.25,52417.94,-306.25,-875.94,0.488435,97.43,1
234240,1,59027,1,47029,51617,47292.72,52416.34,-263.72,-799.34,0.488070,97.44,1
234280,1,59067,1,47063,51651,47292.27,52414.80,-229.27,-763.80,0.487705,97.45,1
234320,1,59107,1,47067,51631,47291.82,52413.24,-224.82,-782.24,0.487340,97.46,1
234360,1,59147,1,47010,51395,47291.25,52411.20,-281.25,-1016.20,0.486972,97.47,1
234400,1,59187,1,46912,51203,47290.50,52408.79,-378.50,-1205.79,0.486604,97.48,1
234440,1,59227,1,46867,51174,47289.65,52406.32,-422.65,-1232.32,0.486238,97.49,1
234480,1,59267,1,46878,51214,47288.83,52403.94,-410.83,-1189.94,0.485875,97.50,1
234520,1,59307,1,46899,51268,47288.05,52401.67,-389.05,-1133.67,0.485514,97.52,1
234560,1,59347,1,46952,51355,47287.38,52399.57,-335.38,-1044.57,0.485153,97.53,1
234600,1,59387,1,46969,51376,47286.74,52397.53,-317.74,-1021.53,0.484793,97.54,1
234640,1,59427,1,46982,51396,47286.13,52395.53,-304.13,-999.53,0.484432,97.55,1
234680,1,59467,1,46983,51403,47285.53,52393.54,-302.53,-990.54,0.484070,97.56,1
234721,1,59508,1,46987,51431,47284.93,52391.62,-297.93,-960.62,0.483709,97.57,1
234761,1,59548,1,46996,51465,47284.35,52389.77,-288.35,-924.77,0.483348,97.58,1
234801,1,59588,1,46994,51473,47283.77,52387.94,-289.77,-914.94,0.482987,97.59,1
234841,1,59628,1,47013,51571,47283.23,52386.30,-270.23,-815.30,0.482628,97.60,1
234881,1,59668,1,47078,51635,47282.82,52384.80,-204.82,-749.80,0.482268,97.61,1
234921,1,59708,1,47060,51641,47282.38,52383.32,-222.38,-742.32,0.481908,97.62,1
234961,1,59748,1,47105,51632,47282.02,52381.82,-177.02,-749.82,0.481547,97.63,1
235001,1,59788,1,47043,51393,47281.55,52379.84,-238.55,-986.84,0.481183,97.64,1
235041,1,59828,1,46975,51295,47280.93,52377.68,-305.93,-1082.68,0.480817,97.65,1
235081,1,59868,1,46962,51318,47280.30,52375.56,-318.30,-1057.56,0.480450,97.66,1
235121,1,59908,1,46992,51365,47279.72,52373.54,-287.72,-1008.54,0.480083,97.67,1
235161,1,59948,1,47024,51440,47279.21,52371.67,-255.21,-931.67,0.479714,97.68,1
235201,1,59988,1,47066,51514,47278.79,52369.96,-212.79,-855.96,0.479344,97.69,1
235241,1,60028,1,47094,51546,47278.42,52368.31,-184.42,-822.31,0.478972,97.70,1
235282,1,60069,1,47121,51583,47278.11,52366.74,-157.11,-783.74,0.478597,97.71,1
235322,1,60109,1,47127,51587,47277.80,52365.18,-150.80,-778.18,0.478220,97.72,1
235362,1,60149,1,47123,51624,47277.50,52363.70,-154.50,-739.70,0.477841,97.73,1
235402,1,60189,1,47140,51670,47277.22,52362.31,-137.22,-692.31,0.477461,97.74,1
235442,1,60229,1,47160,51717,47276.99,52361.02,-116.99,-644.02,0.477079,97.75,1
235482,1,60269,1,47172,51760,47276.78,52359.82,-104.78,-599.82,0.476696,97.76,1
235522,1,60309,1,47193,51790,47276.61,52358.69,-83.61,-568.69,0.476312,97.77,1
235562,1,60349,1,47205,51822,47276.47,52357.62,-71.47,-535.62,0.475928,97.78,1
235602,1,60389,1,47224,51745,47276.37,52356.39,-52.37,-611.39,0.475541,97.79,1
235642,1,60429,1,47135,51495,47276.09,52354.67,-141.09,-859.67,0.475150,97.80,1
235682,1,60469,1,47056,51383,47275.65,52352.73,-219.65,-969.73,0.474756,97.81,1
235722,1,60509,1,47032,51377,47275.16,52350.78,-243.16,-973.78,0.474361,97.82,1
235762,1,60549,1,47032,51397,47274.68,52348.87,-242.68,-951.87,0.473964,97.83,1
235802,1,60589,1,47048,51455,47274.23,52347.09,-226.23,-892.09,0.473567,97.84,1
235843,1,60630,1,47078,51500,47273.84,52345.40,-195.84,-845.40,0.473167,97.85,1
235883,1,60670,1,47090,51506,47273.47,52343.72,-183.47,-837.72,0.472766,97.86,1
235923,1,60710,1,47083,51530,47273.09,52342.10,-190.09,-812.10,0.472364,97.87,1
235963,1,60750,1,47107,51569,47272.76,52340.55,-165.76,-771.55,0.471960,97.88,1
236003,1,60790,1,47126,51631,47272.46,52339.14,-146.46,-708.14,0.471555,97.89,1
236043,1,60830,1,47153,51710,47272.23,52337.88,-119.23,-627.88,0.471149,97.90,1
236083,1,60870,1,47193,51772,47272.07,52336.75,-79.07,-564.75,0.470743,97.91,1
236123,1,60910,1,47209,51810,47271.95,52335.70,-62.95,-525.70,0.470335,97.92,1
236163,1,60950,1,47248,51898,47271.90,52334.82,-23.90,-436.82,0.469927,97.93,1
236203,1,60990,1,47286,51949,47271.93,52334.05,14.07,-385.05,0.469519,97.94,1
236243,1,61030,1,47288,51801,47271.96,52332.99,16.04,-531.99,0.469110,97.95,1
236283,1,61070,1,47177,51539,47271.78,52331.40,-94.78,-792.40,0.468697,97.96,1
236323,1,61110,1,47089,51424,47271.41,52329.59,-182.41,-905.59,0.468282,97.97,1
236363,1,61150,1,47054,51413,47270.98,52327.76,-216.98,-914.76,0.467865,97.98,1
236404,1,61191,1,47060,51438,47270.56,52325.98,-210.56,-887.98,0.467447,97.99,1
236444,1,61231,1,47076,51495,47270.17,52324.32,-194.17,-829.32,0.467028,98.00,1
236484,1,61271,1,47105,51554,47269.84,52322.78,-164.84,-768.78,0.466608,98.01,1
236524,1,61311,1,47125,51572,47269.55,52321.28,-144.55,-749.28,0.466187,98.02,1
236564,1,61351,1,47146,51627,47269.31,52319.89,-123.31,-692.89,0.465764,98.03,1
