t_ms,trial_id,t_trial_ms,phase,red_raw,ir_raw,red_dc,ir_dc,red_ac,ir_ac,R,spo2,spo2_valid
218370,1,0,0,54134,58071,53986.07,56774.97,147.93,1296.03,0.509860,96.58,1
218410,1,40,0,54137,58080,53986.38,56777.58,150.62,1302.42,0.508974,96.60,1
218450,1,80,0,54134,58041,53986.68,56780.11,147.32,1260.89,0.508088,96.62,1
218490,1,120,0,54104,58004,53986.91,56782.56,117.09,1221.44,0.507200,96.64,1
218530,1,160,0,54095,58004,53987.13,56785.00,107.87,1219.00,0.506312,96.66,1
218570,1,200,0,54102,58012,53987.36,56787.46,114.64,1224.54,0.505423,96.68,1
218610,1,240,0,54101,58016,53987.59,56789.92,113.41,1226.08,0.504533,96.70,1
218650,1,280,0,54099,58020,53987.81,56792.38,111.19,1227.62,0.503642,96.73,1
218690,1,320,0,54097,58032,53988.03,56794.86,108.97,1237.14,0.502750,96.75,1
218730,1,360,0,54097,58033,53988.25,56797.34,108.75,1235.66,0.501857,96.77,1
218770,1,400,0,54090,58034,53988.45,56799.81,101.55,1234.19,0.500964,96.79,1
218810,1,440,0,54095,58040,53988.67,56802.29,106.33,1237.71,0.500069,96.81,1
218850,1,480,0,54092,58043,53988.87,56804.78,103.12,1238.22,0.499174,96.83,1
218890,1,520,0,54089,58054,53989.08,56807.28,99.92,1246.72,0.498278,96.85,1
218930,1,560,0,54091,58065,53989.29,56809.79,101.71,1255.21,0.498278,96.85,0
218970,1,600,0,54090,58074,53989.49,56812.32,100.51,1261.68,0.498278,96.85,0
219010,1,640,0,54089,58089,53989.69,56814.88,99.31,1274.12,0.498278,96.85,0
219050,1,680,0,54090,58096,53989.89,56817.44,100.11,1278.56,0.498278,96.85,0
219091,1,721,0,54087,58105,53990.09,56820.02,96.91,1284.98,0.498278,96.85,0
219131,1,761,0,54088,58114,53990.28,56822.61,97.72,1291.39,0.498278,96.85,0
219171,1,801,0,54081,58073,53990.46,56825.11,90.54,1247.89,0.498278,96.85,0
219211,1,841,0,54050,58031,53990.59,56827.53,59.41,1203.47,0.498278,96.85,0
219251,1,881,0,54039,58028,53990.68,56829.93,48.32,1198.07,0.498278,96.85,0
219291,1,921,0,54031,58027,53990.77,56832.32,40.23,1194.68,0.498278,96.85,0
219331,1,961,0,54031,58028,53990.85,56834.72,40.15,1193.28,0.498278,96.85,0
219371,1,1001,0,54023,58016,53990.91,56837.08,32.09,1178.92,0.498278,96.85,0
219411,1,1041,0,54020,58031,53990.97,56839.47,29.03,1191.53,0.498278,96.85,0
219451,1,1081,0,54023,58039,53991.04,56841.87,31.96,1197.13,0.498278,96.85,0
219491,1,1121,0,54021,58050,53991.10,56844.29,29.90,1205.71,0.498278,96.85,0
219531,1,1161,0,54021,58056,53991.16,56846.72,29.84,1209.28,0.498278,96.85,0
219571,1,1201,0,54022,58058,53991.23,56849.14,30.77,1208.86,0.498278,96.85,0
219611,1,1241,0,54019,58066,53991.29,56851.58,27.71,1214.42,0.498278,96.85,0
219651,1,1281,0,54021,58072,53991.35,56854.02,29.65,1217.98,0.498278,96.85,0
219691,1,1321,0,54020,58080,53991.41,56856.47,28.59,1223.53,0.498278,96.85,0
219731,1,1361,0,54018,58091,53991.46,56858.94,26.54,1232.06,0.498278,96.85,0
219771,1,1401,0,54020,58097,53991.52,56861.42,28.48,1235.58,0.498278,96.85,0
219811,1,1441,0,54014,58106,53991.57,56863.91,22.43,1242.09,0.498278,96.85,0
219851,1,1481,0,54013,58123,53991.61,56866.43,21.39,1256.57,0.498278,96.85,0
219891,1,1521,0,54015,58122,53991.66,56868.94,23.34,1253.06,0.498278,96.85,0
219931,1,1561,0,54014,58134,53991.70,56871.47,22.30,1262.53,0.498278,96.85,0
219971,1,1601,0,53998,58071,53991.72,56873.87,6.28,1197.13,0.498278,96.85,0
220011,1,1641,0,53968,58027,53991.67,56876.18,-23.67,1150.82,0.498278,96.85,0
220051,1,1681,0,53951,58023,53991.59,56878.48,-40.59,1144.52,0.498278,96.85,0
220091,1,1721,0,53943,58023,53991.50,56880.77,-48.50,1142.23,0.498278,96.85,0
220131,1,1761,0,53936,58017,53991.39,56883.04,-55.39,1133.96,0.498278,96.85,0
220172,1,1802,0,53937,58013,53991.28,56885.30,-54.28,1127.70,0.498278,96.85,0
220212,1,1842,0,53926,58011,53991.15,56887.56,-65.15,1123.44,0.498278,96.85,0
220252,1,1882,0,53921,58021,53991.01,56889.83,-70.01,1131.17,0.498278,96.85,0
220292,1,1922,0,53916,58031,53990.86,56892.11,-74.86,1138.89,0.498278,96.85,0
220332,1,1962,0,53913,58042,53990.71,56894.41,-77.71,1147.59,0.498278,96.85,0
220372,1,2002,0,53920,58058,53990.57,56896.74,-70.57,1161.26,0.498278,96.85,0
220412,1,2042,0,53923,58076,53990.43,56899.10,-67.43,1176.90,0.498278,96.85,0
220452,1,2082,0,53933,58092,53990.32,56901.49,-57.32,1190.51,0.498278,96.85,0
220492,1,2122,0,53933,58115,53990.21,56903.92,-57.21,1211.08,0.498278,96.85,0
220532,1,2162,0,53939,58134,53990.11,56906.38,-51.11,1227.62,0.498278,96.85,0
220572,1,2202,0,53945,58154,53990.02,56908.87,-45.02,1245.13,0.498278,96.85,0
220612,1,2242,0,53950,58173,53989.94,56911.41,-39.94,1261.59,0.498278,96.85,0
220652,1,2282,0,53951,58190,53989.86,56913.96,-38.86,1276.04,0.498278,96.85,0
220692,1,2322,0,53961,58206,53989.80,56916.55,-28.80,1289.45,0.498278,96.85,0
220732,1,2362,0,53966,58206,53989.76,56919.13,-23.76,1286.87,0.498278,96.85,0
220772,1,2402,0,53951,58147,53989.68,56921.59,-38.68,1225.41,0.498278,96.85,0
220812,1,2442,0,53923,58106,53989.55,56923.96,-66.55,1182.04,0.498278,96.85,0
220852,1,2482,0,53910,58107,53989.39,56926.33,-79.39,1180.67,0.498278,96.85,0
220892,1,2522,0,53912,58111,53989.24,56928.70,-77.24,1182.30,0.498278,96.85,0
220932,1,2562,0,53907,58117,53989.08,56931.08,-82.08,1185.92,0.498278,96.85,0
220972,1,2602,0,53900,58112,53988.90,56933.44,-88.90,1178.56,0.498278,96.85,0
221012,1,2642,0,53901,58113,53988.73,56935.80,-87.73,1177.20,0.498278,96.85,0
221052,1,2682,0,53895,58106,53988.54,56938.14,-93.54,1167.86,0.498278,96.85,0
221092,1,2722,0,53887,58099,53988.34,56940.47,-101.34,1158.53,0.498278,96.85,0
221132,1,2762,0,53882,58099,53988.12,56942.79,-106.12,1156.21,0.498278,96.85,0
221172,1,2802,0,53871,58103,53987.89,56945.11,-116.89,1157.89,0.498278,96.85,0
221212,1,2842,0,53876,58106,53987.67,56947.43,-111.67,1158.57,0.498278,96.85,0
221252,1,2882,0,53866,58112,53987.43,56949.77,-121.43,1162.23,0.498278,96.85,0
221293,1,2923,0,53865,58122,53987.18,56952.11,-122.18,1169.89,0.498278,96.85,0
221333,1,2963,0,53867,58126,53986.95,56954.46,-119.95,1171.54,0.498278,96.85,0
221373,1,3003,0,53862,58137,53986.70,56956.83,-124.70,1180.17,0.498278,96.85,0
221413,1,3043,0,53864,58144,53986.45,56959.20,-122.45,1184.80,0.498278,96.85,0
221453,1,3083,0,53848,58131,53986.18,56961.55,-138.18,1169.45,0.498278,96.85,0
221493,1,3123,0,53838,58072,53985.88,56963.77,-147.88,1108.23,0.498278,96.85,0
221533,1,3163,0,53799,58011,53985.51,56965.87,-186.51,1045.13,0.498278,96.85,0
221573,1,3203,0,53790,57998,53985.12,56967.93,-195.12,1030.07,0.498278,96.85,0
221613,1,3243,0,53780,57996,53984.71,56969.99,-204.71,1026.01,0.498278,96.85,0
221653,1,3283,0,53779,58007,53984.30,56972.07,-205.30,1034.93,0.498278,96.85,0
221693,1,3323,0,53774,58005,53983.88,56974.13,-209.88,1030.87,0.498278,96.85,0
221733,1,3363,0,53779,58012,53983.47,56976.21,-204.47,1035.79,0.498278,96.85,0
221773,1,3403,0,53780,58013,53983.06,56978.29,-203.06,1034.71,0.498278,96.85,0
221813,1,3443,0,53784,58012,53982.66,56980.36,-198.66,1031.64,0.498278,96.85,0
221853,1,3483,0,53781,58017,53982.26,56982.43,-201.26,1034.57,0.498278,96.85,0
221893,1,3523,0,53788,58033,53981.87,56984.53,-193.87,1048.47,0.498278,96.85,0
221933,1,3563,0,53788,58051,53981.49,56986.66,-193.49,1064.34,0.498278,96.85,0
221973,1,3603,0,53793,58061,53981.11,56988.81,-188.11,1072.19,0.498278,96.85,0
222013,1,3643,0,53797,58080,53980.75,56991.00,-183.75,1089.00,0.498278,96.85,0
222053,1,3683,0,53804,58095,53980.39,56993.21,-176.39,1101.79,0.498278,96.85,0
222093,1,3723,0,53808,58125,53980.05,56995.47,-172.05,1129.53,0.498278,96.85,0
222133,1,3763,0,53820,58153,53979.73,56997.79,-159.73,1155.21,0.498278,96.85,0
222173,1,3803,0,53826,58150,53979.43,57000.09,-153.43,1149.91,0.498278,96.85,0
222213,1,3843,0,53809,58090,53979.09,57002.27,-170.09,1087.73,0.498278,96.85,0
222253,1,3883,0,53787,58057,53978.70,57004.38,-191.70,1052.62,0.498278,96.85,0
222293,1,3923,0,53790,58068,53978.33,57006.51,-188.33,1061.49,0.498278,96.85,0
222334,1,3964,0,53800,58074,53977.97,57008.65,-177.97,1065.35,0.498278,96.85,0
222374,1,4004,0,53807,58084,53977.63,57010.80,-170.63,1073.20,0.498278,96.85,0
222414,1,4044,0,53812,58097,53977.30,57012.98,-165.30,1084.02,0.498278,96.85,0
222454,1,4084,0,53816,58111,53976.98,57015.18,-160.98,1095.82,0.498278,96.85,0
222494,1,4124,0,53824,58130,53976.68,57017.41,-152.68,1112.59,0.498278,96.85,0
222534,1,4164,0,53827,58147,53976.38,57019.67,-149.38,1127.33,0.498278,96.85,0
222574,1,4204,0,53838,58165,53976.11,57021.96,-138.11,1143.04,0.498278,96.85,0
222614,1,4244,0,53845,58194,53975.85,57024.30,-130.85,1169.70,0.498278,96.85,0
222654,1,4284,0,53856,58197,53975.61,57026.65,-119.61,1170.35,0.498278,96.85,0
222694,1,4324,0,53852,58223,53975.36,57029.05,-123.36,1193.95,0.498278,96.85,0
222734,1,4364,0,53860,58234,53975.13,57031.46,-115.13,1202.54,0.498278,96.85,0
222774,1,4404,0,53847,58200,53974.88,57033.80,-127.88,1166.20,0.498278,96.85,0
222814,1,4444,0,53829,58212,53974.59,57036.16,-145.59,1175.84,0.498278,96.85,0
222854,1,4484,0,53836,58229,53974.31,57038.54,-138.31,1190.46,0.498278,96.85,0
222894,1,4524,0,53836,58179,53974.04,57040.82,-138.04,1138.18,0.498278,96.85,0
222934,1,4564,0,53789,58046,53973.67,57042.84,-184.67,1003.16,0.498278,96.85,0
222974,1,4604,0,53743,57964,53973.21,57044.68,-230.21,919.32,0.498278,96.85,0
223014,1,4644,0,53716,57929,53972.70,57046.45,-256.70,882.55,0.498278,96.85,0
223054,1,4684,0,53698,57893,53972.15,57048.14,-274.15,844.86,0.498278,96.85,0
223094,1,4724,0,53676,57868,53971.56,57049.79,-295.56,818.21,0.498278,96.85,0
223134,1,4764,0,53667,57841,53970.95,57051.37,-303.95,789.63,0.498278,96.85,0
223174,1,4804,0,53660,57840,53970.33,57052.95,-310.33,787.05,0.498278,96.85,0
223214,1,4844,0,53649,57819,53969.69,57054.48,-320.69,764.52,0.498278,96.85,0
223254,1,4884,0,53632,57790,53969.02,57055.95,-337.02,734.05,0.498278,96.85,0
223294,1,4924,0,53609,57738,53968.30,57057.32,-359.30,680.68,0.498278,96.85,0
223334,1,4964,0,53573,57676,53967.51,57058.56,-394.51,617.44,0.498278,96.85,0
223374,1,5004,0,53537,57628,53966.65,57059.70,-429.65,568.30,0.498278,96.85,0
223415,1,5045,0,53509,57611,53965.73,57060.80,-456.73,550.20,0.498278,96.85,0
223455,1,5085,0,53511,57619,53964.83,57061.92,-453.83,557.08,0.498278,96.85,0
223495,1,5125,0,53511,57634,53963.92,57063.07,-452.92,570.93,0.498278,96.85,0
223535,1,5165,0,53514,57646,53963.02,57064.23,-449.02,581.77,0.498278,96.85,0
223575,1,5205,0,53517,57650,53962.13,57065.41,-445.13,584.59,0.497394,96.87,1
223615,1,5245,0,53494,57539,53961.20,57066.36,-467.20,472.64,0.496528,96.90,1
223655,1,5285,0,53442,57429,53960.16,57067.08,-518.16,361.92,0.495683,96.92,1
223695,1,5325,0,53404,57371,53959.05,57067.69,-555.05,303.31,0.494862,96.94,1
223735,1,5365,0,53394,57352,53957.93,57068.26,-563.93,283.74,0.494065,96.96,1
223775,1,5405,0,53390,57348,53956.79,57068.82,-566.79,279.18,0.493291,96.98,1
223815,1,5445,0,53389,57339,53955.66,57069.37,-566.66,269.63,0.492541,97.00,1
223855,1,5485,0,53390,57358,53954.53,57069.95,-564.53,288.05,0.491813,97.02,1
223895,1,5525,0,53396,57358,53953.41,57070.52,-557.41,287.48,0.491107,97.04,1
223935,1,5565,0,53403,57363,53952.32,57071.11,-549.32,291.89,0.490421,97.06,1
223975,1,5605,0,53408,57375,53951.23,57071.72,-543.23,303.28,0.489755,97.09,1
224015,1,5645,0,53424,57391,53950.18,57072.36,-526.18,318.64,0.489108,97.11,1
224055,1,5685,0,53430,57403,53949.14,57073.02,-519.14,329.98,0.488478,97.13,1
224095,1,5725,0,53443,57434,53948.12,57073.75,-505.12,360.25,0.487865,97.15,1
224135,1,5765,0,53454,57455,53947.14,57074.51,-493.14,380.49,0.487267,97.17,1
224175,1,5805,0,53477,57505,53946.20,57075.37,-469.20,429.62,0.486683,97.19,1
224215,1,5845,0,53497,57520,53945.30,57076.27,-448.30,443.73,0.486112,97.21,1
224255,1,5885,0,53505,57540,53944.42,57077.20,-439.42,462.80,0.485553,97.23,1
224295,1,5925,0,53499,57435,53943.53,57077.91,-444.53,357.09,0.485006,97.25,1
224335,1,5965,0,53452,57322,53942.55,57078.40,-490.55,243.60,0.484475,97.27,1
224375,1,6005,0,53432,57289,53941.53,57078.82,-509.53,210.18,0.483960,97.28,1
224415,1,6045,0,53426,57274,53940.50,57079.21,-514.50,194.79,0.483461,97.30,1
224455,1,6085,0,53418,57253,53939.46,57079.56,-521.46,173.44,0.482979,97.32,1
224495,1,6125,0,53414,57255,53938.41,57079.91,-524.41,175.09,0.482514,97.34,1
224536,1,6166,0,53427,57265,53937.39,57080.29,-510.39,184.71,0.482065,97.36,1
224576,1,6206,0,53437,57284,53936.39,57080.70,-499.39,203.30,0.481631,97.38,1
224616,1,6246,0,53449,57286,53935.41,57081.11,-486.41,204.89,0.481211,97.39,1
224656,1,6286,0,53465,57301,53934.48,57081.55,-469.48,219.45,0.480804,97.41,1
224696,1,6326,0,53474,57329,53933.56,57082.04,-459.56,246.96,0.480409,97.43,1
224736,1,6366,0,53495,57357,53932.68,57082.59,-437.68,274.41,0.480026,97.45,1
224776,1,6406,0,53508,57383,53931.84,57083.20,-423.84,299.80,0.479654,97.46,1
224816,1,6446,0,53528,57410,53931.03,57083.85,-403.03,326.15,0.479291,97.48,1
224856,1,6486,0,53546,57441,53930.26,57084.57,-384.26,356.43,0.478936,97.50,1
224896,1,6526,0,53560,57458,53929.52,57085.32,-369.52,372.68,0.478590,97.51,1
224936,1,6566,0,53566,57486,53928.80,57086.12,-362.80,399.88,0.478250,97.53,1
224976,1,6606,0,53572,57420,53928.09,57086.79,-356.09,333.21,0.477918,97.54,1
225016,1,6646,0,53528,57283,53927.29,57087.18,-399.29,195.82,0.477596,97.56,1
225056,1,6686,0,53499,57235,53926.43,57087.48,-427.43,147.52,0.477285,97.57,1
225096,1,6726,0,53499,57222,53925.58,57087.75,-426.58,134.25,0.476984,97.59,1
225136,1,6766,0,53510,57221,53924.75,57088.02,-414.75,132.98,0.476694,97.60,1
225176,1,6806,0,53520,57220,53923.95,57088.29,-403.95,131.71,0.476415,97.62,1
225216,1,6846,0,53526,57221,53923.15,57088.55,-397.15,132.45,0.476144,97.63,1
225256,1,6886,0,53538,57244,53922.38,57088.86,-384.38,155.14,0.475883,97.65,1
225296,1,6926,0,53548,57256,53921.64,57089.20,-373.64,166.80,0.475630,97.66,1
225336,1,6966,0,53562,57259,53920.92,57089.54,-358.92,169.46,0.475385,97.68,1
225376,1,7006,0,53577,57280,53920.23,57089.92,-343.23,190.08,0.475147,97.69,1
225416,1,7046,0,53588,57306,53919.57,57090.36,-331.57,215.64,0.474916,97.70,1
225456,1,7086,0,53605,57331,53918.94,57090.84,-313.94,240.16,0.474691,97.71,1
225496,1,7126,0,53612,57361,53918.32,57091.38,-306.32,269.62,0.474471,97.73,1
225536,1,7166,0,53631,57388,53917.75,57091.98,-286.75,296.02,0.474256,97.74,1
225576,1,7206,0,53643,57411,53917.20,57092.62,-274.20,318.38,0.474046,97.75,1
225617,1,7247,0,53657,57443,53916.68,57093.32,-259.68,349.68,0.473838,97.76,1
225657,1,7287,0,53670,57451,53916.19,57094.04,-246.19,356.96,0.473634,97.78,1
225697,1,7327,0,53658,57350,53915.68,57094.55,-257.68,255.45,0.473434,97.79,1
225737,1,7367,0,53603,57226,53915.05,57094.82,-312.05,131.18,0.473240,97.80,1
225777,1,7407,0,53570,57185,53914.36,57095.00,-344.36,90.00,0.473054,97.81,1
225817,1,7447,0,53580,57188,53913.70,57095.19,-333.70,92.81,0.472876,97.82,1
225857,1,7487,0,53582,57182,53913.04,57095.36,-331.04,86.64,0.472704,97.83,1
225897,1,7527,0,53588,57183,53912.39,57095.54,-324.39,87.46,0.472539,97.84,1
225937,1,7567,0,53600,57194,53911.76,57095.74,-311.76,98.26,0.472380,97.85,1
225977,1,7607,0,53606,57204,53911.15,57095.96,-305.15,108.04,0.472228,97.86,1
226017,1,7647,0,53614,57216,53910.56,57096.20,-296.56,119.80,0.472081,97.87,1
226057,1,7687,0,53629,57223,53910.00,57096.45,-281.00,126.55,0.471940,97.88,1
226097,1,7727,0,53635,57244,53909.45,57096.75,-274.45,147.25,0.471804,97.89,1
226137,1,7767,0,53653,57269,53908.94,57097.10,-255.94,171.90,0.471671,97.90,1
226177,1,7807,0,53671,57294,53908.46,57097.49,-237.46,196.51,0.471543,97.91,1
226217,1,7847,0,53686,57320,53908.02,57097.94,-222.02,222.06,0.471417,97.92,1
226257,1,7887,0,53702,57338,53907.61,57098.42,-205.61,239.58,0.471294,97.93,1
226297,1,7927,0,53708,57359,53907.21,57098.94,-199.21,260.06,0.471174,97.94,1
226337,1,7967,0,53715,57381,53906.83,57099.51,-191.83,281.49,0.471055,97.95,1
226377,1,8007,0,53721,57344,53906.46,57100.00,-185.46,244.00,0.470938,97.96,1
226417,1,8047,0,53690,57195,53906.03,57100.19,-216.03,94.81,0.470824,97.96,1
226457,1,8087,0,53641,57121,53905.50,57100.23,-264.50,20.77,0.470716,97.97,1
226497,1,8127,0,53634,57114,53904.96,57100.26,-270.96,13.74,0.470613,97.98,1
226537,1,8167,0,53637,57120,53904.42,57100.30,-267.42,19.70,0.470515,97.99,1
226577,1,8207,0,53646,57127,53903.91,57100.36,-257.91,26.64,0.470422,97.99,1
226617,1,8247,0,53650,57135,53903.40,57100.43,-253.40,34.57,0.470333,98.00,1
226658,1,8288,0,53662,57151,53902.92,57100.53,-240.92,50.47,0.470249,98.01,1
226698,1,8328,0,53673,57149,53902.46,57100.62,-229.46,48.38,0.470169,98.02,1
226738,1,8368,0,53676,57163,53902.01,57100.75,-226.01,62.25,0.470092,98.02,1
226778,1,8408,0,53692,57182,53901.59,57100.91,-209.59,81.09,0.470019,98.03,1
226818,1,8448,0,53700,57212,53901.19,57101.14,-201.19,110.86,0.469948,98.04,1
226858,1,8488,0,53716,57254,53900.82,57101.45,-184.82,152.55,0.469881,98.04,1
226898,1,8528,0,53738,57289,53900.50,57101.82,-162.50,187.18,0.469814,98.05,1
226938,1,8568,0,53759,57318,53900.21,57102.25,-141.21,215.75,0.469749,98.06,1
226978,1,8608,0,53775,57353,53899.96,57102.76,-124.96,250.24,0.469684,98.06,1
227018,1,8648,0,53796,57393,53899.76,57103.34,-103.76,289.66,0.469620,98.07,1
227058,1,8688,0,53803,57378,53899.57,57103.89,-96.57,274.11,0.469555,98.07,1
227098,1,8728,0,53773,57262,53899.32,57104.21,-126.32,157.79,0.469491,98.08,1
227138,1,8768,0,53737,57194,53898.99,57104.39,-161.99,89.61,0.469429,98.08,1
227178,1,8808,0,53730,57191,53898.66,57104.56,-168.66,86.44,0.469370,98.09,1
227218,1,8848,0,53739,57198,53898.34,57104.75,-159.34,93.25,0.469313,98.10,1
227258,1,8888,0,53752,57209,53898.05,57104.96,-146.05,104.04,0.469257,98.10,1
227298,1,8928,0,53758,57215,53897.77,57105.18,-139.77,109.82,0.469203,98.11,1
227338,1,8968,0,53774,57240,53897.52,57105.45,-123.52,134.55,0.469150,98.11,1
227378,1,9008,0,53786,57271,53897.30,57105.79,-111.30,165.21,0.469098,98.12,1
227418,1,9048,0,53799,57303,53897.11,57106.18,-98.11,196.82,0.469046,98.12,1
227458,1,9088,0,53819,57334,53896.95,57106.64,-77.95,227.36,0.468994,98.13,1
227498,1,9128,0,53840,57364,53896.84,57107.15,-56.84,256.85,0.468942,98.13,1
227538,1,9168,0,53860,57400,53896.76,57107.74,-36.76,292.26,0.468888,98.13,1
227578,1,9208,0,53868,57434,53896.71,57108.39,-28.71,325.61,0.468833,98.14,1
227618,1,9248,0,53885,57478,53896.68,57109.13,-11.68,368.87,0.468777,98.14,1
227658,1,9288,0,53903,57512,53896.70,57109.94,6.30,402.06,0.468717,98.15,1
227698,1,9328,0,53913,57542,53896.73,57110.81,16.27,431.19,0.468656,98.15,1
227739,1,9369,0,53929,57573,53896.80,57111.73,32.20,461.27,0.468591,98.16,1
227779,1,9409,0,53936,57544,53896.88,57112.60,39.12,431.40,0.468524,98.16,1
227819,1,9449,0,53904,57442,53896.89,57113.26,7.11,328.74,0.468455,98.16,1
227859,1,9489,0,53863,57381,53896.83,57113.80,-33.83,267.20,0.468386,98.17,1
227899,1,9529,0,53853,57381,53896.74,57114.33,-43.74,266.67,0.468315,98.17,1
227939,1,9569,0,53854,57389,53896.66,57114.88,-42.66,274.12,0.468244,98.17,1
227979,1,9609,0,53863,57387,53896.59,57115.43,-33.59,271.57,0.468173,98.18,1
228019,1,9649,0,53868,57404,53896.54,57116.01,-28.54,287.99,0.468100,98.18,1
228059,1,9689,0,53884,57434,53896.51,57116.64,-12.51,317.36,0.468025,98.19,1
228099,1,9729,0,53890,57455,53896.50,57117.32,-6.50,337.68,0.467949,98.19,1
228139,1,9769,0,53900,57475,53896.51,57118.04,3.49,356.96,0.467871,98.19,1
228179,1,9809,0,53916,57502,53896.55,57118.81,19.45,383.19,0.467792,98.20,1
228219,1,9849,0,53927,57525,53896.61,57119.62,30.39,405.37,0.467709,98.20,1
228259,1,9889,0,53945,57566,53896.71,57120.52,48.29,445.48,0.467624,98.20,1
228299,1,9929,0,53960,57597,53896.84,57121.47,63.16,475.53,0.467536,98.21,1
228339,1,9969,0,53985,57640,53897.01,57122.51,87.99,517.49,0.467444,98.21,1
228379,1,10009,0,53999,57674,53897.22,57123.62,101.78,550.38,0.467348,98.21,1
228419,1,10049,0,54013,57712,53897.45,57124.80,115.55,587.20,0.467249,98.22,1
228459,1,10089,0,54024,57752,53897.71,57126.05,126.29,625.95,0.467144,98.22,1
228499,1,10129,0,54048,57780,53898.01,57127.36,149.99,652.64,0.467036,98.22,1
228539,1,10169,0,54052,57751,53898.32,57128.61,153.68,622.39,0.466923,98.22,1
228579,1,10209,0,54016,57643,53898.55,57129.64,117.45,513.36,0.466808,98.23,1
228619,1,10249,0,53979,57590,53898.72,57130.57,80.28,459.43,0.466691,98.23,1
228659,1,10289,0,53971,57590,53898.86,57131.49,72.14,458.51,0.466571,98.23,1
228699,1,10329,0,53977,57592,53899.02,57132.41,77.98,459.59,0.466448,98.24,1
228739,1,10369,0,53975,57592,53899.17,57133.33,75.83,458.67,0.466323,98.24,1
228780,1,10410,0,53980,57603,53899.34,57134.27,80.66,468.73,0.466195,98.24,1
228820,1,10450,0,53990,57626,53899.52,57135.26,90.48,490.74,0.466064,98.25,1
228860,1,10490,0,53996,57645,53899.71,57136.28,96.29,508.72,0.465931,98.25,1
228900,1,10530,0,54007,57667,53899.93,57137.34,107.07,529.66,0.465794,98.25,1
228940,1,10570,0,54020,57692,53900.17,57138.45,119.83,553.55,0.465655,98.26,1
228980,1,10610,0,54026,57722,53900.43,57139.62,125.57,582.38,0.465511,98.26,1
229020,1,10650,0,54043,57761,53900.71,57140.86,142.29,620.14,0.465364,98.26,1
229060,1,10690,0,54065,57797,53901.04,57142.18,163.96,654.82,0.465213,98.27,1
229100,1,10730,0,54082,57841,53901.40,57143.57,180.60,697.43,0.465059,98.27,1
229140,1,10770,0,54097,57876,53901.80,57145.04,195.20,730.96,0.464900,98.27,1
229180,1,10810,0,54113,57917,53902.22,57146.59,210.78,770.41,0.464736,98.28,1
229220,1,10850,0,54132,57949,53902.68,57148.19,229.32,800.81,0.464569,98.28,1
229260,1,10890,0,54146,57975,53903.17,57149.85,242.83,825.15,0.464397,98.28,1
229300,1,10930,0,54144,57916,53903.65,57151.38,240.35,764.62,0.464223,98.29,1
229340,1,10970,0,54112,57819,53904.07,57152.72,207.93,666.28,0.464047,98.29,1
229380,1,11010,0,54088,57790,53904.44,57154.00,183.56,636.00,0.463869,98.29,1
229420,1,11050,0,54079,57797,53904.79,57155.29,174.21,641.71,0.463689,98.30,1
229460,1,11090,0,54090,57810,53905.16,57156.60,184.84,653.40,0.463506,98.30,1
229500,1,11130,0,54092,57828,53905.54,57157.94,186.46,670.06,0.463320,98.30,1
229540,1,11170,0,54100,57852,53905.93,57159.33,194.07,692.67,0.463132,98.31,1
229580,1,11210,0,54117,57873,53906.35,57160.76,210.65,712.24,0.462941,98.31,1
229620,1,11250,0,54118,57879,53906.78,57162.20,211.22,716.80,0.462748,98.31,1
229660,1,11290,0,54123,57888,53907.21,57163.65,215.79,724.35,0.462552,98.32,1
229700,1,11330,0,54129,57909,53907.66,57165.14,221.34,743.86,0.462354,98.32,1
229740,1,11370,0,54136,57936,53908.11,57166.69,227.89,769.31,0.462154,98.32,1
229780,1,11410,0,54150,57958,53908.60,57168.27,241.40,789.73,0.461950,98.33,1
229820,1,11450,0,54153,57979,53909.09,57169.89,243.91,809.11,0.461745,98.33,1
229861,1,11491,0,54158,58003,53909.59,57171.56,248.41,831.44,0.461536,98.34,1
229901,1,11531,0,54168,58027,53910.11,57173.27,257.89,853.73,0.461325,98.34,1
229941,1,11571,0,54174,58050,53910.63,57175.03,263.37,874.97,0.461110,98.34,1
229981,1,11611,0,54182,58075,53911.18,57176.83,270.82,898.17,0.460893,98.35,1
230021,1,11651,0,54179,58034,53911.71,57178.54,267.29,855.46,0.460673,98.35,1
230061,1,11691,0,54135,57919,53912.16,57180.02,222.84,738.98,0.460452,98.36,1
230101,1,11731,0,54101,57869,53912.54,57181.40,188.46,687.60,0.460228,98.36,1
230141,1,11771,0,54098,57861,53912.91,57182.76,185.09,678.24,0.460003,98.36,1
230181,1,11811,0,54100,57867,53913.29,57184.13,186.71,682.87,0.459775,98.37,1
230221,1,11851,0,54097,57867,53913.65,57185.50,183.35,681.50,0.459546,98.37,1
230261,1,11891,0,54091,57879,53914.01,57186.89,176.99,692.11,0.459313,98.38,1
230301,1,11931,0,54104,57893,53914.39,57188.30,189.61,704.70,0.459079,98.38,1
230341,1,11971,0,54109,57905,53914.78,57189.73,194.22,715.27,0.458842,98.39,1
230381,1,12011,0,54111,57914,53915.18,57191.18,195.82,722.82,0.458603,98.39,1
230421,1,12051,0,54120,57934,53915.59,57192.67,204.41,741.33,0.458362,98.40,1
230461,1,12091,0,54130,57950,53916.02,57194.19,213.98,755.81,0.458119,98.40,1
230501,1,12131,0,54139,57974,53916.46,57195.75,222.54,778.25,0.457874,98.40,1
230541,1,12171,0,54149,58004,53916.93,57197.37,232.07,806.63,0.457626,98.41,1
230581,1,12211,0,54161,58031,53917.42,57199.04,243.58,831.96,0.457377,98.41,1
230621,1,12251,0,54168,58062,53917.92,57200.76,250.08,861.24,0.457125,98.42,1
230661,1,12291,0,54175,58079,53918.44,57202.52,256.56,876.48,0.456871,98.42,1
230701,1,12331,0,54186,58101,53918.97,57204.32,267.03,896.68,0.456615,98.43,1
230741,1,12371,0,54200,58129,53919.54,57206.17,280.46,922.83,0.456357,98.43,1
230781,1,12411,0,54198,58097,53920.09,57207.95,277.91,889.05,0.456098,98.44,1
230821,1,12451,0,54163,57970,53920.58,57209.48,242.42,760.52,0.455839,98.44,1
230861,1,12491,0,54113,57891,53920.97,57210.84,192.03,680.16,0.455578,98.45,1
230901,1,12531,0,54095,57873,53921.32,57212.16,173.68,660.84,0.455316,98.45,1
230941,1,12571,0,54094,57870,53921.66,57213.48,172.34,656.52,0.455053,98.46,1
230982,1,12612,0,54095,57861,53922.01,57214.78,172.99,646.22,0.454788,98.46,1
231022,1,12652,0,54091,57862,53922.35,57216.07,168.65,645.93,0.454522,98.47,1
231062,1,12692,0,54089,57870,53922.69,57217.38,166.31,652.62,0.454255,98.47,1
231102,1,12732,0,54092,57879,53923.03,57218.71,168.97,660.29,0.453986,98.48,1
231142,1,12772,0,54092,57889,53923.37,57220.05,168.63,668.95,0.453715,98.48,1
231182,1,12812,0,54102,57905,53923.73,57221.42,178.27,683.58,0.453443,98.49,1
231222,1,12852,0,54102,57918,53924.09,57222.82,177.91,695.18,0.453169,98.50,1
231262,1,12892,0,54119,57953,53924.48,57224.28,194.52,728.72,0.452893,98.50,1
231302,1,12932,0,54135,57986,53924.90,57225.80,210.10,760.20,0.452616,98.51,1
231342,1,12972,0,54144,58017,53925.34,57227.38,218.66,789.62,0.452337,98.51,1
231382,1,13012,0,54155,58049,53925.80,57229.03,229.20,819.97,0.452057,98.52,1
231422,1,13052,0,54171,58073,53926.29,57230.71,244.71,842.29,0.451775,98.52,1
231462,1,13092,0,54178,58099,53926.80,57232.45,251.20,866.55,0.451492,98.53,1
231502,1,13132,0,54193,58116,53927.33,57234.22,265.67,881.78,0.451208,98.53,1
231542,1,13172,0,54204,58150,53927.89,57236.05,276.11,913.95,0.450923,98.54,1
231582,1,13212,0,54218,58152,53928.47,57237.89,289.53,914.11,0.450638,98.55,1
231622,1,13252,0,54196,58036,53929.00,57239.48,267.00,796.52,0.450353,98.55,1
231662,1,13292,0,54135,57914,53929.42,57240.84,205.58,673.16,0.450069,98.56,1
231702,1,13332,0,54109,57875,53929.78,57242.11,179.22,632.89,0.449784,98.56,1
231742,1,13372,0,54102,57871,53930.12,57243.36,171.87,627.64,0.449499,98.57,1
231782,1,13412,0,54103,57867,53930.47,57244.61,172.53,622.39,0.449213,98.58,1
231822,1,13452,0,54107,57854,53930.83,57245.83,176.17,608.17,0.448928,98.58,1
231862,1,13492,0,54107,57859,53931.18,57247.06,175.82,611.94,0.448641,98.59,1
231902,1,13532,0,54110,57864,53931.54,57248.29,178.46,615.71,0.448355,98.59,1
231942,1,13572,0,54103,57870,53931.89,57249.54,171.11,620.46,0.448068,98.60,1
231982,1,13612,0,54109,57879,53932.24,57250.80,176.76,628.20,0.447781,98.61,1
232022,1,13652,0,54107,57894,53932.59,57252.09,174.41,641.91,0.447493,98.61,1
232062,1,13692,0,54118,57920,53932.96,57253.43,185.04,666.57,0.447205,98.62,1
232103,1,13733,0,54131,57940,53933.36,57254.80,197.64,685.20,0.446916,98.62,1
232143,1,13773,0,54142,57976,53933.78,57256.25,208.22,719.75,0.446627,98.63,1
232183,1,13813,0,54153,58003,53934.22,57257.74,218.78,745.26,0.446337,98.64,1
232223,1,13853,0,54159,58026,53934.67,57259.28,224.33,766.72,0.446047,98.64,1
232263,1,13893,0,54172,58055,53935.15,57260.87,236.85,794.12,0.445757,98.65,1
232303,1,13933,0,54181,58076,53935.64,57262.51,245.36,813.49,0.445466,98.66,1
232343,1,13973,0,54188,58108,53936.15,57264.20,251.85,843.80,0.445175,98.66,1
232383,1,14013,0,54203,58126,53936.68,57265.93,266.32,860.07,0.444883,98.67,1
232423,1,14053,0,54211,58112,53937.23,57267.62,273.77,844.38,0.444593,98.68,1
232463,1,14093,0,54175,57960,53937.71,57269.01,237.29,690.99,0.444304,98.68,1
232503,1,14133,0,54109,57852,53938.05,57270.18,170.95,581.82,0.444014,98.69,1
232543,1,14173,0,54086,57822,53938.35,57271.28,147.65,550.72,0.443725,98.70,1
232583,1,14213,0,54088,57820,53938.65,57272.38,149.35,547.62,0.443436,98.70,1
232623,1,14253,0,54094,57826,53938.96,57273.49,155.04,552.51,0.443147,98.71,1
232663,1,14293,0,54099,57825,53939.29,57274.59,159.71,550.41,0.442857,98.72,1
232703,1,14333,0,54103,57832,53939.61,57275.71,163.39,556.29,0.442568,98.72,1
232743,1,14373,0,54110,57830,53939.96,57276.82,170.04,553.18,0.442280,98.73,1
232783,1,14413,0,54108,57839,53940.29,57277.95,167.71,561.05,0.441992,98.74,1
232823,1,14453,0,54116,57851,53940.64,57279.09,175.36,571.91,0.441704,98.74,1
232863,1,14493,0,54118,57865,53941.00,57280.27,177.00,584.73,0.441417,98.75,1
232903,1,14533,0,54128,57896,53941.37,57281.50,186.62,614.50,0.441130,98.76,1
232943,1,14573,0,54144,57918,53941.78,57282.77,202.22,635.23,0.440844,98.76,1
232983,1,14613,0,54153,57947,53942.21,57284.10,210.79,662.90,0.440558,98.77,1
233023,1,14653,0,54167,57979,53942.66,57285.49,224.34,693.51,0.440273,98.78,1
233063,1,14693,0,54175,58004,53943.12,57286.93,231.88,717.07,0.439989,98.78,1
233103,1,14733,0,54182,58026,53943.60,57288.41,238.40,737.59,0.439706,98.79,1
233143,1,14773,0,54195,58050,53944.11,57289.93,250.89,760.07,0.439424,98.80,1
233184,1,14814,0,54202,58075,53944.62,57291.50,257.38,783.50,0.439142,98.80,1
233224,1,14854,0,54213,58093,53945.16,57293.11,267.84,799.89,0.438863,98.81,1
233264,1,14894,0,54206,58008,53945.68,57294.54,260.32,713.46,0.438585,98.82,1
233304,1,14934,0,54144,57834,53946.08,57295.62,197.92,538.38,0.438309,98.82,1
233344,1,14974,0,54082,57749,53946.36,57296.53,135.64,452.47,0.438033,98.83,1
233384,1,15014,0,54068,57739,53946.60,57297.42,121.40,441.58,0.437758,98.84,1
233424,1,15054,0,54076,57742,53946.86,57298.31,129.14,443.69,0.437483,98.84,1
233464,1,15094,0,54085,57749,53947.14,57299.21,137.86,449.79,0.437209,98.85,1
233504,1,15134,0,54089,57756,53947.43,57300.12,141.57,455.87,0.436935,98.86,1
233544,1,15174,0,54098,57770,53947.73,57301.07,150.27,468.93,0.436662,98.86,1
233584,1,15214,0,54097,57767,53948.03,57302.00,148.97,465.00,0.436390,98.87,1
233624,1,15254,0,54103,57777,53948.34,57302.95,154.66,474.05,0.436119,98.88,1
233664,1,15294,0,54107,57785,53948.66,57303.92,158.34,481.08,0.435848,98.88,1
233704,1,15334,0,54116,57806,53949.00,57304.92,167.00,501.08,0.435579,98.89,1
233744,1,15374,0,54132,57831,53949.36,57305.98,182.64,525.02,0.435311,98.90,1
233784,1,15414,0,54149,57858,53949.77,57307.08,199.23,550.92,0.435044,98.90,1
233824,1,15454,0,54158,57879,53950.18,57308.23,207.82,570.77,0.434779,98.91,1
233864,1,15494,0,54169,57910,53950.62,57309.43,218.38,600.57,0.434516,98.92,1
233904,1,15534,0,54179,57933,53951.08,57310.68,227.92,622.32,0.434255,98.92,1
233944,1,15574,0,54190,57946,53951.56,57311.95,238.44,634.05,0.433997,98.93,1
233984,1,15614,0,54196,57961,53952.05,57313.25,243.95,647.75,0.433740,98.94,1
234024,1,15654,0,54203,57976,53952.55,57314.58,250.45,661.42,0.433487,98.94,1
234064,1,15694,0,54197,57906,53953.05,57315.77,243.95,590.23,0.433236,98.95,1
234104,1,15734,0,54139,57720,53953.42,57316.57,185.58,403.43,0.432988,98.96,1
234144,1,15774,0,54068,57606,53953.65,57317.16,114.35,288.84,0.432741,98.97,1
234184,1,15814,0,54050,57581,53953.85,57317.68,96.15,263.32,0.432496,98.97,1
234225,1,15855,0,54046,57585,53954.04,57318.22,91.96,266.78,0.432250,98.98,1
234265,1,15895,0,54055,57586,53954.24,57318.75,100.76,267.25,0.432007,98.99,1
234305,1,15935,0,54059,57596,53954.45,57319.31,104.55,276.69,0.431764,98.99,1
234345,1,15975,0,54060,57599,53954.66,57319.87,105.34,279.13,0.431522,99.00,1
234385,1,16015,0,54057,57588,53954.87,57320.41,102.13,267.59,0.431281,99.00,1
234425,1,16055,0,54051,57584,53955.06,57320.94,95.94,263.06,0.431041,99.01,1
234465,1,16095,0,54057,57589,53955.27,57321.48,101.73,267.52,0.430802,99.02,1
234505,1,16135,0,54068,57609,53955.50,57322.05,112.50,286.95,0.430564,99.02,1
234545,1,16175,0,54080,57641,53955.75,57322.70,124.25,318.30,0.430328,99.03,1
234585,1,16215,0,54091,57669,53956.02,57323.39,134.98,345.61,0.430092,99.04,1
234625,1,16255,0,54107,57706,53956.32,57324.16,150.68,381.84,0.429859,99.04,1
234665,1,16295,0,54120,57726,53956.65,57324.96,163.35,401.04,0.429627,99.05,1
234705,1,16335,0,54127,57752,53957.00,57325.82,170.00,426.18,0.429397,99.06,1
234745,1,16375,0,54142,57771,53957.37,57326.71,184.63,444.29,0.429169,99.06,1
234785,1,16415,0,54152,57741,53957.76,57327.54,194.24,413.46,0.428945,99.07,1
234825,1,16455,0,54115,57562,53958.07,57328.00,156.93,234.00,0.428723,99.08,1
234865,1,16495,0,54038,57411,53958.23,57328.17,79.77,82.83,0.428502,99.08,1
234905,1,16535,0,54001,57374,53958.32,57328.27,42.68,45.73,0.428283,99.09,1
234945,1,16575,0,53999,57380,53958.40,57328.37,40.60,51.63,0.428064,99.10,1
234985,1,16615,0,54008,57382,53958.50,57328.48,49.50,53.52,0.427847,99.10,1
235025,1,16655,0,54016,57400,53958.62,57328.62,57.38,71.37,0.427630,99.11,1
235065,1,16695,0,54031,57412,53958.77,57328.79,72.23,83.21,0.427414,99.11,1
235105,1,16735,0,54032,57401,53958.91,57328.94,73.09,72.06,0.427200,99.12,1
235145,1,16775,0,54029,57399,53959.05,57329.08,69.95,69.92,0.426987,99.13,1
235185,1,16815,0,54028,57400,53959.20,57329.22,68.80,70.78,0.426775,99.13,1
235225,1,16855,0,54032,57422,53959.34,57329.41,72.66,92.59,0.426565,99.14,1
235265,1,16895,0,54048,57450,53959.52,57329.65,88.48,120.35,0.426356,99.14,1
235306,1,16936,0,54060,57480,53959.73,57329.95,100.27,150.05,0.426148,99.15,1
235346,1,16976,0,54077,57515,53959.96,57330.32,117.04,184.68,0.425943,99.16,1
235386,1,17016,0,54094,57544,53960.23,57330.75,133.77,213.25,0.425740,99.16,1
235426,1,17056,0,54102,57570,53960.52,57331.23,141.48,238.77,0.425540,99.17,1
235466,1,17096,0,54110,57585,53960.82,57331.74,149.18,253.26,0.425342,99.17,1
235506,1,17136,0,54097,57438,53961.09,57331.96,135.91,106.04,0.425148,99.18,1
235546,1,17176,0,54015,57242,53961.20,57331.78,53.80,-89.78,0.424954,99.19,1
235586,1,17216,0,53958,57158,53961.20,57331.43,-3.20,-173.43,0.424761,99.19,1
235626,1,17256,0,53951,57150,53961.18,57331.07,-10.18,-181.07,0.424567,99.20,1
235666,1,17296,0,53962,57155,53961.18,57330.71,0.82,-175.71,0.424374,99.20,1
235706,1,17336,0,53968,57155,53961.20,57330.36,6.80,-175.36,0.424180,99.21,1
235746,1,17376,0,53970,57171,53961.21,57330.05,8.79,-159.05,0.423987,99.22,1
235786,1,17416,0,53985,57186,53961.27,57329.76,23.73,-143.76,0.423794,99.22,1
235826,1,17456,0,53991,57192,53961.33,57329.49,29.67,-137.49,0.423601,99.23,1
235866,1,17496,0,54002,57198,53961.41,57329.23,40.59,-131.23,0.423409,99.23,1
235906,1,17536,0,54015,57215,53961.52,57329.00,53.48,-114.00,0.423218,99.24,1
235946,1,17576,0,54029,57246,53961.66,57328.84,67.34,-82.84,0.423027,99.24,1
235986,1,17616,0,54046,57278,53961.83,57328.73,84.17,-50.73,0.422839,99.25,1
236026,1,17656,0,54065,57322,53962.04,57328.72,102.96,-6.72,0.422653,99.25,1
236066,1,17696,0,54086,57353,53962.29,57328.77,123.71,24.23,0.422470,99.26,1
236106,1,17736,0,54098,57379,53962.56,57328.87,135.44,50.13,0.422290,99.27,1
236146,1,17776,0,54115,57404,53962.86,57329.03,152.14,74.97,0.422115,99.27,1
236186,1,17816,0,54115,57305,53963.17,57328.98,151.83,-23.98,0.421944,99.28,1
236226,1,17856,0,54041,57066,53963.32,57328.46,77.68,-262.46,0.421773,99.28,1
236266,1,17896,0,53959,56933,53963.32,57327.67,-4.32,-394.67,0.421600,99.29,1
236306,1,17936,0,53928,56900,53963.25,57326.81,-35.25,-426.81,0.421423,99.29,1
236346,1,17976,0,53928,56893,53963.18,57325.95,-35.18,-432.95,0.421244,99.30,1
236386,1,18016,0,53925,56876,53963.10,57325.05,-38.10,-449.05,0.421061,99.30,1
236427,1,18057,0,53926,56880,53963.03,57324.16,-37.03,-444.16,0.420875,99.31,1
236467,1,18097,0,53936,56895,53962.98,57323.30,-26.98,-428.30,0.420687,99.31,1
236507,1,18137,0,53945,56903,53962.94,57322.46,-17.94,-419.46,0.420495,99.32,1
236547,1,18177,0,53951,56908,53962.92,57321.64,-11.92,-413.64,0.420300,99.32,1
236587,1,18217,0,53955,56931,53962.90,57320.86,-7.90,-389.86,0.420103,99.33,1
236627,1,18257,0,53972,56966,53962.92,57320.15,9.08,-354.15,0.419904,99.33,1
236667,1,18297,0,53986,56996,53962.97,57319.50,23.03,-323.50,0.419703,99.34,1
236707,1,18337,0,54010,57027,53963.06,57318.92,46.94,-291.92,0.419502,99.34,1
236747,1,18377,0,54030,57068,53963.20,57318.42,66.80,-250.42,0.419301,99.35,1
236787,1,18417,0,54048,57107,53963.37,57318.00,84.63,-211.00,0.419100,99.36,1
236827,1,18457,0,54066,57144,53963.58,57317.65,102.42,-173.65,0.418902,99.36,1
236867,1,18497,0,54081,57128,53963.81,57317.27,117.19,-189.27,0.418706,99.37,1
236907,1,18537,0,54033,56905,53963.95,57316.45,69.05,-411.45,0.418508,99.37,1
236947,1,18577,0,53944,56720,53963.91,57315.25,-19.91,-595.25,0.418304,99.38,1
236987,1,18617,0,53907,56667,53963.80,57313.96,-56.80,-646.96,0.418092,99.38,1
237027,1,18657,0,53904,56662,53963.68,57312.66,-59.68,-650.66,0.417872,99.39,1
237067,1,18697,0,53902,56649,53963.56,57311.33,-61.56,-662.33,0.417645,99.39,1
237107,1,18737,0,53904,56645,53963.45,57310.00,-59.45,-665.00,0.417410,99.40,1
237147,1,18777,0,53904,56671,53963.33,57308.72,-59.33,-637.72,0.417169,99.40,1
237187,1,18817,0,53919,56688,53963.24,57307.48,-44.24,-619.48,0.416921,99.41,1
237227,1,18857,0,53929,56692,53963.18,57306.25,-34.18,-614.25,0.416668,99.41,1
237267,1,18897,0,53944,56715,53963.14,57305.07,-19.14,-590.07,0.416408,99.42,1
237307,1,18937,0,53958,56748,53963.13,57303.96,-5.13,-555.96,0.416143,99.42,1
237347,1,18977,0,53972,56792,53963.15,57302.94,8.85,-510.94,0.415874,99.43,1
237387,1,19017,0,53994,56839,53963.21,57302.01,30.79,-463.01,0.415602,99.43,1
237427,1,19057,0,54017,56888,53963.32,57301.18,53.68,-413.18,0.415329,99.44,1
237467,1,19097,0,54039,56927,53963.48,57300.44,75.52,-373.44,0.415055,99.44,1
237508,1,19138,0,54057,56966,53963.66,57299.77,93.34,-333.77,0.414781,99.45,1
237548,1,19178,0,54072,57008,53963.88,57299.19,108.12,-291.19,0.414508,99.46,1
237588,1,19218,0,54087,56960,53964.13,57298.51,122.87,-338.51,0.414238,99.46,1
237628,1,19258,0,54027,56751,53964.26,57297.42,62.74,-546.42,0.413963,99.47,1
237668,1,19298,0,53950,56647,53964.23,57296.12,-14.23,-649.12,0.413682,99.47,1
237708,1,19338,0,53933,56640,53964.17,57294.80,-31.17,-654.80,0.413393,99.48,1
237748,1,19378,0,53937,56644,53964.11,57293.50,-27.11,-649.50,0.413098,99.48,1
237788,1,19418,0,53948,56654,53964.08,57292.23,-16.08,-638.23,0.412796,99.49,1
237828,1,19458,0,53960,56680,53964.07,57291.00,-4.07,-611.00,0.412488,99.50,1
237868,1,19498,0,53976,56717,53964.10,57289.86,11.90,-572.86,0.412176,99.50,1
237908,1,19538,0,53989,56747,53964.15,57288.77,24.85,-541.77,0.411860,99.51,1
237948,1,19578,0,54003,56775,53964.23,57287.74,38.77,-512.74,0.411540,99.51,1
237988,1,19618,0,54020,56811,53964.34,57286.79,55.66,-475.79,0.411218,99.52,1
238028,1,19658,0,54041,56851,53964.50,57285.92,76.50,-434.92,0.410895,99.53,1
238068,1,19698,0,54065,56906,53964.70,57285.16,100.30,-379.16,0.410572,99.53,1
238108,1,19738,0,54094,56958,53964.96,57284.51,129.04,-326.51,0.410252,99.54,1
238148,1,19778,0,54114,57011,53965.26,57283.96,148.74,-272.96,0.409937,99.55,1
238188,1,19818,0,54132,57050,53965.60,57283.50,166.40,-233.50,0.409627,99.55,1
238228,1,19858,0,54151,57097,53965.97,57283.12,185.03,-186.12,0.409325,99.56,1
238268,1,19898,0,54167,57144,53966.37,57282.85,200.63,-138.85,0.409032,99.57,1
238308,1,19938,0,54176,57098,53966.79,57282.48,209.21,-184.48,0.408749,99.57,1
238348,1,19978,0,54129,56937,53967.12,57281.79,161.88,-344.79,0.408470,99.58,1
238388,1,20018,0,54077,56864,53967.34,57280.95,109.66,-416.95,0.408191,99.58,1
238428,1,20058,0,54063,56867,53967.53,57280.12,95.47,-413.12,0.407912,99.59,1
238468,1,20098,0,54074,56892,53967.75,57279.35,106.25,-387.35,0.407633,99.60,1
238508,1,20138,0,54077,56909,53967.96,57278.61,109.04,-369.61,0.407355,99.60,1
238548,1,20178,0,54082,56936,53968.20,57277.93,113.80,-341.93,0.407078,99.61,1
238588,1,20218,0,54099,56964,53968.46,57277.30,130.54,-313.30,0.406804,99.62,1
238629,1,20259,0,54108,56982,53968.74,57276.71,139.26,-294.71,0.406534,99.62,1
238669,1,20299,0,54113,57003,53969.03,57276.17,143.97,-273.17,0.406267,99.63,1
238709,1,20339,0,54120,57033,53969.33,57275.68,150.67,-242.68,0.406005,99.64,1
238749,1,20379,0,54136,57077,53969.67,57275.29,166.33,-198.29,0.405749,99.64,1
238789,1,20419,0,54153,57126,53970.04,57274.99,182.96,-148.99,0.405501,99.65,1
238829,1,20459,0,54171,57175,53970.44,57274.79,200.56,-99.79,0.405263,99.66,1
238869,1,20499,0,54192,57217,53970.88,57274.68,221.12,-57.68,0.405036,99.66,1
238909,1,20539,0,54207,57259,53971.36,57274.65,235.64,-15.65,0.404822,99.67,1
238949,1,20579,0,54230,57302,53971.87,57274.70,258.12,27.30,0.404624,99.68,1
238989,1,20619,0,54240,57295,53972.41,57274.75,267.59,20.25,0.404442,99.68,1
239029,1,20659,0,54204,57172,53972.88,57274.54,231.12,-102.54,0.404273,99.69,1
239069,1,20699,0,54153,57094,53973.24,57274.18,179.76,-180.18,0.404110,99.70,1
239109,1,20739,0,54143,57098,53973.58,57273.83,169.42,-175.83,0.403953,99.70,1
239149,1,20779,0,54149,57119,53973.93,57273.52,175.07,-154.52,0.403803,99.71,1
239189,1,20819,0,54158,57128,53974.30,57273.23,183.70,-145.23,0.403661,99.71,1
239229,1,20859,0,54165,57156,53974.69,57273.00,190.31,-117.00,0.403526,99.72,1
239269,1,20899,0,54177,57182,53975.09,57272.82,201.91,-90.82,0.403401,99.73,1
239309,1,20939,0,54191,57203,53975.53,57272.68,215.47,-69.68,0.403287,99.73,1
239349,1,20979,0,54198,57227,53975.97,57272.59,222.03,-45.59,0.403184,99.74,1
239389,1,21019,0,54208,57261,53976.44,57272.57,231.56,-11.57,0.403094,99.74,1
239429,1,21059,0,54216,57301,53976.92,57272.63,239.08,28.37,0.403016,99.75,1
239469,1,21099,0,54237,57345,53977.44,57272.77,259.56,72.23,0.402954,99.75,1
239509,1,21139,0,54253,57384,53977.99,57273.00,275.01,111.00,0.402908,99.76,1
239549,1,21179,0,54272,57428,53978.58,57273.31,293.42,154.69,0.402881,99.76,1
239589,1,21219,0,54281,57455,53979.19,57273.67,301.81,181.33,0.402873,99.77,1
239629,1,21259,0,54294,57502,53979.82,57274.13,314.18,227.87,0.402884,99.77,1
239669,1,21299,0,54306,57524,53980.47,57274.63,325.53,249.37,0.402917,99.78,1
239709,1,21339,0,54303,57454,53981.12,57274.99,321.88,179.01,0.402971,99.78,1
239750,1,21380,0,54255,57330,53981.67,57275.10,273.33,54.90,0.403040,99.79,1
239790,1,21420,0,54211,57282,53982.13,57275.12,228.87,6.88,0.403120,99.79,1
239830,1,21460,0,54209,57285,53982.59,57275.14,226.41,9.86,0.403211,99.79,1
239870,1,21500,0,54205,57292,53983.03,57275.17,221.97,16.83,0.403312,99.80,1
239910,1,21540,0,54208,57299,53983.48,57275.22,224.52,23.78,0.403424,99.80,1
239950,1,21580,0,54208,57323,53983.93,57275.32,224.07,47.68,0.403546,99.81,1
239990,1,21620,0,54220,57355,53984.41,57275.48,235.59,79.52,0.403679,99.81,1
240030,1,21660,0,54231,57377,53984.90,57275.68,246.10,101.32,0.403824,99.81,1
240070,1,21700,0,54241,57405,53985.41,57275.95,255.59,129.05,0.403983,99.81,1
240110,1,21740,0,54255,57434,53985.95,57276.26,269.05,157.74,0.404155,99.82,1
240150,1,21780,0,54265,57475,53986.51,57276.66,278.49,198.34,0.404342,99.82,1
240190,1,21820,0,54287,57522,53987.11,57277.15,299.89,244.85,0.404545,99.82,1
240230,1,21860,0,54301,57569,53987.74,57277.74,313.26,291.26,0.404764,99.82,1
240270,1,21900,0,54322,57604,53988.41,57278.39,333.59,325.61,0.405002,99.82,1
240310,1,21940,0,54335,57638,53989.11,57279.11,345.89,358.89,0.405258,99.83,1
240350,1,21980,0,54355,57672,53989.84,57279.90,365.16,392.10,0.405534,99.83,1
240390,1,22020,0,54371,57707,53990.61,57280.75,380.39,426.25,0.405830,99.83,1
240430,1,22060,0,54385,57741,53991.39,57281.68,393.61,459.32,0.406147,99.83,1
240470,1,22100,0,54389,57676,53992.19,57282.46,396.81,393.54,0.406486,99.83,1
240510,1,22140,0,54340,57549,53992.89,57283.00,347.11,266.00,0.406844,99.83,1
240550,1,22180,0,54296,57505,53993.50,57283.45,302.50,221.55,0.407217,99.83,1
240590,1,22220,0,54292,57501,53994.09,57283.88,297.91,217.12,0.407603,99.83,1
240630,1,22260,0,54290,57502,53994.69,57284.32,295.31,217.68,0.408002,99.83,1
240670,1,22300,0,54291,57498,53995.28,57284.75,295.72,213.25,0.408415,99.83,1
240710,1,22340,0,54291,57513,53995.87,57285.21,295.12,227.79,0.408841,99.82,1
240750,1,22380,0,54302,57533,53996.49,57285.70,305.51,247.30,0.409280,99.82,1
240790,1,22420,0,54300,57555,53997.10,57286.24,302.90,268.76,0.409731,99.82,1
240830,1,22460,0,54307,57572,53997.72,57286.82,309.28,285.18,0.410195,99.82,1
240870,1,22500,0,54311,57596,53998.35,57287.44,312.65,308.56,0.410671,99.82,1
240910,1,22540,0,54322,57620,53999.00,57288.11,323.00,331.89,0.411159,99.81,1
240951,1,22581,0,54332,57653,53999.66,57288.84,332.34,364.16,0.411659,99.81,1
240991,1,22621,0,54351,57689,54000.37,57289.64,350.63,399.36,0.412172,99.81,1
241031,1,22661,0,54361,57724,54001.09,57290.51,359.91,433.49,0.412696,99.80,1
241071,1,22701,0,54371,57759,54001.83,57291.45,369.17,467.55,0.413232,99.80,1
241111,1,22741,0,54381,57799,54002.59,57292.46,378.41,506.54,0.413777,99.79,1
241151,1,22781,0,54392,57826,54003.37,57293.53,388.63,532.47,0.414331,99.79,1
241191,1,22821,0,54404,57859,54004.17,57294.66,399.83,564.34,0.414894,99.78,1
241231,1,22861,0,54421,57896,54005.01,57295.87,415.99,600.13,0.415465,99.78,1
241271,1,22901,0,54435,57922,54005.87,57297.12,429.13,624.88,0.416044,99.77,1
241311,1,22941,0,54433,57859,54006.73,57298.25,426.27,560.75,0.416635,99.77,1
241351,1,22981,0,54382,57749,54007.48,57299.15,374.52,449.85,0.417235,99.76,1
241391,1,23021,0,54351,57714,54008.16,57299.98,342.84,414.02,0.417843,99.76,1
241431,1,23061,0,54355,57717,54008.86,57300.82,346.14,416.18,0.418459,99.75,1
241471,1,23101,0,54355,57727,54009.55,57301.67,345.45,425.33,0.419083,99.74,1
241511,1,23141,0,54365,57724,54010.27,57302.52,354.73,421.48,0.419715,99.74,1
241551,1,23181,0,54368,57748,54010.98,57303.41,357.02,444.59,0.420354,99.73,1
241591,1,23221,0,54378,57769,54011.72,57304.34,366.28,464.66,0.421000,99.72,1
241631,1,23261,0,54384,57785,54012.46,57305.30,371.54,479.70,0.421653,99.71,1
241671,1,23301,0,54390,57810,54013.22,57306.32,376.78,503.68,0.422312,99.70,1
241711,1,23341,0,54399,57836,54014.00,57307.38,385.00,528.62,0.422976,99.70,1
241751,1,23381,0,54407,57869,54014.79,57308.50,392.21,560.50,0.423643,99.69,1
241791,1,23421,0,54418,57905,54015.59,57309.70,402.41,595.30,0.424314,99.68,1
241831,1,23461,0,54434,57932,54016.43,57310.95,417.57,621.05,0.424987,99.67,1
241871,1,23501,0,54446,57962,54017.29,57312.25,428.71,649.75,0.425661,99.66,1
241911,1,23541,0,54457,57987,54018.17,57313.60,438.83,673.40,0.426337,99.65,1
241951,1,23581,0,54459,58019,54019.05,57315.02,439.95,703.98,0.427012,99.64,1
241991,1,23621,0,54471,58043,54019.96,57316.47,451.04,726.53,0.427685,99.63,1
242031,1,23661,0,54476,58065,54020.87,57317.97,455.12,747.03,0.428356,99.62,1
242071,1,23701,0,54485,58095,54021.80,57319.53,463.20,775.47,0.429024,99.61,1
242112,1,23742,0,54496,58115,54022.75,57321.12,473.25,793.88,0.429687,99.60,1
242152,1,23782,0,54493,58077,54023.70,57322.63,469.30,754.37,0.430350,99.59,1
242192,1,23822,0,54454,57976,54024.56,57323.94,429.44,652.06,0.431014,99.58,1
242232,1,23862,0,54419,57927,54025.35,57325.15,393.65,601.85,0.431678,99.57,1
242272,1,23902,0,54407,57925,54026.11,57326.35,380.89,598.65,0.432341,99.56,1
242312,1,23942,0,54406,57932,54026.87,57327.56,379.12,604.44,0.433003,99.54,1
242352,1,23982,0,54413,57935,54027.65,57328.78,385.35,606.22,0.433664,99.53,1
242392,1,24022,0,54414,57945,54028.42,57330.01,385.58,614.99,0.434324,99.52,1
242432,1,24062,0,54424,57961,54029.21,57331.27,394.79,629.73,0.434982,99.51,1
242472,1,24102,0,54426,57974,54030.01,57332.56,395.99,641.44,0.435639,99.50,1
242512,1,24142,0,54428,57984,54030.81,57333.86,397.19,650.14,0.436293,99.49,1
242552,1,24182,0,54432,58002,54031.61,57335.20,400.39,666.80,0.436944,99.47,1
242592,1,24222,0,54438,58026,54032.43,57336.58,405.57,689.42,0.437592,99.46,1
242632,1,24262,0,54451,58053,54033.27,57338.02,417.73,714.98,0.438235,99.45,1
242672,1,24302,0,54460,58076,54034.12,57339.49,425.88,736.51,0.438874,99.44,1
242712,1,24342,0,54471,58098,54035.00,57341.01,436.00,756.99,0.439508,99.42,1
242752,1,24382,0,54479,58122,54035.89,57342.57,443.11,779.43,0.440137,99.41,1
242792,1,24422,0,54486,58136,54036.79,57344.16,449.21,791.84,0.440761,99.40,1
242832,1,24462,0,54488,58153,54037.69,57345.79,450.31,807.21,0.441378,99.38,1
242872,1,24502,0,54493,58176,54038.60,57347.45,454.40,828.55,0.441989,99.37,1
242912,1,24542,0,54500,58188,54039.53,57349.13,460.47,838.87,0.442592,99.36,1
242952,1,24582,0,54485,58108,54040.42,57350.65,444.58,757.35,0.443193,99.34,1
242992,1,24622,0,54441,58030,54041.22,57352.01,399.78,677.99,0.443791,99.33,1
243032,1,24662,0,54420,57996,54041.98,57353.30,378.02,642.70,0.444386,99.32,1
243072,1,24702,0,54417,58002,54042.73,57354.60,374.27,647.40,0.444978,99.31,1
243112,1,24742,0,54418,58003,54043.48,57355.89,374.52,647.11,0.445568,99.29,1
243152,1,24782,0,54422,58012,54044.23,57357.21,377.77,654.79,0.446154,99.28,1
243192,1,24822,0,54418,58019,54044.98,57358.53,373.02,660.47,0.446736,99.27,1
243232,1,24862,0,54419,58029,54045.73,57359.87,373.27,669.12,0.447314,99.25,1
243272,1,24902,0,54421,58031,54046.48,57361.22,374.52,669.78,0.447889,99.24,1
243313,1,24943,0,54427,58050,54047.25,57362.60,379.75,687.40,0.448459,99.22,1
243353,1,24983,0,54434,58059,54048.02,57363.99,385.98,695.01,0.449025,99.21,1
243393,1,25023,0,54432,58086,54048.79,57365.44,383.21,720.56,0.449585,99.20,1
243433,1,25063,0,54442,58113,54049.58,57366.93,392.42,746.07,0.450140,99.18,1
243473,1,25103,0,54455,58147,54050.39,57368.50,404.61,778.50,0.450688,99.17,1
243513,1,25143,0,54459,58167,54051.21,57370.09,407.79,796.91,0.451228,99.16,1
243553,1,25183,0,54468,58195,54052.05,57371.75,415.95,823.25,0.451761,99.14,1
243593,1,25223,0,54475,58213,54052.89,57373.43,422.11,839.57,0.452286,99.13,1
243633,1,25263,0,54485,58239,54053.76,57375.16,431.24,863.84,0.452803,99.12,1
243673,1,25303,0,54498,58245,54054.65,57376.91,443.35,868.09,0.453313,99.10,1
243713,1,25343,0,54481,58158,54055.51,57378.47,425.49,779.53,0.453819,99.09,1
243753,1,25383,0,54432,58063,54056.26,57379.84,375.74,683.16,0.454321,99.08,1
243793,1,25423,0,54400,58028,54056.95,57381.14,343.05,646.86,0.454820,99.06,1
243833,1,25463,0,54399,58020,54057.63,57382.41,341.37,637.59,0.455315,99.05,1
243873,1,25503,0,54401,58020,54058.32,57383.69,342.68,636.31,0.455807,99.04,1
243913,1,25543,0,54398,58012,54059.00,57384.95,339.00,627.05,0.456296,99.02,1
243953,1,25583,0,54400,58020,54059.68,57386.22,340.32,633.78,0.456782,99.01,1
243993,1,25623,0,54406,58028,54060.38,57387.51,345.62,640.49,0.457264,99.00,1
244033,1,25663,0,54407,58037,54061.07,57388.81,345.93,648.19,0.457744,98.98,1
244073,1,25703,0,54410,58046,54061.77,57390.12,348.23,655.87,0.458219,98.97,1
244113,1,25743,0,54414,58064,54062.48,57391.47,351.52,672.53,0.458691,98.96,1
244153,1,25783,0,54417,58082,54063.19,57392.86,353.81,689.14,0.459159,98.94,1
244193,1,25823,0,54428,58110,54063.92,57394.29,364.08,715.71,0.459621,98.93,1
244233,1,25863,0,54437,58139,54064.67,57395.79,372.33,743.21,0.460079,98.92,1
244273,1,25903,0,54447,58163,54065.43,57397.32,381.57,765.68,0.460531,98.90,1
244313,1,25943,0,54452,58190,54066.21,57398.91,385.79,791.09,0.460976,98.89,1
244353,1,25983,0,54460,58208,54067.00,57400.53,393.00,807.47,0.461416,98.88,1
244393,1,26023,0,54462,58230,54067.79,57402.19,394.21,827.81,0.461848,98.87,1
244433,1,26063,0,54472,58253,54068.60,57403.89,403.40,849.11,0.462273,98.85,1
244474,1,26104,0,54468,58178,54069.40,57405.44,398.60,772.56,0.462694,98.84,1
244514,1,26144,0,54410,58035,54070.08,57406.70,339.92,628.30,0.463113,98.83,1
244554,1,26184,0,54361,57965,54070.66,57407.82,290.34,557.18,0.463530,98.82,1
244594,1,26224,0,54343,57934,54071.21,57408.87,271.79,525.12,0.463944,98.80,1
244634,1,26264,0,54332,57932,54071.73,57409.92,260.27,522.08,0.464355,98.79,1
244674,1,26304,0,54328,57924,54072.25,57410.95,255.75,513.05,0.464764,98.78,1
244714,1,26344,0,54326,57921,54072.76,57411.98,253.24,509.02,0.465169,98.77,1
244754,1,26384,0,54328,57928,54073.27,57413.01,254.73,514.99,0.465572,98.75,1
244794,1,26424,0,54331,57931,54073.79,57414.05,257.21,516.95,0.465972,98.74,1
244834,1,26464,0,54337,57945,54074.31,57415.11,262.69,529.89,0.466369,98.73,1
244874,1,26504,0,54339,57956,54074.84,57416.20,264.16,539.80,0.466763,98.72,1
244914,1,26544,0,54342,57988,54075.38,57417.34,266.62,570.66,0.467153,98.71,1
244954,1,26584,0,54354,58012,54075.94,57418.53,278.06,593.47,0.467539,98.69,1
244994,1,26624,0,54363,58040,54076.51,57419.78,286.49,620.22,0.467921,98.68,1
245034,1,26664,0,54380,58072,54077.12,57421.08,302.88,650.92,0.468298,98.67,1
245074,1,26704,0,54390,58100,54077.75,57422.44,312.25,677.56,0.468671,98.66,1
245114,1,26744,0,54405,58122,54078.41,57423.84,326.59,698.16,0.469038,98.65,1
245154,1,26784,0,54415,58142,54079.08,57425.28,335.92,716.72,0.469400,98.64,1
245194,1,26824,0,54419,58170,54079.76,57426.77,339.24,743.23,0.469757,98.63,1
245234,1,26864,0,54422,58159,54080.45,57428.24,341.55,730.76,0.470109,98.61,1
245274,1,26904,0,54391,58017,54081.07,57429.42,309.93,587.58,0.470459,98.60,1
245314,1,26944,0,54328,57896,54081.57,57430.35,246.43,465.65,0.470807,98.59,1
245354,1,26984,0,54295,57846,54082.00,57431.18,213.00,414.82,0.471154,98.58,1
245394,1,27024,0,54286,57843,54082.41,57432.01,203.59,410.99,0.471499,98.57,1
245434,1,27064,0,54291,57832,54082.82,57432.81,208.18,399.19,0.471843,98.56,1
245474,1,27104,0,54284,57828,54083.23,57433.60,200.77,394.40,0.472185,98.55,1
245514,1,27144,0,54285,57832,54083.63,57434.40,201.37,397.60,0.472525,98.54,1
245554,1,27184,0,54287,57838,54084.04,57435.21,202.96,402.79,0.472864,98.53,1
245594,1,27224,0,54284,57845,54084.44,57436.03,199.56,408.97,0.473200,98.52,1
245634,1,27264,0,54290,57860,54084.86,57436.87,205.14,423.12,0.473535,98.50,1
245674,1,27304,0,54293,57873,54085.27,57437.75,207.73,435.25,0.473867,98.49,1
245715,1,27345,0,54297,57895,54085.70,57438.66,211.30,456.34,0.474197,98.48,1
245755,1,27385,0,54308,57919,54086.14,57439.62,221.86,479.37,0.474523,98.47,1
245795,1,27425,0,54313,57940,54086.60,57440.63,226.40,499.37,0.474847,98.46,1
245835,1,27465,0,54324,57972,54087.08,57441.69,236.92,530.31,0.475168,98.45,1
245875,1,27505,0,54330,57992,54087.57,57442.79,242.43,549.21,0.475484,98.44,1
245915,1,27545,0,54340,58016,54088.07,57443.94,251.93,572.06,0.475797,98.43,1
245955,1,27585,0,54347,58037,54088.59,57445.13,258.41,591.87,0.476105,98.42,1
245995,1,27625,0,54347,58051,54089.11,57446.34,257.89,604.66,0.476409,98.41,1
246035,1,27665,0,54347,57969,54089.63,57447.39,257.37,521.61,0.476710,98.40,1
246075,1,27705,0,54291,57814,54090.03,57448.12,200.97,365.87,0.477011,98.39,1
246115,1,27745,0,54235,57727,54090.32,57448.68,144.68,278.32,0.477311,98.38,1
246155,1,27785,0,54215,57724,54090.57,57449.23,124.43,274.77,0.477609,98.37,1
246195,1,27825,0,54219,57724,54090.83,57449.79,128.17,274.21,0.477905,98.36,1
246235,1,27865,0,54224,57722,54091.10,57450.33,132.90,271.67,0.478201,98.35,1
246275,1,27905,0,54228,57735,54091.37,57450.90,136.62,284.10,0.478495,98.34,1
246315,1,27945,0,54235,57730,54091.66,57451.46,143.34,278.54,0.478788,98.33,1
246355,1,27985,0,54232,57729,54091.95,57452.02,140.05,276.98,0.479080,98.33,1
246395,1,28025,0,54235,57728,54092.23,57452.57,142.77,275.43,0.479370,98.32,1
246435,1,28065,0,54233,57741,54092.52,57453.15,140.48,287.85,0.479660,98.31,1
246475,1,28105,0,54240,57765,54092.81,57453.77,147.19,311.23,0.479948,98.30,1
246515,1,28145,0,54248,57793,54093.12,57454.45,154.87,338.55,0.480234,98.29,1
246555,1,28185,0,54259,57814,54093.46,57455.17,165.54,358.83,0.480518,98.28,1
246595,1,28225,0,54272,57842,54093.82,57455.95,178.18,386.05,0.480800,98.27,1
246635,1,28265,0,54278,57860,54094.19,57456.75,183.81,403.25,0.481080,98.26,1
246675,1,28305,0,54286,57880,54094.57,57457.60,191.43,422.40,0.481358,98.25,1
246715,1,28345,0,54290,57894,54094.96,57458.48,195.04,435.52,0.481633,98.24,1
246755,1,28385,0,54290,57842,54095.36,57459.25,194.64,382.75,0.481907,98.24,1
246795,1,28425,0,54234,57677,54095.63,57459.68,138.37,217.32,0.482180,98.23,1
246835,1,28465,0,54177,57588,54095.80,57459.94,81.20,128.06,0.482453,98.22,1
246875,1,28505,0,54159,57574,54095.93,57460.17,63.07,113.83,0.482725,98.21,1
246916,1,28546,0,54159,57580,54096.05,57460.41,62.95,119.59,0.482997,98.20,1
246956,1,28586,0,54164,57582,54096.19,57460.66,67.81,121.34,0.483267,98.19,1
246996,1,28626,0,54168,57596,54096.34,57460.93,71.66,135.07,0.483537,98.18,1
247036,1,28666,0,54173,57612,54096.49,57461.24,76.51,150.76,0.483805,98.18,1
247076,1,28706,0,54169,57607,54096.64,57461.53,72.36,145.47,0.484073,98.17,1
247116,1,28746,0,54168,57616,54096.78,57461.84,71.22,154.16,0.484340,98.16,1
247156,1,28786,0,54174,57634,54096.94,57462.19,77.06,171.81,0.484606,98.15,1
247196,1,28826,0,54188,57661,54097.12,57462.59,90.88,198.41,0.484871,98.14,1
247236,1,28866,0,54201,57689,54097.33,57463.04,103.67,225.96,0.485134,98.13,1
247276,1,28906,0,54216,57729,54097.57,57463.57,118.43,265.43,0.485396,98.13,1
247316,1,28946,0,54229,57756,54097.84,57464.16,131.16,291.84,0.485656,98.12,1
247356,1,28986,0,54234,57784,54098.11,57464.80,135.89,319.20,0.485914,98.11,1
247396,1,29026,0,54250,57811,54098.41,57465.50,151.59,345.50,0.486170,98.10,1
247436,1,29066,0,54260,57839,54098.74,57466.25,161.26,372.75,0.486424,98.09,1
247476,1,29106,0,54259,57753,54099.06,57466.82,159.94,286.18,0.486677,98.09,1
247516,1,29146,0,54196,57576,54099.25,57467.04,96.75,108.96,0.486930,98.08,1
247556,1,29186,0,54141,57482,54099.34,57467.07,41.66,14.93,0.487183,98.07,1
247596,1,29226,0,54124,57461,54099.39,57467.06,24.61,-6.06,0.487434,98.06,1
247636,1,29266,0,54125,57464,54099.44,57467.05,25.56,-3.05,0.487686,98.06,1
247676,1,29306,0,54127,57453,54099.50,57467.03,27.50,-14.03,0.487936,98.05,1
247716,1,29346,0,54123,57467,54099.54,57467.03,23.46,-0.03,0.488186,98.04,1
247756,1,29386,0,54135,57479,54099.62,57467.05,35.38,11.95,0.488435,98.03,1
247796,1,29426,0,54132,57481,54099.68,57467.09,32.32,13.91,0.488684,98.03,1
247836,1,29466,0,54140,57490,54099.77,57467.13,40.23,22.87,0.488932,98.02,1
247876,1,29506,0,54148,57511,54099.86,57467.22,48.14,43.78,0.489179,98.01,1
247916,1,29546,0,54153,57530,54099.97,57467.35,53.03,62.65,0.489426,98.00,1
247956,1,29586,0,54165,57563,54100.11,57467.54,64.89,95.46,0.489672,98.00,1
247996,1,29626,0,54174,57597,54100.25,57467.80,73.75,129.20,0.489918,97.99,1
248036,1,29666,0,54193,57634,54100.44,57468.14,92.56,165.86,0.490163,97.98,1
248076,1,29706,0,54208,57661,54100.66,57468.52,107.34,192.48,0.490408,97.97,1
248117,1,29747,0,54212,57682,54100.88,57468.95,111.12,213.05,0.490651,97.97,1
248157,1,29787,0,54222,57710,54101.12,57469.44,120.88,240.56,0.490894,97.96,1
248197,1,29827,0,54235,57707,54101.39,57469.91,133.61,237.09,0.491136,97.95,1
248237,1,29867,0,54209,57560,54101.61,57470.10,107.39,89.90,0.491379,97.95,1
248277,1,29907,0,54134,57406,54101.67,57469.97,32.33,-63.97,0.491621,97.94,1
248317,1,29947,0,54096,57358,54101.66,57469.75,-5.66,-111.75,0.491862,97.93,1
248357,1,29987,0,54086,57351,54101.63,57469.52,-15.63,-118.52,0.492101,97.92,1
248397,1,30027,0,54087,57350,54101.60,57469.28,-14.60,-119.28,0.492339,97.92,1
248437,1,30067,0,54084,57339,54101.57,57469.02,-17.57,-130.02,0.492576,97.91,1
248477,1,30107,0,54090,57356,54101.54,57468.80,-11.54,-112.80,0.492811,97.90,1
248517,1,30147,0,54101,57377,54101.54,57468.61,-0.54,-91.61,0.493046,97.90,1
248557,1,30187,0,54101,57391,54101.54,57468.46,-0.54,-77.46,0.493279,97.89,1
248597,1,30227,0,54111,57412,54101.56,57468.35,9.44,-56.35,0.493512,97.88,1
248637,1,30267,0,54125,57440,54101.61,57468.29,23.39,-28.29,0.493744,97.88,1
248677,1,30307,0,54137,57482,54101.68,57468.32,35.32,13.68,0.493975,97.87,1
248717,1,30347,0,54157,57524,54101.79,57468.43,55.21,55.57,0.494206,97.86,1
248757,1,30387,0,54175,57557,54101.94,57468.61,73.06,88.39,0.494437,97.86,1
248797,1,30427,0,54195,57588,54102.13,57468.86,92.87,119.14,0.494668,97.85,1
248837,1,30467,0,54210,57626,54102.35,57469.17,107.65,156.83,0.494899,97.84,1
248877,1,30507,0,54225,57656,54102.59,57469.55,122.41,186.45,0.495130,97.84,1
248917,1,30547,0,54237,57694,54102.86,57470.00,134.14,224.00,0.495361,97.83,1
248957,1,30587,0,54247,57724,54103.15,57470.50,143.85,253.50,0.495592,97.82,1
248997,1,30627,0,54247,57634,54103.44,57470.83,143.56,163.17,0.495824,97.82,1
249037,1,30667,0,54184,57471,54103.61,57470.83,80.39,0.17,0.496056,97.81,1
249077,1,30707,0,54141,57422,54103.68,57470.73,37.32,-48.73,0.496288,97.80,1
249117,1,30747,0,54134,57417,54103.75,57470.63,30.25,-53.63,0.496519,97.80,1
249157,1,30787,0,54135,57420,54103.81,57470.53,31.19,-50.53,0.496750,97.79,1
249197,1,30827,0,54131,57421,54103.86,57470.43,27.14,-49.43,0.496980,97.78,1
249237,1,30867,0,54133,57439,54103.92,57470.37,29.08,-31.37,0.497209,97.78,1
249277,1,30907,0,54141,57458,54104.00,57470.34,37.00,-12.34,0.497438,97.77,1
249317,1,30947,0,54145,57465,54104.08,57470.34,40.92,-5.34,0.497666,97.76,1
249358,1,30988,0,54151,57487,54104.17,57470.37,46.83,16.63,0.497894,97.76,1
249398,1,31028,0,54155,57503,54104.27,57470.44,50.73,32.56,0.498122,97.75,1
249438,1,31068,0,54167,57538,54104.40,57470.57,62.60,67.43,0.498350,97.75,1
249478,1,31108,0,54178,57571,54104.55,57470.78,73.45,100.22,0.498577,97.74,1
249518,1,31148,0,54195,57610,54104.73,57471.06,90.27,138.94,0.498804,97.73,1
249558,1,31188,0,54204,57642,54104.93,57471.40,99.07,170.60,0.499031,97.73,1
249598,1,31228,0,54221,57674,54105.16,57471.81,115.84,202.19,0.499258,97.72,1
249638,1,31268,0,54229,57702,54105.41,57472.27,123.59,229.73,0.499483,97.71,1
249678,1,31308,0,54242,57726,54105.69,57472.78,136.31,253.22,0.499708,97.71,1
249718,1,31348,0,54257,57761,54105.99,57473.36,151.01,287.64,0.499932,97.70,1
249758,1,31388,0,54263,57748,54106.31,57473.91,156.69,274.09,0.500156,97.70,1
249798,1,31428,0,54227,57609,54106.55,57474.18,120.45,134.82,0.500381,97.69,1
249838,1,31468,0,54175,57518,54106.69,57474.27,68.31,43.73,0.500606,97.68,1
249878,1,31508,0,54159,57507,54106.79,57474.34,52.21,32.66,0.500831,97.68,1
249918,1,31548,0,54163,57524,54106.91,57474.44,56.09,49.56,0.501056,97.67,1
249958,1,31588,0,54172,57526,54107.04,57474.54,64.96,51.46,0.501281,97.67,1
249998,1,31628,0,54176,57534,54107.18,57474.66,68.82,59.34,0.501506,97.66,1
250038,1,31668,0,54190,57555,54107.35,57474.83,82.65,80.17,0.501731,97.65,1
250078,1,31708,0,54193,57564,54107.52,57475.01,85.48,88.99,0.501956,97.65,1
250118,1,31748,0,54191,57571,54107.69,57475.20,83.31,95.80,0.502182,97.64,1
250158,1,31788,0,54193,57591,54107.86,57475.44,85.14,115.56,0.502408,97.63,1
250198,1,31828,0,54201,57615,54108.05,57475.72,92.95,139.28,0.502634,97.63,1
250238,1,31868,0,54212,57642,54108.26,57476.05,103.74,165.95,0.502860,97.62,1
250278,1,31908,0,54232,57680,54108.51,57476.46,123.49,203.54,0.503085,97.62,1
250318,1,31948,0,54242,57708,54108.78,57476.93,133.22,231.07,0.503311,97.61,1
250358,1,31988,0,54255,57739,54109.07,57477.46,145.93,261.54,0.503536,97.60,1
250398,1,32028,0,54259,57764,54109.37,57478.03,149.63,285.97,0.503760,97.60,1
250438,1,32068,0,54276,57793,54109.71,57478.66,166.29,314.34,0.503983,97.59,1
250478,1,32108,0,54285,57815,54110.06,57479.34,174.94,335.66,0.504205,97.59,1
250518,1,32148,0,54282,57760,54110.40,57479.90,171.60,280.10,0.504427,97.58,1
250559,1,32189,0,54236,57618,54110.66,57480.18,125.34,137.82,0.504651,97.58,1
250599,1,32229,0,54189,57545,54110.81,57480.31,78.19,64.69,0.504875,97.57,1
250639,1,32269,0,54179,57548,54110.95,57480.45,68.05,67.55,0.505100,97.56,1
250679,1,32309,0,54184,57559,54111.10,57480.61,72.90,78.39,0.505325,97.56,1
250719,1,32349,0,54182,57563,54111.24,57480.78,70.76,82.22,0.505549,97.55,1
250759,1,32389,0,54188,57579,54111.40,57480.98,76.60,98.02,0.505774,97.55,1
250799,1,32429,0,54199,57597,54111.57,57481.21,87.43,115.79,0.505999,97.54,1
250839,1,32469,0,54208,57604,54111.77,57481.46,96.23,122.54,0.506224,97.53,1
250879,1,32509,0,54218,57627,54111.98,57481.75,106.02,145.25,0.506450,97.53,1
250919,1,32549,0,54220,57653,54112.20,57482.09,107.80,170.91,0.506676,97.52,1
250959,1,32589,0,54236,57684,54112.45,57482.50,123.55,201.50,0.506902,97.52,1
250999,1,32629,0,54249,57718,54112.73,57482.97,136.27,235.03,0.507128,97.51,1
251039,1,32669,0,54265,57753,54113.03,57483.52,151.97,269.48,0.507354,97.50,1
251079,1,32709,0,54280,57792,54113.37,57484.13,166.63,307.87,0.507578,97.50,1
251119,1,32749,0,54300,57820,54113.74,57484.80,186.26,335.20,0.507802,97.49,1
251159,1,32789,0,54316,57855,54114.15,57485.55,201.85,369.45,0.508026,97.49,1
251199,1,32829,0,54327,57880,54114.57,57486.34,212.43,393.66,0.508248,97.48,1
251239,1,32869,0,54341,57913,54115.03,57487.19,225.97,425.81,0.508469,97.48,1
251279,1,32909,0,54356,57937,54115.51,57488.09,240.49,448.91,0.508689,97.47,1
251319,1,32949,0,54358,57893,54116.00,57488.91,242.00,404.09,0.508910,97.46,1
251359,1,32989,0,54309,57732,54116.39,57489.39,192.61,242.61,0.509136,97.46,1
251399,1,33029,0,54257,57645,54116.67,57489.71,140.33,155.29,0.509364,97.45,1
251439,1,33069,0,54245,57629,54116.93,57489.99,128.07,139.01,0.509593,97.45,1
251479,1,33109,0,54245,57633,54117.18,57490.28,127.82,142.72,0.509825,97.44,1
251519,1,33149,0,54248,57620,54117.45,57490.54,130.55,129.46,0.510059,97.44,1
251559,1,33189,0,54243,57629,54117.70,57490.82,125.30,138.18,0.510294,97.43,1
251599,1,33229,0,54251,57652,54117.97,57491.14,133.03,160.86,0.510532,97.42,1
251639,1,33269,0,54261,57660,54118.26,57491.48,142.74,168.52,0.510772,97.42,1
251679,1,33309,0,54263,57677,54118.55,57491.85,144.45,185.15,0.511013,97.41,1
251720,1,33350,0,54270,57691,54118.85,57492.25,151.15,198.75,0.511257,97.41,1
251760,1,33390,0,54280,57715,54119.18,57492.70,160.82,222.30,0.511502,97.40,1
251800,1,33430,0,54296,57751,54119.53,57493.21,176.47,257.79,0.511750,97.39,1
251840,1,33470,0,54310,57785,54119.91,57493.80,190.09,291.20,0.511999,97.39,1
251880,1,33510,0,54320,57819,54120.32,57494.45,199.68,324.55,0.512250,97.38,1
251920,1,33550,0,54337,57857,54120.75,57495.18,216.25,361.82,0.512501,97.38,1
251960,1,33590,0,54349,57884,54121.21,57495.96,227.79,388.04,0.512752,97.37,1
252000,1,33630,0,54366,57916,54121.70,57496.80,244.30,419.20,0.513004,97.37,1
252040,1,33670,0,54383,57943,54122.22,57497.69,260.78,445.31,0.513257,97.36,1
252080,1,33710,0,54398,57969,54122.78,57498.64,275.22,470.36,0.513510,97.35,1
252120,1,33750,0,54404,58007,54123.34,57499.66,280.66,507.34,0.513762,97.35,1
252160,1,33790,0,54420,58020,54123.93,57500.70,296.07,519.30,0.514014,97.34,1
252200,1,33830,0,54401,57880,54124.49,57501.46,276.51,378.54,0.514272,97.34,1
252240,1,33870,0,54334,57728,54124.91,57501.91,209.09,226.09,0.514537,97.33,1
252280,1,33910,0,54300,57687,54125.26,57502.29,174.74,184.71,0.514805,97.32,1
252320,1,33950,0,54299,57679,54125.61,57502.64,173.39,176.36,0.515078,97.32,1
252360,1,33990,0,54305,57677,54125.97,57502.99,179.03,174.01,0.515355,97.31,1
252400,1,34030,0,54302,57668,54126.32,57503.32,175.68,164.68,0.515637,97.31,1
252440,1,34070,0,54306,57675,54126.68,57503.67,179.32,171.33,0.515923,97.30,1
252480,1,34110,0,54310,57690,54127.05,57504.04,182.95,185.96,0.516215,97.29,1
252520,1,34150,0,54315,57698,54127.43,57504.43,187.57,193.57,0.516511,97.29,1
252560,1,34190,0,54314,57705,54127.80,57504.84,186.20,200.16,0.516811,97.28,1
252600,1,34230,0,54324,57717,54128.20,57505.26,195.80,211.74,0.517117,97.27,1
252640,1,34270,0,54334,57735,54128.61,57505.72,205.39,229.28,0.517428,97.27,1
252680,1,34310,0,54350,57769,54129.05,57506.25,220.95,262.75,0.517744,97.26,1
252720,1,34350,0,54361,57797,54129.52,57506.83,231.48,290.17,0.518065,97.26,1
252760,1,34390,0,54379,57828,54130.02,57507.48,248.98,320.52,0.518393,97.25,1
252800,1,34430,0,54392,57848,54130.54,57508.16,261.46,339.84,0.518726,97.24,1
252840,1,34470,0,54394,57872,54131.07,57508.89,262.93,363.11,0.519064,97.24,1
252880,1,34510,0,54411,57890,54131.63,57509.66,279.37,380.34,0.519408,97.23,1
252920,1,34550,0,54415,57913,54132.20,57510.46,282.80,402.54,0.519756,97.22,1
252961,1,34591,0,54427,57937,54132.79,57511.32,294.21,425.68,0.520109,97.22,1
253001,1,34631,0,54435,57942,54133.39,57512.18,301.61,429.82,0.520466,97.21,1
253041,1,34671,0,54416,57809,54133.96,57512.78,282.04,296.22,0.520834,97.20,1
253081,1,34711,0,54347,57647,54134.39,57513.05,212.61,133.95,0.521210,97.20,1
253121,1,34751,0,54297,57587,54134.71,57513.20,162.29,73.80,0.521591,97.19,1
253161,1,34791,0,54288,57594,54135.02,57513.36,152.98,80.64,0.521976,97.18,1
253201,1,34831,0,54299,57606,54135.35,57513.55,163.65,92.45,0.522365,97.17,1
253241,1,34871,0,54305,57615,54135.69,57513.75,169.31,101.25,0.522759,97.17,1
253281,1,34911,0,54322,57630,54136.07,57513.98,185.93,116.02,0.523160,97.16,1
253321,1,34951,0,54322,57626,54136.44,57514.21,185.56,111.79,0.523567,97.15,1
253361,1,34991,0,54322,57630,54136.81,57514.45,185.19,115.55,0.523980,97.14,1
253401,1,35031,0,54328,57636,54137.20,57514.69,190.80,121.31,0.524399,97.14,1
253441,1,35071,0,54333,57661,54137.59,57514.98,195.41,146.02,0.524825,97.13,1
253481,1,35111,0,54347,57692,54138.01,57515.34,208.99,176.66,0.525257,97.12,1
253521,1,35151,0,54367,57730,54138.47,57515.77,228.53,214.23,0.525697,97.11,1
253561,1,35191,0,54386,57761,54138.97,57516.26,247.03,244.74,0.526145,97.11,1
253601,1,35231,0,54399,57789,54139.49,57516.81,259.51,272.19,0.526601,97.10,1
253641,1,35271,0,54417,57822,54140.04,57517.42,276.96,304.58,0.527066,97.09,1
253681,1,35311,0,54429,57839,54140.62,57518.07,288.38,320.93,0.527539,97.08,1
253721,1,35351,0,54436,57864,54141.21,57518.76,294.79,345.24,0.528020,97.07,1
253761,1,35391,0,54445,57889,54141.82,57519.50,303.18,369.50,0.528509,97.06,1
253801,1,35431,0,54449,57824,54142.44,57520.11,306.56,303.89,0.529009,97.05,1
253841,1,35471,0,54388,57630,54142.93,57520.33,245.07,109.67,0.529522,97.05,1
253881,1,35511,0,54317,57515,54143.28,57520.32,173.72,-5.32,0.530041,97.04,1
253921,1,35551,0,54296,57494,54143.59,57520.27,152.41,-26.27,0.530563,97.03,1
253961,1,35591,0,54298,57502,54143.90,57520.24,154.10,-18.24,0.531091,97.02,1
254001,1,35631,0,54306,57507,54144.22,57520.21,161.78,-13.21,0.531623,97.01,1
254041,1,35671,0,54308,57515,54144.55,57520.21,163.45,-5.21,0.532160,97.00,1
254081,1,35711,0,54314,57529,54144.89,57520.23,169.11,8.77,0.532703,96.99,1
254121,1,35751,0,54310,57530,54145.22,57520.25,164.78,9.75,0.533252,96.98,1
254161,1,35791,0,54313,57524,54145.56,57520.25,167.44,3.75,0.533806,96.97,1
254201,1,35831,0,54315,57534,54145.90,57520.28,169.10,13.72,0.534366,96.96,1
254242,1,35872,0,54321,57558,54146.25,57520.36,174.75,37.64,0.534932,96.95,1
254282,1,35912,0,54333,57582,54146.62,57520.48,186.37,61.52,0.535505,96.94,1
254322,1,35952,0,54346,57608,54147.02,57520.66,198.98,87.34,0.536086,96.93,1
254362,1,35992,0,54352,57635,54147.43,57520.89,204.57,114.11,0.536675,96.92,1
254402,1,36032,0,54356,57657,54147.85,57521.16,208.15,135.84,0.537272,96.91,1
254442,1,36072,0,54366,57683,54148.29,57521.49,217.71,161.51,0.537876,96.90,1
254482,1,36112,0,54374,57697,54148.74,57521.84,225.26,175.16,0.538488,96.89,1
254522,1,36152,0,54384,57714,54149.21,57522.23,234.79,191.77,0.539108,96.88,1
254562,1,36192,0,54389,57705,54149.70,57522.59,239.30,182.41,0.539737,96.87,1
254602,1,36232,0,54348,57498,54150.09,57522.55,197.91,-24.55,0.540376,96.86,1
254642,1,36272,0,54254,57320,54150.30,57522.14,103.70,-202.14,0.541009,96.84,1
254682,1,36312,0,54202,57253,54150.41,57521.61,51.59,-268.61,0.541631,96.83,1
254722,1,36352,0,54195,57255,54150.50,57521.08,44.50,-266.08,0.542243,96.82,1
254762,1,36392,0,54199,57257,54150.60,57520.55,48.40,-263.55,0.542843,96.81,1
254802,1,36432,0,54195,57251,54150.69,57520.01,44.31,-269.01,0.543433,96.80,1
254842,1,36472,0,54203,57262,54150.79,57519.50,52.21,-257.50,0.544012,96.78,1
254882,1,36512,0,54212,57273,54150.92,57519.00,61.08,-246.00,0.544583,96.77,1
254922,1,36552,0,54220,57280,54151.06,57518.53,68.94,-238.53,0.545145,96.76,1
254962,1,36592,0,54226,57291,54151.21,57518.07,74.79,-227.07,0.545701,96.75,1
255002,1,36632,0,54232,57314,54151.37,57517.67,80.62,-203.67,0.546251,96.74,1
255042,1,36672,0,54246,57348,54151.57,57517.33,94.43,-169.33,0.546797,96.72,1
255082,1,36712,0,54267,57389,54151.80,57517.08,115.20,-128.08,0.547344,96.71,1
255122,1,36752,0,54281,57429,54152.06,57516.90,128.94,-87.90,0.547893,96.70,1
255162,1,36792,0,54298,57467,54152.35,57516.80,145.65,-49.80,0.548446,96.69,1
255202,1,36832,0,54316,57504,54152.68,57516.78,163.32,-12.78,0.549006,96.68,1
255242,1,36872,0,54332,57537,54153.04,57516.82,178.96,20.18,0.549573,96.66,1
255282,1,36912,0,54345,57558,54153.43,57516.91,191.57,41.09,0.550150,96.65,1
255322,1,36952,0,54352,57573,54153.82,57517.02,198.18,55.98,0.550736,96.64,1
255362,1,36992,0,54339,57419,54154.20,57516.82,184.80,-97.82,0.551330,96.63,1
255402,1,37032,0,54245,57207,54154.38,57516.21,90.62,-309.21,0.551910,96.61,1
255442,1,37072,0,54187,57134,54154.45,57515.45,32.55,-381.45,0.552466,96.60,1
255482,1,37112,0,54175,57127,54154.49,57514.67,20.51,-387.67,0.552999,96.59,1
255523,1,37153,0,54174,57131,54154.53,57513.90,19.47,-382.90,0.553509,96.57,1
255563,1,37193,0,54175,57129,54154.57,57513.13,20.43,-384.13,0.553998,96.56,1
255603,1,37233,0,54175,57146,54154.61,57512.40,20.39,-366.40,0.554466,96.55,1
255643,1,37273,0,54191,57162,54154.69,57511.70,36.31,-349.70,0.554916,96.54,1
255683,1,37313,0,54197,57172,54154.77,57511.02,42.23,-339.02,0.555351,96.52,1
255723,1,37353,0,54196,57187,54154.86,57510.37,41.14,-323.37,0.555770,96.51,1
255763,1,37393,0,54206,57227,54154.96,57509.80,51.04,-282.80,0.556178,96.50,1
255803,1,37433,0,54227,57266,54155.11,57509.32,71.89,-243.32,0.556579,96.49,1
255843,1,37473,0,54239,57305,54155.27,57508.91,83.73,-203.91,0.556976,96.47,1
255883,1,37513,0,54260,57350,54155.48,57508.60,104.52,-158.60,0.557371,96.46,1
255923,1,37553,0,54290,57405,54155.75,57508.39,134.25,-103.39,0.557770,96.45,1
255963,1,37593,0,54304,57434,54156.05,57508.24,147.95,-74.24,0.558173,96.44,1
256003,1,37633,0,54319,57482,54156.38,57508.19,162.62,-26.19,0.558584,96.43,1
256043,1,37673,0,54338,57517,54156.74,57508.21,181.26,8.79,0.559004,96.41,1
256083,1,37713,0,54353,57496,54157.14,57508.19,195.86,-12.19,0.559435,96.40,1
256123,1,37753,0,54306,57286,54157.44,57507.75,148.56,-221.75,0.559865,96.39,1
256163,1,37793,0,54220,57143,54157.56,57507.02,62.44,-364.02,0.560276,96.38,1
256203,1,37833,0,54196,57122,54157.64,57506.25,38.36,-384.25,0.560666,96.37,1
256243,1,37873,0,54198,57132,54157.72,57505.50,40.28,-373.50,0.561036,96.35,1
256283,1,37913,0,54209,57158,54157.83,57504.81,51.17,-346.81,0.561390,96.34,1
256323,1,37953,0,54223,57216,54157.96,57504.23,65.04,-288.23,0.561732,96.33,1
256363,1,37993,0,54239,57222,54158.12,57503.67,80.87,-281.67,0.562066,96.32,1
256403,1,38033,0,54244,57240,54158.30,57503.14,85.70,-263.14,0.562391,96.31,1
256443,1,38073,0,54247,57240,54158.48,57502.62,88.52,-262.62,0.562709,96.30,1
256483,1,38113,0,54251,57261,54158.66,57502.14,92.34,-241.14,0.563021,96.29,1
256523,1,38153,0,54264,57290,54158.87,57501.72,105.12,-211.72,0.563330,96.27,1
256563,1,38193,0,54277,57334,54159.11,57501.39,117.89,-167.39,0.563639,96.26,1
256603,1,38233,0,54299,57377,54159.39,57501.14,139.61,-124.14,0.563952,96.25,1
256643,1,38273,0,54312,57423,54159.70,57500.98,152.30,-77.98,0.564271,96.24,1
256683,1,38313,0,54324,57458,54160.03,57500.90,163.97,-42.90,0.564598,96.23,1
256723,1,38353,0,54347,57506,54160.40,57500.91,186.60,5.09,0.564936,96.22,1
256763,1,38393,0,54354,57517,54160.79,57500.95,193.21,16.05,0.565285,96.21,1
256804,1,38434,0,54333,57380,54161.14,57500.70,171.86,-120.70,0.565642,96.20,1
256844,1,38474,0,54257,57223,54161.33,57500.15,95.67,-277.15,0.565990,96.19,1
256884,1,38514,0,54213,57173,54161.43,57499.50,51.57,-326.50,0.566322,96.18,1
256924,1,38554,0,54204,57186,54161.52,57498.87,42.48,-312.87,0.566640,96.17,1
256964,1,38594,0,54208,57208,54161.61,57498.29,46.39,-290.29,0.566946,96.16,1
257004,1,38634,0,54210,57224,54161.71,57497.74,48.29,-273.74,0.567242,96.15,1
257044,1,38674,0,54227,57264,54161.84,57497.28,65.16,-233.28,0.567530,96.14,1
257084,1,38714,0,54237,57276,54162.00,57496.84,75.00,-220.84,0.567813,96.13,1
257124,1,38754,0,54239,57277,54162.15,57496.40,76.85,-219.40,0.568091,96.12,1
257164,1,38794,0,54246,57313,54162.32,57496.03,83.68,-183.03,0.568365,96.11,1
257204,1,38834,0,54265,57345,54162.53,57495.73,102.47,-150.73,0.568639,96.10,1
257244,1,38874,0,54272,57395,54162.75,57495.53,109.25,-100.53,0.568916,96.09,1
257284,1,38914,0,54296,57450,54163.02,57495.44,132.98,-45.44,0.569198,96.08,1
257324,1,38954,0,54316,57500,54163.32,57495.45,152.68,4.55,0.569487,96.07,1
257364,1,38994,0,54342,57546,54163.68,57495.55,178.32,50.45,0.569787,96.06,1
257404,1,39034,0,54361,57590,54164.08,57495.75,196.92,94.25,0.570099,96.05,1
257444,1,39074,0,54378,57621,54164.51,57496.00,213.49,125.00,0.570426,96.04,1
257484,1,39114,0,54375,57538,54164.93,57496.09,210.07,41.91,0.570767,96.03,1
257524,1,39154,0,54310,57368,54165.22,57495.83,144.78,-127.83,0.571113,96.02,1
257564,1,39194,0,54251,57297,54165.39,57495.44,85.61,-198.44,0.571454,96.01,1
257604,1,39234,0,54238,57295,54165.54,57495.04,72.46,-200.04,0.571789,96.00,1
257644,1,39274,0,54234,57298,54165.68,57494.64,68.32,-196.64,0.572120,96.00,1
257684,1,39314,0,54234,57299,54165.82,57494.25,68.18,-195.25,0.572445,95.99,1
257724,1,39354,0,54233,57313,54165.95,57493.89,67.05,-180.89,0.572766,95.98,1
257764,1,39394,0,54245,57345,54166.11,57493.60,78.89,-148.60,0.573084,95.97,1
257804,1,39434,0,54256,57363,54166.29,57493.34,89.71,-130.34,0.573402,95.96,1
257844,1,39474,0,54259,57382,54166.48,57493.12,92.52,-111.12,0.573721,95.95,1
257884,1,39514,0,54268,57414,54166.68,57492.96,101.32,-78.96,0.574041,95.94,1
257924,1,39554,0,54284,57456,54166.92,57492.89,117.08,-36.89,0.574366,95.93,1
257964,1,39594,0,54302,57496,54167.19,57492.89,134.81,3.11,0.574697,95.92,1
258005,1,39635,0,54316,57540,54167.49,57492.99,148.51,47.01,0.575036,95.91,1
258045,1,39675,0,54334,57581,54167.83,57493.16,166.17,87.84,0.575384,95.90,1
258085,1,39715,0,54347,57623,54168.19,57493.43,178.81,129.57,0.575741,95.90,1
258125,1,39755,0,54362,57664,54168.58,57493.77,193.42,170.23,0.576107,95.89,1
258165,1,39795,0,54374,57670,54168.99,57494.12,205.01,175.87,0.576483,95.88,1
258205,1,39835,0,54350,57546,54169.36,57494.23,180.64,51.77,0.576872,95.87,1
258245,1,39875,0,54287,57425,54169.59,57494.09,117.41,-69.09,0.577264,95.86,1
258285,1,39915,0,54254,57397,54169.77,57493.90,84.23,-96.90,0.577656,95.85,1
258325,1,39955,0,54257,57397,54169.94,57493.71,87.06,-96.71,0.578049,95.84,1
258365,1,39995,0,54251,57394,54170.11,57493.51,80.89,-99.51,0.578441,95.83,1
258405,1,40035,0,54250,57401,54170.27,57493.33,79.73,-92.33,0.578833,95.82,1
258445,1,40075,0,54249,57432,54170.43,57493.21,78.57,-61.21,0.579225,95.81,1
258485,1,40115,0,54265,57461,54170.62,57493.14,94.38,-32.14,0.579620,95.81,1
258525,1,40155,0,54276,57477,54170.83,57493.11,105.17,-16.11,0.580019,95.80,1
258565,1,40195,0,54286,57507,54171.06,57493.14,114.94,13.86,0.580423,95.79,1
258605,1,40235,0,54298,57534,54171.31,57493.22,126.69,40.78,0.580831,95.78,1
258645,1,40275,0,54316,57568,54171.60,57493.37,144.40,74.62,0.581247,95.77,1
258685,1,40315,0,54332,57610,54171.92,57493.61,160.08,116.39,0.581670,95.76,1
258725,1,40355,0,54345,57646,54172.27,57493.91,172.73,152.09,0.582101,95.75,1
258765,1,40395,0,54361,57683,54172.65,57494.29,188.35,188.71,0.582538,95.74,1
258805,1,40435,0,54373,57716,54173.05,57494.74,199.95,221.26,0.582982,95.73,1
258845,1,40475,0,54382,57747,54173.47,57495.25,208.53,251.75,0.583431,95.72,1
258885,1,40515,0,54398,57769,54173.92,57495.80,224.08,273.20,0.583885,95.71,1
258925,1,40555,0,54394,57681,54174.36,57496.17,219.64,184.83,0.584351,95.70,1
258965,1,40595,0,54327,57547,54174.67,57496.27,152.33,50.73,0.584825,95.69,1
259005,1,40635,0,54288,57498,54174.89,57496.27,113.11,1.73,0.585304,95.68,1
259045,1,40675,0,54273,57497,54175.09,57496.28,97.91,0.72,0.585786,95.67,1
259085,1,40715,0,54279,57498,54175.30,57496.28,103.70,1.72,0.586271,95.66,1
259125,1,40755,0,54274,57497,54175.50,57496.29,98.50,0.71,0.586759,95.65,1
259166,1,40796,0,54275,57517,54175.70,57496.33,99.30,20.67,0.587250,95.64,1
259206,1,40836,0,54287,57531,54175.93,57496.40,111.07,34.60,0.587745,95.63,1
259246,1,40876,0,54291,57543,54176.16,57496.49,114.84,46.51,0.588244,95.62,1
259286,1,40916,0,54292,57557,54176.39,57496.61,115.61,60.39,0.588747,95.61,1
259326,1,40956,0,54295,57581,54176.63,57496.79,118.37,84.21,0.589253,95.60,1
259366,1,40996,0,54309,57612,54176.89,57497.02,132.11,114.98,0.589763,95.59,1
259406,1,41036,0,54317,57649,54177.18,57497.32,139.82,151.68,0.590275,95.58,1
259446,1,41076,0,54332,57675,54177.49,57497.68,154.51,177.32,0.590790,95.57,1
259486,1,41116,0,54347,57700,54177.83,57498.08,169.17,201.92,0.591306,95.56,1
259526,1,41156,0,54356,57736,54178.19,57498.56,177.81,237.44,0.591822,95.55,1
259566,1,41196,0,54370,57767,54178.57,57499.10,191.43,267.90,0.592336,95.54,1
259606,1,41236,0,54377,57785,54178.97,57499.67,198.03,285.33,0.592847,95.53,1
259646,1,41276,0,54370,57703,54179.36,57500.08,190.64,202.92,0.593364,95.52,1
259686,1,41316,0,54317,57585,54179.63,57500.25,137.37,84.75,0.593887,95.51,1
259726,1,41356,0,54284,57558,54179.84,57500.37,104.16,57.63,0.594412,95.50,1
259766,1,41396,0,54293,57563,54180.07,57500.49,112.93,62.51,0.594941,95.48,1
259806,1,41436,0,54297,57575,54180.30,57500.64,116.70,74.36,0.595473,95.47,1
259846,1,41476,0,54299,57587,54180.54,57500.82,118.46,86.18,0.596008,95.46,1
259886,1,41516,0,54305,57607,54180.79,57501.04,124.21,105.96,0.596547,95.45,1
259926,1,41556,0,54310,57625,54181.05,57501.29,128.95,123.71,0.597088,95.44,1
259966,1,41596,0,54316,57635,54181.32,57501.55,134.68,133.45,0.597632,95.43,1
260006,1,41636,0,54323,57659,54181.61,57501.87,141.39,157.13,0.598177,95.42,1
260046,1,41676,0,54334,57686,54181.91,57502.24,152.09,183.76,0.598723,95.40,1
260086,1,41716,0,54345,57712,54182.24,57502.66,162.76,209.34,0.599269,95.39,1
260126,1,41756,0,54358,57746,54182.59,57503.15,175.41,242.85,0.599813,95.38,1
260166,1,41796,0,54368,57781,54182.96,57503.71,185.04,277.29,0.600351,95.37,1
260206,1,41836,0,54378,57813,54183.36,57504.33,194.64,308.67,0.600882,95.36,1
260246,1,41876,0,54386,57842,54183.76,57505.01,202.24,336.99,0.601401,95.35,1
260286,1,41916,0,54399,57873,54184.20,57505.75,214.80,367.25,0.601907,95.33,1
260326,1,41956,0,54410,57884,54184.65,57506.50,225.35,377.50,0.602400,95.32,1
260367,1,41997,0,54386,57782,54185.05,57507.05,200.95,274.95,0.602891,95.31,1
260407,1,42037,0,54334,57686,54185.35,57507.41,148.65,178.59,0.603384,95.30,1
260447,1,42077,0,54312,57672,54185.61,57507.75,126.39,164.25,0.603877,95.29,1
260487,1,42117,0,54312,57674,54185.86,57508.08,126.14,165.92,0.604368,95.28,1
260527,1,42157,0,54310,57672,54186.11,57508.41,123.89,163.59,0.604859,95.26,1
260567,1,42197,0,54307,57686,54186.35,57508.77,120.65,177.23,0.605347,95.25,1
260607,1,42237,0,54314,57716,54186.61,57509.18,127.39,206.82,0.605831,95.24,1
260647,1,42277,0,54330,57739,54186.90,57509.64,143.10,229.36,0.606311,95.23,1
260687,1,42317,0,54338,57766,54187.20,57510.16,150.80,255.84,0.606783,95.22,1
260727,1,42357,0,54343,57796,54187.52,57510.73,155.48,285.27,0.607246,95.20,1
260767,1,42397,0,54357,57838,54187.86,57511.39,169.14,326.61,0.607695,95.19,1
260807,1,42437,0,54373,57885,54188.23,57512.14,184.77,372.86,0.608126,95.18,1
260847,1,42477,0,54396,57926,54188.64,57512.96,207.36,413.04,0.608537,95.17,1
260887,1,42517,0,54413,57973,54189.09,57513.89,223.91,459.11,0.608922,95.16,1
260927,1,42557,0,54435,58017,54189.59,57514.89,245.41,502.11,0.609281,95.14,1
260967,1,42597,0,54452,58058,54190.11,57515.98,261.89,542.02,0.609609,95.13,1
261007,1,42637,0,54468,58098,54190.67,57517.14,277.33,580.86,0.609904,95.12,1
261047,1,42677,0,54487,58141,54191.27,57518.39,295.73,622.61,0.610167,95.11,1
261087,1,42717,0,54499,58156,54191.88,57519.67,307.12,636.33,0.610398,95.10,1
261127,1,42757,0,54481,58085,54192.46,57520.80,288.54,564.20,0.610610,95.09,1
261167,1,42797,0,54450,58038,54192.98,57521.84,257.02,516.16,0.610807,95.08,1
261207,1,42837,0,54437,58042,54193.46,57522.88,243.54,519.12,0.610985,95.07,1
261247,1,42877,0,54444,58051,54193.97,57523.94,250.03,527.06,0.611147,95.06,1
261287,1,42917,0,54444,58058,54194.47,57525.01,249.53,532.99,0.611291,95.05,1
261327,1,42957,0,54447,58074,54194.98,57526.11,252.02,547.89,0.611418,95.04,1
261367,1,42997,0,54461,58110,54195.51,57527.28,265.49,582.72,0.611526,95.03,1
261407,1,43037,0,54468,58141,54196.06,57528.51,271.94,612.49,0.611613,95.02,1
261447,1,43077,0,54476,58169,54196.62,57529.79,279.38,639.21,0.611678,95.01,1
261488,1,43118,0,54486,58200,54197.20,57531.13,288.80,668.87,0.611721,95.00,1
261528,1,43158,0,54495,58229,54197.80,57532.53,297.20,696.47,0.611741,94.99,1
261568,1,43198,0,54507,58261,54198.42,57533.99,308.58,727.01,0.611737,94.98,1
261608,1,43238,0,54519,58306,54199.06,57535.54,319.94,770.46,0.611708,94.97,1
261648,1,43278,0,54533,58343,54199.73,57537.15,333.27,805.85,0.611654,94.97,1
261688,1,43318,0,54539,58379,54200.41,57538.84,338.59,840.16,0.611574,94.96,1
261728,1,43358,0,54550,58413,54201.11,57540.59,348.89,872.41,0.611468,94.95,1
261768,1,43398,0,54564,58445,54201.84,57542.39,362.16,902.61,0.611338,94.94,1
261808,1,43438,0,54578,58474,54202.59,57544.26,375.41,929.74,0.611184,94.94,1
261848,1,43478,0,54589,58518,54203.36,57546.21,385.64,971.79,0.611007,94.93,1
261888,1,43518,0,54601,58536,54204.16,57548.19,396.84,987.81,0.610809,94.92,1
261928,1,43558,0,54591,58495,54204.93,57550.08,386.07,944.92,0.610595,94.92,1
261968,1,43598,0,54569,58456,54205.66,57551.89,363.34,904.11,0.610367,94.91,1
262008,1,43638,0,54560,58467,54206.37,57553.73,353.62,913.27,0.610123,94.91,1
262048,1,43678,0,54570,58474,54207.11,57555.57,362.89,918.43,0.609866,94.90,1
262088,1,43718,0,54573,58484,54207.84,57557.43,365.16,926.57,0.609597,94.90,1
262128,1,43758,0,54581,58494,54208.59,57559.30,372.41,934.70,0.609317,94.90,1
262168,1,43798,0,54585,58517,54209.34,57561.22,375.66,955.78,0.609025,94.89,1
262208,1,43838,0,54588,58533,54210.10,57563.17,377.90,969.83,0.608723,94.89,1
262248,1,43878,0,54593,58554,54210.86,57565.15,382.14,988.85,0.608409,94.89,1
262288,1,43918,0,54596,58575,54211.64,57567.17,384.36,1007.83,0.608084,94.88,1
262328,1,43958,0,54608,58605,54212.43,57569.25,395.57,1035.75,0.607748,94.88,1
262368,1,43998,0,54613,58624,54213.23,57571.36,399.77,1052.64,0.607401,94.88,1
262408,1,44038,0,54623,58647,54214.05,57573.51,408.95,1073.49,0.607045,94.88,1
262448,1,44078,0,54632,58672,54214.89,57575.71,417.11,1096.29,0.606678,94.88,1
262488,1,44118,0,54640,58703,54215.74,57577.97,424.26,1125.03,0.606302,94.87,1
262528,1,44158,0,54644,58724,54216.60,57580.26,427.40,1143.74,0.605917,94.87,1
262568,1,44198,0,54650,58751,54217.46,57582.61,432.54,1168.39,0.605521,94.87,1
262609,1,44239,0,54658,58774,54218.35,57584.99,439.65,1189.01,0.605117,94.87,1
262649,1,44279,0,54659,58795,54219.23,57587.41,439.77,1207.59,0.604703,94.87,1
262689,1,44319,0,54672,58820,54220.14,57589.87,451.86,1230.13,0.604280,94.87,1
262729,1,44359,0,54677,58839,54221.05,57592.37,455.95,1246.63,0.603849,94.88,1
262769,1,44399,0,54668,58798,54221.95,57594.79,446.05,1203.21,0.603412,94.88,1
262809,1,44439,0,54645,58772,54222.79,57597.14,422.21,1174.86,0.602968,94.88,1
262849,1,44479,0,54638,58786,54223.62,57599.52,414.37,1186.48,0.602516,94.88,1
262889,1,44519,0,54649,58801,54224.48,57601.93,424.52,1199.07,0.602058,94.88,1
262929,1,44559,0,54655,58813,54225.34,57604.35,429.66,1208.65,0.601594,94.88,1
262969,1,44599,0,54658,58831,54226.21,57606.80,431.79,1224.20,0.601124,94.89,1
263009,1,44639,0,54660,58852,54227.07,57609.30,432.93,1242.70,0.600648,94.89,1
263049,1,44679,0,54667,58862,54227.96,57611.80,439.04,1250.20,0.600166,94.89,1
263089,1,44719,0,54667,58875,54228.84,57614.33,438.16,1260.67,0.599678,94.90,1
263129,1,44759,0,54677,58894,54229.73,57616.89,447.27,1277.11,0.599185,94.90,1
263169,1,44799,0,54685,58908,54230.64,57619.48,454.36,1288.52,0.598688,94.90,1
263209,1,44839,0,54694,58928,54231.57,57622.09,462.43,1305.91,0.598187,94.91,1
263249,1,44879,0,54699,58941,54232.51,57624.73,466.49,1316.27,0.597681,94.91,1
263289,1,44919,0,54701,58958,54233.45,57627.40,467.55,1330.60,0.597171,94.92,1
263329,1,44959,0,54710,58968,54234.40,57630.09,475.60,1337.91,0.596658,94.92,1
263369,1,44999,0,54706,58984,54235.35,57632.80,470.65,1351.20,0.596142,94.93,1
263409,1,45039,0,54713,59000,54236.30,57635.53,476.70,1364.47,0.595621,94.93,1
263449,1,45079,0,54716,59012,54237.27,57638.29,478.73,1373.71,0.595097,94.94,1
263489,1,45119,0,54719,59019,54238.23,57641.05,480.77,1377.95,0.594570,94.94,1
263529,1,45159,0,54719,59033,54239.20,57643.83,479.80,1389.17,0.594040,94.95,1
263569,1,45199,0,54726,59036,54240.17,57646.62,485.83,1389.38,0.593507,94.96,1
263609,1,45239,0,54717,59015,54241.12,57649.36,475.87,1365.64,0.592971,94.96,1
263649,1,45279,0,54693,58975,54242.03,57652.01,450.97,1322.99,0.592433,94.97,1
263689,1,45319,0,54677,58969,54242.90,57654.64,434.10,1314.36,0.591892,94.98,1
263730,1,45360,0,54683,58981,54243.79,57657.30,439.21,1323.70,0.591348,94.98,1
263770,1,45400,0,54685,58981,54244.67,57659.95,440.33,1321.05,0.590802,94.99,1
263810,1,45440,0,54678,58989,54245.54,57662.61,432.46,1326.39,0.590252,95.00,1
263850,1,45480,0,54679,58998,54246.40,57665.28,432.60,1332.72,0.589700,95.01,1
263890,1,45520,0,54678,59002,54247.27,57667.95,430.73,1334.05,0.589145,95.02,1
263930,1,45560,0,54679,59008,54248.13,57670.63,430.87,1337.37,0.588587,95.02,1
263970,1,45600,0,54678,59021,54248.99,57673.34,429.01,1347.66,0.588026,95.03,1
264010,1,45640,0,54683,59027,54249.86,57676.04,433.14,1350.96,0.587462,95.04,1
264050,1,45680,0,54685,59039,54250.73,57678.77,434.27,1360.23,0.586896,95.05,1
264090,1,45720,0,54685,59053,54251.60,57681.52,433.40,1371.48,0.586328,95.06,1
264130,1,45760,0,54687,59060,54252.47,57684.28,434.53,1375.72,0.585756,95.07,1
264170,1,45800,0,54693,59082,54253.36,57687.07,439.64,1394.93,0.585183,95.08,1
264210,1,45840,0,54696,59088,54254.24,57689.88,441.76,1398.12,0.584606,95.08,1
264250,1,45880,0,54698,59101,54255.13,57692.70,442.87,1408.30,0.584028,95.09,1
264290,1,45920,0,54701,59110,54256.03,57695.54,444.97,1414.46,0.583447,95.10,1
264330,1,45960,0,54710,59114,54256.94,57698.38,453.06,1415.62,0.582865,95.11,1
264370,1,46000,0,54709,59112,54257.84,57701.21,451.16,1410.79,0.582281,95.12,1
264410,1,46040,0,54695,59069,54258.72,57703.95,436.28,1365.05,0.581696,95.13,1
264450,1,46080,0,54674,59059,54259.55,57706.66,414.45,1352.34,0.581109,95.14,1
264490,1,46120,0,54676,59068,54260.39,57709.38,415.61,1358.62,0.580520,95.15,1
264530,1,46160,0,54677,59081,54261.22,57712.12,415.78,1368.88,0.579929,95.16,1
264570,1,46200,0,54676,59086,54262.05,57714.87,413.95,1371.13,0.579336,95.18,1
264610,1,46240,0,54681,59085,54262.89,57717.62,418.11,1367.38,0.578742,95.19,1
264650,1,46280,0,54679,59095,54263.73,57720.37,415.27,1374.63,0.578146,95.20,1
264690,1,46320,0,54676,59094,54264.55,57723.12,411.45,1370.88,0.577548,95.21,1
264730,1,46360,0,54673,59098,54265.37,57725.87,407.63,1372.13,0.576949,95.22,1
264770,1,46400,0,54678,59111,54266.20,57728.65,411.80,1382.35,0.576348,95.23,1
264810,1,46440,0,54674,59118,54267.01,57731.43,406.99,1386.57,0.575745,95.24,1
264850,1,46480,0,54680,59127,54267.84,57734.22,412.16,1392.78,0.575140,95.25,1
264891,1,46521,0,54676,59137,54268.66,57737.03,407.34,1399.97,0.574534,95.26,1
264931,1,46561,0,54684,59150,54269.49,57739.86,414.51,1410.14,0.573926,95.28,1
264971,1,46601,0,54684,59161,54270.32,57742.70,413.68,1418.30,0.573317,95.29,1
265011,1,46641,0,54682,59170,54271.14,57745.56,410.86,1424.44,0.572706,95.30,1
265051,1,46681,0,54679,59185,54271.96,57748.44,407.04,1436.56,0.572093,95.31,1
265091,1,46721,0,54684,59199,54272.79,57751.34,411.21,1447.66,0.571477,95.32,1
265131,1,46761,0,54687,59187,54273.61,57754.21,413.39,1432.79,0.570861,95.34,1
265171,1,46801,0,54664,59131,54274.39,57756.96,389.61,1374.04,0.570243,95.35,1
265211,1,46841,0,54645,59112,54275.14,57759.68,369.86,1352.32,0.569624,95.36,1
265251,1,46881,0,54641,59123,54275.87,57762.40,365.13,1360.60,0.569002,95.37,1
265291,1,46921,0,54637,59127,54276.59,57765.13,360.41,1361.87,0.568379,95.39,1
265331,1,46961,0,54640,59133,54277.32,57767.87,362.68,1365.13,0.567754,95.40,1
265371,1,47001,0,54639,59126,54278.05,57770.59,360.95,1355.41,0.567127,95.41,1
265411,1,47041,0,54639,59131,54278.77,57773.31,360.23,1357.69,0.566499,95.42,1
265451,1,47081,0,54640,59128,54279.49,57776.02,360.51,1351.98,0.565869,95.44,1
265491,1,47121,0,54641,59130,54280.21,57778.73,360.79,1351.27,0.565238,95.45,1
265531,1,47161,0,54638,59136,54280.93,57781.45,357.07,1354.55,0.564606,95.46,1
265571,1,47201,0,54634,59136,54281.64,57784.16,352.36,1351.84,0.563972,95.48,1
265611,1,47241,0,54628,59146,54282.34,57786.89,345.66,1359.11,0.563336,95.49,1
265651,1,47281,0,54632,59160,54283.04,57789.63,348.96,1370.37,0.562699,95.50,1
265691,1,47321,0,54631,59163,54283.73,57792.38,347.27,1370.62,0.562060,95.52,1
265731,1,47361,0,54633,59167,54284.43,57795.13,348.57,1371.87,0.561419,95.53,1
265771,1,47401,0,54635,59178,54285.14,57797.90,349.86,1380.10,0.560777,95.54,1
265811,1,47441,0,54635,59184,54285.84,57800.67,349.16,1383.33,0.560133,95.56,1
265851,1,47481,0,54628,59195,54286.52,57803.46,341.48,1391.54,0.559488,95.57,1
265891,1,47521,0,54627,59198,54287.21,57806.25,339.79,1391.75,0.558841,95.58,1
265931,1,47561,0,54614,59140,54287.86,57808.92,326.14,1331.08,0.558192,95.60,1
265971,1,47601,0,54577,59080,54288.44,57811.46,288.56,1268.54,0.557542,95.61,1
266012,1,47642,0,54561,59063,54288.99,57813.96,272.01,1249.04,0.556890,95.63,1
266052,1,47682,0,54553,59051,54289.52,57816.44,263.48,1234.56,0.556237,95.64,1
266092,1,47722,0,54542,59045,54290.03,57818.90,251.97,1226.10,0.555582,95.65,1
266132,1,47762,0,54538,59027,54290.52,57821.32,247.48,1205.68,0.554925,95.67,1
266172,1,47802,0,54525,59032,54290.99,57823.74,234.01,1208.26,0.554267,95.68,1
266212,1,47842,0,54525,59030,54291.46,57826.15,233.54,1203.85,0.553606,95.70,1
266252,1,47882,0,54520,59024,54291.92,57828.55,228.08,1195.45,0.552944,95.71,1
266292,1,47922,0,54518,59023,54292.37,57830.94,225.63,1192.06,0.552280,95.73,1
266332,1,47962,0,54515,59023,54292.82,57833.33,222.18,1189.67,0.551614,95.74,1
266372,1,48002,0,54513,59032,54293.26,57835.73,219.74,1196.27,0.550947,95.75,1
266412,1,48042,0,54507,59047,54293.69,57838.15,213.31,1208.85,0.550277,95.77,1
266452,1,48082,0,54515,59063,54294.13,57840.61,220.87,1222.39,0.549606,95.78,1
266492,1,48122,0,54520,59077,54294.59,57843.08,225.41,1233.92,0.548933,95.80,1
266532,1,48162,0,54525,59086,54295.05,57845.57,229.95,1240.43,0.548257,95.81,1
266572,1,48202,0,54528,59094,54295.52,57848.07,232.48,1245.93,0.547580,95.83,1
266612,1,48242,0,54531,59110,54295.99,57850.59,235.01,1259.41,0.546902,95.84,1
266652,1,48282,0,54536,59114,54296.47,57853.12,239.53,1260.88,0.546221,95.86,1
266692,1,48322,0,54532,59109,54296.94,57855.63,235.06,1253.37,0.545539,95.87,1
266732,1,48362,0,54516,59040,54297.38,57858.00,218.62,1182.00,0.544855,95.89,1
266772,1,48402,0,54475,58969,54297.74,57860.22,177.26,1108.78,0.544170,95.90,1
266812,1,48442,0,54450,58945,54298.04,57862.39,151.96,1082.61,0.543484,95.92,1
266852,1,48482,0,54444,58932,54298.34,57864.54,145.66,1067.46,0.542797,95.93,1
266892,1,48522,0,54439,58913,54298.62,57866.63,140.38,1046.37,0.542108,95.95,1
266932,1,48562,0,54432,58907,54298.89,57868.71,133.11,1038.29,0.541418,95.97,1
266972,1,48602,0,54423,58905,54299.14,57870.79,123.86,1034.21,0.540726,95.98,1
267012,1,48642,0,54421,58902,54299.38,57872.85,121.62,1029.15,0.540034,96.00,1
267052,1,48682,0,54418,58901,54299.62,57874.91,118.38,1026.09,0.539340,96.01,1
267092,1,48722,0,54416,58903,54299.86,57876.97,116.14,1026.03,0.538644,96.03,1
267133,1,48763,0,54411,58906,54300.08,57879.03,110.92,1026.97,0.537948,96.04,1
267173,1,48803,0,54411,58911,54300.30,57881.09,110.70,1029.91,0.537250,96.06,1
267213,1,48843,0,54410,58927,54300.52,57883.19,109.48,1043.81,0.536550,96.07,1
267253,1,48883,0,54415,58937,54300.75,57885.30,114.25,1051.70,0.535850,96.09,1
267293,1,48923,0,54410,58955,54300.97,57887.44,109.03,1067.56,0.535147,96.11,1
267333,1,48963,0,54411,58970,54301.20,57889.61,109.80,1080.39,0.534443,96.12,1
267373,1,49003,0,54417,58977,54301.43,57891.78,115.57,1085.22,0.533738,96.14,1
267413,1,49043,0,54420,58986,54301.67,57893.97,118.33,1092.03,0.533030,96.15,1
267453,1,49083,0,54424,58997,54301.91,57896.18,122.09,1100.82,0.532321,96.17,1
267493,1,49123,0,54423,58989,54302.16,57898.37,120.84,1090.63,0.531611,96.19,1
267533,1,49163,0,54396,58899,54302.34,57900.37,93.66,998.63,0.530899,96.20,1
267573,1,49203,0,54356,58825,54302.45,57902.22,53.55,922.78,0.530187,96.22,1
267613,1,49243,0,54340,58800,54302.53,57904.02,37.47,895.98,0.529474,96.24,1
267653,1,49283,0,54336,58792,54302.60,57905.80,33.40,886.20,0.528760,96.25,1
267693,1,49323,0,54332,58777,54302.66,57907.54,29.34,869.46,0.528046,96.27,1
267733,1,49363,0,54335,58766,54302.72,57909.26,32.28,856.74,0.527331,96.28,1
267773,1,49403,0,54334,58767,54302.79,57910.98,31.21,856.02,0.526616,96.30,1
267813,1,49443,0,54334,58761,54302.85,57912.68,31.15,848.32,0.525900,96.32,1
267853,1,49483,0,54326,58768,54302.89,57914.39,23.11,853.61,0.525184,96.33,1
267893,1,49523,0,54327,58769,54302.95,57916.10,24.05,852.90,0.524468,96.35,1
267933,1,49563,0,54328,58777,54303.00,57917.82,25.00,859.18,0.523750,96.37,1
267973,1,49603,0,54332,58790,54303.05,57919.57,28.95,870.43,0.523033,96.38,1
268013,1,49643,0,54340,58804,54303.13,57921.34,36.87,882.66,0.522314,96.40,1
268053,1,49683,0,54346,58815,54303.21,57923.13,42.79,891.87,0.521595,96.42,1
268093,1,49723,0,54351,58829,54303.31,57924.94,47.69,904.06,0.520876,96.43,1
268133,1,49763,0,54351,58846,54303.41,57926.79,47.59,919.21,0.520155,96.45,1
268173,1,49803,0,54354,58858,54303.51,57928.65,50.49,929.35,0.519434,96.47,1
268213,1,49843,0,54357,58880,54303.62,57930.55,53.38,949.45,0.518711,96.49,1
268253,1,49883,0,54366,58879,54303.75,57932.45,62.25,946.55,0.517988,96.50,1
268294,1,49924,0,54347,58795,54303.84,57934.18,43.16,860.82,0.517264,96.52,1
268334,1,49964,0,54298,58689,54303.82,57935.69,-5.82,753.31,0.516541,96.54,1
268374,1,50004,0,54276,58646,54303.77,57937.11,-27.77,708.89,0.515818,96.55,1
268414,1,50044,0,54268,58635,54303.70,57938.51,-35.70,696.49,0.515095,96.57,1
268454,1,50084,0,54259,58631,54303.61,57939.89,-44.61,691.11,0.514373,96.59,1
268494,1,50124,0,54255,58625,54303.51,57941.27,-48.51,683.73,0.513651,96.60,1
268534,1,50164,0,54255,58623,54303.42,57942.63,-48.42,680.37,0.512930,96.62,1
268574,1,50204,0,54257,58618,54303.33,57943.98,-46.33,674.02,0.512210,96.64,1
268614,1,50244,0,54257,58623,54303.24,57945.34,-46.24,677.66,0.511490,96.66,1
268654,1,50284,0,54262,58622,54303.16,57946.70,-41.16,675.30,0.510771,96.67,1
268694,1,50324,0,54259,58634,54303.07,57948.07,-44.07,685.93,0.510052,96.69,1
268734,1,50364,0,54260,58645,54302.98,57949.46,-42.98,695.54,0.509334,96.71,1
268774,1,50404,0,54269,58661,54302.92,57950.89,-33.92,710.11,0.508616,96.73,1
268814,1,50444,0,54274,58679,54302.86,57952.35,-28.86,726.65,0.507898,96.74,1
268854,1,50484,0,54276,58690,54302.81,57953.82,-26.81,736.18,0.507180,96.76,1
268894,1,50524,0,54290,58704,54302.79,57955.32,-12.79,748.68,0.506463,96.78,1
268934,1,50564,0,54294,58707,54302.77,57956.83,-8.77,750.17,0.505745,96.79,1
268974,1,50604,0,54294,58716,54302.76,57958.35,-8.76,757.65,0.505027,96.81,1
269014,1,50644,0,54301,58705,54302.75,57959.84,-1.75,745.16,0.504310,96.83,1
269054,1,50684,0,54268,58583,54302.69,57961.09,-34.69,621.91,0.503593,96.85,1
269094,1,50724,0,54217,58480,54302.52,57962.13,-85.52,517.87,0.502877,96.86,1
269134,1,50764,0,54191,58445,54302.29,57963.10,-111.29,481.90,0.502164,96.88,1
269174,1,50804,0,54192,58442,54302.07,57964.06,-110.07,477.94,0.501453,96.90,1
269214,1,50844,0,54191,58436,54301.85,57965.00,-110.85,471.00,0.500744,96.92,1
269254,1,50884,0,54193,58432,54301.64,57965.94,-108.64,466.06,0.500036,96.93,1
269294,1,50924,0,54192,58433,54301.42,57966.87,-109.42,466.12,0.499331,96.95,1
269334,1,50964,0,54188,58419,54301.19,57967.78,-113.19,451.22,0.498628,96.97,1
269374,1,51004,0,54184,58409,54300.96,57968.66,-116.96,440.34,0.497928,96.99,1
269414,1,51044,0,54187,58413,54300.73,57969.55,-113.73,443.45,0.497229,97.00,1
269455,1,51085,0,54192,58423,54300.52,57970.46,-108.52,452.54,0.496532,97.02,1
269495,1,51125,0,54200,58441,54300.32,57971.41,-100.32,469.59,0.495838,97.04,1
269535,1,51165,0,54212,58457,54300.14,57972.38,-88.14,484.62,0.495145,97.06,1
269575,1,51205,0,54215,58470,54299.97,57973.37,-84.97,496.62,0.494453,97.07,1
269615,1,51245,0,54220,58489,54299.81,57974.41,-79.81,514.59,0.493763,97.09,1
269655,1,51285,0,54226,58502,54299.67,57975.46,-73.67,526.54,0.493074,97.11,1
269695,1,51325,0,54238,58522,54299.55,57976.56,-61.55,545.44,0.492387,97.13,1
269735,1,51365,0,54238,58451,54299.43,57977.51,-61.43,473.49,0.491700,97.14,1
269775,1,51405,0,54199,58307,54299.23,57978.17,-100.23,328.83,0.491016,97.16,1
269815,1,51445,0,54157,58225,54298.95,57978.66,-141.95,246.34,0.490335,97.18,1
269855,1,51485,0,54150,58216,54298.65,57979.14,-148.65,236.86,0.489658,97.20,1
269895,1,51525,0,54155,58218,54298.36,57979.62,-143.36,238.38,0.488984,97.21,1
269935,1,51565,0,54165,58215,54298.10,57980.09,-133.10,234.91,0.488313,97.23,1
269975,1,51605,0,54168,58224,54297.84,57980.58,-129.84,243.42,0.487645,97.25,1
270015,1,51645,0,54181,58221,54297.61,57981.06,-116.61,239.94,0.486980,97.27,1
270055,1,51685,0,54181,58212,54297.38,57981.53,-116.38,230.47,0.486318,97.28,1
270095,1,51725,0,54188,58214,54297.16,57981.99,-109.16,232.01,0.485658,97.30,1
270135,1,51765,0,54195,58228,54296.96,57982.48,-101.96,245.52,0.485001,97.32,1
270175,1,51805,0,54202,58249,54296.77,57983.02,-94.77,265.98,0.484346,97.33,1
270215,1,51845,0,54218,58282,54296.61,57983.62,-78.61,298.38,0.483693,97.35,1
270255,1,51885,0,54233,58314,54296.49,57984.28,-63.49,329.72,0.483042,97.37,1
270295,1,51925,0,54249,58339,54296.39,57984.99,-47.39,354.01,0.482392,97.39,1
270335,1,51965,0,54266,58376,54296.34,57985.78,-30.34,390.22,0.481744,97.40,1
270375,1,52005,0,54280,58388,54296.30,57986.58,-16.30,401.42,0.481097,97.42,1
270415,1,52045,0,54289,58373,54296.29,57987.36,-7.29,385.64,0.480451,97.44,1
270455,1,52085,0,54252,58213,54296.21,57987.81,-44.21,225.19,0.479807,97.45,1
270495,1,52125,0,54188,58080,54295.99,57988.00,-107.99,92.00,0.479166,97.47,1
270535,1,52165,0,54162,58045,54295.73,57988.11,-133.73,56.89,0.478528,97.49,1
270575,1,52205,0,54160,58038,54295.46,57988.21,-135.46,49.79,0.477894,97.51,1
270616,1,52246,0,54159,58013,54295.18,57988.27,-136.18,24.73,0.477263,97.52,1
270656,1,52286,0,54152,58002,54294.90,57988.29,-142.90,13.71,0.476636,97.54,1
270696,1,52326,0,54156,58016,54294.62,57988.35,-138.62,27.65,0.476012,97.56,1
270736,1,52366,0,54168,58024,54294.37,57988.43,-126.37,35.57,0.475392,97.57,1
270776,1,52406,0,54174,58033,54294.13,57988.52,-120.13,44.48,0.474775,97.59,1
270816,1,52446,0,54177,58055,54293.90,57988.65,-116.90,66.35,0.474161,97.61,1
270856,1,52486,0,54189,58080,54293.69,57988.83,-104.69,91.17,0.473550,97.62,1
270896,1,52526,0,54209,58109,54293.52,57989.07,-84.52,119.93,0.472941,97.64,1
270936,1,52566,0,54218,58146,54293.37,57989.39,-75.37,156.61,0.472334,97.66,1
270976,1,52606,0,54242,58184,54293.27,57989.78,-51.27,194.22,0.471729,97.67,1
271016,1,52646,0,54257,58217,54293.20,57990.24,-36.20,226.76,0.471126,97.69,1
271056,1,52686,0,54274,58249,54293.17,57990.76,-19.17,258.24,0.470525,97.71,1
271096,1,52726,0,54288,58278,54293.16,57991.33,-5.16,286.67,0.469924,97.72,1
271136,1,52766,0,54293,58251,54293.16,57991.85,-0.16,259.15,0.469325,97.74,1
271176,1,52806,0,54257,58110,54293.09,57992.09,-36.09,117.91,0.468728,97.75,1
271216,1,52846,0,54208,58023,54292.92,57992.15,-84.92,30.85,0.468134,97.77,1
271256,1,52886,0,54198,58016,54292.73,57992.20,-94.73,23.80,0.467542,97.79,1
271296,1,52926,0,54204,58013,54292.56,57992.25,-88.56,20.75,0.466952,97.80,1
271336,1,52966,0,54204,58006,54292.38,57992.27,-88.38,13.73,0.466365,97.82,1
271376,1,53006,0,54206,58012,54292.21,57992.31,-86.21,19.69,0.465781,97.84,1
271416,1,53046,0,54216,58040,54292.06,57992.41,-76.06,47.59,0.465199,97.85,1
271456,1,53086,0,54225,58061,54291.93,57992.55,-66.93,68.45,0.464619,97.87,1
271496,1,53126,0,54233,58089,54291.81,57992.75,-58.81,96.25,0.464042,97.88,1
271536,1,53166,0,54244,58112,54291.71,57992.98,-47.71,119.02,0.463466,97.90,1
271576,1,53206,0,54259,58146,54291.65,57993.29,-32.65,152.71,0.462892,97.92,1
271616,1,53246,0,54275,58179,54291.62,57993.66,-16.62,185.34,0.462319,97.93,1
271656,1,53286,0,54290,58217,54291.62,57994.11,-1.62,222.89,0.461748,97.95,1
271696,1,53326,0,54301,58259,54291.64,57994.64,9.36,264.36,0.461178,97.96,1
271736,1,53366,0,54314,58293,54291.69,57995.24,22.31,297.76,0.460609,97.98,1
271776,1,53406,0,54326,58327,54291.76,57995.91,34.24,331.09,0.460041,97.99,1
271816,1,53446,0,54338,58357,54291.85,57996.63,46.15,360.37,0.459474,98.01,1
271857,1,53487,0,54350,58389,54291.97,57997.41,58.03,391.59,0.458908,98.02,1
271897,1,53527,0,54356,58367,54292.10,57998.16,63.90,368.84,0.458344,98.04,1
271937,1,53567,0,54322,58252,54292.16,57998.66,29.84,253.34,0.457780,98.06,1
271977,1,53607,0,54279,58206,54292.14,57999.08,-13.14,206.92,0.457218,98.07,1
272017,1,53647,0,54275,58196,54292.11,57999.48,-17.11,196.52,0.456658,98.09,1
272057,1,53687,0,54276,58203,54292.07,57999.89,-16.07,203.11,0.456098,98.10,1
272097,1,53727,0,54274,58205,54292.04,58000.30,-18.04,204.70,0.455541,98.12,1
272137,1,53767,0,54278,58212,54292.01,58000.72,-14.01,211.28,0.454984,98.13,1
272177,1,53807,0,54287,58239,54292.00,58001.20,-5.00,237.80,0.454429,98.15,1
272217,1,53847,0,54296,58256,54292.01,58001.71,3.99,254.29,0.453875,98.16,1
272257,1,53887,0,54299,58280,54292.03,58002.27,6.97,277.73,0.453322,98.18,1
272297,1,53927,0,54306,58311,54292.06,58002.89,13.94,308.11,0.452770,98.19,1
272337,1,53967,0,54322,58340,54292.12,58003.56,29.88,336.44,0.452219,98.21,1
272377,1,54007,0,54331,58376,54292.20,58004.31,38.80,371.69,0.451668,98.22,1
272417,1,54047,0,54348,58402,54292.31,58005.11,55.69,396.89,0.451119,98.24,1
272457,1,54087,0,54356,58432,54292.44,58005.96,63.56,426.04,0.450570,98.25,1
272497,1,54127,0,54370,58460,54292.60,58006.87,77.40,453.13,0.450021,98.27,1
272537,1,54167,0,54377,58484,54292.77,58007.83,84.23,476.17,0.449474,98.28,1
272577,1,54207,0,54384,58509,54292.95,58008.83,91.05,500.17,0.448927,98.30,1
272617,1,54247,0,54395,58534,54293.16,58009.88,101.84,524.12,0.448381,98.31,1
272657,1,54287,0,54398,58555,54293.37,58010.97,104.63,544.03,0.447835,98.33,1
272697,1,54327,0,54401,58547,54293.59,58012.05,107.41,534.95,0.447290,98.34,1
272737,1,54367,0,54378,58455,54293.76,58012.93,84.24,442.07,0.446746,98.36,1
272777,1,54407,0,54343,58400,54293.86,58013.71,49.14,386.29,0.446203,98.37,1
272817,1,54447,0,54334,58395,54293.94,58014.48,40.06,380.52,0.445661,98.39,1
272857,1,54487,0,54329,58397,54294.01,58015.24,34.99,381.76,0.445119,98.40,1
272897,1,54527,0,54323,58393,54294.07,58016.00,28.93,377.00,0.444577,98.41,1
272937,1,54567,0,54321,58399,54294.12,58016.77,26.87,382.23,0.444036,98.43,1
272977,1,54607,0,54320,58407,54294.18,58017.55,25.82,389.45,0.443496,98.44,1
273018,1,54648,0,54322,58410,54294.24,58018.33,27.76,391.67,0.442955,98.46,1
273058,1,54688,0,54320,58418,54294.29,58019.13,25.71,398.87,0.442415,98.47,1
273098,1,54728,0,54321,58429,54294.35,58019.95,26.65,409.05,0.441876,98.49,1
273138,1,54768,0,54323,58447,54294.41,58020.81,28.59,426.19,0.441336,98.50,1
273178,1,54808,0,54324,58470,54294.47,58021.71,29.53,448.29,0.440797,98.52,1
273218,1,54848,0,54328,58487,54294.54,58022.64,33.46,464.36,0.440257,98.53,1
273258,1,54888,0,54338,58509,54294.63,58023.61,43.37,485.39,0.439717,98.54,1
273298,1,54928,0,54340,58518,54294.72,58024.61,45.28,493.39,0.439177,98.56,1
273338,1,54968,0,54347,58537,54294.83,58025.63,52.17,511.37,0.438636,98.57,1
273378,1,55008,0,54348,58555,54294.94,58026.69,53.06,528.31,0.438095,98.59,1
273418,1,55048,0,54354,58574,54295.06,58027.79,58.94,546.21,0.437553,98.60,1
273458,1,55088,0,54357,58578,54295.18,58028.89,61.82,549.11,0.437011,98.62,1
273498,1,55128,0,54342,58510,54295.28,58029.86,46.72,480.14,0.436469,98.63,1
273538,1,55168,0,54311,58459,54295.31,58030.71,15.69,428.29,0.435927,98.64,1
273578,1,55208,0,54300,58451,54295.32,58031.56,4.68,419.44,0.435385,98.66,1
273618,1,55248,0,54299,58455,54295.33,58032.41,3.67,422.59,0.434842,98.67,1
273658,1,55288,0,54300,58447,54295.34,58033.24,4.66,413.76,0.434300,98.69,1
273698,1,55328,0,54297,58458,54295.34,58034.09,1.66,423.91,0.433758,98.70,1
273738,1,55368,0,54298,58464,54295.35,58034.95,2.65,429.05,0.433216,98.71,1
273778,1,55408,0,54296,58474,54295.36,58035.83,0.64,438.17,0.432673,98.73,1
273818,1,55448,0,54290,58483,54295.35,58036.72,-5.35,446.28,0.432131,98.74,1
273858,1,55488,0,54294,58493,54295.35,58037.64,-1.35,455.36,0.431588,98.76,1
273898,1,55528,0,54299,58511,54295.36,58038.59,3.64,472.41,0.431044,98.77,1
273938,1,55568,0,54307,58529,54295.38,58039.57,11.62,489.43,0.430500,98.78,1
273978,1,55608,0,54307,58551,54295.40,58040.59,11.60,510.41,0.429955,98.80,1
274018,1,55648,0,54310,58571,54295.43,58041.65,14.57,529.35,0.429410,98.81,1
274058,1,55688,0,54314,58587,54295.47,58042.75,18.53,544.25,0.428863,98.83,1
274098,1,55728,0,54314,58603,54295.51,58043.87,18.49,559.13,0.428315,98.84,1
274138,1,55768,0,54315,58619,54295.55,58045.02,19.45,573.98,0.427765,98.85,1
274179,1,55809,0,54323,58635,54295.61,58046.20,27.39,588.80,0.427214,98.87,1
274219,1,55849,0,54326,58637,54295.67,58047.38,30.33,589.62,0.426662,98.88,1
274259,1,55889,0,54307,58565,54295.69,58048.42,11.31,516.58,0.426109,98.90,1
274299,1,55929,0,54272,58512,54295.64,58049.35,-23.64,462.65,0.425555,98.91,1
274339,1,55969,0,54256,58503,54295.57,58050.26,-39.57,452.74,0.425002,98.92,1
274379,1,56009,0,54252,58500,54295.48,58051.16,-43.48,448.84,0.424449,98.94,1
274419,1,56049,0,54247,58492,54295.39,58052.04,-48.39,439.96,0.423896,98.95,1
274459,1,56089,0,54243,58488,54295.29,58052.92,-52.29,435.08,0.423344,98.97,1
274499,1,56129,0,54245,58501,54295.19,58053.82,-50.19,447.18,0.422791,98.98,1
274539,1,56169,0,54243,58513,54295.09,58054.73,-52.09,458.27,0.422239,98.99,1
274579,1,56209,0,54248,58523,54294.99,58055.67,-46.99,467.33,0.421687,99.01,1
274619,1,56249,0,54246,58545,54294.89,58056.65,-48.89,488.35,0.421135,99.02,1
274659,1,56289,0,54255,58568,54294.82,58057.68,-39.82,510.32,0.420582,99.04,1
274699,1,56329,0,54261,58591,54294.75,58058.74,-33.75,532.26,0.420029,99.05,1
274739,1,56369,0,54274,58614,54294.71,58059.86,-20.71,554.14,0.419474,99.06,1
274779,1,56409,0,54283,58631,54294.69,58061.00,-11.69,570.00,0.418918,99.08,1
274819,1,56449,0,54286,58650,54294.67,58062.18,-8.67,587.82,0.418360,99.09,1
274859,1,56489,0,54295,58667,54294.68,58063.39,0.32,603.61,0.417801,99.11,1
274899,1,56529,0,54300,58685,54294.69,58064.64,5.31,620.36,0.417240,99.12,1
274939,1,56569,0,54307,58704,54294.71,58065.92,12.29,638.08,0.416676,99.13,1
274979,1,56609,0,54304,58724,54294.73,58067.23,9.27,656.77,0.416111,99.15,1
275019,1,56649,0,54311,58740,54294.77,58068.58,16.23,671.42,0.415543,99.16,1
275059,1,56689,0,54306,58688,54294.79,58069.82,11.21,618.18,0.414973,99.17,1
275099,1,56729,0,54272,58606,54294.75,58070.90,-22.75,535.10,0.414403,99.19,1
275139,1,56769,0,54244,58575,54294.65,58071.91,-50.65,503.09,0.413832,99.20,1
275179,1,56809,0,54238,58566,54294.54,58072.89,-56.54,493.11,0.413262,99.22,1
275219,1,56849,0,54230,58556,54294.41,58073.86,-64.41,482.14,0.412692,99.23,1
275259,1,56889,0,54219,58542,54294.26,58074.80,-75.26,467.20,0.412123,99.24,1
275299,1,56929,0,54211,58543,54294.09,58075.74,-83.09,467.26,0.411555,99.26,1
275340,1,56970,0,54212,58549,54293.93,58076.69,-81.93,472.31,0.410988,99.27,1
275380,1,57010,0,54214,58554,54293.77,58077.64,-79.77,476.36,0.410423,99.29,1
275420,1,57050,0,54211,58558,54293.61,58078.61,-82.61,479.39,0.409858,99.30,1
275460,1,57090,0,54212,58575,54293.45,58079.60,-81.45,495.40,0.409294,99.31,1
275500,1,57130,0,54214,58585,54293.29,58080.61,-79.29,504.39,0.408731,99.33,1
275540,1,57170,0,54218,58611,54293.14,58081.68,-75.14,529.32,0.408168,99.34,1
275580,1,57210,0,54222,58627,54293.00,58082.77,-71.00,544.23,0.407605,99.36,1
275620,1,57250,0,54226,58648,54292.87,58083.90,-66.87,564.10,0.407042,99.37,1
275660,1,57290,0,54233,58657,54292.75,58085.05,-59.75,571.95,0.406479,99.38,1
275700,1,57330,0,54237,58673,54292.64,58086.23,-55.64,586.77,0.405914,99.40,1
275740,1,57370,0,54247,58695,54292.55,58087.45,-45.55,607.55,0.405349,99.41,1
275780,1,57410,0,54245,58709,54292.46,58088.69,-47.46,620.31,0.404782,99.43,1
275820,1,57450,0,54248,58734,54292.37,58089.98,-44.37,644.02,0.404213,99.44,1
275860,1,57490,0,54254,58740,54292.30,58091.29,-38.30,648.71,0.403643,99.46,1
275900,1,57530,0,54246,58680,54292.21,58092.46,-46.21,587.54,0.403072,99.47,1
275940,1,57570,0,54210,58587,54292.04,58093.46,-82.04,493.54,0.402502,99.48,1
275980,1,57610,0,54182,58548,54291.82,58094.37,-109.82,453.63,0.401935,99.50,1
276020,1,57650,0,54170,58534,54291.58,58095.25,-121.58,438.75,0.401370,99.51,1
276060,1,57690,0,54172,58523,54291.34,58096.10,-119.34,426.90,0.400810,99.53,1
276100,1,57730,0,54162,58501,54291.09,58096.91,-129.09,404.09,0.400253,99.54,1
276140,1,57770,0,54159,58507,54290.82,58097.73,-131.82,409.27,0.399700,99.55,1
276180,1,57810,0,54150,58501,54290.54,58098.54,-140.54,402.46,0.399152,99.57,1
276220,1,57850,0,54148,58490,54290.26,58099.33,-142.26,390.67,0.398609,99.58,1
276260,1,57890,0,54144,58499,54289.96,58100.13,-145.96,398.87,0.398070,99.59,1
276300,1,57930,0,54149,58499,54289.68,58100.93,-140.68,398.07,0.397537,99.60,1
276340,1,57970,0,54145,58509,54289.39,58101.75,-144.39,407.25,0.397008,99.62,1
276380,1,58010,0,54148,58520,54289.11,58102.59,-141.11,417.41,0.396484,99.63,1
276420,1,58050,0,54146,58530,54288.83,58103.44,-142.83,426.56,0.395964,99.64,1
276460,1,58090,0,54148,58544,54288.55,58104.32,-140.55,439.68,0.395448,99.65,1
276500,1,58130,0,54153,58547,54288.28,58105.21,-135.28,441.79,0.394936,99.66,1
276541,1,58171,0,54152,58557,54288.01,58106.12,-136.01,450.88,0.394428,99.67,1
276581,1,58211,0,54153,58565,54287.74,58107.04,-134.74,457.96,0.393923,99.68,1
276621,1,58251,0,54156,58575,54287.48,58107.97,-131.48,467.03,0.393422,99.69,1
276661,1,58291,0,54153,58589,54287.21,58108.94,-134.21,480.06,0.392924,99.70,1
276701,1,58331,0,54148,58524,54286.93,58109.77,-138.93,414.23,0.392430,99.71,1
276741,1,58371,0,54101,58428,54286.56,58110.41,-185.56,317.59,0.391945,99.72,1
276781,1,58411,0,54072,58384,54286.14,58110.95,-214.14,273.05,0.391470,99.73,1
276821,1,58451,0,54061,58377,54285.69,58111.49,-224.69,265.51,0.391008,99.73,1
276861,1,58491,0,54066,58369,54285.25,58112.00,-219.25,257.00,0.390557,99.74,1
276901,1,58531,0,54064,58369,54284.81,58112.52,-220.81,256.48,0.390118,99.75,1
276941,1,58571,0,54062,58371,54284.36,58113.04,-222.36,257.96,0.389691,99.76,1
276981,1,58611,0,54063,58377,54283.92,58113.57,-220.92,263.43,0.389275,99.76,1
277021,1,58651,0,54062,58374,54283.48,58114.09,-221.48,259.91,0.388870,99.77,1
277061,1,58691,0,54067,58373,54283.05,58114.61,-216.05,258.39,0.388476,99.78,1
277101,1,58731,0,54073,58391,54282.63,58115.17,-209.63,275.83,0.388091,99.78,1
277141,1,58771,0,54079,58408,54282.23,58115.75,-203.23,292.25,0.387716,99.79,1
277181,1,58811,0,54091,58428,54281.84,58116.38,-190.84,311.62,0.387349,99.80,1
277221,1,58851,0,54097,58441,54281.48,58117.03,-184.48,323.97,0.386988,99.80,1
277261,1,58891,0,54106,58458,54281.13,58117.71,-175.13,340.29,0.386634,99.81,1
277301,1,58931,0,54106,58470,54280.78,58118.42,-174.78,351.58,0.386286,99.82,1
277341,1,58971,0,54114,58488,54280.45,58119.16,-166.45,368.84,0.385943,99.82,1
277381,1,59011,0,54115,58498,54280.12,58119.92,-165.12,378.08,0.385605,99.83,1
277421,1,59051,0,54123,58514,54279.81,58120.71,-156.81,393.29,0.385271,99.83,1
277461,1,59091,0,54123,58447,54279.50,58121.36,-156.50,325.64,0.384942,99.84,1
277501,1,59131,0,54075,58321,54279.09,58121.77,-204.09,199.23,0.384623,99.84,1
277541,1,59171,0,54035,58251,54278.60,58122.03,-243.60,128.97,0.384317,99.85,1
277581,1,59211,0,54019,58230,54278.08,58122.25,-259.08,107.75,0.384026,99.85,1
277621,1,59251,0,54015,58212,54277.56,58122.43,-262.56,89.57,0.383751,99.86,1
277661,1,59291,0,54009,58194,54277.02,58122.57,-268.02,71.43,0.383492,99.86,1
277701,1,59331,0,54004,58192,54276.48,58122.71,-272.48,69.29,0.383250,99.86,1
277742,1,59372,0,54007,58190,54275.94,58122.85,-268.94,67.15,0.383023,99.87,1
277782,1,59412,0,54008,58193,54275.41,58122.99,-267.41,70.01,0.382812,99.87,1
277822,1,59452,0,54008,58192,54274.87,58123.13,-266.87,68.87,0.382616,99.88,1
277862,1,59492,0,54008,58206,54274.34,58123.30,-266.34,82.70,0.382435,99.88,1
277902,1,59532,0,54016,58225,54273.82,58123.50,-257.82,101.50,0.382268,99.88,1
277942,1,59572,0,54024,58245,54273.32,58123.75,-249.32,121.25,0.382114,99.89,1
277982,1,59612,0,54031,58263,54272.84,58124.03,-241.84,138.97,0.381973,99.89,1
278022,1,59652,0,54043,58281,54272.38,58124.34,-229.38,156.66,0.381841,99.89,1
278062,1,59692,0,54057,58301,54271.95,58124.70,-214.95,176.30,0.381719,99.90,1
278102,1,59732,0,54065,58324,54271.54,58125.10,-206.54,198.90,0.381606,99.90,1
278142,1,59772,0,54071,58338,54271.14,58125.52,-200.14,212.48,0.381499,99.90,1
278182,1,59812,0,54082,58353,54270.77,58125.98,-188.77,227.02,0.381400,99.91,1
278222,1,59852,0,54081,58273,54270.39,58126.28,-189.39,146.72,0.381307,99.91,1
278262,1,59892,0,54029,58120,54269.91,58126.27,-240.91,-6.27,0.381227,99.91,1
278302,1,59932,0,53990,58060,54269.35,58126.13,-279.35,-66.13,0.381163,99.91,1
278342,1,59972,0,53985,58038,54268.78,58125.96,-283.78,-87.96,0.381115,99.92,1
278382,1,60012,0,53983,58026,54268.21,58125.76,-285.21,-99.76,0.381083,99.92,1
278422,1,60052,0,53987,58033,54267.65,58125.57,-280.65,-92.57,0.381067,99.92,1
278462,1,60092,1,53979,58027,54267.07,58125.38,-288.07,-98.38,0.381068,99.92,1
278502,1,60132,1,53997,58026,54266.54,58125.18,-269.54,-99.18,0.381083,99.93,1
278542,1,60172,1,53998,58032,54266.00,58125.00,-268.00,-93.00,0.381112,99.93,1
278582,1,60212,1,54007,58042,54265.48,58124.84,-258.48,-82.84,0.381154,99.93,1
278622,1,60252,1,54019,58058,54264.99,58124.70,-245.99,-66.70,0.381207,99.93,1
278662,1,60292,1,54028,58075,54264.52,58124.61,-236.52,-49.61,0.381272,99.93,1
278702,1,60332,1,54035,58098,54264.06,58124.55,-229.06,-26.55,0.381347,99.94,1
278742,1,60372,1,54049,58125,54263.63,58124.56,-214.63,0.44,0.381431,99.94,1
278782,1,60412,1,54061,58149,54263.23,58124.61,-202.23,24.39,0.381522,99.94,1
278822,1,60452,1,54075,58170,54262.86,58124.70,-187.86,45.30,0.381621,99.94,1
278863,1,60493,1,54085,58186,54262.50,58124.83,-177.50,61.17,0.381725,99.94,1
278903,1,60533,1,54094,58202,54262.16,58124.98,-168.16,77.02,0.381835,99.95,1
278943,1,60573,1,54102,58171,54261.84,58125.08,-159.84,45.92,0.381949,99.95,1
278983,1,60613,1,54065,58015,54261.45,58124.86,-196.45,-109.86,0.382071,99.95,1
279023,1,60653,1,54007,57898,54260.95,58124.41,-253.95,-226.41,0.382204,99.95,1
279063,1,60693,1,53984,57878,54260.39,58123.91,-276.39,-245.91,0.382350,99.95,1
279103,1,60733,1,53986,57877,54259.85,58123.42,-273.85,-246.42,0.382508,99.95,1
279143,1,60773,1,53995,57871,54259.32,58122.92,-264.32,-251.92,0.382679,99.95,1
279183,1,60813,1,53996,57870,54258.80,58122.41,-262.80,-252.41,0.382861,99.96,1
279223,1,60853,1,54009,57879,54258.30,58121.93,-249.30,-242.93,0.383052,99.96,1
279263,1,60893,1,54015,57878,54257.81,58121.44,-242.81,-243.44,0.383253,99.96,1
279303,1,60933,1,54018,57878,54257.34,58120.96,-239.34,-242.96,0.383463,99.96,1
279343,1,60973,1,54026,57894,54256.87,58120.50,-230.87,-226.50,0.383681,99.96,1
279383,1,61013,1,54035,57912,54256.43,58120.09,-221.43,-208.09,0.383907,99.96,1
279423,1,61053,1,54053,57949,54256.03,58119.75,-203.03,-170.75,0.384139,99.96,1
279463,1,61093,1,54074,57980,54255.66,58119.47,-181.66,-139.47,0.384376,99.96,1
279503,1,61133,1,54093,58009,54255.34,58119.25,-162.34,-110.25,0.384618,99.97,1
279543,1,61173,1,54107,58031,54255.04,58119.08,-148.04,-88.08,0.384863,99.97,1
279583,1,61213,1,54118,58055,54254.77,58118.95,-136.77,-63.95,0.385112,99.97,1
279623,1,61253,1,54139,58075,54254.54,58118.87,-115.54,-43.87,0.385362,99.97,1
279663,1,61293,1,54128,57984,54254.29,58118.60,-126.29,-134.60,0.385614,99.97,1
279703,1,61333,1,54080,57855,54253.94,58118.07,-173.94,-263.07,0.385869,99.97,1
279743,1,61373,1,54045,57792,54253.52,58117.42,-208.52,-325.42,0.386128,99.97,1
279783,1,61413,1,54042,57801,54253.10,58116.79,-211.10,-315.79,0.386392,99.97,1
279823,1,61453,1,54059,57807,54252.71,58116.17,-193.71,-309.17,0.386658,99.97,1
279863,1,61493,1,54063,57812,54252.34,58115.56,-189.34,-303.56,0.386928,99.97,1
279903,1,61533,1,54069,57825,54251.97,58114.98,-182.97,-289.98,0.387201,99.97,1
