t_ms,trial_id,t_trial_ms,phase,red_raw,ir_raw,red_dc,ir_dc,red_ac,ir_ac,R,spo2,spo2_valid
2400359,2,0,0,49320,47490,49185.06,47479,134.94,11,0.537064,96.56,1
2400399,2,40,0,49342,47517,49185.37,47479.08,156.62,37.92,0.537265,96.56,1
2400439,2,80,0,49348,47501,49185.7,47479.12,162.3,21.87,0.537476,96.56,1
2400479,2,120,0,49339,47493,49186.01,47479.15,152.99,13.85,0.537696,96.56,1
2400519,2,160,0,49342,47521,49186.32,47479.24,155.68,41.76,0.537925,96.56,1
2400559,2,200,0,49362,47565,49186.68,47479.41,175.32,85.59,0.538164,96.56,1
2400599,2,240,0,49390,47611,49187.08,47479.68,202.92,131.32,0.538415,96.56,1
2400639,2,280,0,49414,47637,49187.54,47479.99,226.46,157.01,0.538683,96.56,1
2400679,2,320,0,49428,47670,49188.02,47480.37,239.98,189.62,0.538966,96.56,1
2400719,2,360,0,49448,47713,49188.54,47480.84,259.46,232.16,0.539266,96.55,1
2400759,2,400,0,49463,47699,49189.09,47481.28,273.91,217.72,0.539585,96.55,1
2400799,2,440,0,49415,47511,49189.54,47481.34,225.46,29.66,0.539924,96.55,1
2400839,2,480,0,49289,47311,49189.74,47481,99.26,-170,0.54026,96.55,1
2400879,2,520,0,49228,47280,49189.82,47480.6,38.18,-200.6,0.540589,96.55,1
2400919,2,560,0,49231,47313,49189.9,47480.27,41.1,-167.27,0.540912,96.55,1
2400959,2,600,0,49260,47371,49190.04,47480.05,69.96,-109.05,0.541234,96.54,1
2401000,2,641,0,49296,47425,49190.26,47479.94,105.74,-54.94,0.541559,96.54,1
2401040,2,681,0,49318,47467,49190.52,47479.91,127.48,-12.91,0.541889,96.54,1
2401080,2,721,0,49328,47463,49190.79,47479.88,137.21,-16.88,0.542227,96.54,1
2401120,2,761,0,49318,47463,49191.05,47479.85,126.95,-16.85,0.542569,96.53,1
2401160,2,801,0,49330,47498,49191.32,47479.89,138.68,18.11,0.542919,96.53,1
2401200,2,841,0,49354,47543,49191.65,47480.02,162.35,62.98,0.543277,96.53,1
2401240,2,881,0,49379,47599,49192.03,47480.26,186.97,118.74,0.543646,96.52,1
2401280,2,921,0,49408,47667,49192.46,47480.63,215.54,186.37,0.544026,96.52,1
2401320,2,961,0,49446,47726,49192.97,47481.12,253.03,244.87,0.54442,96.51,1
2401360,2,1001,0,49477,47774,49193.54,47481.71,283.46,292.29,0.544828,96.51,1
2401400,2,1041,0,49487,47697,49194.13,47482.14,292.87,214.86,0.54526,96.51,1
2401440,2,1081,0,49395,47478,49194.53,47482.14,200.47,-4.14,0.545706,96.5,1
2401480,2,1121,0,49300,47369,49194.74,47481.91,105.26,-112.91,0.546153,96.5,1
2401520,2,1161,0,49278,47561,49194.91,47482.07,83.09,78.93,0.546601,96.49,1
2401560,2,1201,0,49292,47690,49195.11,47482.49,96.89,207.51,0.547041,96.49,1
2401600,2,1241,0,49309,47456,49195.34,47482.44,113.66,-26.44,0.547486,96.48,1
2401640,2,1281,0,49346,47523,49195.64,47482.52,150.36,40.48,0.547938,96.48,1
2401680,2,1321,0,49377,47551,49196,47482.66,181,68.34,0.548401,96.47,1
2401720,2,1361,0,49377,47525,49196.36,47482.74,180.64,42.26,0.548876,96.47,1
2401761,2,1402,0,49376,47400,49196.72,47482.58,179.28,-82.58,0.549361,96.46,1
2401801,2,1442,0,49385,47584,49197.1,47482.78,187.9,101.22,0.549857,96.45,1
2401841,2,1482,0,49407,47631,49197.52,47483.08,209.48,147.92,0.550365,96.45,1
2401881,2,1522,0,49428,47672,49197.98,47483.46,230.02,188.54,0.550885,96.44,1
2401921,2,1562,0,49448,47186,49198.48,47482.86,249.52,-296.86,0.551409,96.43,1
2401961,2,1602,0,49477,47077,49199.04,47482.05,277.96,-405.05,0.551925,96.43,1
2402001,2,1642,0,49475,47679,49199.6,47482.45,275.4,196.55,0.552462,96.42,1
2402041,2,1682,0,49388,47465,49199.98,47482.41,188.02,-17.41,0.55301,96.41,1
2402081,2,1722,0,49287,47339,49200.15,47482.13,86.85,-143.13,0.553555,96.4,1
2402121,2,1762,0,49265,47360,49200.29,47481.89,64.71,-121.89,0.554097,96.4,1
2402161,2,1802,0,49297,47407,49200.48,47481.74,96.52,-74.74,0.554639,96.39,1
2402201,2,1842,0,49328,47467,49200.74,47481.71,127.26,-14.71,0.555187,96.38,1
2402241,2,1882,0,49418,47529,49201.18,47481.81,216.82,47.19,0.555752,96.37,1
2402281,2,1922,0,49545,47553,49201.86,47481.95,343.14,71.05,0.556362,96.36,1
2402321,2,1962,0,49393,47561,49202.25,47482.11,190.75,78.89,0.556983,96.36,1
2402361,2,2002,0,49408,47580,49202.66,47482.31,205.34,97.69,0.557618,96.35,1
2402401,2,2042,0,49416,47617,49203.09,47482.58,212.91,134.42,0.558264,96.34,1
2402441,2,2082,0,49932,47664,49204.55,47482.94,727.45,181.06,0.559107,96.33,1
2402481,2,2122,0,49461,47693,49205.07,47483.36,255.93,209.64,0.55996,96.32,1
2402522,2,2163,0,49477,47731,49205.61,47483.86,271.39,247.14,0.560821,96.31,1
2402562,2,2203,0,49496,47757,49206.2,47484.41,289.8,272.59,0.561689,96.3,1
2402602,2,2243,0,49502,47737,49206.79,47484.91,295.21,252.09,0.562568,96.29,1
2402642,2,2283,0,49032,47570,49206.44,47485.09,-174.44,84.91,0.563453,96.28,1
2402682,2,2323,0,48817,47407,49205.66,47484.93,-388.66,-77.93,0.564389,96.26,1
2402722,2,2363,0,49301,47387,49205.86,47484.73,95.14,-97.73,0.565323,96.25,1
2402762,2,2403,0,49318,47455,49206.08,47484.68,111.92,-29.68,0.566259,96.24,1
2402802,2,2443,0,49366,47539,49206.4,47484.79,159.6,54.21,0.5672,96.23,1
2402842,2,2483,0,49404,47592,49206.8,47485,197.2,107,0.568149,96.21,1
2402882,2,2523,0,49432,47633,49207.25,47485.3,224.75,147.7,0.569107,96.2,1
2402922,2,2563,0,49454,47646,49207.75,47485.62,246.25,160.38,0.570077,96.19,1
2402962,2,2603,0,49461,47650,49208.25,47485.95,252.75,164.05,0.571059,96.17,1
2403002,2,2643,0,49461,47667,49208.76,47486.31,252.24,180.69,0.572052,96.16,1
2403042,2,2683,0,49473,47687,49209.29,47486.71,263.71,200.29,0.573054,96.14,1
2403082,2,2723,0,49484,47699,49209.84,47487.14,274.16,211.86,0.574066,96.13,1
2403122,2,2763,0,49492,47716,49210.41,47487.6,281.59,228.4,0.575087,96.11,1
2403162,2,2803,0,49497,47732,49210.98,47488.09,286.02,243.91,0.576115,96.1,1
2403202,2,2843,0,49506,47739,49211.57,47488.59,294.43,250.41,0.57715,96.08,1
2403242,2,2883,0,49480,47606,49212.11,47488.82,267.89,117.18,0.578204,96.07,1
2403283,2,2924,0,49374,47397,49212.44,47488.64,161.56,-91.64,0.579261,96.05,1
2403323,2,2964,0,49289,47320,49212.59,47488.3,76.41,-168.3,0.580308,96.03,1
2403363,2,3004,0,49281,47352,49212.73,47488.04,68.27,-136.04,0.581347,96.02,1
2403403,2,3044,0,49304,47393,49212.91,47487.85,91.09,-94.85,0.582383,96,1
2403443,2,3084,0,49331,47453,49213.15,47487.78,117.85,-34.78,0.58342,95.98,1
2403483,2,3124,0,49365,47495,49213.46,47487.79,151.54,7.21,0.584463,95.96,1
2403523,2,3164,0,49371,47483,49213.77,47487.79,157.23,-4.79,0.585512,95.95,1
2403563,2,3204,0,49357,47453,49214.06,47487.72,142.94,-34.72,0.586565,95.93,1
2403603,2,3244,0,49350,47461,49214.34,47487.67,135.66,-26.67,0.587621,95.91,1
2403643,2,3284,0,49365,47491,49214.64,47487.68,150.36,3.32,0.588683,95.89,1
2403683,2,3324,0,49387,47525,49214.98,47487.75,172.02,37.25,0.589753,95.87,1
2403723,2,3364,0,49402,47558,49215.36,47487.89,186.64,70.11,0.590831,95.85,1
2403763,2,3404,0,49422,47592,49215.77,47488.1,206.23,103.9,0.591918,95.83,1
2403803,2,3444,0,49432,47614,49216.21,47488.36,215.79,125.64,0.593015,95.81,1
2403843,2,3484,0,49450,47624,49216.68,47488.63,233.32,135.37,0.594122,95.79,1
2403883,2,3524,0,49429,47522,49217.1,47488.7,211.9,33.3,0.595243,95.77,1
2403923,2,3564,0,49332,47320,49217.33,47488.36,114.67,-168.36,0.596354,95.75,1
2403963,2,3604,0,49241,47231,49217.38,47487.85,23.62,-256.85,0.597437,95.73,1
2404003,2,3644,0,49230,47256,49217.41,47487.39,12.59,-231.39,0.598495,95.71,1
2404044,2,3685,0,49253,47301,49217.48,47487.02,35.52,-186.02,0.599538,95.69,1
2404084,2,3725,0,49278,47359,49217.6,47486.76,60.4,-127.76,0.600573,95.67,1
2404124,2,3765,0,49305,47401,49217.78,47486.59,87.22,-85.59,0.601605,95.65,1
2404164,2,3805,0,49315,47389,49217.97,47486.39,97.03,-97.39,0.602634,95.63,1
2404204,2,3845,0,49304,47357,49218.14,47486.14,85.86,-129.14,0.603656,95.6,1
2404244,2,3885,0,49294,47374,49218.3,47485.91,75.7,-111.91,0.604673,95.58,1
2404284,2,3925,0,49307,47401,49218.48,47485.75,88.52,-84.75,0.605687,95.56,1
2404324,2,3965,0,49320,47420,49218.68,47485.62,101.32,-65.62,0.6067,95.54,1
2404364,2,4005,0,49335,47430,49218.91,47485.51,116.09,-55.51,0.607715,95.52,1
2404404,2,4045,0,49339,47442,49219.16,47485.42,119.84,-43.42,0.608732,95.5,1
2404444,2,4085,0,49345,47471,49219.41,47485.39,125.59,-14.39,0.609753,95.47,1
2404484,2,4125,0,49359,47486,49219.69,47485.4,139.31,0.6,0.610779,95.45,1
2404524,2,4165,0,49365,47490,49219.98,47485.41,145.02,4.59,0.611811,95.43,1
2404564,2,4205,0,49340,47361,49220.23,47485.16,119.77,-124.16,0.612839,95.41,1
2404604,2,4245,0,49241,47178,49220.27,47484.55,20.73,-306.55,0.613825,95.38,1
2404644,2,4285,0,49168,47125,49220.17,47483.83,-52.17,-358.83,0.614757,95.36,1
2404684,2,4325,0,49170,47161,49220.07,47483.19,-50.07,-322.19,0.615647,95.34,1
2404724,2,4365,0,49189,47202,49220.01,47482.62,-31.01,-280.62,0.616505,95.32,1
2404765,2,4406,0,49212,47244,49219.99,47482.15,-7.99,-238.15,0.617339,95.29,1
2404805,2,4446,0,49230,47257,49220.01,47481.7,9.99,-224.7,0.618152,95.27,1
2404845,2,4486,0,49222,47236,49220.02,47481.21,1.98,-245.21,0.618941,95.25,1
2404885,2,4526,0,49208,47221,49219.99,47480.69,-11.99,-259.69,0.619704,95.23,1
2404925,2,4566,0,49203,47239,49219.96,47480.21,-16.96,-241.21,0.620443,95.2,1
2404965,2,4606,0,49222,47353,49219.96,47479.96,2.04,-126.96,0.621175,95.18,1
2405005,2,4646,0,49239,47309,49220,47479.62,19,-170.62,0.621895,95.16,1
2405045,2,4686,0,49255,47329,49220.07,47479.32,34.93,-150.32,0.622606,95.14,1
2405085,2,4726,0,49262,47356,49220.16,47479.07,41.84,-123.07,0.623309,95.12,1
2405125,2,4766,0,49283,47773,49220.29,47479.66,62.71,293.34,0.623982,95.1,1
2405165,2,4806,0,49297,47872,49220.44,47480.45,76.56,391.55,0.624605,95.07,1
2405205,2,4846,0,49257,47232,49220.52,47479.95,36.48,-247.95,0.625206,95.05,1
2405245,2,4886,0,49150,47059,49220.37,47479.11,-70.37,-420.11,0.625753,95.03,1
2405285,2,4926,0,49089,47022,49220.11,47478.2,-131.11,-456.2,0.626244,95.01,1
2405325,2,4966,0,49095,46774,49219.86,47476.79,-124.86,-702.79,0.62661,94.99,1
2405365,2,5006,0,49112,46667,49219.65,47475.17,-107.65,-808.17,0.626834,94.97,1
2405405,2,5046,0,49134,47128,49219.48,47474.48,-85.48,-346.48,0.627036,94.95,1
2405445,2,5086,0,49151,47148,49219.34,47473.83,-68.34,-325.83,0.627218,94.93,1
2405485,2,5126,0,49145,47121,49219.19,47473.12,-74.19,-352.12,0.627379,94.91,1
2405526,2,5167,0,49132,47105,49219.02,47472.39,-87.02,-367.39,0.627516,94.9,1
2405566,2,5207,0,49133,47132,49218.85,47471.71,-85.85,-339.71,0.627635,94.88,1
2405606,2,5247,0,49144,47164,49218.7,47471.1,-74.7,-307.1,0.627739,94.86,1
2405646,2,5287,0,49162,47197,49218.59,47470.55,-56.59,-273.55,0.62783,94.84,1
2405686,2,5327,0,49175,47218,49218.5,47470.05,-43.5,-252.05,0.62791,94.83,1
2405726,2,5367,0,49192,47251,49218.45,47469.61,-26.45,-218.61,0.627982,94.81,1
2405766,2,5407,0,49207,47280,49218.43,47469.23,-11.43,-189.23,0.628048,94.8,1
2405806,2,5447,0,49203,47225,49218.39,47468.74,-15.39,-243.74,0.628103,94.78,1
2405846,2,5487,0,49423,47044,49218.8,47467.89,204.2,-423.89,0.628143,94.77,1
2405886,2,5527,0,49428,46928,49219.22,47466.82,208.78,-538.82,0.628152,94.75,1
2405926,2,5567,0,49023,46936,49218.83,47465.76,-195.83,-529.76,0.628131,94.74,1
2405966,2,5607,0,49038,46978,49218.47,47464.79,-180.47,-486.79,0.628087,94.73,1
2406006,2,5647,0,49064,47023,49218.16,47463.9,-154.16,-440.9,0.628024,94.71,1
2406046,2,5687,0,48929,47051,49217.59,47463.08,-288.59,-412.08,0.627966,94.7,1
2406086,2,5727,0,48804,47046,49216.76,47462.25,-412.76,-416.25,0.627943,94.69,1
2406126,2,5767,0,49078,47019,49216.48,47461.36,-138.48,-442.36,0.627899,94.68,1
2406166,2,5807,0,49068,47033,49216.19,47460.5,-148.19,-427.5,0.627839,94.67,1
2406206,2,5847,0,49083,47070,49215.92,47459.72,-132.92,-389.72,0.627765,94.66,1
2406246,2,5887,0,48346,47088,49214.18,47458.98,-868.18,-370.98,0.627906,94.65,1
2406287,2,5928,0,49106,47096,49213.97,47458.25,-107.97,-362.25,0.628032,94.63,1
2406327,2,5968,0,49113,47118,49213.77,47457.57,-100.77,-339.57,0.628144,94.62,1
2406367,2,6008,0,49124,47150,49213.59,47456.96,-89.59,-306.96,0.628245,94.61,1
2406407,2,6048,0,49135,47163,49213.43,47456.37,-78.43,-293.37,0.628335,94.61,1
2406447,2,6088,0,49124,47064,49213.26,47455.59,-89.26,-391.59,0.628407,94.6,1
2406487,2,6128,0,49027,46871,49212.89,47454.42,-185.89,-583.42,0.628444,94.59,1
2406527,2,6168,0,48945,46790,49212.35,47453.09,-267.35,-663.09,0.628447,94.58,1
2406567,2,6208,0,48935,46820,49211.8,47451.83,-276.8,-631.83,0.628425,94.57,1
2406607,2,6248,0,48961,46870,49211.3,47450.66,-250.3,-580.66,0.628382,94.56,1
2406647,2,6288,0,48997,46920,49210.87,47449.61,-213.87,-529.61,0.628322,94.55,1
2406687,2,6328,0,49020,46953,49210.49,47448.61,-190.49,-495.61,0.628245,94.54,1
2406727,2,6368,0,49032,46956,49210.14,47447.63,-178.14,-491.63,0.628153,94.54,1
2406767,2,6408,0,49029,46950,49209.78,47446.64,-180.78,-496.64,0.628045,94.53,1
2406807,2,6448,0,49021,46952,49209.4,47445.65,-188.4,-493.65,0.627924,94.52,1
2406847,2,6488,0,49034,46979,49209.05,47444.71,-175.05,-465.71,0.62779,94.52,1
2406887,2,6528,0,49051,46997,49208.74,47443.82,-157.74,-446.82,0.627644,94.51,1
2406927,2,6568,0,49059,47023,49208.44,47442.98,-149.44,-419.98,0.627488,94.5,1
2406967,2,6608,0,49072,47041,49208.17,47442.18,-136.17,-401.18,0.627324,94.5,1
2407007,2,6648,0,49081,47072,49207.91,47441.44,-126.91,-369.44,0.627151,94.49,1
2407048,2,6689,0,49090,47086,49207.68,47440.73,-117.68,-354.73,0.626972,94.49,1
2407088,2,6729,0,49099,47069,49207.46,47439.98,-108.46,-370.98,0.626784,94.48,1
2407128,2,6769,0,49047,46906,49207.14,47438.92,-160.14,-532.92,0.626578,94.48,1
2407168,2,6809,0,48942,46756,49206.62,47437.55,-264.62,-681.55,0.626353,94.48,1
2407208,2,6849,0,48906,46744,49206.02,47436.17,-300.02,-692.17,0.626112,94.47,1
2407248,2,6889,0,48919,46786,49205.44,47434.87,-286.44,-648.87,0.62586,94.47,1
2407288,2,6929,0,48941,46828,49204.91,47433.66,-263.91,-605.66,0.625598,94.46,1
2407328,2,6969,0,48968,46869,49204.44,47432.53,-236.44,-563.53,0.625327,94.46,1
2407368,2,7009,0,48982,46892,49204,47431.45,-222,-539.45,0.625048,94.46,1
2407408,2,7049,0,48992,46882,49203.57,47430.35,-211.57,-548.35,0.624759,94.46,1
2407448,2,7089,0,48985,46877,49203.14,47429.25,-218.14,-552.25,0.624462,94.45,1
2407488,2,7129,0,48988,46887,49202.71,47428.16,-214.71,-541.16,0.624156,94.45,1
2407528,2,7169,0,48998,46911,49202.3,47427.13,-204.3,-516.13,0.623843,94.45,1
2407568,2,7209,0,49011,46935,49201.92,47426.15,-190.92,-491.15,0.623524,94.45,1
2407608,2,7249,0,49020,46957,49201.55,47425.21,-181.55,-468.21,0.6232,94.45,1
2407648,2,7289,0,49035,46972,49201.22,47424.3,-166.22,-452.3,0.622869,94.45,1
2407688,2,7329,0,49042,46994,49200.91,47423.45,-158.91,-429.45,0.622534,94.45,1
2407728,2,7369,0,49047,47012,49200.6,47422.62,-153.6,-410.62,0.622195,94.45,1
2407768,2,7409,0,49062,47038,49200.32,47421.86,-138.32,-383.86,0.621852,94.45,1
2407808,2,7449,0,49064,47004,49200.05,47421.02,-136.05,-417.02,0.621504,94.45,1
2407849,2,7490,0,49005,46831,49199.66,47419.84,-194.66,-588.84,0.621145,94.45,1
2407889,2,7530,0,48899,46684,49199.06,47418.37,-300.06,-734.37,0.620775,94.45,1
2407929,2,7570,0,48857,46672,49198.38,47416.88,-341.38,-744.88,0.620399,94.45,1
2407969,2,7610,0,48874,46717,49197.73,47415.48,-323.73,-698.48,0.620021,94.45,1
2408009,2,7650,0,48897,46760,49197.13,47414.17,-300.13,-654.17,0.619638,94.45,1
2408049,2,7690,0,48928,46804,49196.59,47412.95,-268.59,-608.95,0.619253,94.46,1
2408089,2,7730,0,48939,46821,49196.08,47411.77,-257.08,-590.77,0.618863,94.46,1
2408129,2,7770,0,48944,46808,49195.57,47410.56,-251.57,-602.56,0.618469,94.46,1
2408169,2,7810,0,48935,46808,49195.05,47409.36,-260.05,-601.36,0.618072,94.46,1
2408209,2,7850,0,48948,46833,49194.56,47408.21,-246.56,-575.21,0.617671,94.47,1
2408249,2,7890,0,48971,46857,49194.12,47407.11,-223.12,-550.11,0.617267,94.47,1
2408289,2,7930,0,48976,46880,49193.68,47406.05,-217.68,-526.05,0.61686,94.47,1
2408329,2,7970,0,48992,46904,49193.28,47405.05,-201.28,-501.05,0.61645,94.48,1
2408369,2,8010,0,48995,46918,49192.89,47404.07,-197.89,-486.07,0.616038,94.48,1
2408409,2,8050,0,49011,46946,49192.52,47403.16,-181.52,-457.16,0.615623,94.48,1
2408449,2,8090,0,49019,46953,49192.18,47402.26,-173.18,-449.26,0.615206,94.49,1
2408489,2,8130,0,49014,46951,49191.82,47401.36,-177.82,-450.36,0.614788,94.49,1
2408529,2,8170,0,49017,46966,49191.47,47400.49,-174.47,-434.49,0.614367,94.5,1
2408569,2,8210,0,49025,47139,49191.14,47399.96,-166.14,-260.96,0.61395,94.5,1
2408610,2,8251,0,49004,47176,49190.77,47399.52,-186.77,-223.52,0.613538,94.51,1
2408650,2,8291,0,48912,46691,49190.21,47398.11,-278.21,-707.11,0.61312,94.51,1
2408690,2,8331,0,48838,46634,49189.51,47396.58,-351.51,-762.58,0.612699,94.52,1
2408730,2,8371,0,48839,46665,49188.81,47395.12,-349.81,-730.12,0.612279,94.52,1
2408770,2,8411,0,48863,46694,49188.16,47393.71,-325.16,-699.71,0.611858,94.53,1
2408810,2,8451,0,48890,46584,49187.57,47392.1,-297.57,-808.1,0.611427,94.53,1
2408850,2,8491,0,48911,46784,49187.02,47390.88,-276.02,-606.88,0.610995,94.54,1
2408890,2,8531,0,48915,46785,49186.48,47389.67,-271.48,-604.67,0.610563,94.54,1
2408930,2,8571,0,48916,46778,49185.94,47388.45,-269.94,-610.45,0.610129,94.55,1
2408970,2,8611,0,48921,46261,49185.41,47386.2,-264.41,-1125.2,0.609662,94.56,1
2409010,2,8651,0,48937,46030,49184.91,47383.48,-247.91,-1353.48,0.609145,94.56,1
2409050,2,8691,0,48949,46851,49184.45,47382.42,-235.45,-531.42,0.608629,94.57,1
2409090,2,8731,0,48965,46873,49184.01,47381.4,-219.01,-508.4,0.608114,94.58,1
2409130,2,8771,0,48974,46893,49183.59,47380.43,-209.59,-487.43,0.607599,94.58,1
2409170,2,8811,0,48990,46916,49183.2,47379.5,-193.2,-463.5,0.607086,94.59,1
2409210,2,8851,0,48997,46925,49182.83,47378.59,-185.83,-453.59,0.606572,94.6,1
2409250,2,8891,0,49000,46940,49182.47,47377.72,-182.47,-437.72,0.606059,94.61,1
2409290,2,8931,0,49081,46953,49182.27,47376.87,-101.27,-423.87,0.605544,94.61,1
2409331,2,8972,0,49184,46962,49182.27,47376.04,1.73,-414.04,0.605025,94.62,1
2409371,2,9012,0,49012,46971,49181.93,47375.23,-169.93,-404.23,0.604506,94.63,1
2409411,2,9052,0,49003,46895,49181.57,47374.27,-178.57,-479.27,0.603988,94.64,1
2409451,2,9092,0,48919,46723,49181.05,47372.97,-262.05,-649.97,0.603468,94.65,1
2409491,2,9132,0,49351,46643,49181.39,47371.52,169.61,-728.52,0.602938,94.65,1
2409531,2,9172,0,48814,46655,49180.66,47370.08,-366.66,-715.08,0.602415,94.66,1
2409571,2,9212,0,48851,46707,49180,47368.76,-329,-661.76,0.601896,94.67,1
2409611,2,9252,0,48879,46758,49179.4,47367.54,-300.4,-609.54,0.601382,94.68,1
2409651,2,9292,0,48907,46780,49178.86,47366.36,-271.86,-586.36,0.600869,94.69,1
2409691,2,9332,0,48468,46773,49177.43,47365.18,-709.43,-592.18,0.600419,94.7,1
2409731,2,9372,0,48373,46747,49175.82,47363.95,-802.82,-616.95,0.600044,94.71,1
2409771,2,9412,0,48898,46759,49175.27,47362.74,-277.27,-603.74,0.599669,94.72,1
2409811,2,9452,0,48907,46784,49174.73,47361.58,-267.73,-577.58,0.599294,94.73,1
2409851,2,9492,0,48918,46805,49174.22,47360.47,-256.22,-555.47,0.598918,94.73,1
2409891,2,9532,0,48937,46822,49173.75,47359.39,-236.75,-537.39,0.598542,94.74,1
2409931,2,9572,0,48939,46841,49173.28,47358.36,-234.28,-517.36,0.598166,94.75,1
2409971,2,9612,0,48954,46869,49172.84,47357.38,-218.84,-488.38,0.59779,94.76,1
2410011,2,9652,0,48970,46892,49172.44,47356.45,-202.44,-464.45,0.597413,94.77,1
2410051,2,9692,0,48977,46909,49172.05,47355.56,-195.05,-446.56,0.597037,94.78,1
2410092,2,9733,0,48985,46920,49171.68,47354.69,-186.68,-434.69,0.59666,94.79,1
2410132,2,9773,0,48986,46922,49171.3,47353.82,-185.3,-431.82,0.596283,94.8,1
2410172,2,9813,0,48971,46854,49170.91,47352.82,-199.91,-498.82,0.595904,94.81,1
2410212,2,9853,0,48902,46707,49170.37,47351.54,-268.37,-644.54,0.595523,94.82,1
2410252,2,9893,0,48833,46635,49169.7,47350.1,-336.7,-715.1,0.595142,94.83,1
2410292,2,9933,0,48831,46660,49169.02,47348.72,-338.02,-688.72,0.594763,94.83,1
2410332,2,9973,0,48852,46707,49168.39,47347.44,-316.39,-640.44,0.594385,94.84,1
2410372,2,10013,0,48879,46752,49167.81,47346.25,-288.81,-594.25,0.594008,94.85,1
2410412,2,10053,0,48904,46775,49167.29,47345.11,-263.29,-570.11,0.593632,94.86,1
2410452,2,10093,0,48904,46753,49166.76,47343.93,-262.76,-590.93,0.593254,94.87,1
2410492,2,10133,0,48894,46735,49166.22,47342.71,-272.22,-607.71,0.592877,94.88,1
2410532,2,10173,0,48889,46742,49165.66,47341.51,-276.66,-599.51,0.592499,94.89,1
2410572,2,10213,0,48891,46762,49165.12,47340.36,-274.12,-578.36,0.592122,94.9,1
2410612,2,10253,0,48906,46775,49164.6,47339.23,-258.6,-564.23,0.591745,94.91,1
2410652,2,10293,0,48914,46793,49164.1,47338.14,-250.1,-545.14,0.591369,94.92,1
2410692,2,10333,0,48921,46802,49163.62,47337.07,-242.62,-535.07,0.590993,94.93,1
2410732,2,10373,0,48925,46821,49163.14,47336.04,-238.14,-515.04,0.590617,94.94,1
2410772,2,10413,0,48935,46849,49162.69,47335.06,-227.69,-486.06,0.590241,94.95,1
2410813,2,10454,0,48950,46851,49162.26,47334.09,-212.26,-483.09,0.589866,94.95,1
2410853,2,10494,0,48936,46769,49161.81,47332.96,-225.81,-563.96,0.589489,94.96,1
2410893,2,10534,0,48857,46612,49161.2,47331.52,-304.2,-719.52,0.58911,94.97,1
2410933,2,10574,0,48778,46527,49160.43,47329.91,-382.43,-802.91,0.588732,94.98,1
2410973,2,10614,0,48762,46539,49159.64,47328.33,-397.64,-789.33,0.588356,94.99,1
2411013,2,10654,0,48787,46577,49158.89,47326.83,-371.89,-749.83,0.587982,95,1
2411053,2,10694,0,48809,46623,49158.2,47325.43,-349.2,-702.43,0.58761,95.01,1
2411093,2,10734,0,48834,46655,49157.55,47324.09,-323.55,-669.09,0.58724,95.02,1
2411133,2,10774,0,48837,46634,49156.91,47322.71,-319.91,-688.71,0.58687,95.03,1
2411173,2,10814,0,48825,46614,49156.24,47321.29,-331.24,-707.29,0.5865,95.04,1
2411213,2,10854,0,48826,46622,49155.58,47319.89,-329.58,-697.89,0.58613,95.05,1
2411253,2,10894,0,48843,46652,49154.96,47318.55,-311.96,-666.55,0.585761,95.06,1
2411293,2,10934,0,48863,46692,49154.37,47317.3,-291.37,-625.3,0.585393,95.07,1
2411333,2,10974,0,48873,46722,49153.81,47316.12,-280.81,-594.12,0.585025,95.07,1
2411373,2,11014,0,48890,46729,49153.29,47314.95,-263.29,-585.95,0.584658,95.08,1
2411413,2,11054,0,48890,46728,49152.76,47313.77,-262.76,-585.77,0.58429,95.09,1
2411453,2,11094,0,48891,46729,49152.24,47312.61,-261.24,-583.61,0.583922,95.1,1
2411493,2,11134,0,48881,46676,49151.7,47311.33,-270.7,-635.33,0.583554,95.11,1
2411533,2,11174,0,48817,46506,49151.03,47309.72,-334.03,-803.72,0.583182,95.12,1
2411574,2,11215,0,48723,46394,49150.17,47307.89,-427.17,-913.89,0.582811,95.13,1
2411614,2,11255,0,48701,46408,49149.27,47306.09,-448.27,-898.09,0.582442,95.14,1
2411654,2,11295,0,48722,46454,49148.42,47304.39,-426.42,-850.39,0.582077,95.15,1
2411694,2,11335,0,48742,46476,49147.61,47302.73,-405.61,-826.73,0.581713,95.16,1
2411734,2,11375,0,48756,46492,49146.83,47301.11,-390.83,-809.11,0.58135,95.17,1
2411774,2,11415,0,48758,46489,49146.05,47299.49,-388.05,-810.49,0.580989,95.18,1
2411814,2,11455,0,48752,46473,49145.27,47297.84,-393.27,-824.84,0.580628,95.19,1
2411854,2,11495,0,48744,46487,49144.46,47296.22,-400.46,-809.22,0.58027,95.2,1
2411894,2,11535,0,48771,46539,49143.72,47294.71,-372.72,-755.71,0.579913,95.2,1
2411934,2,11575,0,48801,46568,49143.04,47293.25,-342.04,-725.25,0.579557,95.21,1
2411974,2,11615,0,48815,46585,49142.38,47291.84,-327.38,-706.84,0.579202,95.22,1
2412014,2,11655,0,48828,46706,49141.75,47290.67,-313.75,-584.67,0.578849,95.23,1
2412054,2,11695,0,48832,46615,49141.13,47289.32,-309.13,-674.32,0.578496,95.24,1
2412094,2,11735,0,48839,46642,49140.53,47288.02,-301.53,-646.02,0.578144,95.25,1
2412134,2,11775,0,48856,46648,49139.96,47286.75,-283.96,-638.75,0.577792,95.26,1
2412174,2,11815,0,48824,46928,49139.34,47286.03,-315.34,-358.03,0.577448,95.27,1
2412214,2,11855,0,48728,46901,49138.52,47285.26,-410.52,-384.26,0.577116,95.28,1
2412254,2,11895,0,48659,46288,49137.56,47283.27,-478.56,-995.27,0.576786,95.29,1
2412294,2,11935,0,48658,46301,49136.6,47281.3,-478.6,-980.3,0.576457,95.3,1
2412335,2,11976,0,48665,46310,49135.66,47279.36,-470.66,-969.36,0.576128,95.3,1
2412375,2,12016,0,48674,46035,49134.74,47276.87,-460.74,-1241.88,0.575788,95.31,1
2412415,2,12056,0,48693,45868,49133.86,47274.06,-440.86,-1406.06,0.575427,95.32,1
2412455,2,12096,0,48712,46400,49133.01,47272.31,-421.01,-872.31,0.575068,95.33,1
2412495,2,12136,0,48714,46389,49132.18,47270.55,-418.18,-881.55,0.57471,95.34,1
2412535,2,12176,0,48715,46405,49131.34,47268.82,-416.34,-863.82,0.574354,95.35,1
2412575,2,12216,0,48725,46439,49130.53,47267.16,-405.53,-828.16,0.573999,95.36,1
2412615,2,12256,0,48748,46470,49129.77,47265.56,-381.77,-795.56,0.573646,95.37,1
2412655,2,12296,0,48764,46497,49129.04,47264.03,-365.04,-767.03,0.573293,95.38,1
2412695,2,12336,0,48783,46522,49128.34,47262.54,-345.34,-740.54,0.572942,95.39,1
2412735,2,12376,0,48796,46534,49127.68,47261.09,-331.68,-727.09,0.572591,95.39,1
2412775,2,12416,0,48800,46555,49127.03,47259.68,-327.03,-704.68,0.57224,95.4,1
2412815,2,12456,0,48805,46564,49126.38,47258.29,-321.38,-694.29,0.57189,95.41,1
2412855,2,12496,0,48803,46494,49125.74,47256.76,-322.74,-762.76,0.571539,95.42,1
2412895,2,12536,0,49033,46304,49125.55,47254.85,-92.55,-950.85,0.571175,95.43,1
2412935,2,12576,0,49017,46193,49125.34,47252.73,-108.34,-1059.73,0.570793,95.44,1
2412975,2,12616,0,48599,46192,49124.29,47250.61,-525.29,-1058.61,0.570415,95.45,1
2413015,2,12656,0,48609,46204,49123.26,47248.52,-514.26,-1044.52,0.570041,95.46,1
2413056,2,12697,0,48614,46226,49122.24,47246.47,-508.24,-1020.47,0.569671,95.47,1
2413096,2,12737,0,48454,46269,49120.91,47244.52,-666.91,-975.52,0.569318,95.48,1
2413136,2,12777,0,48368,46297,49119.4,47242.62,-751.4,-945.62,0.568992,95.48,1
2413176,2,12817,0,48657,46300,49118.48,47240.74,-461.48,-940.74,0.568668,95.49,1
2413216,2,12857,0,48661,46313,49117.57,47238.89,-456.57,-925.89,0.568346,95.5,1
2413256,2,12897,0,48680,46345,49116.69,47237.1,-436.69,-892.1,0.568025,95.51,1
2413296,2,12937,0,47955,46378,49114.37,47235.38,-1159.37,-857.38,0.567781,95.52,1
2413336,2,12977,0,48708,46409,49113.56,47233.73,-405.56,-824.73,0.567537,95.53,1
2413376,2,13017,0,48730,46437,49112.79,47232.14,-382.79,-795.14,0.567293,95.54,1
2413416,2,13057,0,48751,46467,49112.07,47230.61,-361.07,-763.61,0.567048,95.55,1
2413456,2,13097,0,48763,46485,49111.37,47229.12,-348.37,-744.12,0.566803,95.55,1
2413496,2,13137,0,48772,46514,49110.7,47227.69,-338.7,-713.69,0.566557,95.56,1
2413536,2,13177,0,48791,46536,49110.06,47226.31,-319.06,-690.31,0.566312,95.57,1
2413576,2,13217,0,48795,46536,49109.43,47224.93,-314.43,-688.93,0.566065,95.58,1
2413616,2,13257,0,48800,46544,49108.82,47223.57,-308.82,-679.57,0.565818,95.59,1
2413656,2,13297,0,48802,46563,49108.2,47222.25,-306.2,-659.25,0.56557,95.6,1
2413696,2,13337,0,48810,46581,49107.61,47220.97,-297.61,-639.97,0.565323,95.6,1
2413736,2,13377,0,48820,46577,49107.04,47219.68,-287.04,-642.68,0.565074,95.61,1
2413776,2,13417,0,48784,46424,49106.39,47218.09,-322.39,-794.09,0.564823,95.62,1
2413817,2,13458,0,48668,46230,49105.52,47216.12,-437.52,-986.12,0.56457,95.63,1
2413857,2,13498,0,48593,46183,49104.49,47214.05,-511.49,-1031.05,0.564317,95.64,1
2413897,2,13538,0,48595,46203,49103.47,47212.03,-508.47,-1009.03,0.564065,95.64,1
2413937,2,13578,0,48607,46224,49102.48,47210.05,-495.48,-986.05,0.563813,95.65,1
2413977,2,13618,0,48619,46249,49101.52,47208.13,-482.52,-959.13,0.563563,95.66,1
2414017,2,13658,0,48641,46286,49100.6,47206.29,-459.6,-920.29,0.563314,95.67,1
2414057,2,13698,0,48652,46301,49099.7,47204.48,-447.7,-903.48,0.563065,95.68,1
2414097,2,13738,0,48659,46307,49098.82,47202.69,-439.82,-895.69,0.562816,95.68,1
2414137,2,13778,0,48667,46327,49097.96,47200.94,-430.96,-873.94,0.562568,95.69,1
2414177,2,13818,0,48689,46367,49097.14,47199.27,-408.14,-832.27,0.56232,95.7,1
2414217,2,13858,0,48712,46397,49096.37,47197.67,-384.37,-800.67,0.562072,95.71,1
2414257,2,13898,0,48724,46421,49095.63,47196.12,-371.63,-775.12,0.561824,95.71,1
2414297,2,13938,0,48737,46442,49094.92,47194.61,-357.92,-752.61,0.561576,95.72,1
2414337,2,13978,0,48754,46468,49094.24,47193.16,-340.24,-725.16,0.561328,95.73,1
2414377,2,14018,0,48766,46487,49093.58,47191.75,-327.58,-704.75,0.56108,95.74,1
2414417,2,14058,0,48774,46502,49092.95,47190.37,-318.95,-688.37,0.560832,95.74,1
2414457,2,14098,0,48784,46520,49092.33,47189.03,-308.33,-669.03,0.560583,95.75,1
2414497,2,14138,0,48786,46523,49091.71,47187.7,-305.71,-664.7,0.560335,95.76,1
2414538,2,14179,0,48788,46534,49091.11,47186.39,-303.11,-652.39,0.560086,95.76,1
2414578,2,14219,0,48795,46549,49090.52,47185.12,-295.52,-636.12,0.559837,95.77,1
2414618,2,14259,0,48801,46546,49089.94,47183.84,-288.94,-637.84,0.559588,95.78,1
2414658,2,14299,0,48769,46415,49089.3,47182.3,-320.3,-767.3,0.559337,95.79,1
2414698,2,14339,0,48669,46257,49088.46,47180.46,-419.46,-923.46,0.559086,95.79,1
2414738,2,14379,0,48618,46225,49087.52,47178.55,-469.52,-953.55,0.558834,95.8,1
2414778,2,14419,0,48630,46256,49086.61,47176.7,-456.61,-920.7,0.558584,95.81,1
2414818,2,14459,0,48643,46284,49085.72,47174.92,-442.72,-890.92,0.558334,95.81,1
2414858,2,14499,0,48663,46315,49084.87,47173.2,-421.87,-858.2,0.558085,95.82,1
2414898,2,14539,0,48686,46341,49084.08,47171.54,-398.08,-830.54,0.557836,95.83,1
2414938,2,14579,0,48698,46340,49083.31,47169.87,-385.31,-829.87,0.557587,95.84,1
2414978,2,14619,0,48691,46329,49082.52,47168.2,-391.52,-839.2,0.557337,95.84,1
2415018,2,14659,0,48692,46358,49081.74,47166.57,-389.74,-808.57,0.557087,95.85,1
2415058,2,14699,0,48712,46390,49081,47165.02,-369,-775.02,0.556838,95.86,1
2415098,2,14739,0,48731,46417,49080.3,47163.53,-349.3,-746.53,0.556589,95.86,1
2415138,2,14779,0,48744,46434,49079.63,47162.07,-335.63,-728.07,0.55634,95.87,1
2415178,2,14819,0,48753,46454,49078.98,47160.66,-325.98,-706.66,0.55609,95.88,1
2415218,2,14859,0,48762,46476,49078.35,47159.29,-316.35,-683.29,0.55584,95.88,1
2415258,2,14899,0,48770,46494,49077.73,47157.96,-307.73,-663.96,0.555591,95.89,1
2415299,2,14940,0,48780,46507,49077.14,47156.66,-297.14,-649.66,0.555341,95.9,1
2415339,2,14980,0,48785,46506,49076.55,47155.36,-291.55,-649.36,0.555092,95.9,1
2415379,2,15020,0,48777,46515,49075.96,47154.08,-298.96,-639.08,0.554842,95.91,1
2415419,2,15060,0,48786,46529,49075.38,47152.83,-289.38,-623.83,0.554593,95.92,1
2415459,2,15100,0,48797,46641,49074.82,47151.8,-277.82,-510.8,0.554345,95.92,1
2415499,2,15140,0,48800,46499,49074.28,47150.5,-274.28,-651.5,0.554096,95.93,1
2415539,2,15180,0,48726,46333,49073.58,47148.87,-347.58,-815.87,0.553846,95.94,1
2415579,2,15220,0,48644,46251,49072.72,47147.07,-428.72,-896.07,0.553596,95.94,1
2415619,2,15260,0,48638,46729,49071.86,47146.24,-433.86,-417.24,0.553355,95.95,1
2415659,2,15300,0,48673,46856,49071.06,47145.66,-398.06,-289.66,0.553122,95.96,1
2415699,2,15340,0,48693,46354,49070.3,47144.08,-377.3,-790.08,0.55289,95.96,1
2415739,2,15380,0,48712,46390,49069.59,47142.57,-357.59,-752.57,0.552658,95.97,1
2415779,2,15420,0,48726,46404,49068.9,47141.09,-342.9,-737.09,0.552426,95.98,1
2415819,2,15460,0,48724,46014,49068.21,47138.84,-344.21,-1124.84,0.552183,95.98,1
2415859,2,15500,0,48717,45904,49067.52,47136.37,-350.52,-1232.37,0.551928,95.99,1
2415899,2,15540,0,48728,46420,49066.84,47134.94,-338.84,-714.94,0.551673,96,1
2415939,2,15580,0,48740,46438,49066.18,47133.55,-326.18,-695.55,0.551418,96,1
2415979,2,15620,0,48749,46459,49065.55,47132.2,-316.55,-673.2,0.551164,96.01,1
2416020,2,15661,0,48761,46480,49064.94,47130.89,-303.94,-650.89,0.55091,96.02,1
2416060,2,15701,0,48770,46509,49064.35,47129.65,-294.35,-620.65,0.550656,96.02,1
2416100,2,15741,0,48783,46539,49063.79,47128.47,-280.79,-589.47,0.550403,96.03,1
2416140,2,15781,0,48798,46568,49063.26,47127.35,-265.26,-559.35,0.550151,96.04,1
2416180,2,15821,0,48814,46583,49062.76,47126.27,-248.76,-543.27,0.549899,96.04,1
2416220,2,15861,0,48820,46601,49062.28,47125.21,-242.28,-524.21,0.549647,96.05,1
2416260,2,15901,0,48828,46623,49061.81,47124.21,-233.81,-501.21,0.549396,96.06,1
2416300,2,15941,0,48840,46647,49061.37,47123.26,-221.37,-476.26,0.549146,96.06,1
2416340,2,15981,0,49145,46586,49061.54,47122.18,83.46,-536.18,0.548892,96.07,1
2416380,2,16021,0,49179,46413,49061.77,47120.77,117.23,-707.77,0.548633,96.07,1
2416420,2,16061,0,48687,46320,49061.02,47119.16,-374.02,-799.16,0.548375,96.08,1
2416460,2,16101,0,48668,46341,49060.23,47117.61,-392.23,-776.61,0.548118,96.09,1
2416500,2,16141,0,48686,46371,49059.49,47116.12,-373.49,-745.12,0.547862,96.09,1
2416540,2,16181,0,48525,46393,49058.42,47114.67,-533.42,-721.67,0.547617,96.1,1
2416580,2,16221,0,48406,46415,49057.12,47113.27,-651.12,-698.27,0.54739,96.11,1
2416620,2,16261,0,48725,46426,49056.45,47111.9,-331.45,-685.9,0.547163,96.11,1
2416660,2,16301,0,48720,46412,49055.78,47110.5,-335.78,-698.5,0.546937,96.12,1
2416700,2,16341,0,48711,46416,49055.09,47109.11,-344.09,-693.11,0.546712,96.13,1
2416741,2,16382,0,46432,46438,49049.85,47107.77,-2617.85,-669.77,0.546832,96.13,1
2416781,2,16422,0,48737,46474,49049.22,47106.51,-312.22,-632.51,0.54695,96.14,1
2416821,2,16462,0,48749,46508,49048.62,47105.31,-299.62,-597.31,0.547065,96.14,1
2416861,2,16502,0,48764,46531,49048.06,47104.16,-284.06,-573.16,0.547178,96.15,1
2416901,2,16542,0,48776,46555,49047.52,47103.07,-271.52,-548.07,0.547289,96.15,1
2416941,2,16582,0,48791,46575,49047,47102.01,-256,-527.01,0.547398,96.16,1
2416981,2,16622,0,48799,46603,49046.51,47101.02,-247.51,-498.02,0.547505,96.16,1
2417021,2,16662,0,48813,46625,49046.04,47100.07,-233.04,-475.07,0.54761,96.17,1
2417061,2,16702,0,48825,46638,49045.6,47099.14,-220.6,-461.14,0.547713,96.17,1
2417101,2,16742,0,48835,46655,49045.18,47098.26,-210.18,-443.26,0.547815,96.18,1
2417141,2,16782,0,48848,46667,49044.79,47097.4,-196.79,-430.4,0.547915,96.18,1
2417181,2,16822,0,48839,46604,49044.37,47096.41,-205.37,-492.41,0.548013,96.18,1
2417221,2,16862,0,48764,46429,49043.82,47095.08,-279.82,-666.08,0.548106,96.19,1
2417261,2,16902,0,48671,46333,49043.07,47093.56,-372.07,-760.56,0.548195,96.19,1
2417301,2,16942,0,48657,46341,49042.3,47092.05,-385.3,-751.05,0.548281,96.19,1
2417341,2,16982,0,48671,46381,49041.56,47090.63,-370.56,-709.63,0.548365,96.2,1
2417381,2,17022,0,48692,46411,49040.86,47089.27,-348.86,-678.27,0.548446,96.2,1
2417421,2,17062,0,48707,46439,49040.19,47087.97,-333.19,-648.97,0.548525,96.2,1
2417461,2,17102,0,48717,46459,49039.55,47086.71,-322.55,-627.71,0.548602,96.2,1
2417502,2,17143,0,48721,46447,49038.91,47085.44,-317.91,-638.44,0.548676,96.21,1
2417542,2,17183,0,48716,46454,49038.27,47084.18,-322.27,-630.18,0.548748,96.21,1
2417582,2,17223,0,48722,46477,49037.63,47082.96,-315.63,-605.96,0.548819,96.21,1
2417622,2,17263,0,48735,46509,49037.03,47081.81,-302.03,-572.81,0.548887,96.21,1
2417662,2,17303,0,48749,46538,49036.45,47080.73,-287.45,-542.73,0.548955,96.21,1
2417702,2,17343,0,48768,46563,49035.92,47079.69,-267.92,-516.69,0.549021,96.22,1
2417742,2,17383,0,48782,46594,49035.41,47078.72,-253.41,-484.72,0.549086,96.22,1
2417782,2,17423,0,48798,46629,49034.94,47077.82,-236.94,-448.82,0.54915,96.22,1
2417822,2,17463,0,48814,46651,49034.5,47076.97,-220.5,-425.97,0.549213,96.22,1
2417862,2,17503,0,48827,46661,49034.08,47076.14,-207.08,-415.14,0.549275,96.22,1
2417902,2,17543,0,48829,46669,49033.67,47075.33,-204.67,-406.33,0.549336,96.22,1
2417942,2,17583,0,48834,46680,49033.27,47074.54,-199.27,-394.54,0.549396,96.23,1
2417982,2,17623,0,48838,46683,49032.88,47073.76,-194.88,-390.76,0.549455,96.23,1
2418022,2,17663,0,48814,46570,49032.45,47072.75,-218.45,-502.75,0.549511,96.23,1
2418062,2,17703,0,48724,46411,49031.83,47071.43,-307.83,-660.43,0.549564,96.23,1
2418102,2,17743,0,48659,46372,49031.08,47070.03,-372.08,-698.03,0.549616,96.23,1
2418142,2,17783,0,48660,46399,49030.34,47068.69,-370.34,-669.69,0.549666,96.23,1
2418182,2,17823,0,48678,46435,49029.64,47067.42,-351.64,-632.42,0.549715,96.23,1
2418223,2,17864,0,48695,46458,49028.97,47066.2,-333.97,-608.2,0.549763,96.23,1
2418263,2,17904,0,48710,46498,49028.33,47065.07,-318.33,-567.07,0.54981,96.23,1
2418303,2,17944,0,48723,46504,49027.72,47063.95,-304.72,-559.95,0.549856,96.23,1
2418343,2,17984,0,48720,46498,49027.11,47062.82,-307.11,-564.82,0.549901,96.23,1
2418383,2,18024,0,48714,46497,49026.48,47061.69,-312.48,-564.69,0.549946,96.23,1
2418423,2,18064,0,48728,46526,49025.89,47060.62,-297.89,-534.62,0.549989,96.23,1
2418463,2,18104,0,48740,46554,49025.32,47059.61,-285.32,-505.61,0.550032,96.24,1
2418503,2,18144,0,48750,46585,49024.77,47058.66,-274.77,-473.66,0.550075,96.24,1
2418543,2,18184,0,48769,46610,49024.25,47057.76,-255.25,-447.76,0.550118,96.24,1
2418583,2,18224,0,48788,46644,49023.78,47056.93,-235.78,-412.93,0.55016,96.24,1
2418623,2,18264,0,48803,46670,49023.34,47056.16,-220.34,-386.16,0.550202,96.24,1
2418663,2,18304,0,48817,46686,49022.93,47055.42,-205.93,-369.42,0.550243,96.24,1
2418703,2,18344,0,48818,46697,49022.52,47054.71,-204.52,-357.71,0.550284,96.24,1
2418743,2,18384,0,48829,46715,49022.13,47054.03,-193.13,-339.03,0.550325,96.24,1
2418783,2,18424,0,48834,46721,49021.76,47053.36,-187.76,-332.36,0.550365,96.24,1
2418823,2,18464,0,48830,46676,49021.37,47052.61,-191.37,-376.61,0.550405,96.24,1
2418863,2,18504,0,48760,46552,49020.86,47051.61,-260.86,-499.61,0.550444,96.24,1
2418903,2,18544,0,48662,46377,49020.14,47050.26,-358.14,-673.26,0.55048,96.24,1
2418944,2,18585,0,48628,46384,49019.36,47048.93,-391.36,-664.93,0.550517,96.24,1
2418984,2,18625,0,48646,46417,49018.61,47047.67,-372.61,-630.67,0.550554,96.24,1
2419024,2,18665,0,48664,46853,49017.91,47047.28,-353.91,-194.28,0.550597,96.24,1
2419064,2,18705,0,48680,46976,49017.23,47047.14,-337.23,-71.14,0.550647,96.24,1
2419104,2,18745,0,48694,46501,49016.59,47046.05,-322.59,-545.05,0.550696,96.24,1
2419144,2,18785,0,48695,46495,49015.95,47044.95,-320.95,-549.95,0.550746,96.24,1
2419184,2,18825,0,48692,46497,49015.3,47043.86,-323.3,-546.86,0.550795,96.24,1
2419224,2,18865,0,48696,46221,49014.66,47042.21,-318.66,-821.21,0.550836,96.24,1
2419264,2,18905,0,48719,46134,49014.07,47040.39,-295.07,-906.39,0.550865,96.24,1
2419304,2,18945,0,48733,46577,49013.51,47039.47,-280.51,-462.47,0.550894,96.24,1
2419344,2,18985,0,48747,46592,49012.98,47038.57,-265.98,-446.57,0.550923,96.24,1
2419384,2,19025,0,48753,46607,49012.46,47037.71,-259.46,-430.71,0.550953,96.24,1
2419424,2,19065,0,48759,46626,49011.95,47036.89,-252.95,-410.89,0.550983,96.24,1
2419464,2,19105,0,48773,46641,49011.48,47036.1,-238.48,-395.1,0.551013,96.23,1
2419504,2,19145,0,48773,46641,49011,47035.31,-238,-394.31,0.551043,96.23,1
2419544,2,19185,0,48776,46653,49010.53,47034.55,-234.53,-381.55,0.551073,96.23,1
2419584,2,19225,0,48778,46669,49010.07,47033.82,-232.07,-364.82,0.551104,96.23,1
2419624,2,19265,0,48781,46618,49009.61,47032.99,-228.61,-414.99,0.551134,96.23,1
2419665,2,19306,0,48711,46449,49009.01,47031.82,-298.01,-582.82,0.551162,96.23,1
2419705,2,19346,0,48623,46340,49008.24,47030.44,-385.24,-690.44,0.55119,96.23,1
2419745,2,19386,0,48851,46343,49007.93,47029.06,-156.93,-686.06,0.551208,96.23,1
2419785,2,19426,0,48962,46391,49007.84,47027.79,-45.84,-636.79,0.551218,96.23,1
2419825,2,19466,0,48633,46430,49007.09,47026.59,-374.09,-596.59,0.55123,96.23,1
2419865,2,19506,0,48656,46472,49006.39,47025.48,-350.39,-553.48,0.551242,96.23,1
2419905,2,19546,0,48673,46474,49005.73,47024.38,-332.73,-550.38,0.551256,96.23,1
2419945,2,19586,0,48560,46449,49004.84,47023.23,-444.84,-574.23,0.551274,96.23,1
2419985,2,19626,0,48419,46464,49003.66,47022.12,-584.66,-558.12,0.551308,96.23,1
2420025,2,19666,0,48670,46490,49003,47021.05,-333,-531.05,0.551342,96.23,1
2420065,2,19706,0,48687,46513,49002.37,47020.04,-315.37,-507.04,0.551377,96.23,1
2420105,2,19746,0,48699,46537,49001.76,47019.07,-302.76,-482.07,0.551412,96.23,1
2420145,2,19786,0,48109,46552,48999.98,47018.14,-890.98,-466.14,0.551493,96.23,1
2420185,2,19826,0,48721,46573,48999.42,47017.25,-278.42,-444.25,0.551574,96.23,1
2420225,2,19866,0,48734,46590,48998.89,47016.4,-264.89,-426.4,0.551655,96.23,1
2420265,2,19906,0,48739,46596,48998.37,47015.56,-259.37,-419.56,0.551735,96.23,1
2420305,2,19946,0,48743,46611,48997.86,47014.75,-254.86,-403.75,0.551816,96.23,1
2420345,2,19986,0,48742,46621,48997.35,47013.96,-255.35,-392.96,0.551897,96.23,1
2420385,2,20026,0,48750,46607,48996.86,47013.15,-246.86,-406.15,0.551978,96.22,1
2420426,2,20067,0,48707,46466,48996.28,47012.06,-289.28,-546.06,0.552058,96.22,1
2420466,2,20107,0,48612,46316,48995.51,47010.67,-383.51,-694.67,0.552135,96.22,1
2420506,2,20147,0,48559,46300,48994.64,47009.25,-435.64,-709.25,0.552212,96.22,1
2420546,2,20187,0,48571,46334,48993.79,47007.9,-422.79,-673.9,0.55229,96.22,1
2420586,2,20227,0,48594,46364,48993,47006.61,-399,-642.61,0.552368,96.22,1
2420626,2,20267,0,48614,46400,48992.24,47005.4,-378.24,-605.4,0.552447,96.22,1
2420666,2,20307,0,48633,46421,48991.52,47004.23,-358.52,-583.23,0.552525,96.22,1
2420706,2,20347,0,48634,46410,48990.8,47003.05,-356.8,-593.05,0.552604,96.22,1
2420746,2,20387,0,48625,46396,48990.07,47001.84,-365.07,-605.84,0.552682,96.22,1
2420786,2,20427,0,48631,46414,48989.36,47000.66,-358.36,-586.66,0.55276,96.22,1
2420826,2,20467,0,48648,46449,48988.68,46999.56,-340.68,-550.56,0.552838,96.21,1
2420866,2,20507,0,48665,46472,48988.03,46998.5,-323.03,-526.5,0.552916,96.21,1
2420906,2,20547,0,48679,46496,48987.41,46997.5,-308.41,-501.5,0.552994,96.21,1
2420946,2,20587,0,48687,46514,48986.82,46996.54,-299.82,-482.54,0.553073,96.21,1
2420986,2,20627,0,48701,46532,48986.25,46995.61,-285.25,-463.61,0.553151,96.21,1
2421026,2,20667,0,48713,46556,48985.7,46994.73,-272.7,-438.73,0.553229,96.21,1
2421066,2,20707,0,48718,46567,48985.16,46993.87,-267.16,-426.87,0.553307,96.21,1
2421106,2,20747,0,48726,46587,48984.65,46993.06,-258.65,-406.06,0.553386,96.21,1
2421147,2,20788,0,48736,46591,48984.15,46992.25,-248.15,-401.25,0.553464,96.2,1
2421187,2,20828,0,48729,46543,48983.64,46991.36,-254.64,-448.36,0.553542,96.2,1
2421227,2,20868,0,48658,46361,48983,46990.1,-325,-629.1,0.553616,96.2,1
2421267,2,20908,0,48558,46253,48982.15,46988.62,-424.15,-735.62,0.55369,96.2,1
2421307,2,20948,0,48540,46259,48981.27,46987.17,-441.27,-728.17,0.553763,96.2,1
2421347,2,20988,0,48558,46285,48980.42,46985.77,-422.42,-700.77,0.553836,96.2,1
2421387,2,21028,0,48566,46296,48979.59,46984.39,-413.59,-688.39,0.553909,96.2,1
2421427,2,21068,0,48577,46329,48978.79,46983.08,-401.79,-654.08,0.553982,96.2,1
2421467,2,21108,0,48598,46353,48978.03,46981.82,-380.03,-628.82,0.554054,96.19,1
2421507,2,21148,0,48613,46348,48977.3,46980.55,-364.3,-632.55,0.554126,96.19,1
2421547,2,21188,0,48608,46344,48976.56,46979.28,-368.56,-635.28,0.554197,96.19,1
2421587,2,21228,0,48614,46371,48975.84,46978.07,-361.84,-607.07,0.554267,96.19,1
2421627,2,21268,0,48633,46402,48975.15,46976.91,-342.15,-574.91,0.554337,96.19,1
2421667,2,21308,0,48649,46427,48974.5,46975.82,-325.5,-548.82,0.554407,96.19,1
2421707,2,21348,0,48666,46451,48973.88,46974.77,-307.88,-523.77,0.554475,96.19,1
2421747,2,21388,0,48680,46483,48973.3,46973.79,-293.3,-490.79,0.554544,96.18,1
2421787,2,21428,0,48691,46508,48972.73,46972.86,-281.73,-464.86,0.554613,96.18,1
2421827,2,21468,0,48706,46523,48972.2,46971.96,-266.2,-448.96,0.554681,96.18,1
2421867,2,21508,0,48712,46526,48971.68,46971.07,-259.68,-445.07,0.554748,96.18,1
2421908,2,21549,0,48708,46534,48971.16,46970.2,-263.16,-436.2,0.554816,96.18,1
2421948,2,21589,0,48712,46540,48970.64,46969.34,-258.64,-429.34,0.554883,96.18,1
2421988,2,21629,0,48706,46494,48970.11,46968.39,-264.11,-474.39,0.554949,96.17,1
2422028,2,21669,0,48643,46326,48969.46,46967.11,-326.46,-641.11,0.555012,96.17,1
2422068,2,21709,0,48547,46214,48968.62,46965.6,-421.62,-751.6,0.555073,96.17,1
2422108,2,21749,0,48527,46223,48967.73,46964.12,-440.73,-741.12,0.555134,96.17,1
2422148,2,21789,0,48540,46249,48966.88,46962.69,-426.88,-713.69,0.555195,96.17,1
2422188,2,21829,0,48556,46269,48966.06,46961.3,-410.06,-692.3,0.555255,96.17,1
2422228,2,21869,0,48571,46305,48965.27,46959.99,-394.27,-654.99,0.555314,96.17,1
2422268,2,21909,0,48599,46338,48964.54,46958.75,-365.54,-620.75,0.555374,96.16,1
2422308,2,21949,0,48609,46378,48963.83,46957.59,-354.83,-579.59,0.555433,96.16,1
2422348,2,21989,0,48602,46330,48963.11,46956.33,-361.11,-626.33,0.555492,96.16,1
2422388,2,22029,0,48608,46356,48962.4,46955.13,-354.4,-599.13,0.55555,96.16,1
2422428,2,22069,0,48625,46389,48961.73,46954,-336.73,-565,0.555608,96.16,1
2422468,2,22109,0,48646,46798,48961.1,46953.69,-315.1,-155.69,0.555671,96.16,1
2422508,2,22149,0,48660,46900,48960.5,46953.58,-300.5,-53.58,0.555741,96.16,1
2422548,2,22189,0,48672,46474,48959.92,46952.62,-287.92,-478.62,0.55581,96.15,1
2422588,2,22229,0,48684,46500,48959.37,46951.72,-275.37,-451.72,0.555879,96.15,1
2422629,2,22270,0,48695,46507,48958.84,46950.84,-263.84,-443.84,0.555948,96.15,1
2422669,2,22310,0,48696,46258,48958.32,46949.45,-262.32,-691.45,0.55601,96.15,1
2422709,2,22350,0,48696,46171,48957.8,46947.9,-261.8,-776.9,0.556061,96.15,1
2422749,2,22390,0,48699,46548,48957.28,46947.1,-258.28,-399.1,0.556112,96.15,1
2422789,2,22430,0,48717,46555,48956.8,46946.32,-239.8,-391.32,0.556164,96.14,1
2422829,2,22470,0,48698,46448,48956.29,46945.32,-258.29,-497.32,0.556214,96.14,1
2422869,2,22510,0,48598,46267,48955.57,46943.97,-357.57,-676.97,0.556261,96.14,1
2422909,2,22550,0,48526,46225,48954.71,46942.53,-428.71,-717.53,0.556308,96.14,1
2422949,2,22590,0,48537,46255,48953.87,46941.16,-416.87,-686.16,0.556356,96.14,1
2422989,2,22630,0,48556,46279,48953.08,46939.83,-397.08,-660.83,0.556403,96.14,1
2423029,2,22670,0,48570,46307,48952.32,46938.57,-382.32,-631.57,0.556451,96.14,1
2423069,2,22710,0,48590,46331,48951.59,46937.35,-361.59,-606.35,0.556498,96.13,1
2423109,2,22750,0,48591,46330,48950.87,46936.14,-359.87,-606.14,0.556545,96.13,1
2423149,2,22790,0,48587,46321,48950.15,46934.91,-363.15,-613.91,0.556592,96.13,1
2423189,2,22830,0,48801,46333,48949.85,46933.7,-148.85,-600.7,0.556632,96.13,1
2423229,2,22870,0,48948,46371,48949.85,46932.58,-1.85,-561.58,0.556663,96.13,1
2423269,2,22910,0,48623,46399,48949.2,46931.51,-326.2,-532.51,0.556695,96.13,1
2423309,2,22950,0,48634,46427,48948.57,46930.5,-314.57,-503.5,0.556728,96.13,1
2423349,2,22990,0,48650,46456,48947.97,46929.55,-297.97,-473.55,0.556761,96.12,1
2423390,2,23031,0,48584,46468,48947.24,46928.63,-363.24,-460.63,0.556798,96.12,1
2423430,2,23071,0,48430,46488,48946.21,46927.75,-516.21,-439.75,0.556849,96.12,1
2423470,2,23111,0,48675,46504,48945.66,46926.91,-270.66,-422.91,0.5569,96.12,1
2423510,2,23151,0,48676,46518,48945.12,46926.09,-269.12,-408.09,0.556952,96.12,1
2423550,2,23191,0,48690,46547,48944.62,46925.33,-254.62,-378.33,0.557004,96.12,1
2423590,2,23231,0,48107,46573,48942.94,46924.63,-835.94,-351.63,0.557102,96.12,1
2423630,2,23271,0,48713,46559,48942.48,46923.9,-229.48,-364.9,0.5572,96.12,1
2423670,2,23311,0,48663,46397,48941.93,46922.85,-278.93,-525.85,0.557296,96.11,1
2423710,2,23351,0,48559,46251,48941.16,46921.5,-382.16,-670.5,0.55739,96.11,1
2423750,2,23391,0,48515,46236,48940.31,46920.13,-425.31,-684.13,0.557483,96.11,1
2423790,2,23431,0,48523,46262,48939.48,46918.82,-416.48,-656.82,0.557577,96.11,1
2423830,2,23471,0,48540,46294,48938.68,46917.57,-398.68,-623.57,0.557672,96.11,1
2423870,2,23511,0,48558,46326,48937.92,46916.38,-379.92,-590.38,0.557767,96.11,1
2423910,2,23551,0,48573,46351,48937.19,46915.25,-364.19,-564.25,0.557863,96.1,1
2423950,2,23591,0,48586,46346,48936.49,46914.12,-350.49,-568.12,0.557959,96.1,1
2423990,2,23631,0,48574,46338,48935.77,46912.96,-361.77,-574.96,0.558054,96.1,1
2424030,2,23671,0,48575,46359,48935.05,46911.86,-360.05,-552.86,0.558151,96.1,1
2424070,2,23711,0,48594,46398,48934.37,46910.83,-340.37,-512.83,0.558248,96.1,1
2424111,2,23752,0,48615,46428,48933.73,46909.87,-318.73,-481.87,0.558345,96.1,1
2424151,2,23792,0,48629,46455,48933.12,46908.96,-304.12,-453.96,0.558444,96.09,1
2424191,2,23832,0,48640,46483,48932.54,46908.11,-292.54,-425.11,0.558543,96.09,1
2424231,2,23872,0,48650,46508,48931.97,46907.3,-281.97,-399.3,0.558643,96.09,1
2424271,2,23912,0,48664,46527,48931.44,46906.55,-267.44,-379.55,0.558744,96.09,1
2424311,2,23952,0,48675,46546,48930.93,46905.83,-255.93,-359.83,0.558846,96.09,1
2424351,2,23992,0,48676,46556,48930.42,46905.13,-254.42,-349.13,0.558949,96.09,1
2424391,2,24032,0,48688,46575,48929.93,46904.47,-241.93,-329.47,0.559053,96.08,1
2424431,2,24072,0,48698,46583,48929.47,46903.83,-231.47,-320.83,0.559157,96.08,1
2424471,2,24112,0,48691,46512,48929,46903.05,-238,-391.05,0.559262,96.08,1
2424511,2,24152,0,48613,46343,48928.37,46901.93,-315.37,-558.93,0.559364,96.08,1
2424551,2,24192,0,48530,46269,48927.57,46900.66,-397.57,-631.66,0.559466,96.08,1
2424591,2,24232,0,48516,46278,48926.75,46899.42,-410.75,-621.42,0.559569,96.07,1
2424631,2,24272,0,48535,46314,48925.97,46898.25,-390.97,-584.25,0.559674,96.07,1
2424671,2,24312,0,48547,46343,48925.21,46897.14,-378.21,-554.14,0.55978,96.07,1
2424711,2,24352,0,48568,46379,48924.5,46896.11,-356.5,-517.11,0.559888,96.07,1
2424751,2,24392,0,48579,46384,48923.8,46895.09,-344.8,-511.09,0.559996,96.07,1
2424792,2,24433,0,48573,46361,48923.11,46894.02,-350.11,-533.02,0.560105,96.06,1
2424832,2,24473,0,48564,46364,48922.39,46892.96,-358.39,-528.96,0.560215,96.06,1
2424872,2,24513,0,48573,46388,48921.69,46891.95,-348.69,-503.95,0.560327,96.06,1
2424912,2,24553,0,48580,46411,48921,46890.99,-341,-479.99,0.56044,96.06,1
2424952,2,24593,0,48596,46443,48920.36,46890.1,-324.36,-447.1,0.560554,96.06,1
2424992,2,24633,0,48613,46475,48919.74,46889.27,-306.74,-414.27,0.56067,96.05,1
2425032,2,24673,0,48633,46514,48919.17,46888.52,-286.17,-374.52,0.560788,96.05,1
2425072,2,24713,0,48652,46549,48918.64,46887.84,-266.64,-338.84,0.560908,96.05,1
2425112,2,24753,0,48666,46565,48918.14,46887.2,-252.14,-322.2,0.561029,96.05,1
2425152,2,24793,0,48680,46577,48917.66,46886.57,-237.66,-309.57,0.56115,96.04,1
2425192,2,24833,0,48686,46587,48917.2,46885.98,-231.2,-298.98,0.561273,96.04,1
2425232,2,24873,0,48685,46575,48916.73,46885.36,-231.73,-310.36,0.561397,96.04,1
2425272,2,24913,0,48647,46438,48916.2,46884.46,-269.2,-446.46,0.561519,96.04,1
2425312,2,24953,0,48551,46297,48915.46,46883.29,-364.46,-586.29,0.561641,96.04,1
2425352,2,24993,0,48508,46282,48914.65,46882.09,-406.65,-600.09,0.561765,96.03,1
2425392,2,25033,0,48518,46313,48913.86,46880.95,-395.86,-567.95,0.56189,96.03,1
2425432,2,25073,0,48538,46350,48913.11,46879.89,-375.11,-529.89,0.562017,96.03,1
2425472,2,25113,0,48552,46375,48912.39,46878.88,-360.39,-503.88,0.562146,96.03,1
2425513,2,25154,0,48569,46399,48911.7,46877.92,-342.7,-478.92,0.562276,96.02,1
2425553,2,25194,0,48571,46387,48911.02,46876.94,-340.02,-489.94,0.562408,96.02,1
2425593,2,25234,0,48562,46392,48910.33,46875.97,-348.33,-483.97,0.562541,96.02,1
2425633,2,25274,0,48571,46428,48909.65,46875.08,-338.65,-447.08,0.562676,96.02,1
2425673,2,25314,0,48594,46494,48909.02,46874.32,-315.02,-380.32,0.562814,96.01,1
2425713,2,25354,0,48611,46630,48908.43,46873.83,-297.43,-243.83,0.562957,96.01,1
2425753,2,25394,0,48624,46518,48907.86,46873.12,-283.86,-355.12,0.563101,96.01,1
2425793,2,25434,0,48640,46544,48907.33,46872.46,-267.33,-328.46,0.563247,96.01,1
2425833,2,25474,0,48659,46574,48906.83,46871.86,-247.83,-297.86,0.563394,96,1
2425873,2,25514,0,48678,47073,48906.37,46872.27,-228.37,200.73,0.563544,96,1
2425913,2,25554,0,48682,46603,48905.93,46871.73,-223.93,-268.73,0.563695,96,1
2425953,2,25594,0,48687,46616,48905.49,46871.21,-218.49,-255.21,0.563847,95.99,1
2425993,2,25634,0,48697,46625,48905.07,46870.72,-208.07,-245.72,0.564,95.99,1
2426033,2,25674,0,48686,46554,48904.64,46870.09,-218.64,-316.09,0.564154,95.99,1
2426073,2,25714,0,48605,45972,48904.04,46868.29,-299.04,-896.29,0.564287,95.99,1
2426113,2,25754,0,48507,45783,48903.25,46866.12,-396.25,-1083.13,0.564396,95.98,1
2426153,2,25794,0,48484,46274,48902.41,46864.94,-418.41,-590.94,0.564508,95.98,1
2426193,2,25834,0,48502,46302,48901.61,46863.82,-399.61,-561.82,0.564622,95.98,1
2426234,2,25875,0,48511,46317,48900.83,46862.72,-389.83,-545.72,0.564738,95.97,1
2426274,2,25915,0,48525,46348,48900.08,46861.7,-375.08,-513.7,0.564856,95.97,1
2426314,2,25955,0,48539,46372,48899.36,46860.72,-360.36,-488.72,0.564977,95.97,1
2426354,2,25995,0,48539,46370,48898.64,46859.74,-359.64,-489.74,0.5651,95.97,1
2426394,2,26035,0,48542,46366,48897.93,46858.75,-355.93,-492.75,0.565225,95.96,1
2426434,2,26075,0,48599,46398,48897.33,46857.83,-298.33,-459.83,0.56535,95.96,1
2426474,2,26115,0,48563,46429,48896.66,46856.98,-333.66,-427.98,0.565478,95.96,1
2426514,2,26155,0,48585,46466,48896.04,46856.2,-311.04,-390.2,0.565608,95.95,1
2426554,2,26195,0,48606,46493,48895.46,46855.47,-289.46,-362.47,0.56574,95.95,1
2426594,2,26235,0,48979,46522,48895.63,46854.8,83.37,-332.8,0.565868,95.95,1
2426634,2,26275,0,49145,46539,48896.13,46854.18,248.87,-315.18,0.565998,95.95,1
2426674,2,26315,0,48645,46555,48895.63,46853.58,-250.63,-298.58,0.56613,95.94,1
2426714,2,26355,0,48648,46559,48895.14,46852.99,-247.14,-293.99,0.566263,95.94,1
2426754,2,26395,0,48652,46567,48894.65,46852.42,-242.65,-285.42,0.566398,95.94,1
2426794,2,26435,0,48402,46587,48893.67,46851.89,-491.67,-264.89,0.56655,95.93,1
2426834,2,26475,0,48206,46538,48892.29,46851.26,-686.29,-313.26,0.566736,95.93,1
2426874,2,26515,0,48579,46347,48891.67,46850.25,-312.67,-503.25,0.56692,95.93,1
2426914,2,26555,0,48479,46227,48890.84,46849.01,-411.84,-622.01,0.567104,95.92,1
2426955,2,26596,0,48450,46232,48889.96,46847.77,-439.96,-615.77,0.56729,95.92,1
2426995,2,26636,0,48467,46258,48889.12,46846.59,-422.12,-588.59,0.567478,95.92,1
2427035,2,26676,0,48471,46276,48888.29,46845.45,-417.29,-569.45,0.567668,95.91,1
2427075,2,26716,0,48483,46308,48887.48,46844.38,-404.48,-536.38,0.56786,95.91,1
2427115,2,26756,0,48510,46340,48886.72,46843.37,-376.72,-503.37,0.568054,95.91,1
2427155,2,26796,0,48519,46341,48885.99,46842.37,-366.99,-501.37,0.56825,95.9,1
2427195,2,26836,0,48513,46344,48885.24,46841.37,-372.24,-497.37,0.568447,95.9,1
2427235,2,26876,0,48518,46369,48884.51,46840.43,-366.51,-471.43,0.568646,95.9,1
2427275,2,26916,0,48545,46412,48883.83,46839.57,-338.83,-427.57,0.568848,95.89,1
2427315,2,26956,0,48567,46441,48883.2,46838.77,-316.2,-397.77,0.569052,95.89,1
2427355,2,26996,0,48585,46468,48882.6,46838.03,-297.6,-370.03,0.569257,95.89,1
2427395,2,27036,0,48597,46496,48882.03,46837.35,-285.03,-341.35,0.569464,95.88,1
2427435,2,27076,0,48606,46515,48881.48,46836.7,-275.48,-321.7,0.569672,95.88,1
2427475,2,27116,0,48620,46533,48880.96,46836.1,-260.96,-303.1,0.569882,95.88,1
2427515,2,27156,0,48627,46536,48880.45,46835.5,-253.45,-299.5,0.570094,95.87,1
2427555,2,27196,0,48628,46549,48879.95,46834.93,-251.95,-285.93,0.570307,95.87,1
2427595,2,27236,0,48631,46568,48879.45,46834.4,-248.45,-266.4,0.570521,95.86,1
2427635,2,27276,0,48635,46555,48878.96,46833.84,-243.96,-278.84,0.570738,95.86,1
2427676,2,27317,0,48591,46400,48878.39,46832.97,-287.39,-432.97,0.570953,95.86,1
2427716,2,27357,0,48484,46231,48877.6,46831.77,-393.6,-600.77,0.571167,95.85,1
2427756,2,27397,0,48422,46211,48876.69,46830.53,-454.69,-619.53,0.571383,95.85,1
2427796,2,27437,0,48429,46243,48875.79,46829.35,-446.79,-586.35,0.571602,95.84,1
2427836,2,27477,0,48448,46261,48874.94,46828.21,-426.94,-567.21,0.571824,95.84,1
2427876,2,27517,0,48460,46293,48874.11,46827.14,-414.11,-534.14,0.572048,95.84,1
2427916,2,27557,0,48480,46327,48873.32,46826.14,-393.32,-499.14,0.572275,95.83,1
2427956,2,27597,0,48492,46338,48872.56,46825.17,-380.56,-487.17,0.572504,95.83,1
2427996,2,27637,0,48494,46326,48871.8,46824.17,-377.8,-498.17,0.572735,95.82,1
2428036,2,27677,0,48495,46342,48871.05,46823.21,-376.05,-481.21,0.572968,95.82,1
2428076,2,27717,0,48514,46374,48870.34,46822.31,-356.34,-448.31,0.573203,95.81,1
2428116,2,27757,0,48531,46399,48869.66,46821.46,-338.66,-422.46,0.573439,95.81,1
2428156,2,27797,0,48541,46430,48869.01,46820.68,-328.01,-390.68,0.573678,95.8,1
2428196,2,27837,0,48562,46459,48868.39,46819.96,-306.39,-360.96,0.573919,95.8,1
2428236,2,27877,0,48575,46476,48867.81,46819.27,-292.81,-343.27,0.574162,95.8,1
2428276,2,27917,0,48586,46499,48867.25,46818.63,-281.25,-319.63,0.574407,95.79,1
2428316,2,27957,0,48587,46512,48866.69,46818.02,-279.69,-306.02,0.574654,95.79,1
2428356,2,27997,0,48591,46530,48866.14,46817.45,-275.14,-287.45,0.574903,95.78,1
2428396,2,28037,0,48603,46552,48865.61,46816.91,-262.61,-264.91,0.575154,95.78,1
2428437,2,28078,0,48613,46569,48865.11,46816.42,-252.11,-247.42,0.575407,95.77,1
2428477,2,28118,0,48608,46498,48864.6,46815.78,-256.6,-317.78,0.575661,95.77,1
2428517,2,28158,0,48515,46306,48863.9,46814.76,-348.9,-508.76,0.575915,95.76,1
2428557,2,28198,0,48417,46211,48863.01,46813.55,-446.01,-602.55,0.576169,95.76,1
2428597,2,28238,0,48409,46231,48862.1,46812.39,-453.1,-581.39,0.576427,95.75,1
2428637,2,28278,0,48432,46274,48861.24,46811.32,-429.24,-537.32,0.576688,95.75,1
2428677,2,28318,0,48452,46314,48860.43,46810.32,-408.43,-496.32,0.576952,95.74,1
2428717,2,28358,0,48479,46354,48859.66,46809.41,-380.66,-455.41,0.577219,95.74,1
2428757,2,28398,0,48498,46360,48858.94,46808.52,-360.94,-448.52,0.577488,95.73,1
2428797,2,28438,0,48485,46324,48858.2,46807.55,-373.2,-483.55,0.577758,95.73,1
2428837,2,28478,0,48473,46313,48857.43,46806.56,-384.43,-493.56,0.57803,95.72,1
2428877,2,28518,0,48479,46340,48856.67,46805.62,-377.67,-465.62,0.578304,95.72,1
2428917,2,28558,0,48496,46369,48855.95,46804.75,-359.95,-435.75,0.57858,95.71,1
2428957,2,28598,0,48512,46390,48855.27,46803.93,-343.27,-413.93,0.578858,95.7,1
2428997,2,28638,0,48523,46414,48854.6,46803.15,-331.6,-389.15,0.579138,95.7,1
2429037,2,28678,0,48533,46435,48853.96,46802.41,-320.96,-367.41,0.579421,95.69,1
2429077,2,28718,0,48545,46452,48853.34,46801.71,-308.34,-349.71,0.579705,95.69,1
2429117,2,28758,0,48547,46553,48852.73,46801.22,-305.73,-248.22,0.579994,95.68,1
2429158,2,28799,0,48555,46688,48852.14,46800.99,-297.14,-112.99,0.58029,95.68,1
2429198,2,28839,0,48566,46507,48851.57,46800.41,-285.57,-293.41,0.580587,95.67,1
2429238,2,28879,0,48573,46507,48851.01,46799.82,-278.01,-292.82,0.580887,95.66,1
2429278,2,28919,0,48542,46390,48850.39,46799,-308.39,-409,0.581186,95.66,1
2429318,2,28959,0,48445,46717,48849.59,46798.84,-404.59,-81.84,0.581499,95.65,1
2429358,2,28999,0,48382,46148,48848.65,46797.54,-466.65,-649.54,0.58181,95.65,1
2429398,2,29039,0,48390,46214,48847.73,46796.37,-457.73,-582.37,0.582124,95.64,1
2429438,2,29079,0,48415,46264,48846.87,46795.31,-431.87,-531.31,0.58244,95.64,1
2429478,2,29119,0,48440,46304,48846.06,46794.33,-406.06,-490.33,0.582759,95.63,1
2429518,2,29159,0,48466,45925,48845.3,46792.59,-379.3,-867.59,0.583056,95.62,1
2429558,2,29199,0,48469,45766,48844.55,46790.54,-375.55,-1024.54,0.583321,95.62,1
2429598,2,29239,0,48458,46305,48843.78,46789.57,-385.78,-484.57,0.583588,95.61,1
2429638,2,29279,0,48462,46327,48843.02,46788.64,-381.02,-461.64,0.583857,95.6,1
2429678,2,29319,0,48477,46358,48842.29,46787.79,-365.29,-429.79,0.584129,95.6,1
2429718,2,29359,0,48494,46374,48841.59,46786.96,-347.59,-412.96,0.584403,95.59,1
2429758,2,29399,0,48505,46399,48840.92,46786.18,-335.92,-387.18,0.58468,95.59,1
2429798,2,29439,0,48518,46423,48840.27,46785.46,-322.27,-362.46,0.584958,95.58,1
2429838,2,29479,0,48526,46439,48839.64,46784.77,-313.64,-345.77,0.585239,95.57,1
2429878,2,29519,0,48606,46454,48839.18,46784.11,-233.18,-330.11,0.585519,95.57,1
2429919,2,29560,0,48541,46466,48838.59,46783.47,-297.59,-317.47,0.585802,95.56,1
2429959,2,29600,0,48545,46476,48838,46782.86,-293,-306.86,0.586087,95.55,1
2429999,2,29640,0,48546,46468,48837.42,46782.23,-291.42,-314.23,0.586374,95.55,1
2430039,2,29680,0,48919,46308,48837.58,46781.28,81.42,-473.28,0.586651,95.54,1
2430079,2,29720,0,48896,46159,48837.7,46780.04,58.3,-621.04,0.586911,95.53,1
2430119,2,29760,0,48352,46151,48836.73,46778.78,-484.73,-627.78,0.587174,95.53,1
2430159,2,29800,0,48368,46193,48835.79,46777.61,-467.79,-584.61,0.58744,95.52,1
2430199,2,29840,0,48386,46222,48834.89,46776.5,-448.89,-554.5,0.587709,95.52,1
2430239,2,29880,0,48098,46258,48833.42,46775.46,-735.42,-517.46,0.588011,95.51,1
2430279,2,29920,0,47996,46274,48831.75,46774.46,-835.75,-500.46,0.588358,95.5,1
2430319,2,29960,0,48434,46262,48830.96,46773.44,-396.96,-511.44,0.588705,95.5,1
2430359,2,30000,0,48426,46255,48830.15,46772.41,-404.15,-517.41,0.589053,95.49,1
2430399,2,30040,1,48427,46284,48829.34,46771.43,-402.34,-487.43,0.589403,95.48,1
2430439,2,30080,1,48445,46318,48828.58,46770.52,-383.58,-452.52,0.589754,95.48,1
2430479,2,30120,1,48467,46347,48827.86,46769.68,-360.86,-422.68,0.590107,95.47,1
2430519,2,30160,1,48484,46371,48827.17,46768.88,-343.17,-397.88,0.590461,95.46,1
2430559,2,30200,1,48485,46385,48826.48,46768.11,-341.48,-383.11,0.590817,95.45,1
2430599,2,30240,1,48498,46414,48825.83,46767.41,-327.83,-353.41,0.591175,95.45,1
2430640,2,30281,1,48509,46421,48825.2,46766.71,-316.2,-345.71,0.591535,95.44,1
2430680,2,30321,1,48513,46443,48824.57,46766.07,-311.57,-323.07,0.591897,95.43,1
2430720,2,30361,1,48525,46465,48823.97,46765.47,-298.97,-300.47,0.592261,95.43,1
2430760,2,30401,1,48529,46433,48823.38,46764.8,-294.38,-331.8,0.592627,95.42,1
2430800,2,30441,1,48475,46260,48822.69,46763.8,-347.69,-503.8,0.592989,95.41,1
2430840,2,30481,1,48358,46097,48821.76,46762.46,-463.76,-665.46,0.593348,95.4,1
2430880,2,30521,1,48308,46088,48820.73,46761.12,-512.73,-673.12,0.593707,95.4,1
2430920,2,30561,1,48322,46121,48819.73,46759.84,-497.73,-638.84,0.594066,95.39,1
2430960,2,30601,1,48333,46134,48818.76,46758.59,-485.76,-624.59,0.594426,95.38,1
2431000,2,30641,1,48357,46173,48817.84,46757.42,-460.84,-584.42,0.594786,95.37,1
2431040,2,30681,1,48376,46196,48816.96,46756.3,-440.96,-560.3,0.595147,95.37,1
2431080,2,30721,1,48389,46207,48816.1,46755.2,-427.1,-548.2,0.595508,95.36,1
2431120,2,30761,1,48385,46199,48815.24,46754.09,-430.24,-555.09,0.595869,95.35,1
2431160,2,30801,1,48388,46213,48814.39,46753.01,-426.39,-540.01,0.59623,95.34,1
2431200,2,30841,1,48403,46249,48813.57,46752,-410.57,-503,0.596593,95.34,1
2431240,2,30881,1,48422,46292,48812.79,46751.08,-390.79,-459.08,0.596957,95.33,1
2431280,2,30921,1,48446,46322,48812.06,46750.23,-366.06,-428.23,0.597322,95.32,1
2431320,2,30961,1,48457,46340,48811.35,46749.41,-354.35,-409.41,0.597688,95.31,1
2431361,2,31002,1,48465,46364,48810.66,46748.64,-345.66,-384.64,0.598057,95.3,1
2431401,2,31042,1,48476,46384,48809.99,46747.91,-333.99,-363.91,0.598427,95.3,1
2431441,2,31082,1,48483,46402,48809.34,46747.22,-326.34,-345.22,0.598799,95.29,1
2431481,2,31122,1,48494,46432,48808.71,46746.59,-314.71,-314.59,0.599173,95.28,1
2431521,2,31162,1,48506,46432,48808.11,46745.96,-302.11,-313.96,0.599549,95.27,1
2431561,2,31202,1,48487,46329,48807.46,46745.13,-320.46,-416.13,0.599924,95.26,1
2431601,2,31242,1,48387,46141,48806.62,46743.92,-419.62,-602.92,0.600296,95.26,1
2431641,2,31282,1,48302,46080,48805.62,46742.59,-503.62,-662.59,0.600666,95.25,1
2431681,2,31322,1,48298,46110,48804.6,46741.33,-506.6,-631.33,0.601038,95.24,1
2431721,2,31362,1,48332,46146,48803.66,46740.14,-471.66,-594.14,0.60141,95.23,1
2431761,2,31402,1,48342,46142,48802.73,46738.95,-460.73,-596.95,0.601782,95.22,1
2431801,2,31442,1,48334,46083,48801.8,46737.63,-467.8,-654.63,0.60215,95.22,1
2431841,2,31482,1,48289,45996,48800.77,46736.15,-511.77,-740.15,0.602513,95.21,1
2431881,2,31522,1,48247,45960,48799.67,46734.6,-552.67,-774.6,0.602873,95.2,1
2431921,2,31562,1,48246,45990,48798.56,46733.11,-552.56,-743.11,0.603231,95.19,1
2431961,2,31602,1,48277,46061,48797.52,46731.77,-520.52,-670.77,0.603588,95.18,1
2432001,2,31642,1,48314,46138,48796.55,46730.58,-482.55,-592.58,0.603948,95.17,1
2432041,2,31682,1,48351,46196,48795.66,46729.52,-444.66,-533.52,0.604308,95.16,1
2432081,2,31722,1,48375,46229,48794.82,46728.52,-419.82,-499.52,0.60467,95.16,1
2432122,2,31763,1,48380,46176,48794,46727.41,-414,-551.41,0.605031,95.15,1
2432162,2,31803,1,48324,46078,48793.06,46726.11,-469.06,-648.11,0.605389,95.14,1
2432202,2,31843,1,48293,46055,48792.06,46724.77,-499.06,-669.77,0.605745,95.13,1
2432242,2,31883,1,48283,46066,48791.04,46723.46,-508.04,-657.46,0.606101,95.12,1
2432282,2,31923,1,48286,46055,48790.04,46722.12,-504.04,-667.12,0.606456,95.11,1
2432322,2,31963,1,48280,46041,48789.02,46720.76,-509.02,-679.76,0.60681,95.11,1
2432362,2,32003,1,48265,45977,48787.97,46719.28,-522.97,-742.28,0.607159,95.1,1
2432402,2,32043,1,48179,45797,48786.75,46717.43,-607.75,-920.43,0.6075,95.09,1
2432442,2,32083,1,48099,45741,48785.38,46715.48,-686.38,-974.48,0.607835,95.08,1
2432482,2,32123,1,48096,45750,48784,46713.55,-688,-963.55,0.608166,95.07,1
2432522,2,32163,1,48089,45686,48782.61,46711.5,-693.61,-1025.5,0.608488,95.06,1
2432562,2,32203,1,48052,45774,48781.15,46709.62,-729.15,-935.62,0.608813,95.05,1
2432602,2,32243,1,48040,45620,48779.67,46707.44,-739.67,-1087.44,0.609129,95.05,1
2432642,2,32283,1,48018,45575,48778.14,46705.18,-760.14,-1130.18,0.609436,95.04,1
2432682,2,32323,1,47997,45545,48776.58,46702.86,-779.58,-1157.86,0.609735,95.03,1
2432722,2,32363,1,47971,45957,48774.97,46701.36,-803.97,-744.36,0.610052,95.02,1
2432762,2,32403,1,47966,45516,48773.36,46698.99,-807.36,-1182.99,0.610361,95.01,1
2432802,2,32443,1,47956,45501,48771.72,46696.6,-815.72,-1195.6,0.610663,95,1
2432843,2,32484,1,47943,45457,48770.07,46694.12,-827.07,-1237.12,0.610955,95,1
2432883,2,32524,1,47920,45430,48768.37,46691.59,-848.37,-1261.59,0.611238,94.99,1
2432923,2,32564,1,47904,45095,48766.64,46688.4,-862.64,-1593.4,0.611489,94.98,1
2432963,2,32604,1,47907,44943,48764.92,46684.91,-857.92,-1741.91,0.6117,94.97,1
2433003,2,32644,1,47899,45420,48763.19,46682.39,-864.19,-1262.39,0.611907,94.96,1
2433043,2,32684,1,47892,45393,48761.45,46679.81,-869.45,-1286.81,0.612109,94.95,1
2433083,2,32724,1,47873,45373,48759.67,46677.2,-886.67,-1304.2,0.612308,94.95,1
2433123,2,32764,1,47860,45349,48757.87,46674.54,-897.87,-1325.54,0.612503,94.94,1
2433163,2,32804,1,47833,45240,48756.03,46671.67,-923.03,-1431.67,0.61269,94.93,1
2433203,2,32844,1,47739,45098,48754,46668.53,-1015,-1570.53,0.612869,94.92,1
2433243,2,32884,1,47687,45059,48751.86,46665.31,-1064.86,-1606.31,0.613042,94.92,1
2433283,2,32924,1,47696,45050,48749.75,46662.08,-1053.75,-1612.08,0.613208,94.91,1
2433323,2,32964,1,47661,45028,48747.58,46658.81,-1086.58,-1630.81,0.613369,94.9,1
2433363,2,33004,1,47652,45017,48745.39,46655.53,-1093.39,-1638.53,0.613526,94.89,1
2433403,2,33044,1,47653,45010,48743.2,46652.24,-1090.2,-1642.24,0.613679,94.89,1
2433443,2,33084,1,47993,44983,48741.7,46648.91,-748.7,-1665.91,0.613806,94.88,1
2433483,2,33124,1,48063,44967,48740.35,46645.54,-677.35,-1678.54,0.613905,94.87,1
2433523,2,33164,1,47606,44950,48738.08,46642.15,-1132.08,-1692.15,0.614003,94.87,1
2433564,2,33205,1,47590,44917,48735.79,46638.7,-1145.79,-1721.7,0.614099,94.86,1
2433604,2,33245,1,47571,44880,48733.46,46635.19,-1162.46,-1755.19,0.614193,94.85,1
2433644,2,33285,1,47305,44867,48730.61,46631.65,-1425.61,-1764.65,0.614304,94.85,1
2433684,2,33325,1,47184,44883,48727.51,46628.16,-1543.51,-1745.16,0.614441,94.84,1
2433724,2,33365,1,47551,44885,48725.16,46624.67,-1174.16,-1739.67,0.614576,94.84,1
2433764,2,33405,1,47559,44898,48722.83,46621.22,-1163.83,-1723.22,0.614709,94.83,1
2433804,2,33445,1,47568,44907,48720.52,46617.79,-1152.52,-1710.79,0.614841,94.82,1
2433844,2,33485,1,47561,44889,48718.2,46614.34,-1157.2,-1725.34,0.61497,94.82,1
2433884,2,33525,1,47546,44860,48715.86,46610.83,-1169.86,-1750.83,0.615096,94.81,1
2433924,2,33565,1,47505,44726,48713.44,46607.06,-1208.44,-1881.06,0.615218,94.81,1
2433964,2,33605,1,47413,44585,48710.84,46603.02,-1297.84,-2018.02,0.615334,94.8,1
2434004,2,33645,1,47343,44535,48708.1,46598.88,-1365.1,-2063.88,0.615447,94.79,1
2434044,2,33685,1,47323,44492,48705.33,46594.67,-1382.33,-2102.67,0.615556,94.79,1
2434084,2,33725,1,47295,44452,48702.51,46590.38,-1407.51,-2138.38,0.615662,94.78,1
2434124,2,33765,1,47278,44415,48699.66,46586.04,-1421.66,-2171.04,0.615765,94.78,1
2434164,2,33805,1,47258,44375,48696.78,46581.61,-1438.78,-2206.61,0.615864,94.77,1
2434204,2,33845,1,47231,44336,48693.85,46577.12,-1462.85,-2241.13,0.615959,94.77,1
2434244,2,33885,1,47208,44310,48690.88,46572.59,-1482.88,-2262.59,0.616051,94.76,1
2434284,2,33925,1,47201,44301,48687.91,46568.05,-1486.91,-2267.05,0.616141,94.76,1
2434325,2,33966,1,47189,44286,48684.91,46563.49,-1495.91,-2277.49,0.616228,94.75,1
2434365,2,34006,1,47176,44268,48681.89,46558.9,-1505.89,-2290.9,0.616313,94.75,1
2434405,2,34046,1,47172,44257,48678.87,46554.3,-1506.88,-2297.3,0.616396,94.74,1
2434445,2,34086,1,47160,44230,48675.84,46549.65,-1515.84,-2319.65,0.616476,94.74,1
2434485,2,34126,1,47138,44206,48672.77,46544.96,-1534.77,-2338.96,0.616554,94.73,1
2434525,2,34166,1,47125,44201,48669.67,46540.27,-1544.67,-2339.27,0.616631,94.73,1
2434565,2,34206,1,47125,44203,48666.58,46535.6,-1541.58,-2332.6,0.616706,94.73,1
2434605,2,34246,1,47125,44200,48663.5,46530.93,-1538.5,-2330.93,0.61678,94.72,1
2434645,2,34286,1,47126,44196,48660.43,46526.26,-1534.43,-2330.26,0.616852,94.72,1
2434685,2,34326,1,47127,44185,48657.36,46521.58,-1530.36,-2336.58,0.616923,94.71,1
2434725,2,34366,1,47121,44178,48654.29,46516.89,-1533.29,-2338.89,0.616992,94.71,1
2434765,2,34406,1,47109,44169,48651.2,46512.2,-1542.2,-2343.2,0.617059,94.7,1
2434805,2,34446,1,47101,44152,48648.1,46507.48,-1547.1,-2355.48,0.617125,94.7,1
2434845,2,34486,1,47097,44144,48645,46502.75,-1548,-2358.75,0.61719,94.7,1
2434885,2,34526,1,47095,44150,48641.9,46498.05,-1546.9,-2348.05,0.617254,94.69,1
2434925,2,34566,1,47099,44156,48638.82,46493.37,-1539.82,-2337.37,0.617317,94.69,1
2434965,2,34606,1,47091,44150,48635.72,46488.68,-1544.72,-2338.68,0.617379,94.69,1
2435005,2,34646,1,47083,44136,48632.62,46483.98,-1549.62,-2347.98,0.61744,94.68,1
2435046,2,34687,1,47072,44119,48629.5,46479.25,-1557.5,-2360.25,0.6175,94.68,1
2435086,2,34727,1,47059,44099,48626.36,46474.49,-1567.36,-2375.49,0.61756,94.67,1
2435126,2,34767,1,47046,44098,48623.2,46469.74,-1577.2,-2371.74,0.617619,94.67,1
2435166,2,34807,1,47041,44089,48620.03,46464.98,-1579.03,-2375.98,0.617678,94.67,1
2435206,2,34847,1,47039,44080,48616.87,46460.21,-1577.87,-2380.21,0.617736,94.66,1
2435246,2,34887,1,47030,44069,48613.7,46455.43,-1583.7,-2386.43,0.617793,94.66,1
2435286,2,34927,1,47020,44057,48610.51,46450.63,-1590.51,-2393.63,0.61785,94.66,1
2435326,2,34967,1,47002,44042,48607.3,46445.82,-1605.3,-2403.82,0.617908,94.65,1
2435366,2,35007,1,47005,44043,48604.09,46441.01,-1599.09,-2398.01,0.617964,94.65,1
2435406,2,35047,1,47004,44049,48600.89,46436.23,-1596.89,-2387.23,0.618021,94.65,1
2435446,2,35087,1,47002,44043,48597.7,46431.45,-1595.7,-2388.45,0.618078,94.65,1
2435486,2,35127,1,46998,44039,48594.5,46426.66,-1596.5,-2387.66,0.618134,94.64,1
2435526,2,35167,1,46984,44017,48591.28,46421.84,-1607.28,-2404.84,0.618191,94.64,1
2435566,2,35207,1,46969,43987,48588.04,46416.98,-1619.04,-2429.98,0.618247,94.64,1
2435606,2,35247,1,46950,43960,48584.77,46412.06,-1634.77,-2452.06,0.618303,94.63,1
2435646,2,35287,1,46932,43942,48581.46,46407.12,-1649.46,-2465.13,0.618359,94.63,1
2435686,2,35327,1,46917,43937,48578.13,46402.19,-1661.13,-2465.19,0.618415,94.63,1
2435726,2,35367,1,46906,43921,48574.79,46397.23,-1668.79,-2476.23,0.618471,94.63,1
2435767,2,35408,1,46893,43892,48571.43,46392.22,-1678.43,-2500.22,0.618528,94.62,1
2435807,2,35448,1,46874,43869,48568.03,46387.17,-1694.03,-2518.17,0.618584,94.62,1
2435847,2,35488,1,46857,43850,48564.61,46382.1,-1707.61,-2532.1,0.618641,94.62,1
2435887,2,35528,1,46840,43848,48561.16,46377.03,-1721.16,-2529.03,0.618698,94.62,1
2435927,2,35568,1,46844,43862,48557.73,46372,-1713.73,-2510,0.618756,94.61,1
2435967,2,35608,1,46847,43933,48554.3,46367.13,-1707.3,-2434.13,0.618816,94.61,1
2436007,2,35648,1,46838,44054,48550.87,46362.5,-1712.88,-2308.5,0.61888,94.61,1
2436047,2,35688,1,46828,43840,48547.43,46357.46,-1719.43,-2517.46,0.618945,94.61,1
2436087,2,35728,1,46821,43831,48543.98,46352.41,-1722.98,-2521.41,0.61901,94.6,1
2436127,2,35768,1,46817,43824,48540.52,46347.36,-1723.52,-2523.36,0.619075,94.6,1
2436167,2,35808,1,46810,44315,48537.06,46343.29,-1727.06,-2028.29,0.619149,94.6,1
2436207,2,35848,1,46800,43779,48533.59,46338.16,-1733.59,-2559.16,0.619222,94.6,1
2436247,2,35888,1,46791,43796,48530.11,46333.08,-1739.11,-2537.08,0.619296,94.59,1
2436287,2,35928,1,46778,43770,48526.6,46327.96,-1748.6,-2557.96,0.61937,94.59,1
2436327,2,35968,1,46761,43750,48523.07,46322.8,-1762.07,-2572.8,0.619444,94.59,1
2436367,2,36008,1,46745,43329,48519.52,46316.81,-1774.52,-2987.81,0.619512,94.59,1
2436407,2,36048,1,46732,43117,48515.94,46310.41,-1783.94,-3193.41,0.61957,94.58,1
2436447,2,36088,1,46723,43722,48512.36,46305.24,-1789.36,-2583.24,0.619629,94.58,1
2436488,2,36129,1,46712,43707,48508.76,46300.04,-1796.76,-2593.04,0.61969,94.58,1
2436528,2,36169,1,46700,43692,48505.14,46294.83,-1805.14,-2602.83,0.619751,94.58,1
2436568,2,36209,1,46680,43664,48501.49,46289.57,-1821.49,-2625.57,0.619814,94.58,1
2436608,2,36249,1,46659,43641,48497.81,46284.27,-1838.81,-2643.27,0.619878,94.57,1
2436648,2,36289,1,46645,43627,48494.11,46278.96,-1849.11,-2651.96,0.619943,94.57,1
2436688,2,36329,1,46634,43627,48490.39,46273.66,-1856.39,-2646.66,0.620009,94.57,1
2436728,2,36369,1,46700,43641,48486.81,46268.39,-1786.81,-2627.39,0.620076,94.57,1
2436768,2,36409,1,46638,43648,48483.11,46263.15,-1845.11,-2615.15,0.620144,94.56,1
2436808,2,36449,1,46630,43639,48479.41,46257.91,-1849.41,-2618.91,0.620214,94.56,1
2436848,2,36489,1,46622,43617,48475.7,46252.62,-1853.7,-2635.63,0.620285,94.56,1
2436888,2,36529,1,46987,43584,48472.72,46247.29,-1485.72,-2663.29,0.62035,94.56,1
2436928,2,36569,1,47043,43564,48469.86,46241.92,-1426.86,-2677.92,0.620407,94.56,1
2436968,2,36609,1,46574,43562,48466.07,46236.56,-1892.07,-2674.56,0.620467,94.55,1
2437008,2,36649,1,46565,43562,48462.27,46231.21,-1897.27,-2669.21,0.620528,94.55,1
2437048,2,36689,1,46565,43561,48458.48,46225.87,-1893.48,-2664.88,0.620591,94.55,1
2437088,2,36729,1,46280,43548,48454.12,46220.52,-2174.12,-2672.52,0.620662,94.55,1
2437128,2,36769,1,46179,43528,48449.57,46215.14,-2270.57,-2687.14,0.620744,94.55,1
2437168,2,36809,1,46520,43509,48445.71,46209.73,-1925.71,-2700.73,0.620827,94.54,1
2437208,2,36849,1,46507,43493,48441.84,46204.29,-1934.84,-2711.29,0.620911,94.54,1
2437249,2,36890,1,46497,43480,48437.95,46198.84,-1940.95,-2718.84,0.620997,94.54,1
2437289,2,36930,1,46482,43474,48434.04,46193.39,-1952.04,-2719.39,0.621085,94.54,1
2437329,2,36970,1,46472,43484,48430.12,46187.98,-1958.12,-2703.98,0.621174,94.54,1
2437369,2,37010,1,46475,43500,48426.21,46182.6,-1951.21,-2682.6,0.621266,94.53,1
2437409,2,37050,1,46470,43490,48422.3,46177.22,-1952.3,-2687.22,0.62136,94.53,1
2437449,2,37090,1,46469,43486,48418.39,46171.84,-1949.39,-2685.84,0.621455,94.53,1
2437489,2,37130,1,46459,43483,48414.47,46166.46,-1955.47,-2683.46,0.621552,94.53,1
2437529,2,37170,1,46448,43469,48410.54,46161.07,-1962.54,-2692.07,0.621651,94.53,1
2437569,2,37210,1,46435,43451,48406.59,46155.65,-1971.59,-2704.65,0.621752,94.52,1
2437609,2,37250,1,46426,43442,48402.63,46150.22,-1976.63,-2708.22,0.621855,94.52,1
2437649,2,37290,1,46421,43438,48398.67,46144.8,-1977.67,-2706.8,0.62196,94.52,1
2437689,2,37330,1,46418,43440,48394.71,46139.39,-1976.71,-2699.39,0.622066,94.52,1
2437729,2,37370,2,46416,43441,48390.75,46134,-1974.75,-2693,0.622174,94.52,1
2437769,2,37410,2,46402,43431,48386.77,46128.59,-1984.77,-2697.59,0.622284,94.51,1
2437809,2,37450,2,46392,43409,48382.79,46123.15,-1990.79,-2714.15,0.622396,94.51,1
2437849,2,37490,2,46371,43386,48378.76,46117.68,-2007.76,-2731.68,0.622509,94.51,1
2437889,2,37530,2,46355,43376,48374.71,46112.2,-2019.71,-2736.2,0.622624,94.51,1
2437929,2,37570,2,46344,43372,48370.66,46106.72,-2026.66,-2734.72,0.622742,94.5,1
2437969,2,37610,2,46340,43372,48366.6,46101.25,-2026.6,-2729.25,0.622861,94.5,1
2438010,2,37651,2,46337,43372,48362.54,46095.79,-2025.54,-2723.79,0.622982,94.5,1
2438050,2,37691,2,46324,43352,48358.46,46090.3,-2034.46,-2738.3,0.623105,94.5,1
2438090,2,37731,2,46310,43346,48354.37,46084.82,-2044.37,-2738.82,0.62323,94.5,1
2438130,2,37771,2,46295,43334,48350.25,46079.32,-2055.25,-2745.32,0.623357,94.49,1
2438170,2,37811,2,46288,43340,48346.13,46073.84,-2058.13,-2733.84,0.623486,94.49,1
2438210,2,37851,2,46288,43340,48342.02,46068.37,-2054.02,-2728.38,0.623617,94.49,1
2438250,2,37891,2,46286,43353,48337.91,46062.95,-2051.91,-2709.95,0.62375,94.49,1
2438290,2,37931,2,46282,43348,48333.8,46057.52,-2051.8,-2709.52,0.623886,94.48,1
2438330,2,37971,2,46270,43331,48329.67,46052.06,-2059.67,-2721.06,0.624023,94.48,1
2438370,2,38011,2,46261,43317,48325.54,46046.59,-2064.54,-2729.59,0.624163,94.48,1
2438410,2,38051,2,46252,43307,48321.39,46041.12,-2069.39,-2734.12,0.624305,94.48,1
2438450,2,38091,2,46239,43302,48317.23,46035.64,-2078.23,-2733.64,0.624448,94.47,1
2438490,2,38131,2,46233,43299,48313.06,46030.17,-2080.06,-2731.17,0.624594,94.47,1
2438530,2,38171,2,46225,43293,48308.88,46024.7,-2083.88,-2731.7,0.624742,94.47,1
2438570,2,38211,2,46219,43283,48304.7,46019.21,-2085.7,-2736.21,0.624891,94.46,1
2438610,2,38251,2,46209,43276,48300.51,46013.73,-2091.51,-2737.73,0.625043,94.46,1
2438650,2,38291,2,46194,43269,48296.3,46008.24,-2102.3,-2739.24,0.625197,94.46,1
2438690,2,38331,2,46187,43261,48292.08,46002.75,-2105.08,-2741.75,0.625353,94.46,1
2438730,2,38371,2,46178,43254,48287.86,45997.25,-2109.86,-2743.25,0.625511,94.45,1
2438771,2,38412,2,46166,43248,48283.61,45991.76,-2117.61,-2743.76,0.625671,94.45,1
2438811,2,38452,2,46161,43251,48279.37,45986.28,-2118.37,-2735.28,0.625833,94.45,1
2438851,2,38492,2,46151,43254,48275.12,45980.81,-2124.12,-2726.81,0.625998,94.44,1
2438891,2,38532,2,46148,43257,48270.86,45975.37,-2122.86,-2718.37,0.626165,94.44,1
2438931,2,38572,2,46147,43260,48266.62,45969.94,-2119.62,-2709.94,0.626334,94.44,1
2438971,2,38612,2,46145,43260,48262.37,45964.52,-2117.38,-2704.52,0.626505,94.44,1
2439011,2,38652,2,46135,43252,48258.12,45959.09,-2123.12,-2707.09,0.626679,94.43,1
2439051,2,38692,2,46128,43255,48253.86,45953.69,-2125.86,-2698.69,0.626855,94.43,1
2439091,2,38732,2,46124,43249,48249.61,45948.28,-2125.61,-2699.28,0.627033,94.43,1
2439131,2,38772,2,46120,43241,48245.35,45942.87,-2125.35,-2701.87,0.627213,94.42,1
2439171,2,38812,2,46112,43239,48241.08,45937.46,-2129.08,-2698.46,0.627396,94.42,1
2439211,2,38852,2,46109,43242,48236.82,45932.07,-2127.82,-2690.07,0.627581,94.42,1
2439251,2,38892,2,46096,43229,48232.54,45926.66,-2136.54,-2697.66,0.627768,94.41,1
2439291,2,38932,2,46085,43215,48228.25,45921.24,-2143.25,-2706.24,0.627957,94.41,1
2439331,2,38972,2,46077,43206,48223.95,45915.81,-2146.95,-2709.81,0.628148,94.41,1
2439371,2,39012,2,46063,43198,48219.62,45910.38,-2156.63,-2712.38,0.628341,94.4,1
2439411,2,39052,2,46055,43202,48215.3,45904.96,-2160.3,-2702.96,0.628537,94.4,1
2439451,2,39092,2,46054,43200,48210.98,45899.55,-2156.98,-2699.55,0.628735,94.4,1
2439492,2,39133,2,46047,43200,48206.65,45894.16,-2159.65,-2694.16,0.628935,94.39,1
2439532,2,39173,2,46038,43196,48202.31,45888.76,-2164.31,-2692.76,0.629138,94.39,1
2439572,2,39213,2,46034,43486,48197.98,45883.96,-2163.98,-2397.96,0.629345,94.39,1
2439612,2,39253,2,46028,43637,48193.64,45879.46,-2165.64,-2242.46,0.629559,94.38,1
2439652,2,39293,2,46025,43209,48189.3,45874.12,-2164.3,-2665.13,0.629775,94.38,1
2439692,2,39333,2,46021,43212,48184.96,45868.8,-2163.96,-2656.8,0.629994,94.37,1
2439732,2,39373,2,46025,43222,48180.64,45863.51,-2155.64,-2641.51,0.630215,94.37,1
2439772,2,39413,2,46022,43105,48176.33,45857.99,-2154.33,-2752.99,0.630437,94.37,1
2439812,2,39453,2,46021,42950,48172.02,45852.18,-2151.02,-2902.18,0.630658,94.36,1
2439852,2,39493,2,46023,43238,48167.72,45846.95,-2144.72,-2608.95,0.630881,94.36,1
2439892,2,39533,2,46020,43234,48163.43,45841.72,-2143.43,-2607.72,0.631107,94.35,1
2439932,2,39573,2,46014,43229,48159.13,45836.5,-2145.13,-2607.5,0.631335,94.35,1
2439972,2,39613,2,46000,42611,48154.82,45830.05,-2154.82,-3219.05,0.631559,94.35,1
2440012,2,39653,2,45995,43222,48150.5,45824.84,-2155.5,-2602.84,0.631785,94.34,1
2440052,2,39693,2,45983,43215,48146.16,45819.62,-2163.16,-2604.62,0.632013,94.34,1
2440092,2,39733,2,45984,43213,48141.84,45814.41,-2157.84,-2601.41,0.632244,94.33,1
2440132,2,39773,2,45975,43206,48137.51,45809.19,-2162.51,-2603.19,0.632477,94.33,1
2440172,2,39813,2,45965,43205,48133.16,45803.98,-2168.16,-2598.98,0.632712,94.32,1
2440212,2,39853,2,45957,43202,48128.81,45798.78,-2171.81,-2596.78,0.63295,94.32,1
2440252,2,39893,2,45948,43193,48124.45,45793.57,-2176.45,-2600.57,0.633191,94.32,1
2440293,2,39934,2,46062,43185,48120.33,45788.36,-2058.33,-2603.36,0.633432,94.31,1
2440333,2,39974,2,46149,43178,48116.39,45783.14,-1967.39,-2605.14,0.633672,94.31,1
2440373,2,40014,2,45917,43181,48111.99,45777.93,-2194.99,-2596.93,0.633915,94.3,1
2440413,2,40054,2,45911,43178,48107.59,45772.73,-2196.59,-2594.73,0.634161,94.3,1
2440453,2,40094,2,45905,43176,48103.18,45767.54,-2198.18,-2591.54,0.634409,94.29,1
2440493,2,40134,2,46447,43176,48099.87,45762.36,-1652.87,-2586.36,0.634653,94.29,1
2440533,2,40174,2,45840,43175,48095.35,45757.19,-2255.35,-2582.19,0.634901,94.28,1
2440573,2,40214,2,45890,43169,48090.94,45752.01,-2200.94,-2583.01,0.635151,94.28,1
2440613,2,40254,2,45880,43166,48086.52,45746.84,-2206.52,-2580.84,0.635404,94.27,1
2440653,2,40294,2,45878,43162,48082.11,45741.67,-2204.11,-2579.67,0.635659,94.27,1
2440693,2,40334,2,45403,43150,48076.75,45736.49,-2673.75,-2586.49,0.635925,94.26,1
2440733,2,40374,2,45332,43145,48071.26,45731.3,-2739.26,-2586.3,0.636201,94.26,1
2440773,2,40414,2,45849,43146,48066.82,45726.14,-2217.82,-2580.14,0.63648,94.25,1
2440813,2,40454,2,46068,43139,48062.82,45720.96,-1994.82,-2581.96,0.636758,94.25,1
2440853,2,40494,2,46058,43129,48058.82,45715.78,-2000.82,-2586.78,0.637035,94.24,1
2440893,2,40534,2,46049,43129,48054.8,45710.61,-2005.8,-2581.61,0.637312,94.24,1
2440933,2,40574,2,46040,43130,48050.77,45705.45,-2010.77,-2575.45,0.637589,94.23,1
2440973,2,40614,2,46038,43124,48046.75,45700.29,-2008.75,-2576.29,0.637864,94.23,1
2441014,2,40655,2,46030,43117,48042.71,45695.12,-2012.71,-2578.13,0.63814,94.22,1
2441054,2,40695,2,46021,43109,48038.67,45689.95,-2017.67,-2580.95,0.638415,94.22,1
2441094,2,40735,2,46010,43106,48034.62,45684.79,-2024.62,-2578.79,0.63869,94.21,1
2441134,2,40775,2,45999,43111,48030.55,45679.64,-2031.55,-2568.64,0.638964,94.2,1
2441174,2,40815,2,45995,43109,48026.48,45674.5,-2031.48,-2565.5,0.639239,94.2,1
2441214,2,40855,2,45993,43109,48022.41,45669.37,-2029.41,-2560.37,0.639513,94.19,1
2441254,2,40895,2,45984,43105,48018.34,45664.24,-2034.34,-2559.24,0.639787,94.19,1
2441294,2,40935,2,45974,43101,48014.25,45659.12,-2040.25,-2558.12,0.640062,94.18,1
2441334,2,40975,2,45971,43098,48010.16,45654,-2039.16,-2556,0.640336,94.18,1
2441374,2,41015,2,45964,43094,48006.07,45648.88,-2042.07,-2554.88,0.640611,94.17,1
2441414,2,41055,2,45962,43089,48001.99,45643.76,-2039.99,-2554.76,0.640886,94.17,1
2441454,2,41095,2,45955,43091,47997.89,45638.66,-2042.89,-2547.66,0.64116,94.16,1
2441494,2,41135,2,45953,43090,47993.8,45633.56,-2040.8,-2543.56,0.641435,94.15,1
2441534,2,41175,2,45944,43086,47989.71,45628.46,-2045.71,-2542.46,0.64171,94.15,1
2441574,2,41215,2,45938,43082,47985.61,45623.37,-2047.61,-2541.38,0.641985,94.14,1
2441614,2,41255,2,45933,43078,47981.5,45618.29,-2048.5,-2540.29,0.642261,94.14,1
2441654,2,41295,2,45925,43078,47977.39,45613.21,-2052.39,-2535.21,0.642537,94.13,1
2441694,2,41335,2,45914,43071,47973.26,45608.12,-2059.26,-2537.13,0.642813,94.12,1
2441734,2,41375,2,45908,43068,47969.13,45603.05,-2061.13,-2535.05,0.643089,94.12,1
2441775,2,41416,2,45901,43063,47965,45597.97,-2064,-2534.97,0.643366,94.11,1
2441815,2,41456,2,45889,43066,47960.84,45592.91,-2071.84,-2526.91,0.643644,94.11,1
2441855,2,41496,2,45886,43066,47956.7,45587.86,-2070.7,-2521.86,0.643922,94.1,1
2441895,2,41536,2,45880,43063,47952.54,45582.81,-2072.54,-2519.81,0.6442,94.09,1
2441935,2,41576,2,45876,43065,47948.39,45577.77,-2072.39,-2512.77,0.64448,94.09,1
2441975,2,41616,2,45872,43053,47944.24,45572.73,-2072.24,-2519.73,0.64476,94.08,1
2442015,2,41656,2,45860,43059,47940.07,45567.7,-2080.07,-2508.7,0.64504,94.07,1
2442055,2,41696,2,45854,43054,47935.9,45562.67,-2081.9,-2508.67,0.645322,94.07,1
2442095,2,41736,2,45852,43049,47931.73,45557.64,-2079.73,-2508.64,0.645604,94.06,1
2442135,2,41776,2,45842,43045,47927.55,45552.62,-2085.55,-2507.62,0.645886,94.06,1
2442175,2,41816,2,45839,43035,47923.37,45547.59,-2084.38,-2512.59,0.64617,94.05,1
2442215,2,41856,2,45827,43030,47919.18,45542.55,-2092.18,-2512.55,0.646454,94.04,1
2442255,2,41896,2,45817,43025,47914.98,45537.52,-2097.98,-2512.52,0.646739,94.04,1
2442295,2,41936,2,45813,43025,47910.78,45532.49,-2097.78,-2507.49,0.647025,94.03,1
2442335,2,41976,2,45806,43023,47906.57,45527.47,-2100.57,-2504.47,0.647312,94.02,1
2442375,2,42016,2,45801,43023,47902.36,45522.46,-2101.36,-2499.46,0.6476,94.02,1
2442415,2,42056,2,45789,43015,47898.13,45517.45,-2109.13,-2502.45,0.647888,94.01,1
2442455,2,42096,2,45783,43008,47893.9,45512.43,-2110.9,-2504.43,0.648178,94,1
2442495,2,42136,2,45780,43009,47889.68,45507.43,-2109.68,-2498.43,0.648469,94,1
2442536,2,42177,2,45770,43005,47885.44,45502.42,-2115.44,-2497.42,0.64876,93.99,1
2442576,2,42217,2,45758,43003,47881.18,45497.43,-2123.18,-2494.43,0.649053,93.99,1
2442616,2,42257,2,45749,43005,47876.92,45492.44,-2127.92,-2487.44,0.649347,93.98,1
2442656,2,42297,2,45743,42997,47872.66,45487.45,-2129.66,-2490.45,0.649642,93.97,1
2442696,2,42337,2,45737,42986,47868.39,45482.45,-2131.39,-2496.45,0.649938,93.97,1
2442736,2,42377,2,45728,42989,47864.11,45477.47,-2136.11,-2488.47,0.650235,93.96,1
2442776,2,42417,2,45724,42994,47859.83,45472.5,-2135.83,-2478.5,0.650534,93.95,1
2442816,2,42457,2,45722,42991,47855.55,45467.54,-2133.55,-2476.54,0.650834,93.95,1
2442856,2,42497,2,45720,42993,47851.29,45462.59,-2131.29,-2469.59,0.651135,93.94,1
2442896,2,42537,2,45716,42992,47847.02,45457.65,-2131.02,-2465.65,0.651438,93.93,1
2442936,2,42577,2,45714,42986,47842.75,45452.71,-2128.75,-2466.71,0.651741,93.93,1
2442976,2,42617,2,45705,42985,47838.48,45447.78,-2133.48,-2462.78,0.652046,93.92,1
2443016,2,42657,2,45695,43168,47834.19,45443.22,-2139.19,-2275.22,0.652354,93.91,1
2443056,2,42697,2,45690,43263,47829.9,45438.86,-2139.9,-2175.86,0.652666,93.9,1
2443096,2,42737,2,45684,42976,47825.61,45433.93,-2141.61,-2457.93,0.652979,93.9,1
2443136,2,42777,2,45675,42975,47821.31,45429.02,-2146.31,-2454.02,0.653293,93.89,1
2443176,2,42817,2,45666,42972,47817,45424.1,-2151,-2452.1,0.653609,93.88,1
2443216,2,42857,2,45662,42971,47812.7,45419.2,-2150.7,-2448.2,0.653926,93.88,1
2443257,2,42898,2,45661,42848,47808.39,45414.05,-2147.39,-2566.05,0.654243,93.87,1
2443297,2,42938,2,45649,42970,47804.08,45409.17,-2155.08,-2439.17,0.654562,93.86,1
2443337,2,42978,2,45641,42968,47799.75,45404.29,-2158.75,-2436.29,0.654882,93.86,1
2443377,2,43018,2,45637,42971,47795.43,45399.42,-2158.43,-2428.42,0.655204,93.85,1
2443417,2,43058,2,45631,42388,47791.1,45393.39,-2160.1,-3005.39,0.655522,93.84,1
2443457,2,43098,2,45628,42287,47786.78,45387.18,-2158.78,-3100.18,0.655834,93.83,1
2443497,2,43138,2,45620,42968,47782.45,45382.35,-2162.45,-2414.35,0.656147,93.83,1
2443537,2,43178,2,45616,42972,47778.11,45377.53,-2162.11,-2405.53,0.656463,93.82,1
2443577,2,43218,2,45613,42968,47773.79,45372.71,-2160.79,-2404.71,0.65678,93.81,1
2443617,2,43258,2,45610,42966,47769.46,45367.9,-2159.46,-2401.9,0.6571,93.81,1
2443657,2,43298,2,45609,42966,47765.14,45363.1,-2156.14,-2397.1,0.65742,93.8,1
2443697,2,43338,2,45603,42958,47760.81,45358.29,-2157.81,-2400.29,0.657743,93.79,1
2443737,2,43378,2,45629,42963,47756.55,45353.5,-2127.55,-2390.5,0.658067,93.78,1
2443777,2,43418,2,45708,42958,47752.45,45348.71,-2044.45,-2390.71,0.658391,93.78,1
2443817,2,43458,2,45584,42955,47748.12,45343.93,-2164.12,-2388.93,0.658718,93.77,1
2443857,2,43498,2,45576,42952,47743.77,45339.14,-2167.77,-2387.14,0.659046,93.76,1
2443897,2,43538,2,45566,42946,47739.42,45334.36,-2173.42,-2388.36,0.659375,93.75,1
2443937,2,43578,2,45930,42941,47735.8,45329.57,-1805.8,-2388.57,0.659703,93.75,1
2443977,2,43618,2,45552,42940,47731.43,45324.8,-2179.43,-2384.8,0.660032,93.74,1
2444018,2,43659,2,45546,42935,47727.06,45320.02,-2181.06,-2385.02,0.660364,93.73,1
2444058,2,43699,2,45539,42928,47722.69,45315.24,-2183.69,-2387.24,0.660697,93.72,1
2444098,2,43739,2,45525,42932,47718.29,45310.47,-2193.29,-2378.47,0.661032,93.72,1
2444138,2,43779,2,45189,42925,47713.23,45305.7,-2524.23,-2380.7,0.661374,93.71,1
2444178,2,43819,2,45044,42919,47707.9,45300.93,-2663.9,-2381.93,0.661725,93.7,1
2444218,2,43859,2,45507,42918,47703.5,45296.16,-2196.5,-2378.16,0.662077,93.69,1
2444258,2,43899,2,45498,42914,47699.09,45291.4,-2201.09,-2377.4,0.662431,93.69,1
2444298,2,43939,2,45488,42914,47694.66,45286.65,-2206.66,-2372.65,0.662788,93.68,1
2444338,2,43979,2,45484,42915,47690.24,45281.91,-2206.24,-2366.91,0.663146,93.67,1
2444378,2,44019,2,45486,42911,47685.84,45277.16,-2199.84,-2366.16,0.663506,93.66,1
2444418,2,44059,2,45478,42906,47681.42,45272.42,-2203.42,-2366.42,0.663868,93.66,1
2444458,2,44099,2,45477,42913,47677.02,45267.7,-2200.02,-2354.7,0.664232,93.65,1
2444498,2,44139,2,45468,42910,47672.6,45262.99,-2204.6,-2352.99,0.664598,93.64,1
2444538,2,44179,2,45456,42902,47668.16,45258.27,-2212.16,-2356.27,0.664966,93.63,1
2444578,2,44219,2,45453,42892,47663.73,45253.54,-2210.73,-2361.54,0.665336,93.62,1
2444618,2,44259,2,45446,42895,47659.3,45248.82,-2213.3,-2353.82,0.665707,93.62,1
2444658,2,44299,2,45434,42891,47654.85,45244.11,-2220.85,-2353.11,0.666081,93.61,1
2444698,2,44339,2,45428,42888,47650.4,45239.39,-2222.4,-2351.39,0.666457,93.6,1
2444738,2,44379,2,45418,42884,47645.93,45234.68,-2227.93,-2350.68,0.666835,93.59,1
2444779,2,44420,2,45414,42879,47641.47,45229.97,-2227.47,-2350.97,0.667215,93.58,1
2444819,2,44460,2,45406,42875,47637,45225.27,-2231,-2350.27,0.667597,93.58,1
2444859,2,44500,2,45394,42876,47632.52,45220.57,-2238.52,-2344.57,0.667981,93.57,1
2444899,2,44540,2,45392,42876,47628.04,45215.88,-2236.04,-2339.88,0.668367,93.56,1
2444939,2,44580,2,45386,42872,47623.55,45211.19,-2237.55,-2339.19,0.668755,93.55,1
2444979,2,44620,2,45382,42875,47619.07,45206.52,-2237.07,-2331.52,0.669145,93.54,1
2445019,2,44660,2,45375,42876,47614.59,45201.86,-2239.59,-2325.86,0.669538,93.53,1
2445059,2,44700,2,45375,42876,47610.11,45197.21,-2235.11,-2321.21,0.669933,93.53,1
2445099,2,44740,2,45373,42877,47605.64,45192.57,-2232.64,-2315.57,0.67033,93.52,1
2445139,2,44780,2,45369,42873,47601.16,45187.93,-2232.16,-2314.93,0.670729,93.51,1
2445179,2,44820,2,45361,42872,47596.68,45183.3,-2235.68,-2311.3,0.67113,93.5,1
2445219,2,44860,2,45359,42871,47592.21,45178.68,-2233.21,-2307.68,0.671533,93.49,1
2445259,2,44900,2,45348,42867,47587.72,45174.05,-2239.72,-2307.05,0.671938,93.48,1
2445299,2,44940,2,45346,42861,47583.24,45169.43,-2237.24,-2308.43,0.672345,93.47,1
2445339,2,44980,2,45338,42856,47578.75,45164.8,-2240.75,-2308.8,0.672755,93.47,1
2445379,2,45020,2,45324,42851,47574.25,45160.18,-2250.25,-2309.18,0.673166,93.46,1
2445419,2,45060,2,45316,42853,47569.73,45155.57,-2253.73,-2302.57,0.67358,93.45,1
2445459,2,45100,2,45310,42850,47565.21,45150.96,-2255.21,-2300.96,0.673996,93.44,1
2445500,2,45141,2,45303,42848,47560.69,45146.35,-2257.69,-2298.35,0.674414,93.43,1
2445540,2,45181,2,45299,42846,47556.16,45141.75,-2257.16,-2295.75,0.674834,93.42,1
2445580,2,45221,2,45291,42843,47551.64,45137.16,-2260.64,-2294.16,0.675257,93.41,1
2445620,2,45261,2,45287,42839,47547.11,45132.56,-2260.11,-2293.56,0.675681,93.4,1
2445660,2,45301,2,45283,42834,47542.58,45127.96,-2259.58,-2293.96,0.676108,93.39,1
2445700,2,45341,2,45273,42837,47538.04,45123.38,-2265.04,-2286.38,0.676537,93.38,1
2445740,2,45381,2,45265,42842,47533.5,45118.82,-2268.5,-2276.82,0.676969,93.37,1
2445780,2,45421,2,45270,42841,47528.97,45114.27,-2258.97,-2273.27,0.677402,93.37,1
2445820,2,45461,2,45268,42841,47524.45,45109.72,-2256.45,-2268.72,0.677838,93.36,1
2445860,2,45501,2,45263,42838,47519.93,45105.18,-2256.93,-2267.18,0.678276,93.35,1
2445900,2,45541,2,45259,42838,47515.41,45100.64,-2256.41,-2262.64,0.678716,93.34,1
2445940,2,45581,2,45250,42833,47510.88,45096.11,-2260.88,-2263.11,0.679159,93.33,1
2445980,2,45621,2,45242,42832,47506.34,45091.58,-2264.34,-2259.58,0.679603,93.32,1
2446020,2,45661,2,45235,42822,47501.8,45087.04,-2266.8,-2265.04,0.68005,93.31,1
2446060,2,45701,2,45230,42821,47497.26,45082.51,-2267.26,-2261.51,0.680499,93.3,1
2446100,2,45741,2,45224,42823,47492.71,45077.99,-2268.71,-2254.99,0.68095,93.29,1
2446140,2,45781,2,45221,42823,47488.17,45073.48,-2267.17,-2250.48,0.681403,93.28,1
2446180,2,45821,2,45210,42819,47483.61,45068.98,-2273.61,-2249.98,0.681858,93.27,1
2446221,2,45862,2,45212,42816,47479.07,45064.47,-2267.07,-2248.47,0.682316,93.26,1
2446261,2,45902,2,45194,42809,47474.5,45059.96,-2280.5,-2250.96,0.682776,93.25,1
2446301,2,45942,2,45188,42808,47469.93,45055.46,-2281.93,-2247.46,0.683238,93.24,1
2446341,2,45982,2,45179,42805,47465.35,45050.96,-2286.35,-2245.96,0.683702,93.23,1
2446381,2,46022,2,45174,42799,47460.77,45046.45,-2286.77,-2247.45,0.684169,93.22,1
2446421,2,46062,2,45170,42902,47456.18,45042.16,-2286.18,-2140.16,0.684639,93.21,1
2446461,2,46102,2,45165,43015,47451.6,45038.11,-2286.6,-2023.11,0.685113,93.2,1
2446501,2,46142,2,45161,42808,47447.02,45033.65,-2286.02,-2225.65,0.685589,93.19,1
2446541,2,46182,2,45157,42805,47442.45,45029.19,-2285.45,-2224.19,0.686068,93.18,1
2446581,2,46222,2,45159,42803,47437.88,45024.74,-2278.88,-2221.74,0.686549,93.17,1
2446621,2,46262,2,45155,43378,47433.31,45021.45,-2278.31,-1643.45,0.687037,93.16,1
2446661,2,46302,2,45147,42772,47428.74,45016.95,-2281.74,-2244.95,0.687527,93.15,1
2446701,2,46342,2,45144,42804,47424.18,45012.52,-2280.18,-2208.52,0.688019,93.14,1
2446741,2,46382,2,45140,42799,47419.61,45008.1,-2279.61,-2209.1,0.688513,93.13,1
2446781,2,46422,2,45130,42790,47415.03,45003.66,-2285.03,-2213.66,0.689009,93.12,1
2446821,2,46462,2,45123,42309,47410.45,44998.28,-2287.45,-2689.28,0.689502,93.11,1
2446861,2,46502,2,45111,42209,47405.85,44992.7,-2294.85,-2783.7,0.689991,93.1,1
2446901,2,46542,2,45105,42783,47401.25,44988.28,-2296.25,-2205.28,0.690482,93.08,1
2446942,2,46583,2,45099,42778,47396.65,44983.86,-2297.65,-2205.86,0.690975,93.07,1
2446982,2,46623,2,45095,42770,47392.05,44979.44,-2297.05,-2209.44,0.69147,93.06,1
2447022,2,46663,2,45078,42763,47387.42,44975,-2309.42,-2212,0.691968,93.05,1
2447062,2,46703,2,45072,42767,47382.79,44970.59,-2310.79,-2203.59,0.692468,93.04,1
2447102,2,46743,2,45065,42760,47378.16,44966.17,-2313.16,-2206.17,0.69297,93.03,1
2447142,2,46783,2,45060,42753,47373.52,44961.74,-2313.52,-2208.74,0.693475,93.02,1
2447182,2,46823,2,45108,42751,47368.99,44957.32,-2260.99,-2206.32,0.693981,93.01,1
2447222,2,46863,2,45051,42757,47364.36,44952.92,-2313.36,-2195.92,0.69449,93,1
2447262,2,46903,2,45041,42754,47359.71,44948.52,-2318.71,-2194.52,0.695001,92.99,1
2447302,2,46943,2,45042,42751,47355.08,44944.13,-2313.08,-2193.13,0.695514,92.97,1
2447342,2,46983,2,45355,42754,47351.08,44939.75,-1996.08,-2185.75,0.696026,92.96,1
2447382,2,47023,2,45453,42749,47347.29,44935.37,-1894.29,-2186.37,0.696535,92.95,1
2447422,2,47063,2,45028,42749,47342.65,44931,-2314.65,-2182,0.697046,92.94,1
2447462,2,47103,2,45022,42745,47338.01,44926.63,-2316.01,-2181.63,0.69756,92.93,1
2447502,2,47143,2,45018,42744,47333.37,44922.27,-2315.37,-2178.27,0.698076,92.92,1
2447542,2,47183,2,44733,42745,47328.17,44917.91,-2595.17,-2172.91,0.698598,92.91,1
2447582,2,47223,2,44594,42743,47322.7,44913.57,-2728.7,-2170.57,0.699129,92.9,1
2447622,2,47263,2,44999,42743,47318.05,44909.23,-2319.05,-2166.23,0.699662,92.88,1
2447663,2,47304,2,44990,42733,47313.4,44904.87,-2323.4,-2171.88,0.700197,92.87,1
2447703,2,47344,2,44981,42724,47308.73,44900.52,-2327.73,-2176.52,0.700734,92.86,1
2447743,2,47384,2,44976,42726,47304.07,44896.17,-2328.07,-2170.17,0.701274,92.85,1
2447783,2,47424,2,44967,42725,47299.4,44891.83,-2332.4,-2166.83,0.701816,92.84,1
2447823,2,47464,2,44961,42714,47294.72,44887.47,-2333.72,-2173.47,0.70236,92.82,1
2447863,2,47504,2,44953,42708,47290.04,44883.11,-2337.04,-2175.11,0.702906,92.81,1
2447903,2,47544,2,44945,42707,47285.35,44878.76,-2340.35,-2171.76,0.703455,92.8,1
2447943,2,47584,2,44938,42708,47280.66,44874.42,-2342.66,-2166.42,0.704006,92.79,1
2447983,2,47624,2,44933,42712,47275.96,44870.1,-2342.96,-2158.1,0.704559,92.78,1
2448023,2,47664,2,44936,42714,47271.28,44865.79,-2335.28,-2151.79,0.705114,92.76,1
2448063,2,47704,2,44936,42720,47266.61,44861.5,-2330.61,-2141.5,0.705672,92.75,1
2448103,2,47744,2,44934,42715,47261.95,44857.2,-2327.95,-2142.2,0.706232,92.74,1
2448143,2,47784,2,44929,42715,47257.29,44852.92,-2328.29,-2137.92,0.706794,92.73,1
2448183,2,47824,2,44922,42708,47252.62,44848.63,-2330.62,-2140.63,0.707358,92.72,1
2448223,2,47864,2,44913,42703,47247.94,44844.34,-2334.94,-2141.34,0.707925,92.7,1
2448263,2,47904,2,44906,42701,47243.25,44840.05,-2337.25,-2139.05,0.708493,92.69,1
2448303,2,47944,2,44896,42697,47238.56,44835.77,-2342.56,-2138.77,0.709064,92.68,1
2448343,2,47984,2,44891,42693,47233.87,44831.48,-2342.87,-2138.48,0.709637,92.67,1
2448383,2,48024,2,44882,42690,47229.16,44827.2,-2347.16,-2137.2,0.710213,92.65,1
2448424,2,48065,2,44875,42685,47224.46,44822.92,-2349.46,-2137.92,0.71079,92.64,1
2448464,2,48105,2,44869,42687,47219.75,44818.65,-2350.75,-2131.65,0.71137,92.63,1
2448504,2,48145,2,44860,42682,47215.03,44814.37,-2355.03,-2132.38,0.711952,92.61,1
2448544,2,48185,2,44857,42686,47210.31,44810.12,-2353.31,-2124.12,0.712536,92.6,1
2448584,2,48225,2,44857,42683,47205.61,44805.87,-2348.61,-2122.87,0.713122,92.59,1
2448624,2,48265,2,44853,42687,47200.9,44801.63,-2347.9,-2114.63,0.713711,92.58,1
2448664,2,48305,2,44848,42689,47196.2,44797.41,-2348.2,-2108.41,0.714302,92.56,1
2448704,2,48345,2,44848,42687,47191.5,44793.19,-2343.5,-2106.19,0.714895,92.55,1
2448744,2,48385,2,44843,42688,47186.81,44788.98,-2343.81,-2100.98,0.71549,92.54,1
2448784,2,48425,2,44843,42690,47182.12,44784.78,-2339.12,-2094.78,0.716088,92.52,1
2448824,2,48465,2,44835,42685,47177.43,44780.58,-2342.43,-2095.58,0.716688,92.51,1
2448864,2,48505,2,44832,42684,47172.74,44776.39,-2340.74,-2092.39,0.717289,92.5,1
2448904,2,48545,2,44827,42681,47168.05,44772.2,-2341.05,-2091.2,0.717893,92.48,1
2448944,2,48585,2,44820,42678,47163.35,44768.01,-2343.35,-2090.01,0.718499,92.47,1
2448984,2,48625,2,44818,42678,47158.66,44763.83,-2340.66,-2085.83,0.719108,92.46,1
2449024,2,48665,2,44800,42673,47153.95,44759.65,-2353.95,-2086.65,0.719718,92.44,1
2449064,2,48705,2,44797,42671,47149.23,44755.48,-2352.23,-2084.48,0.720331,92.43,1
2449104,2,48745,2,44791,42665,47144.52,44751.3,-2353.52,-2086.3,0.720946,92.42,1
2449145,2,48786,2,44787,42663,47139.8,44747.12,-2352.8,-2084.12,0.721563,92.4,1
2449185,2,48826,2,44783,42664,47135.09,44742.96,-2352.09,-2078.96,0.722182,92.39,1
2449225,2,48866,2,44773,42666,47130.37,44738.8,-2357.37,-2072.8,0.722803,92.38,1
2449265,2,48906,2,44769,42662,47125.65,44734.65,-2356.65,-2072.65,0.723427,92.36,1
2449305,2,48946,2,44768,42661,47120.93,44730.51,-2352.93,-2069.51,0.724052,92.35,1
2449345,2,48986,2,44763,42660,47116.22,44726.37,-2353.22,-2066.37,0.72468,92.33,1
2449385,2,49026,2,44759,42665,47111.5,44722.25,-2352.5,-2057.25,0.72531,92.32,1
2449425,2,49066,2,44755,42664,47106.79,44718.13,-2351.79,-2054.13,0.725942,92.31,1
2449465,2,49106,2,44752,42664,47102.09,44714.02,-2350.09,-2050.02,0.726577,92.29,1
2449505,2,49146,2,44750,42655,47097.38,44709.91,-2347.38,-2054.91,0.727213,92.28,1
2449545,2,49186,2,44746,42654,47092.68,44705.8,-2346.68,-2051.8,0.727852,92.26,1
2449585,2,49226,2,44739,42658,47087.97,44701.7,-2348.97,-2043.7,0.728492,92.25,1
2449625,2,49266,2,44731,42653,47083.26,44697.61,-2352.26,-2044.61,0.729135,92.23,1
2449665,2,49306,2,44728,42652,47078.55,44693.52,-2350.55,-2041.52,0.72978,92.22,1
2449705,2,49346,2,44726,42648,47073.85,44689.43,-2347.85,-2041.43,0.730427,92.21,1
2449745,2,49386,2,44720,42646,47069.14,44685.34,-2349.14,-2039.34,0.731075,92.19,1
2449785,2,49426,2,44712,42647,47064.43,44681.27,-2352.43,-2034.27,0.731726,92.18,1
2449825,2,49466,2,44706,42650,47059.71,44677.2,-2353.71,-2027.2,0.732379,92.16,1
2449866,2,49507,2,44703,42832,47055,44673.52,-2352,-1841.52,0.733037,92.15,1
2449906,2,49547,2,44694,42917,47050.28,44670,-2356.28,-1753,0.733699,92.13,1
2449946,2,49587,2,44693,42650,47045.56,44665.96,-2352.56,-2015.96,0.734363,92.12,1
2449986,2,49627,2,44685,42650,47040.84,44661.93,-2355.84,-2011.93,0.73503,92.1,1
2450026,2,49667,2,44684,42651,47036.13,44657.91,-2352.13,-2006.91,0.735699,92.09,1
2450066,2,49707,2,44686,42657,47031.43,44653.91,-2345.43,-1996.91,0.73637,92.07,1
2450106,2,49747,2,44681,42552,47026.73,44649.71,-2345.73,-2097.71,0.737041,92.06,1
2450146,2,49787,2,44677,42664,47022.04,44645.74,-2345.04,-1981.74,0.737715,92.04,1
2450186,2,49827,2,44680,42664,47017.35,44641.78,-2337.35,-1977.78,0.738391,92.03,1
2450226,2,49867,2,44676,42661,47012.67,44637.82,-2336.67,-1976.82,0.73907,92.01,1
2450266,2,49907,2,44673,42129,47007.99,44632.8,-2334.99,-2503.8,0.739743,92,1
2450306,2,49947,2,44668,42072,47003.31,44627.68,-2335.31,-2555.68,0.74041,91.98,1
2450346,2,49987,2,44660,42654,46998.63,44623.74,-2338.63,-1969.74,0.74108,91.97,1
2450386,2,50027,2,44658,42651,46993.95,44619.79,-2335.95,-1968.79,0.741752,91.95,1
2450426,2,50067,2,44651,42650,46989.27,44615.86,-2338.27,-1965.86,0.742426,91.94,1
2450466,2,50107,2,44649,42649,46984.59,44611.92,-2335.59,-1962.92,0.743103,91.92,1
2450506,2,50147,2,44641,42650,46979.9,44608,-2338.9,-1958,0.743781,91.91,1
2450546,2,50187,2,44634,42648,46975.21,44604.08,-2341.21,-1956.08,0.744462,91.89,1
2450586,2,50227,2,44655,42644,46970.57,44600.16,-2315.57,-1956.16,0.745145,91.87,1
2450627,2,50268,2,44745,42646,46966.12,44596.26,-2221.12,-1950.26,0.745828,91.86,1
2450667,2,50308,2,44620,42645,46961.43,44592.36,-2341.43,-1947.36,0.746514,91.84,1
2450707,2,50348,2,44616,42650,46956.73,44588.47,-2340.73,-1938.47,0.747202,91.83,1
2450747,2,50388,2,44609,42649,46952.04,44584.59,-2343.04,-1935.59,0.747892,91.81,1
2450787,2,50428,2,44985,42649,46948.11,44580.72,-1963.11,-1931.72,0.74858,91.8,1
2450827,2,50468,2,44608,42651,46943.43,44576.86,-2335.43,-1925.86,0.749271,91.78,1
2450867,2,50508,2,44604,42659,46938.75,44573.03,-2334.75,-1914.03,0.749964,91.76,1
2450907,2,50548,2,44601,42659,46934.07,44569.2,-2333.07,-1910.2,0.750659,91.75,1
2450947,2,50588,2,44601,42660,46929.41,44565.38,-2328.41,-1905.38,0.751357,91.73,1
2450987,2,50628,2,44274,42662,46924.1,44561.58,-2650.1,-1899.58,0.752061,91.72,1
2451027,2,50668,2,44068,42661,46918.39,44557.78,-2850.39,-1896.78,0.752776,91.7,1
2451067,2,50708,2,44595,42659,46913.75,44553.98,-2318.75,-1894.98,0.753493,91.68,1
2451107,2,50748,2,44586,42656,46909.09,44550.19,-2323.09,-1894.19,0.754213,91.67,1
2451147,2,50788,2,44581,42653,46904.44,44546.39,-2323.44,-1893.39,0.754934,91.65,1
2451187,2,50828,2,44582,42647,46899.79,44542.6,-2317.79,-1895.6,0.755657,91.64,1
2451227,2,50868,2,44570,42649,46895.13,44538.81,-2325.13,-1889.81,0.756383,91.62,1
2451267,2,50908,2,44562,42646,46890.47,44535.03,-2328.47,-1889.03,0.75711,91.6,1
2451307,2,50948,2,44563,42648,46885.82,44531.25,-2322.82,-1883.25,0.75784,91.59,1
2451348,2,50989,2,44560,42644,46881.16,44527.48,-2321.16,-1883.48,0.758572,91.57,1
2451388,2,51029,2,44558,42640,46876.52,44523.71,-2318.52,-1883.71,0.759306,91.55,1
2451428,2,51069,2,44550,42640,46871.87,44519.94,-2321.87,-1879.94,0.760042,91.54,1
2451468,2,51109,2,44540,42647,46867.2,44516.2,-2327.2,-1869.2,0.76078,91.52,1
2451508,2,51149,2,44539,42645,46862.55,44512.45,-2323.55,-1867.45,0.76152,91.5,1
2451548,2,51189,2,44537,42650,46857.9,44508.73,-2320.9,-1858.73,0.762263,91.49,1
2451588,2,51229,2,44537,42654,46853.26,44505.02,-2316.26,-1851.02,0.763007,91.47,1
2451628,2,51269,2,44535,42662,46848.62,44501.34,-2313.62,-1839.34,0.763754,91.45,1
2451668,2,51309,2,44537,42669,46844,44497.68,-2307,-1828.68,0.764503,91.44,1
2451708,2,51349,2,44540,42666,46839.39,44494.01,-2299.39,-1828.01,0.765255,91.42,1
2451748,2,51389,2,44538,42669,46834.79,44490.36,-2296.79,-1821.36,0.766008,91.4,1
2451788,2,51429,2,44538,42671,46830.2,44486.73,-2292.2,-1815.73,0.766764,91.38,1
2451828,2,51469,2,44529,42668,46825.6,44483.09,-2296.6,-1815.09,0.767522,91.37,1
2451868,2,51509,2,44526,42669,46821,44479.46,-2295,-1810.46,0.768282,91.35,1
2451908,2,51549,2,44521,42664,46816.4,44475.83,-2295.4,-1811.83,0.769044,91.33,1
2451948,2,51589,2,44517,42667,46811.8,44472.21,-2294.8,-1805.21,0.769808,91.32,1
2451988,2,51629,2,44516,42668,46807.21,44468.61,-2291.21,-1800.61,0.770574,91.3,1
2452028,2,51669,2,44512,42672,46802.62,44465.02,-2290.63,-1793.02,0.771343,91.28,1
2452068,2,51709,2,44510,42669,46798.04,44461.43,-2288.04,-1792.43,0.772114,91.26,1
2452109,2,51750,2,44501,42672,46793.45,44457.85,-2292.45,-1785.85,0.772887,91.25,1
2452149,2,51790,2,44497,42667,46788.86,44454.27,-2291.86,-1787.27,0.773662,91.23,1
2452189,2,51830,2,44489,42671,46784.26,44450.7,-2295.26,-1779.7,0.774439,91.21,1
2452229,2,51870,2,44491,42674,46779.67,44447.15,-2288.67,-1773.15,0.775219,91.19,1
2452269,2,51910,2,44485,42674,46775.08,44443.6,-2290.08,-1769.6,0.776001,91.17,1
2452309,2,51950,2,44489,42680,46770.51,44440.07,-2281.51,-1760.07,0.776785,91.16,1
2452349,2,51990,2,44485,42684,46765.94,44436.56,-2280.94,-1752.56,0.777572,91.14,1
2452389,2,52030,2,44481,42686,46761.37,44433.06,-2280.37,-1747.06,0.778361,91.12,1
2452429,2,52070,2,44481,42691,46756.81,44429.58,-2275.81,-1738.58,0.779152,91.1,1
2452469,2,52110,2,44482,42696,46752.27,44426.11,-2270.27,-1730.11,0.779946,91.09,1
2452509,2,52150,2,44482,42692,46747.73,44422.64,-2265.73,-1730.64,0.780742,91.07,1
2452549,2,52190,2,44483,42698,46743.2,44419.2,-2260.2,-1721.2,0.78154,91.05,1
2452589,2,52230,2,44481,42701,46738.68,44415.76,-2257.68,-1714.76,0.78234,91.03,1
2452629,2,52270,2,44471,42695,46734.14,44412.32,-2263.14,-1717.32,0.783143,91.01,1
2452669,2,52310,2,44471,42692,46729.62,44408.88,-2258.62,-1716.88,0.783948,90.99,1
2452709,2,52350,2,44468,42691,46725.09,44405.45,-2257.09,-1714.45,0.784755,90.98,1
2452749,2,52390,2,44460,42691,46720.57,44402.02,-2260.57,-1711.02,0.785565,90.96,1
2452789,2,52430,2,44456,42688,46716.04,44398.59,-2260.04,-1710.59,0.786376,90.94,1
2452829,2,52470,2,44455,42695,46711.52,44395.18,-2256.52,-1700.18,0.78719,90.92,1
2452870,2,52511,2,44455,42694,46707.01,44391.78,-2252.01,-1697.78,0.788006,90.9,1
2452910,2,52551,2,44450,42700,46702.5,44388.4,-2252.5,-1688.4,0.788825,90.88,1
2452950,2,52591,2,44447,42708,46697.98,44385.04,-2250.98,-1677.04,0.789645,90.86,1
2452990,2,52631,2,44444,42706,46693.48,44381.68,-2249.48,-1675.68,0.790469,90.85,1
2453030,2,52671,2,44442,42698,46688.98,44378.32,-2246.98,-1680.32,0.791294,90.83,1
2453070,2,52711,2,44437,42700,46684.47,44374.96,-2247.47,-1674.96,0.792122,90.81,1
2453110,2,52751,2,44430,42703,46679.96,44371.62,-2249.96,-1668.62,0.792952,90.79,1
2453150,2,52791,2,44434,42714,46675.47,44368.3,-2241.47,-1654.3,0.793785,90.77,1
2453190,2,52831,2,44436,42718,46671,44365,-2235,-1647,0.79462,90.75,1
2453230,2,52871,2,44436,42715,46666.53,44361.7,-2230.53,-1646.7,0.795457,90.73,1
2453270,2,52911,2,44436,42713,46662.07,44358.41,-2226.07,-1645.41,0.796296,90.71,1
2453310,2,52951,2,44432,42794,46657.61,44355.28,-2225.61,-1561.28,0.797139,90.69,1
2453350,2,52991,2,44426,42714,46653.15,44352,-2227.15,-1638,0.797984,90.67,1
2453390,2,53031,2,44422,42711,46648.69,44348.71,-2226.69,-1637.71,0.798831,90.65,1
2453430,2,53071,2,44421,42710,46644.23,44345.44,-2223.23,-1635.44,0.799681,90.64,1
2453470,2,53111,2,44420,43115,46639.79,44342.98,-2219.79,-1227.98,0.800537,90.62,1
2453510,2,53151,2,44411,43193,46635.33,44340.68,-2224.33,-1147.68,0.801402,90.6,1
2453550,2,53191,2,44409,42713,46630.88,44337.43,-2221.88,-1624.43,0.802268,90.58,1
2453590,2,53231,2,44405,42707,46626.43,44334.17,-2221.43,-1627.17,0.803136,90.56,1
2453631,2,53272,2,44400,42707,46621.98,44330.91,-2221.98,-1623.91,0.804007,90.54,1
2453671,2,53312,2,44394,42445,46617.52,44327.14,-2223.52,-1882.14,0.804876,90.52,1
2453711,2,53352,2,44396,42369,46613.08,44323.23,-2217.08,-1954.23,0.805742,90.5,1
2453751,2,53392,2,44394,42717,46608.64,44320.02,-2214.64,-1603.02,0.80661,90.48,1
2453791,2,53432,2,44394,42716,46604.21,44316.81,-2210.21,-1600.81,0.80748,90.46,1
2453831,2,53472,2,44390,42721,46599.79,44313.62,-2209.79,-1592.62,0.808353,90.44,1
2453871,2,53512,2,44387,42724,46595.36,44310.44,-2208.36,-1586.44,0.809228,90.42,1
2453911,2,53552,2,44386,42731,46590.95,44307.29,-2204.95,-1576.29,0.810105,90.4,1
2453951,2,53592,2,44393,42733,46586.55,44304.14,-2193.55,-1571.14,0.810985,90.38,1
2453991,2,53632,2,44392,42731,46582.16,44300.99,-2190.16,-1569.99,0.811866,90.36,1
2454031,2,53672,2,44389,42731,46577.78,44297.85,-2188.78,-1566.85,0.812751,90.34,1
2454071,2,53712,2,44387,42727,46573.4,44294.71,-2186.4,-1567.71,0.813637,90.32,1
2454111,2,53752,2,44378,42726,46569.01,44291.57,-2191.01,-1565.57,0.814525,90.3,1
2454151,2,53792,2,44374,42723,46564.62,44288.44,-2190.62,-1565.44,0.815416,90.28,1
2454191,2,53832,2,44584,42723,46560.66,44285.31,-1976.66,-1562.31,0.816305,90.26,1
2454231,2,53872,2,44692,42724,46556.92,44282.19,-1864.92,-1558.19,0.817193,90.23,1
2454271,2,53912,2,44364,42720,46552.54,44279.06,-2188.54,-1559.06,0.818083,90.21,1
2454311,2,53952,2,44360,42718,46548.16,44275.94,-2188.16,-1557.94,0.818975,90.19,1
2454352,2,53993,2,44358,42715,46543.78,44272.82,-2185.78,-1557.82,0.819869,90.17,1
2454392,2,54033,2,44227,42715,46539.14,44269.71,-2312.14,-1554.71,0.820768,90.15,1
2454432,2,54073,2,44057,42716,46534.18,44266.6,-2477.18,-1550.6,0.821673,90.13,1
2454472,2,54113,2,44344,42727,46529.8,44263.52,-2185.8,-1536.52,0.82258,90.11,1
2454512,2,54153,2,44345,42727,46525.43,44260.45,-2180.43,-1533.45,0.82349,90.09,1
2454552,2,54193,2,44348,42735,46521.08,44257.4,-2173.08,-1522.4,0.824401,90.07,1
2454592,2,54233,2,43735,42740,46515.51,44254.37,-2780.51,-1514.37,0.825326,90.05,1
2454632,2,54273,2,44349,42743,46511.18,44251.34,-2162.18,-1508.34,0.826252,90.03,1
2454672,2,54313,2,44349,42748,46506.85,44248.34,-2157.85,-1500.34,0.827181,90.01,1
2454712,2,54353,2,44350,42747,46502.54,44245.34,-2152.54,-1498.34,0.828111,89.98,1
2454752,2,54393,2,44353,42744,46498.24,44242.34,-2145.24,-1498.34,0.829044,89.96,1
2454792,2,54433,2,44342,42752,46493.93,44239.36,-2151.93,-1487.36,0.829979,89.94,1
2454832,2,54473,2,44347,42755,46489.64,44236.39,-2142.64,-1481.39,0.830916,89.92,1
2454872,2,54513,2,44343,42752,46485.34,44233.42,-2142.34,-1481.42,0.831855,89.9,1
2454912,2,54553,2,44345,42749,46481.06,44230.45,-2136.06,-1481.45,0.832796,89.88,1
2454952,2,54593,2,44339,42748,46476.78,44227.49,-2137.78,-1479.49,0.833739,89.86,1
2454992,2,54633,2,44335,42755,46472.5,44224.54,-2137.5,-1469.54,0.834684,89.83,1
2455032,2,54673,2,44333,42753,46468.22,44221.6,-2135.22,-1468.6,0.835632,89.81,1
2455072,2,54713,2,44330,42748,46463.95,44218.66,-2133.95,-1470.66,0.836581,89.79,1
2455113,2,54754,2,44328,42750,46459.68,44215.72,-2131.68,-1465.72,0.837532,89.77,1
2455153,2,54794,2,44323,42752,46455.41,44212.79,-2132.41,-1460.79,0.838486,89.75,1
2455193,2,54834,2,44320,42753,46451.14,44209.87,-2131.14,-1456.88,0.839441,89.72,1
2455233,2,54874,2,44318,42754,46446.87,44206.96,-2128.87,-1452.96,0.840399,89.7,1
2455273,2,54914,2,44317,42755,46442.61,44204.06,-2125.61,-1449.06,0.841358,89.68,1
2455313,2,54954,2,44317,42761,46438.36,44201.18,-2121.36,-1440.18,0.84232,89.66,1
2455353,2,54994,2,44316,42770,46434.12,44198.32,-2118.12,-1428.32,0.843284,89.64,1
2455393,2,55034,2,44318,42772,46429.89,44195.46,-2111.89,-1423.46,0.844251,89.61,1
2455433,2,55074,2,44319,42773,46425.67,44192.62,-2106.67,-1419.62,0.845219,89.59,1
2455473,2,55114,2,44319,42767,46421.46,44189.77,-2102.46,-1422.77,0.846189,89.57,1
2455513,2,55154,2,44315,42771,46417.25,44186.93,-2102.25,-1415.93,0.847162,89.55,1
2455553,2,55194,2,44314,42771,46413.04,44184.1,-2099.04,-1413.1,0.848136,89.52,1
2455593,2,55234,2,44316,42772,46408.85,44181.28,-2092.85,-1409.28,0.849113,89.5,1
2455633,2,55274,2,44317,42770,46404.67,44178.46,-2087.67,-1408.46,0.850092,89.48,1
2455673,2,55314,2,44314,42774,46400.49,44175.65,-2086.49,-1401.65,0.851072,89.46,1
2455713,2,55354,2,44312,42777,46396.31,44172.85,-2084.31,-1395.85,0.852055,89.43,1
2455753,2,55394,2,44308,42776,46392.14,44170.06,-2084.14,-1394.06,0.853039,89.41,1
2455793,2,55434,2,44305,42772,46387.96,44167.26,-2082.96,-1395.26,0.854026,89.39,1
2455834,2,55475,2,44304,42770,46383.8,44164.47,-2079.8,-1394.47,0.855014,89.36,1
2455874,2,55515,2,44299,42775,46379.63,44161.69,-2080.63,-1386.69,0.856004,89.34,1
2455914,2,55555,2,44299,42773,46375.47,44158.91,-2076.47,-1385.91,0.856997,89.32,1
2455954,2,55595,2,44294,42778,46371.31,44156.15,-2077.31,-1378.15,0.857991,89.3,1
2455994,2,55635,2,44290,42777,46367.15,44153.39,-2077.15,-1376.39,0.858988,89.27,1
2456034,2,55675,2,44296,42782,46363.01,44150.65,-2067.01,-1368.65,0.859986,89.25,1
2456074,2,55715,2,44295,42785,46358.87,44147.92,-2063.87,-1362.92,0.860987,89.23,1
2456114,2,55755,2,44295,42789,46354.75,44145.21,-2059.75,-1356.21,0.861989,89.2,1
2456154,2,55795,2,44300,42797,46350.64,44142.51,-2050.64,-1345.51,0.862994,89.18,1
2456194,2,55835,2,44305,42795,46346.55,44139.82,-2041.55,-1344.82,0.864,89.16,1
2456234,2,55875,2,44304,42792,46342.46,44137.12,-2038.46,-1345.12,0.865009,89.13,1
2456274,2,55915,2,44296,42792,46338.37,44134.43,-2042.38,-1342.43,0.866019,89.11,1
2456314,2,55955,2,44297,42794,46334.29,44131.75,-2037.29,-1337.75,0.867031,89.09,1
2456354,2,55995,2,44291,42792,46330.21,44129.07,-2039.21,-1337.07,0.868045,89.06,1
2456394,2,56035,2,44292,42793,46326.13,44126.4,-2034.13,-1333.4,0.869061,89.04,1
2456434,2,56075,2,44293,42788,46322.07,44123.73,-2029.07,-1335.73,0.870079,89.01,1
2456474,2,56115,2,44285,42788,46317.99,44121.05,-2032.99,-1333.05,0.871099,88.99,1
2456514,2,56155,2,44283,42784,46313.92,44118.38,-2030.92,-1334.38,0.87212,88.97,1
2456555,2,56196,2,44282,42789,46309.86,44115.73,-2027.86,-1326.73,0.873143,88.94,1
2456595,2,56236,2,44277,42784,46305.79,44113.06,-2028.79,-1329.06,0.874168,88.92,1
2456635,2,56276,2,44274,42787,46301.73,44110.41,-2027.73,-1323.41,0.875195,88.9,1
2456675,2,56316,2,44277,42789,46297.68,44107.77,-2020.68,-1318.77,0.876223,88.87,1
2456715,2,56356,2,44275,42839,46293.64,44105.23,-2018.64,-1266.23,0.877254,88.85,1
2456755,2,56396,2,44274,42958,46289.6,44102.94,-2015.6,-1144.94,0.87829,88.82,1
2456795,2,56436,2,44274,42800,46285.57,44100.34,-2011.57,-1300.34,0.879327,88.8,1
2456835,2,56476,2,44279,42807,46281.56,44097.75,-2002.56,-1290.75,0.880366,88.77,1
2456875,2,56516,2,44281,42807,46277.56,44095.17,-1996.56,-1288.17,0.881407,88.75,1
2456915,2,56556,2,44284,43312,46273.57,44093.6,-1989.57,-781.6,0.882456,88.73,1
2456955,2,56596,2,44284,42763,46269.6,44090.94,-1985.6,-1327.94,0.883506,88.7,1
2456995,2,56636,2,44282,42810,46265.62,44088.38,-1983.63,-1278.38,0.884558,88.68,1
2457035,2,56676,2,44282,42808,46261.66,44085.82,-1979.66,-1277.82,0.885612,88.65,1
2457075,2,56716,2,44284,42810,46257.71,44083.27,-1973.71,-1273.27,0.886667,88.63,1
2457115,2,56756,2,44279,42343,46253.75,44079.79,-1974.75,-1736.79,0.887714,88.6,1
2457155,2,56796,2,44273,42198,46249.79,44076.03,-1976.79,-1878.03,0.88875,88.58,1
2457196,2,56837,2,44277,42815,46245.84,44073.51,-1968.84,-1258.51,0.889788,88.55,1
2457236,2,56877,2,44278,42813,46241.91,44070.99,-1963.91,-1257.99,0.890828,88.53,1
2457276,2,56917,2,44274,42813,46237.98,44068.47,-1963.98,-1255.47,0.891869,88.5,1
2457316,2,56957,2,44271,42818,46234.04,44065.97,-1963.04,-1247.97,0.892913,88.48,1
2457356,2,56997,2,44270,42819,46230.12,44063.48,-1960.12,-1244.48,0.893958,88.45,1
2457396,2,57037,2,44275,42822,46226.21,44061,-1951.21,-1239,0.895005,88.43,1
2457436,2,57077,2,44334,42829,46222.42,44058.54,-1888.42,-1229.54,0.896053,88.41,1
2457476,2,57117,2,44437,42835,46218.85,44056.09,-1781.85,-1221.09,0.8971,88.38,1
2457516,2,57157,2,44282,42833,46214.98,44053.65,-1932.98,-1220.65,0.898149,88.36,1
2457556,2,57197,2,44280,42827,46211.11,44051.2,-1931.11,-1224.2,0.8992,88.33,1
2457596,2,57237,2,44279,42824,46207.25,44048.74,-1928.25,-1224.74,0.900253,88.31,1
2457636,2,57277,2,44732,42827,46204.3,44046.3,-1472.3,-1219.3,0.9013,88.28,1
2457676,2,57317,2,44218,42822,46200.33,44043.85,-1982.33,-1221.85,0.902351,88.25,1
2457716,2,57357,2,44273,42818,46196.48,44041.4,-1923.48,-1223.4,0.903403,88.23,1
2457756,2,57397,2,44274,42822,46192.63,44038.96,-1918.63,-1216.96,0.904456,88.2,1
2457796,2,57437,2,44268,42820,46188.79,44036.53,-1920.79,-1216.53,0.905511,88.18,1
2457836,2,57477,2,43721,42818,46183.85,44034.09,-2462.85,-1216.09,0.906578,88.15,1
2457877,2,57518,2,43610,42819,46178.7,44031.66,-2568.7,-1212.66,0.907658,88.13,1
2457917,2,57558,2,44266,42814,46174.88,44029.23,-1908.88,-1215.23,0.90874,88.1,1
2457957,2,57598,2,44264,42818,46171.06,44026.8,-1907.06,-1208.8,0.909823,88.08,1
2457997,2,57638,2,44266,42827,46167.25,44024.41,-1901.25,-1197.41,0.910907,88.05,1
2458037,2,57678,2,44266,42831,46163.45,44022.02,-1897.45,-1191.02,0.911993,88.03,1
2458077,2,57718,2,44272,42828,46159.67,44019.63,-1887.67,-1191.63,0.913079,88,1
2458117,2,57758,2,44272,42830,46155.89,44017.25,-1883.89,-1187.25,0.914167,87.98,1
2458157,2,57798,2,44276,42840,46152.14,44014.9,-1876.14,-1174.9,0.915257,87.95,1
2458197,2,57838,2,44280,42842,46148.39,44012.56,-1868.39,-1170.56,0.916347,87.92,1
2458237,2,57878,2,44285,42848,46144.67,44010.23,-1859.67,-1162.23,0.917439,87.9,1
2458277,2,57918,2,44292,42845,46140.96,44007.9,-1848.96,-1162.9,0.918532,87.87,1
2458317,2,57958,2,44291,42849,46137.27,44005.59,-1846.27,-1156.59,0.919626,87.85,1
2458357,2,57998,2,44283,42846,46133.56,44003.27,-1850.56,-1157.27,0.920721,87.82,1
2458397,2,58038,2,44290,42845,46129.87,44000.95,-1839.87,-1155.95,0.921817,87.79,1
2458437,2,58078,2,44287,42840,46126.19,43998.63,-1839.19,-1158.63,0.922914,87.77,1
2458477,2,58118,2,44287,42838,46122.51,43996.31,-1835.51,-1158.31,0.924012,87.74,1
2458517,2,58158,2,44279,42838,46118.82,43994,-1839.82,-1156,0.925111,87.72,1
2458557,2,58198,2,44278,42835,46115.14,43991.68,-1837.14,-1156.68,0.92621,87.69,1
2458597,2,58238,2,44276,42835,46111.47,43989.37,-1835.47,-1154.37,0.927311,87.66,1
2458638,2,58279,2,44279,42833,46107.8,43987.05,-1828.8,-1154.05,0.928412,87.64,1
2458678,2,58319,2,44277,42837,46104.14,43984.75,-1827.14,-1147.75,0.929514,87.61,1
2458718,2,58359,2,44277,42842,46100.49,43982.47,-1823.49,-1140.47,0.930618,87.59,1
2458758,2,58399,2,44280,42847,46096.85,43980.2,-1816.85,-1133.2,0.931722,87.56,1
2458798,2,58439,2,44283,42850,46093.23,43977.94,-1810.23,-1127.94,0.932827,87.53,1
2458838,2,58479,2,44282,42858,46089.61,43975.7,-1807.61,-1117.7,0.933933,87.51,1
2458878,2,58519,2,44288,42863,46086,43973.48,-1798,-1110.48,0.93504,87.48,1
2458918,2,58559,2,44290,42868,46082.41,43971.27,-1792.41,-1103.27,0.936148,87.45,1
2458958,2,58599,2,44295,42868,46078.84,43969.06,-1783.84,-1101.06,0.937257,87.43,1
2458998,2,58639,2,44303,42868,46075.29,43966.86,-1772.29,-1098.86,0.938367,87.4,1
2459038,2,58679,2,44304,42866,46071.75,43964.66,-1767.75,-1098.66,0.939478,87.37,1
2459078,2,58719,2,44299,42865,46068.2,43962.46,-1769.2,-1097.46,0.940589,87.35,1
2459118,2,58759,2,44298,42867,46064.66,43960.27,-1766.66,-1093.27,0.941701,87.32,1
2459158,2,58799,2,44301,42859,46061.14,43958.07,-1760.14,-1099.07,0.942814,87.29,1
2459198,2,58839,2,44303,42858,46057.62,43955.87,-1754.62,-1097.87,0.943927,87.27,1
2459238,2,58879,2,44299,42858,46054.11,43953.68,-1755.11,-1095.68,0.945041,87.24,1
2459278,2,58919,2,44296,42855,46050.59,43951.48,-1754.59,-1096.48,0.946155,87.21,1
2459318,2,58959,2,44295,42858,46047.08,43949.29,-1752.08,-1091.29,0.94727,87.19,1
2459359,2,59000,2,44299,42859,46043.58,43947.11,-1744.58,-1088.11,0.948385,87.16,1
2459399,2,59040,2,44299,42863,46040.09,43944.95,-1741.09,-1081.95,0.949501,87.13,1
2459439,2,59080,2,44296,42867,46036.61,43942.79,-1740.61,-1075.79,0.950617,87.11,1
2459479,2,59120,2,44300,42865,46033.13,43940.63,-1733.13,-1075.63,0.951734,87.08,1
2459519,2,59160,2,44307,42867,46029.68,43938.49,-1722.68,-1071.49,0.952852,87.05,1
2459559,2,59200,2,44307,42878,46026.24,43936.37,-1719.24,-1058.37,0.953969,87.02,1
2459599,2,59240,2,44311,42884,46022.81,43934.26,-1711.81,-1050.26,0.955088,87,1
2459639,2,59280,2,44317,42887,46019.4,43932.17,-1702.4,-1045.17,0.956207,86.97,1
2459679,2,59320,2,44318,42887,46016,43930.08,-1698,-1043.08,0.957327,86.94,1
2459719,2,59360,2,44321,42888,46012.61,43928,-1691.61,-1040,0.958447,86.92,1
2459759,2,59400,2,44323,42884,46009.23,43925.91,-1686.23,-1041.91,0.959568,86.89,1
2459799,2,59440,2,44328,42890,46005.87,43923.84,-1677.87,-1033.84,0.960689,86.86,1
