t_ms,trial_id,t_trial_ms,phase,red_raw,ir_raw,red_dc,ir_dc,red_ac,ir_ac,R,spo2,spo2_valid
3053282,3,0,0,48234,52032,48408.76,52454.75,-174.76,-422.75,0.38243,100,1
3053322,3,40,0,48252,52066,48408.45,52453.97,-156.45,-387.97,0.382499,100,1
3053362,3,80,0,48259,52063,48408.15,52453.19,-149.15,-390.19,0.382569,100,1
3053402,3,120,0,48256,52045,48407.85,52452.37,-151.85,-407.37,0.382638,100,1
3053442,3,160,0,48248,52039,48407.53,52451.55,-159.53,-412.55,0.382708,100,1
3053482,3,200,0,48258,52070,48407.23,52450.79,-149.23,-380.79,0.382778,100,1
3053522,3,240,0,48274,52114,48406.96,52450.11,-132.96,-336.11,0.382849,100,1
3053562,3,280,0,48292,52157,48406.73,52449.53,-114.73,-292.53,0.382919,100,1
3053602,3,320,0,48314,52203,48406.55,52449.04,-92.55,-246.04,0.382989,100,1
3053642,3,360,0,48324,52239,48406.39,52448.62,-82.39,-209.62,0.38306,100,1
3053682,3,400,0,48340,52265,48406.25,52448.25,-66.25,-183.25,0.38313,100,1
3053722,3,440,0,48348,52288,48406.14,52447.93,-58.14,-159.93,0.383199,100,1
3053763,3,481,0,48360,52316,48406.05,52447.67,-46.05,-131.67,0.383269,100,1
3053803,3,521,0,48369,52343,48405.97,52447.46,-36.97,-104.46,0.383338,100,1
3053843,3,561,0,48380,52374,48405.92,52447.32,-25.92,-73.32,0.383407,100,1
3053883,3,601,0,48394,52419,48405.9,52447.26,-11.9,-28.26,0.383476,100,1
3053923,3,641,0,48408,52465,48405.9,52447.3,2.1,17.7,0.383544,100,1
3053963,3,681,0,48429,52436,48405.95,52447.28,23.05,-11.28,0.383612,100,1
3054003,3,721,0,48381,52238,48405.9,52446.86,-24.9,-208.86,0.383679,100,1
3054043,3,761,0,48276,51987,48405.64,52445.94,-129.64,-458.94,0.38374,100,1
3054083,3,801,0,48191,51844,48405.21,52444.74,-214.21,-600.74,0.3838,100,1
3054123,3,841,0,48156,51802,48404.72,52443.45,-248.72,-641.45,0.383862,100,1
3054163,3,881,0,48151,51789,48404.21,52442.14,-253.21,-653.14,0.383925,100,1
3054203,3,921,0,48142,51770,48403.69,52440.8,-261.69,-670.8,0.383989,100,1
3054243,3,961,0,48145,51802,48403.17,52439.52,-258.17,-637.52,0.384056,100,1
3054283,3,1001,0,48163,51835,48402.69,52438.32,-239.69,-603.32,0.384125,100,1
3054323,3,1041,0,48170,51832,48402.23,52437.11,-232.23,-605.11,0.384194,100,1
3054363,3,1081,0,48162,51823,48401.75,52435.88,-239.75,-612.88,0.384264,100,1
3054403,3,1121,0,48167,51844,48401.28,52434.7,-234.28,-590.7,0.384336,100,1
3054443,3,1161,0,48177,51891,48400.83,52433.61,-223.83,-542.61,0.38441,100,1
3054483,3,1201,0,48200,51940,48400.43,52432.62,-200.43,-492.62,0.384485,100,1
3054523,3,1241,0,48221,51998,48400.07,52431.76,-179.07,-433.76,0.384562,100,1
3054564,3,1282,0,48245,52041,48399.76,52430.98,-154.76,-389.98,0.384638,100,1
3054604,3,1322,0,48259,52078,48399.48,52430.27,-140.48,-352.27,0.384716,100,1
3054644,3,1362,0,48275,52118,48399.23,52429.65,-124.23,-311.65,0.384793,100,1
3054684,3,1402,0,48285,52155,48399,52429.1,-114,-274.1,0.384871,100,1
3054724,3,1442,0,48303,52193,48398.81,52428.63,-95.81,-235.63,0.384948,100,1
3054764,3,1482,0,48322,52232,48398.66,52428.24,-76.66,-196.24,0.385026,100,1
3054804,3,1522,0,48340,52278,48398.54,52427.94,-58.54,-149.94,0.385104,100,1
3054844,3,1562,0,48354,52334,48398.46,52427.75,-44.46,-93.75,0.385181,100,1
3054884,3,1602,0,48381,52377,48398.42,52427.65,-17.42,-50.65,0.385258,100,1
3054924,3,1642,0,48385,52316,48398.39,52427.43,-13.39,-111.43,0.385335,100,1
3054964,3,1682,0,48323,52085,48398.25,52426.74,-75.25,-341.74,0.385408,100,1
3055004,3,1722,0,48222,51880,48397.89,52425.65,-175.89,-545.65,0.385477,100,1
3055044,3,1762,0,48162,51791,48397.43,52424.38,-235.43,-633.38,0.385545,100,1
3055084,3,1802,0,48138,51775,48396.91,52423.08,-258.91,-648.08,0.385616,100,1
3055124,3,1842,0,48133,51761,48396.38,52421.76,-263.38,-660.76,0.385688,100,1
3055164,3,1882,0,48128,51763,48395.84,52420.44,-267.84,-657.44,0.385763,100,1
3055204,3,1922,0,48136,51816,48395.32,52419.23,-259.32,-603.23,0.385841,100,1
3055244,3,1962,0,48156,51856,48394.85,52418.11,-238.85,-562.11,0.385922,100,1
3055284,3,2002,0,48164,51868,48394.39,52417.01,-230.39,-549.01,0.386006,100,1
3055324,3,2042,0,48163,51877,48393.93,52415.93,-230.93,-538.93,0.386092,100,1
3055365,3,2083,0,48176,51912,48393.49,52414.93,-217.49,-502.93,0.386181,100,1
3055405,3,2123,0,48192,51965,48393.09,52414.03,-201.09,-449.03,0.386272,100,1
3055445,3,2163,0,48218,52028,48392.74,52413.26,-174.74,-385.26,0.386365,100,1
3055485,3,2203,0,48243,52092,48392.45,52412.62,-149.45,-320.62,0.386459,100,1
3055525,3,2243,0,48263,52139,48392.19,52412.07,-129.19,-273.07,0.386555,100,1
3055565,3,2283,0,48288,52194,48391.98,52411.64,-103.98,-217.64,0.386651,100,1
3055605,3,2323,0,48305,52240,48391.81,52411.29,-86.81,-171.29,0.386748,100,1
3055645,3,2363,0,48325,52284,48391.68,52411.04,-66.68,-127.04,0.386846,100,1
3055685,3,2403,0,48340,52336,48391.57,52410.89,-51.57,-74.89,0.386943,100,1
3055725,3,2443,0,48365,52375,48391.52,52410.82,-26.52,-35.82,0.38704,100,1
3055765,3,2483,0,48380,52423,48391.5,52410.85,-11.5,12.15,0.387137,100,1
3055805,3,2523,0,48404,52474,48391.53,52410.98,12.47,63.02,0.387234,100,1
3055845,3,2563,0,48430,52531,48391.61,52411.22,38.39,119.78,0.38733,100,1
3055885,3,2603,0,48440,52518,48391.7,52411.43,48.3,106.57,0.387426,100,1
3055925,3,2643,0,48396,52344,48391.71,52411.3,4.29,-67.3,0.387521,100,1
3055965,3,2683,0,48307,52141,48391.55,52410.76,-84.55,-269.76,0.387616,100,1
3056005,3,2723,0,48241,52046,48391.25,52410.04,-150.25,-364.04,0.38771,100,1
3056045,3,2763,0,48214,52025,48390.89,52409.27,-176.89,-384.27,0.387807,100,1
3056085,3,2803,0,48204,52018,48390.52,52408.48,-186.52,-390.48,0.387907,100,1
3056126,3,2844,0,48200,52014,48390.14,52407.7,-190.14,-393.7,0.388011,100,1
3056166,3,2884,0,48204,52061,48389.77,52407,-185.77,-346,0.388118,100,1
3056206,3,2924,0,48223,52104,48389.44,52406.4,-166.44,-302.4,0.38823,100,1
3056246,3,2964,0,48229,52116,48389.12,52405.82,-160.12,-289.82,0.388344,100,1
3056286,3,3004,0,48232,52132,48388.81,52405.27,-156.81,-273.27,0.388462,100,1
3056326,3,3044,0,48242,52155,48388.52,52404.77,-146.52,-249.77,0.388583,100,1
3056366,3,3084,0,48261,52215,48388.26,52404.39,-127.26,-189.39,0.388707,100,1
3056406,3,3124,0,48285,52276,48388.05,52404.14,-103.05,-128.14,0.388833,100,1
3056446,3,3164,0,48310,52340,48387.9,52404.02,-77.9,-64.02,0.388959,100,1
3056486,3,3204,0,48336,52394,48387.8,52404,-51.8,-10,0.389087,100,1
3056526,3,3244,0,48363,52440,48387.75,52404.07,-24.75,35.93,0.389214,100,1
3056566,3,3284,0,48379,52480,48387.73,52404.22,-8.73,75.78,0.38934,100,1
3056606,3,3324,0,48395,52520,48387.75,52404.46,7.25,115.54,0.389465,100,1
3056646,3,3364,0,48412,52560,48387.8,52404.77,24.2,155.23,0.389589,100,1
3056686,3,3404,0,48427,52611,48387.88,52405.18,39.12,205.82,0.389711,100,1
3056726,3,3444,0,48449,52661,48388,52405.7,61,255.3,0.389831,100,1
3056766,3,3484,0,48464,52648,48388.16,52406.18,75.84,241.82,0.389949,100,1
3056806,3,3524,0,48422,52509,48388.23,52406.39,33.77,102.61,0.390067,100,1
3056846,3,3564,0,48352,52362,48388.16,52406.3,-36.16,-44.3,0.390185,100,1
3056887,3,3605,0,48303,52304,48387.99,52406.1,-84.99,-102.1,0.390304,100,1
3056927,3,3645,0,48293,52305,48387.8,52405.9,-94.8,-100.9,0.390425,100,1
3056967,3,3685,0,48292,52317,48387.61,52405.72,-95.61,-88.72,0.390548,100,1
3057007,3,3725,0,48296,52354,48387.43,52405.62,-91.43,-51.62,0.390674,100,1
3057047,3,3765,0,48313,52402,48387.28,52405.61,-74.28,-3.61,0.390801,100,1
3057087,3,3805,0,48333,52421,48387.17,52405.64,-54.17,15.36,0.390929,100,1
3057127,3,3845,0,48337,52426,48387.07,52405.69,-50.07,20.31,0.391057,100,1
3057167,3,3885,0,48336,52447,48386.97,52405.77,-50.97,41.23,0.391185,100,1
3057207,3,3925,0,48346,52492,48386.89,52405.94,-40.89,86.06,0.391313,100,1
3057247,3,3965,0,48372,52543,48386.86,52406.22,-14.86,136.78,0.39144,100,1
3057287,3,4005,0,48401,52590,48386.89,52406.59,14.11,183.41,0.391565,100,1
3057327,3,4045,0,48417,52640,48386.96,52407.05,30.04,232.95,0.391687,100,1
3057367,3,4085,0,48434,52682,48387.05,52407.61,46.95,274.39,0.391805,100,1
3057407,3,4125,0,48451,52724,48387.18,52408.24,63.82,315.76,0.391918,100,1
3057447,3,4165,0,48467,52759,48387.34,52408.94,79.66,350.06,0.392026,100,1
3057487,3,4205,0,48481,52794,48387.53,52409.71,93.47,384.29,0.392129,100,1
3057527,3,4245,0,48495,52827,48387.74,52410.55,107.26,416.45,0.392226,100,1
3057567,3,4285,0,48512,52877,48387.99,52411.48,124.01,465.52,0.392317,100,1
3057607,3,4325,0,48525,52911,48388.27,52412.48,136.73,498.52,0.3924,100,1
3057648,3,4366,0,48520,52836,48388.53,52413.33,131.47,422.67,0.39248,100,1
3057688,3,4406,0,48459,52673,48388.67,52413.85,70.33,259.15,0.392558,100,1
3057728,3,4446,0,48394,52566,48388.68,52414.15,5.32,151.85,0.392634,100,1
3057768,3,4486,0,48358,52531,48388.62,52414.39,-30.62,116.61,0.39271,100,1
3057808,3,4526,0,48353,52525,48388.55,52414.61,-35.55,110.39,0.392785,100,1
3057848,3,4566,0,48346,52512,48388.47,52414.8,-42.47,97.2,0.39286,100,1
3057888,3,4606,0,48345,52525,48388.39,52415.03,-43.39,109.97,0.392935,100,1
3057928,3,4646,0,48356,52565,48388.32,52415.33,-32.32,149.67,0.393009,100,1
3057968,3,4686,0,48368,52583,48388.29,52415.66,-20.29,167.34,0.393082,100,1
3058008,3,4726,0,48373,52592,48388.25,52416.02,-15.25,175.98,0.393152,100,1
3058048,3,4766,0,48383,52601,48388.25,52416.39,-5.25,184.61,0.39322,100,1
3058088,3,4806,0,48388,52636,48388.25,52416.83,-0.25,219.17,0.393286,100,1
3058128,3,4846,0,48409,52678,48388.29,52417.36,20.71,260.64,0.393347,100,1
3058168,3,4886,0,48426,52724,48388.37,52417.97,37.63,306.03,0.393404,100,1
3058208,3,4926,0,48442,52762,48388.48,52418.66,53.52,343.34,0.393454,100,1
3058248,3,4966,0,48453,52795,48388.61,52419.41,64.39,375.59,0.393499,100,1
3058288,3,5006,0,48471,52835,48388.77,52420.24,82.23,414.76,0.393536,100,1
3058328,3,5046,0,48484,52866,48388.96,52421.14,95.04,444.86,0.393565,100,1
3058368,3,5086,0,48493,52899,48389.18,52422.09,103.82,476.91,0.393587,100,1
3058408,3,5126,0,48506,52935,48389.41,52423.12,116.59,511.88,0.393599,100,1
3058449,3,5167,0,48523,52972,48389.68,52424.22,133.32,547.78,0.393603,100,1
3058489,3,5207,0,48536,53012,48389.97,52425.39,146.03,586.61,0.393598,100,1
3058529,3,5247,0,48549,53053,48390.29,52426.65,158.71,626.35,0.393583,100,1
3058569,3,5287,0,48565,53085,48390.64,52427.97,174.36,657.03,0.393558,100,1
3058609,3,5327,0,48558,52997,48390.98,52429.11,167.02,567.89,0.393529,100,1
3058649,3,5367,0,48499,52846,48391.2,52429.95,107.8,416.05,0.393496,100,1
3058689,3,5407,0,48437,52758,48391.29,52430.6,45.71,327.4,0.39346,100,1
3058729,3,5447,0,48415,52739,48391.34,52431.22,23.66,307.78,0.393419,100,1
3058769,3,5487,0,48415,52732,48391.39,52431.82,23.61,300.18,0.393375,100,1
3058809,3,5527,0,48412,52712,48391.43,52432.38,20.57,279.62,0.393327,100,1
3058849,3,5567,0,48407,52717,48391.46,52432.95,15.54,284.05,0.393276,100,1
3058889,3,5607,0,48415,52749,48391.51,52433.59,23.49,315.41,0.39322,100,1
3058929,3,5647,0,48423,52755,48391.57,52434.23,31.43,320.77,0.393161,100,1
3058969,3,5687,0,48423,52755,48391.63,52434.87,31.37,320.12,0.393097,100,1
3059009,3,5727,0,48423,52767,48391.7,52435.54,31.3,331.46,0.393029,100,1
3059049,3,5767,0,48433,52791,48391.78,52436.25,41.22,354.75,0.392956,100,1
3059089,3,5807,0,48442,52825,48391.88,52437.03,50.12,387.97,0.392878,100,1
3059129,3,5847,0,48457,52861,48392.01,52437.87,64.99,423.12,0.392793,100,1
3059169,3,5887,0,48469,52893,48392.17,52438.79,76.83,454.21,0.392702,100,1
3059210,3,5928,0,48485,52929,48392.36,52439.77,92.64,489.23,0.392605,100,1
3059250,3,5968,0,48499,52961,48392.57,52440.81,106.43,520.19,0.3925,100,1
3059290,3,6008,0,48506,53000,48392.8,52441.93,113.2,558.07,0.392388,100,1
3059330,3,6048,0,48520,53032,48393.05,52443.11,126.95,588.89,0.392268,100,1
3059370,3,6088,0,48538,53071,48393.34,52444.37,144.66,626.63,0.39214,100,1
3059410,3,6128,0,48552,53105,48393.66,52445.69,158.34,659.31,0.392006,100,1
3059450,3,6168,0,48571,53146,48394.02,52447.09,176.98,698.91,0.391865,100,1
3059490,3,6208,0,48583,53190,48394.4,52448.58,188.6,741.42,0.391717,100,1
3059530,3,6248,0,48603,53231,48394.82,52450.15,208.18,780.85,0.391564,100,1
3059570,3,6288,0,48622,53253,48395.27,52451.75,226.73,801.25,0.391408,100,1
3059610,3,6328,0,48617,53170,48395.72,52453.19,221.28,716.81,0.391251,100,1
3059650,3,6368,0,48553,53020,48396.04,52454.33,156.96,565.67,0.391093,100,1
3059690,3,6408,0,48494,52935,48396.23,52455.29,97.77,479.71,0.39093,100,1
3059730,3,6448,0,48471,52907,48396.38,52456.2,74.62,450.8,0.390764,100,1
3059770,3,6488,0,48470,52907,48396.53,52457.1,73.47,449.9,0.390594,100,1
3059810,3,6528,0,48469,52897,48396.68,52457.98,72.32,439.02,0.39042,100,1
3059850,3,6568,0,48464,52909,48396.81,52458.88,67.19,450.12,0.390242,100,1
3059890,3,6608,0,48472,52930,48396.96,52459.83,75.04,470.17,0.390059,100,1
3059930,3,6648,0,48474,52927,48397.12,52460.77,76.88,466.23,0.389872,100,1
3059971,3,6689,0,48472,52919,48397.27,52461.68,74.73,457.32,0.389682,100,1
3060011,3,6729,0,48468,52925,48397.42,52462.61,70.58,462.39,0.389487,100,1
3060051,3,6769,0,48474,52949,48397.57,52463.59,76.43,485.41,0.389288,100,1
3060091,3,6809,0,48480,52990,48397.74,52464.64,82.26,525.36,0.389083,100,1
3060131,3,6849,0,48498,53023,48397.95,52465.76,100.05,557.24,0.388873,100,1
3060171,3,6889,0,48515,53057,48398.18,52466.94,116.82,590.06,0.388659,100,1
3060211,3,6929,0,48527,53090,48398.44,52468.19,128.56,621.81,0.38844,100,1
3060251,3,6969,0,48535,53122,48398.71,52469.5,136.29,652.5,0.388216,100,1
3060291,3,7009,0,48551,53151,48399.02,52470.86,151.98,680.14,0.387987,100,1
3060331,3,7049,0,48568,53178,48399.36,52472.27,168.64,705.73,0.387756,100,1
3060371,3,7089,0,48581,53201,48399.72,52473.73,181.28,727.27,0.387521,100,1
3060411,3,7129,0,48594,53236,48400.11,52475.26,193.89,760.74,0.387285,100,1
3060451,3,7169,0,48607,53272,48400.52,52476.85,206.48,795.15,0.387047,100,1
3060491,3,7209,0,48619,53303,48400.96,52478.5,218.04,824.5,0.386807,100,1
3060531,3,7249,0,48617,53229,48401.39,52480.01,215.61,748.99,0.386568,100,1
3060571,3,7289,0,48566,53080,48401.73,52481.21,164.27,598.79,0.38633,100,1
3060611,3,7329,0,48499,52983,48401.92,52482.21,97.08,500.79,0.386089,100,1
3060651,3,7369,0,48471,52955,48402.06,52483.16,68.94,471.84,0.385846,100,1
3060691,3,7409,0,48469,52956,48402.2,52484.11,66.8,471.89,0.385599,100,1
3060732,3,7450,0,48465,52951,48402.32,52485.04,62.68,465.96,0.385349,100,1
3060772,3,7490,0,48466,52967,48402.45,52486,63.55,481,0.385096,100,1
3060812,3,7530,0,48472,52987,48402.59,52487.01,69.41,499.99,0.38484,100,1
3060852,3,7570,0,48473,52982,48402.73,52488,70.27,494,0.38458,100,1
3060892,3,7610,0,48466,52972,48402.86,52488.97,63.14,483.03,0.384318,100,1
3060932,3,7650,0,48466,52966,48402.99,52489.93,63.01,476.07,0.384052,100,1
3060972,3,7690,0,48469,52996,48403.12,52490.94,65.87,505.06,0.383783,100,1
3061012,3,7730,0,48481,53037,48403.28,52492.03,77.72,544.97,0.38351,100,1
3061052,3,7770,0,48499,53072,48403.47,52493.19,95.53,578.81,0.383233,100,1
3061092,3,7810,0,48521,53109,48403.71,52494.43,117.29,614.57,0.382954,100,1
3061132,3,7850,0,48536,53139,48403.97,52495.71,132.03,643.29,0.382672,100,1
3061172,3,7890,0,48549,53163,48404.27,52497.05,144.73,665.95,0.382387,100,1
3061212,3,7930,0,48560,53187,48404.58,52498.43,155.42,688.57,0.382101,100,1
3061252,3,7970,0,48568,53213,48404.91,52499.86,163.09,713.14,0.381813,100,1
3061292,3,8010,0,48581,53243,48405.26,52501.35,175.74,741.65,0.381524,100,1
3061332,3,8050,0,48598,53268,48405.64,52502.89,192.36,765.11,0.381235,100,1
3061372,3,8090,0,48594,53195,48406.02,52504.27,187.98,690.73,0.380947,100,1
3061412,3,8130,0,48530,53042,48406.27,52505.35,123.73,536.65,0.380659,100,1
3061452,3,8170,0,48468,52933,48406.4,52506.21,61.6,426.79,0.38037,100,1
3061493,3,8211,0,48438,52895,48406.46,52506.98,31.54,388.02,0.380079,100,1
3061533,3,8251,0,48429,52876,48406.51,52507.72,22.49,368.28,0.379786,100,1
3061573,3,8291,0,48423,52868,48406.55,52508.45,16.45,359.55,0.379492,100,1
3061613,3,8331,0,48413,52877,48406.56,52509.18,6.44,367.82,0.379196,100,1
3061653,3,8371,0,48425,52894,48406.6,52509.95,18.4,384.05,0.378898,100,1
3061693,3,8411,0,48425,52890,48406.64,52510.71,18.36,379.29,0.378599,100,1
3061733,3,8451,0,48421,52881,48406.67,52511.46,14.33,369.54,0.378298,100,1
3061773,3,8491,0,48421,52888,48406.7,52512.21,14.3,375.79,0.377996,100,1
3061813,3,8531,0,48427,52912,48406.75,52513.01,20.25,398.99,0.377691,100,1
3061853,3,8571,0,48440,52946,48406.81,52513.88,33.19,432.12,0.377384,100,1
3061893,3,8611,0,48456,52979,48406.91,52514.81,49.09,464.19,0.377075,100,1
3061933,3,8651,0,48477,53013,48407.05,52515.8,69.95,497.2,0.376764,100,1
3061973,3,8691,0,48495,53047,48407.23,52516.87,87.77,530.13,0.37645,100,1
3062013,3,8731,0,48507,53073,48407.43,52517.98,99.57,555.02,0.376135,100,1
3062053,3,8771,0,48516,53097,48407.65,52519.14,108.35,577.86,0.375818,100,1
3062093,3,8811,0,48529,53126,48407.89,52520.36,121.11,605.64,0.375499,100,1
3062133,3,8851,0,48538,53153,48408.15,52521.62,129.85,631.38,0.37518,100,1
3062173,3,8891,0,48555,53187,48408.45,52522.95,146.55,664.05,0.374859,100,1
3062213,3,8931,0,48563,53224,48408.76,52524.36,154.24,699.64,0.374538,100,1
3062253,3,8971,0,48577,53220,48409.09,52525.75,167.91,694.25,0.374218,100,1
3062294,3,9012,0,48548,53079,48409.37,52526.86,138.63,552.14,0.373898,100,1
3062334,3,9052,0,48470,52915,48409.49,52527.64,60.51,387.36,0.373579,100,1
3062374,3,9092,0,48416,52823,48409.51,52528.23,6.49,294.77,0.373258,100,1
3062414,3,9132,0,48389,52800,48409.47,52528.77,-20.47,271.23,0.372938,100,1
3062454,3,9172,0,48382,52781,48409.41,52529.28,-27.41,251.72,0.372617,100,1
3062494,3,9212,0,48377,52775,48409.35,52529.77,-32.35,245.23,0.372297,100,1
3062534,3,9252,0,48381,52793,48409.3,52530.3,-28.3,262.7,0.371976,100,1
3062574,3,9292,0,48390,52808,48409.26,52530.86,-19.26,277.14,0.371656,100,1
3062614,3,9332,0,48394,52800,48409.23,52531.39,-15.23,268.61,0.371335,100,1
3062654,3,9372,0,48389,52799,48409.19,52531.93,-20.19,267.07,0.371014,100,1
3062694,3,9412,0,48397,52809,48409.17,52532.48,-12.17,276.52,0.370693,100,1
3062734,3,9452,0,48411,52835,48409.17,52533.09,1.83,301.91,0.370371,100,1
3062774,3,9492,0,48426,52874,48409.21,52533.77,16.79,340.23,0.370047,100,1
3062814,3,9532,0,48442,52914,48409.27,52534.54,32.73,379.46,0.369723,100,1
3062854,3,9572,0,48457,52945,48409.37,52535.36,47.63,409.64,0.369397,100,1
3062894,3,9612,0,48474,52981,48409.5,52536.25,64.5,444.75,0.36907,100,1
3062934,3,9652,0,48488,53007,48409.66,52537.2,78.34,469.8,0.368742,100,1
3062974,3,9692,0,48499,53038,48409.84,52538.2,89.16,499.8,0.368413,100,1
3063014,3,9732,0,48507,53066,48410.04,52539.26,96.96,526.74,0.368083,100,1
3063054,3,9772,0,48522,53095,48410.26,52540.37,111.74,554.63,0.367752,100,1
3063095,3,9813,0,48536,53129,48410.52,52541.55,125.48,587.45,0.367421,100,1
3063135,3,9853,0,48548,53161,48410.79,52542.79,137.21,618.21,0.36709,100,1
3063175,3,9893,0,48563,53208,48411.1,52544.12,151.9,663.87,0.36676,100,1
3063215,3,9933,0,48576,53212,48411.43,52545.46,164.57,666.54,0.366431,100,1
3063255,3,9973,0,48552,53073,48411.71,52546.52,140.29,526.48,0.366105,100,1
3063295,3,10013,0,48481,52901,48411.85,52547.23,69.15,353.77,0.365779,100,1
3063335,3,10053,0,48423,52810,48411.87,52547.75,11.13,262.25,0.365453,100,1
3063375,3,10093,0,48403,52791,48411.86,52548.24,-8.86,242.76,0.365127,100,1
3063415,3,10133,0,48402,52791,48411.84,52548.73,-9.84,242.27,0.3648,100,1
3063455,3,10173,0,48407,52780,48411.83,52549.2,-4.83,230.8,0.364474,100,1
3063495,3,10213,0,48411,52799,48411.83,52549.7,-0.83,249.3,0.364148,100,1
3063535,3,10253,0,48423,52814,48411.86,52550.23,11.14,263.77,0.363822,100,1
3063575,3,10293,0,48424,52812,48411.88,52550.75,12.12,261.25,0.363495,100,1
3063615,3,10333,0,48420,52806,48411.9,52551.26,8.1,254.74,0.363168,100,1
3063655,3,10373,0,48421,52813,48411.92,52551.79,9.08,261.21,0.362841,100,1
3063695,3,10413,0,48435,52838,48411.96,52552.36,23.04,285.64,0.362514,100,1
3063735,3,10453,0,48447,52884,48412.04,52553.02,34.96,330.98,0.362186,100,1
3063775,3,10493,0,48464,52921,48412.14,52553.76,51.86,367.24,0.361857,100,1
3063815,3,10533,0,48480,52958,48412.28,52554.57,67.72,403.43,0.361528,100,1
3063856,3,10574,0,48496,52998,48412.45,52555.46,83.55,442.54,0.361199,100,1
3063896,3,10614,0,48507,53026,48412.64,52556.4,94.36,469.6,0.36087,100,1
3063936,3,10654,0,48521,53059,48412.86,52557.41,108.14,501.59,0.360541,100,1
3063976,3,10694,0,48534,53098,48413.1,52558.49,120.9,539.51,0.360213,100,1
3064016,3,10734,0,48546,53132,48413.36,52559.64,132.64,572.36,0.359885,100,1
3064056,3,10774,0,48563,53165,48413.66,52560.85,149.34,604.15,0.35956,100,1
3064096,3,10814,0,48579,53202,48414,52562.13,165,639.87,0.359238,100,1
3064136,3,10854,0,48596,53249,48414.36,52563.51,181.64,685.49,0.358919,100,1
3064176,3,10894,0,48617,53275,48414.77,52564.93,202.23,710.07,0.358605,100,1
3064216,3,10934,0,48610,53175,48415.16,52566.16,194.84,608.84,0.358298,100,1
3064256,3,10974,0,48551,52994,48415.43,52567.01,135.57,426.99,0.357994,100,1
3064296,3,11014,0,48477,52861,48415.56,52567.6,61.44,293.4,0.357691,100,1
3064336,3,11054,0,48442,52820,48415.61,52568.11,26.39,251.89,0.357388,100,1
3064376,3,11094,0,48436,52814,48415.66,52568.6,20.34,245.4,0.357084,100,1
3064416,3,11134,0,48438,52810,48415.7,52569.09,22.3,240.91,0.356781,100,1
3064456,3,11174,0,48437,52829,48415.75,52569.61,21.25,259.39,0.356478,100,1
3064496,3,11214,0,48446,52842,48415.81,52570.15,30.19,271.85,0.356174,100,1
3064536,3,11254,0,48448,52832,48415.87,52570.68,32.13,261.32,0.355871,100,1
3064576,3,11294,0,48437,52815,48415.92,52571.16,21.08,243.84,0.355568,100,1
3064617,3,11335,0,48434,52810,48415.96,52571.64,18.04,238.36,0.355264,100,1
3064657,3,11375,0,48440,52833,48416.01,52572.17,23.99,260.83,0.35496,100,1
3064697,3,11415,0,48452,52872,48416.08,52572.77,35.92,299.23,0.354657,100,1
3064737,3,11455,0,48465,52913,48416.18,52573.45,48.82,339.55,0.354352,100,1
3064777,3,11495,0,48481,52951,48416.31,52574.21,64.69,376.79,0.354047,100,1
3064817,3,11535,0,48498,52986,48416.48,52575.04,81.52,410.96,0.353743,100,1
3064857,3,11575,0,48516,53023,48416.68,52575.93,99.32,447.07,0.353439,100,1
3064897,3,11615,0,48525,53048,48416.89,52576.88,108.11,471.12,0.353136,100,1
3064937,3,11655,0,48540,53075,48417.14,52577.87,122.86,497.12,0.352834,100,1
3064977,3,11695,0,48554,53106,48417.41,52578.93,136.59,527.07,0.352534,100,1
3065017,3,11735,0,48572,53140,48417.72,52580.06,154.28,559.94,0.352238,100,1
3065057,3,11775,0,48589,53167,48418.07,52581.23,170.93,585.77,0.351946,100,1
3065097,3,11815,0,48576,53070,48418.38,52582.21,157.62,487.79,0.351659,100,1
3065137,3,11855,0,48507,52883,48418.56,52582.82,88.44,300.18,0.351374,100,1
3065177,3,11895,0,48446,52762,48418.62,52583.18,27.38,178.82,0.351089,100,1
3065217,3,11935,0,48412,52720,48418.61,52583.45,-6.61,136.55,0.350805,100,1
3065257,3,11975,0,48409,52729,48418.59,52583.74,-9.59,145.26,0.350521,100,1
3065297,3,12015,0,48410,52737,48418.57,52584.05,-8.57,152.95,0.350238,100,1
3065337,3,12055,0,48417,52767,48418.57,52584.42,-1.57,182.58,0.349955,100,1
3065378,3,12096,0,48427,52776,48418.59,52584.8,8.41,191.2,0.349672,100,1
3065418,3,12136,0,48423,52761,48418.6,52585.16,4.4,175.84,0.349389,100,1
3065458,3,12176,0,48414,52749,48418.59,52585.48,-4.59,163.52,0.349107,100,1
3065498,3,12216,0,48412,52753,48418.58,52585.82,-6.58,167.18,0.348825,100,1
3065538,3,12256,0,48419,52780,48418.59,52586.21,0.41,193.79,0.348543,100,1
3065578,3,12296,0,48436,52824,48418.62,52586.69,17.38,237.31,0.348261,100,1
3065618,3,12336,0,48451,52867,48418.69,52587.25,32.31,279.75,0.347978,100,1
3065658,3,12376,0,48467,52911,48418.79,52587.9,48.21,323.1,0.347695,100,1
3065698,3,12416,0,48490,52944,48418.93,52588.61,71.07,355.39,0.347413,100,1
3065738,3,12456,0,48508,52971,48419.11,52589.38,88.89,381.62,0.347131,100,1
3065778,3,12496,0,48520,52992,48419.31,52590.18,100.69,401.82,0.34685,100,1
3065818,3,12536,0,48526,53016,48419.53,52591.04,106.47,424.96,0.346571,100,1
3065858,3,12576,0,48538,53048,48419.77,52591.95,118.23,456.05,0.346294,100,1
3065898,3,12616,0,48553,53084,48420.04,52592.93,132.96,491.07,0.346019,100,1
3065938,3,12656,0,48568,53070,48420.33,52593.89,147.67,476.11,0.345749,100,1
3065978,3,12696,0,48529,52903,48420.55,52594.51,108.45,308.49,0.345481,100,1
3066018,3,12736,0,48441,52694,48420.59,52594.71,20.41,99.29,0.345215,100,1
3066058,3,12776,0,48367,52577,48420.49,52594.68,-53.49,-17.68,0.34495,100,1
3066098,3,12816,0,48337,52539,48420.32,52594.57,-83.32,-55.57,0.344689,100,1
3066139,3,12857,0,48333,52523,48420.15,52594.43,-87.15,-71.43,0.344432,100,1
3066179,3,12897,0,48322,52512,48419.96,52594.26,-97.96,-82.26,0.344178,100,1
3066219,3,12937,0,48327,52534,48419.77,52594.14,-92.77,-60.14,0.343929,100,1
3066259,3,12977,0,48332,52553,48419.6,52594.06,-87.6,-41.06,0.343684,100,1
3066299,3,13017,0,48339,52539,48419.44,52593.95,-80.44,-54.95,0.343442,100,1
3066339,3,13057,0,48336,52531,48419.27,52593.82,-83.27,-62.82,0.343203,100,1
3066379,3,13097,0,48332,52552,48419.1,52593.74,-87.1,-41.74,0.342968,100,1
3066419,3,13137,0,48346,52589,48418.96,52593.73,-72.96,-4.73,0.342736,100,1
3066459,3,13177,0,48373,52635,48418.87,52593.82,-45.87,41.18,0.342505,100,1
3066499,3,13217,0,48393,52676,48418.82,52593.98,-25.82,82.02,0.342275,100,1
3066539,3,13257,0,48414,52714,48418.81,52594.22,-4.81,119.78,0.342045,100,1
3066579,3,13297,0,48428,52753,48418.83,52594.54,9.17,158.46,0.341816,100,1
3066619,3,13337,0,48438,52782,48418.87,52594.92,19.13,187.08,0.341586,100,1
3066659,3,13377,0,48458,52805,48418.95,52595.34,39.05,209.66,0.341357,100,1
3066699,3,13417,0,48464,52829,48419.04,52595.81,44.96,233.19,0.341128,100,1
3066739,3,13457,0,48476,52857,48419.15,52596.33,56.85,260.67,0.340899,100,1
3066779,3,13497,0,48487,52898,48419.29,52596.94,67.71,301.06,0.340671,100,1
3066819,3,13537,0,48502,52932,48419.45,52597.61,82.55,334.39,0.340443,100,1
3066859,3,13577,0,48510,52882,48419.64,52598.18,90.36,283.82,0.340218,100,1
3066900,3,13618,0,48449,52682,48419.7,52598.35,29.3,83.65,0.339993,100,1
3066940,3,13658,0,48360,52492,48419.58,52598.14,-59.58,-106.14,0.33977,100,1
3066980,3,13698,0,48300,52406,48419.34,52597.75,-119.34,-191.75,0.339554,100,1
3067020,3,13738,0,48283,52385,48419.07,52597.33,-136.07,-212.33,0.339345,100,1
3067060,3,13778,0,48288,52378,48418.81,52596.89,-130.81,-218.89,0.339143,100,1
3067100,3,13818,0,48281,52380,48418.54,52596.46,-137.54,-216.46,0.338948,100,1
3067140,3,13858,0,48291,52411,48418.28,52596.09,-127.28,-185.09,0.338761,100,1
3067180,3,13898,0,48298,52426,48418.04,52595.75,-120.04,-169.75,0.338579,100,1
3067220,3,13938,0,48307,52426,48417.82,52595.41,-110.82,-169.41,0.338403,100,1
3067260,3,13978,0,48309,52425,48417.61,52595.07,-108.61,-170.07,0.338232,100,1
3067300,3,14018,0,48316,52449,48417.4,52594.78,-101.4,-145.78,0.338065,100,1
3067340,3,14058,0,48332,52494,48417.23,52594.58,-85.23,-100.58,0.337901,100,1
3067380,3,14098,0,48351,52543,48417.1,52594.48,-66.1,-51.48,0.33774,100,1
3067420,3,14138,0,48368,52587,48417,52594.46,-49,-7.46,0.337581,100,1
3067460,3,14178,0,48391,52621,48416.95,52594.52,-25.95,26.48,0.337422,100,1
3067500,3,14218,0,48408,52664,48416.94,52594.66,-8.94,69.34,0.337264,100,1
3067540,3,14258,0,48418,52695,48416.94,52594.86,1.06,100.14,0.337106,100,1
3067580,3,14298,0,48429,52727,48416.96,52595.13,12.04,131.87,0.336948,100,1
3067620,3,14338,0,48447,52760,48417.03,52595.46,29.97,164.54,0.336789,100,1
3067661,3,14379,0,48458,52791,48417.11,52595.85,40.89,195.15,0.336631,100,1
3067701,3,14419,0,48471,52829,48417.22,52596.32,53.78,232.68,0.336473,100,1
3067741,3,14459,0,48486,52878,48417.36,52596.89,68.64,281.11,0.336315,100,1
3067781,3,14499,0,48502,52921,48417.53,52597.54,84.47,323.46,0.336158,100,1
3067821,3,14539,0,48517,52902,48417.73,52598.14,99.27,303.86,0.336003,100,1
3067861,3,14579,0,48480,52715,48417.86,52598.38,62.14,116.62,0.335849,100,1
3067901,3,14619,0,48387,52508,48417.8,52598.2,-30.8,-90.2,0.335697,100,1
3067941,3,14659,0,48318,52405,48417.6,52597.81,-99.6,-192.81,0.335548,100,1
3067981,3,14699,0,48297,52385,48417.36,52597.39,-120.36,-212.39,0.335406,100,1
3068021,3,14739,0,48303,52384,48417.13,52596.96,-114.13,-212.96,0.335269,100,1
3068061,3,14779,0,48303,52385,48416.91,52596.54,-113.91,-211.54,0.335137,100,1
3068101,3,14819,0,48313,52418,48416.7,52596.18,-103.7,-178.18,0.33501,100,1
3068141,3,14859,0,48321,52436,48416.51,52595.86,-95.51,-159.86,0.334887,100,1
3068181,3,14899,0,48323,52427,48416.32,52595.53,-93.32,-168.53,0.334767,100,1
3068221,3,14939,0,48323,52416,48416.14,52595.17,-93.14,-179.17,0.334651,100,1
3068261,3,14979,0,48321,52435,48415.95,52594.85,-94.95,-159.85,0.334539,100,1
3068301,3,15019,0,48330,52478,48415.78,52594.62,-85.78,-116.62,0.334431,100,1
3068341,3,15059,0,48350,52520,48415.65,52594.47,-65.65,-74.47,0.334325,100,1
3068381,3,15099,0,48370,52570,48415.56,52594.42,-45.56,-24.42,0.33422,100,1
3068422,3,15140,0,48387,52609,48415.5,52594.45,-28.5,14.55,0.334116,100,1
3068462,3,15180,0,48402,52644,48415.48,52594.55,-13.48,49.45,0.334013,100,1
3068502,3,15220,0,48416,52678,48415.48,52594.72,0.52,83.28,0.333909,100,1
3068542,3,15260,0,48425,52714,48415.5,52594.96,9.5,119.04,0.333806,100,1
3068582,3,15300,0,48441,52743,48415.55,52595.26,25.45,147.74,0.333702,100,1
3068622,3,15340,0,48457,52778,48415.64,52595.62,41.36,182.37,0.333597,100,1
3068662,3,15380,0,48472,52816,48415.75,52596.07,56.25,219.93,0.333493,100,1
3068702,3,15420,0,48489,52862,48415.9,52596.6,73.1,265.4,0.33339,100,1
3068742,3,15460,0,48509,52909,48416.09,52597.23,92.91,311.77,0.333287,100,1
3068782,3,15500,0,48526,52899,48416.31,52597.83,109.69,301.17,0.333187,100,1
3068822,3,15540,0,48491,52720,48416.46,52598.08,74.54,121.92,0.33309,100,1
3068862,3,15580,0,48400,52500,48416.43,52597.88,-16.43,-97.88,0.332994,100,1
3068902,3,15620,0,48328,52392,48416.25,52597.47,-88.25,-205.47,0.3329,100,1
3068942,3,15660,0,48304,52374,48416.03,52597.03,-112.03,-223.03,0.332811,100,1
3068982,3,15700,0,48309,52378,48415.82,52596.59,-106.82,-218.59,0.332727,100,1
3069022,3,15740,0,48313,52396,48415.62,52596.19,-102.62,-200.19,0.332647,100,1
3069062,3,15780,0,48323,52432,48415.43,52595.86,-92.43,-163.86,0.332571,100,1
3069102,3,15820,0,48329,52442,48415.26,52595.56,-86.26,-153.56,0.332499,100,1
3069142,3,15860,0,48324,52422,48415.08,52595.21,-91.08,-173.21,0.33243,100,1
3069183,3,15901,0,48317,52411,48414.89,52594.84,-97.89,-183.84,0.332365,100,1
3069223,3,15941,0,48317,52428,48414.69,52594.51,-97.69,-166.51,0.332304,100,1
3069263,3,15981,0,48326,52469,48414.52,52594.26,-88.52,-125.26,0.332248,100,1
3069303,3,16021,0,48343,52525,48414.37,52594.12,-71.37,-69.12,0.332194,100,1
3069343,3,16061,0,48368,52572,48414.29,52594.08,-46.29,-22.08,0.332142,100,1
3069383,3,16101,0,48388,52618,48414.23,52594.13,-26.23,23.87,0.33209,100,1
3069423,3,16141,0,48404,52661,48414.21,52594.27,-10.21,66.73,0.332039,100,1
3069463,3,16181,0,48424,52699,48414.23,52594.48,9.77,104.52,0.331987,100,1
3069503,3,16221,0,48443,52728,48414.29,52594.75,28.71,133.25,0.331935,100,1
3069543,3,16261,0,48459,52756,48414.38,52595.07,44.62,160.93,0.331882,100,1
3069583,3,16301,0,48470,52799,48414.5,52595.48,55.5,203.52,0.33183,100,1
3069623,3,16341,0,48488,52837,48414.64,52595.97,73.36,241.03,0.331778,100,1
3069663,3,16381,0,48504,52817,48414.82,52596.41,89.18,220.59,0.331729,100,1
3069703,3,16421,0,48461,52631,48414.92,52596.48,46.08,34.52,0.331681,100,1
3069743,3,16461,0,48360,52414,48414.81,52596.12,-54.81,-182.12,0.331633,100,1
3069783,3,16501,0,48291,52294,48414.56,52595.52,-123.56,-301.52,0.331591,100,1
3069823,3,16541,0,48262,52268,48414.26,52594.87,-152.26,-326.87,0.331557,100,1
3069864,3,16582,0,48260,52271,48413.95,52594.22,-153.95,-323.22,0.331532,100,1
3069904,3,16622,0,48259,52283,48413.64,52593.6,-154.64,-310.6,0.331517,100,1
3069944,3,16662,0,48269,52332,48413.35,52593.08,-144.35,-261.08,0.33151,100,1
3069984,3,16702,0,48285,52352,48413.1,52592.6,-128.1,-240.6,0.33151,100,1
3070024,3,16742,0,48288,52345,48412.85,52592.11,-124.85,-247.11,0.331516,100,1
3070064,3,16782,0,48283,52339,48412.59,52591.6,-129.59,-252.6,0.331529,100,1
3070104,3,16822,0,48285,52368,48412.34,52591.16,-127.34,-223.16,0.331548,100,1
3070144,3,16862,0,48298,52412,48412.11,52590.8,-114.11,-178.8,0.331573,100,1
3070184,3,16902,0,48325,52468,48411.94,52590.55,-86.94,-122.55,0.331602,100,1
3070224,3,16942,0,48352,52518,48411.82,52590.41,-59.82,-72.41,0.331632,100,1
3070264,3,16982,0,48376,52562,48411.75,52590.36,-35.75,-28.36,0.331663,100,1
3070304,3,17022,0,48393,52607,48411.71,52590.39,-18.71,16.61,0.331694,100,1
3070344,3,17062,0,48407,52644,48411.71,52590.5,-4.71,53.5,0.331725,100,1
3070384,3,17102,0,48423,52674,48411.73,52590.67,11.27,83.33,0.331755,100,1
3070424,3,17142,0,48438,52707,48411.79,52590.9,26.21,116.1,0.331785,100,1
3070464,3,17182,0,48450,52739,48411.86,52591.2,38.14,147.8,0.331815,100,1
3070504,3,17222,0,48466,52772,48411.97,52591.56,54.03,180.44,0.331844,100,1
3070544,3,17262,0,48479,52813,48412.11,52592.01,66.89,220.99,0.331873,100,1
3070585,3,17303,0,48492,52851,48412.27,52592.53,79.73,258.47,0.331901,100,1
3070625,3,17343,0,48512,52863,48412.47,52593.07,99.53,269.93,0.331931,100,1
3070665,3,17383,0,48479,52690,48412.6,52593.27,66.4,96.73,0.331964,100,1
3070705,3,17423,0,48379,52435,48412.54,52592.95,-33.54,-157.95,0.331995,100,1
3070745,3,17463,0,48283,52271,48412.28,52592.31,-129.28,-321.31,0.332031,100,1
3070785,3,17503,0,48242,52213,48411.94,52591.55,-169.94,-378.55,0.332075,100,1
3070825,3,17543,0,48234,52214,48411.58,52590.8,-177.58,-376.8,0.332131,100,1
3070865,3,17583,0,48230,52217,48411.22,52590.05,-181.22,-373.05,0.332197,100,1
3070905,3,17623,0,48235,52242,48410.87,52589.36,-175.87,-347.36,0.332274,100,1
3070945,3,17663,0,48254,52273,48410.55,52588.72,-156.55,-315.72,0.332359,100,1
3070985,3,17703,0,48268,52278,48410.27,52588.1,-142.27,-310.1,0.33245,100,1
3071025,3,17743,0,48267,52267,48409.98,52587.46,-142.98,-320.46,0.332545,100,1
3071065,3,17783,0,48265,52281,48409.7,52586.85,-144.7,-305.85,0.332647,100,1
3071105,3,17823,0,48274,52318,48409.43,52586.31,-135.43,-268.31,0.332754,100,1
3071145,3,17863,0,48292,52372,48409.19,52585.89,-117.19,-213.89,0.332866,100,1
3071185,3,17903,0,48321,52424,48409.02,52585.56,-88.02,-161.56,0.33298,100,1
3071225,3,17943,0,48340,52472,48408.88,52585.34,-68.88,-113.34,0.333096,100,1
3071265,3,17983,0,48355,52511,48408.77,52585.19,-53.77,-74.19,0.333212,100,1
3071305,3,18023,0,48371,52551,48408.7,52585.12,-37.7,-34.12,0.33333,100,1
3071346,3,18064,0,48383,52581,48408.65,52585.11,-25.65,-4.11,0.333447,100,1
3071386,3,18104,0,48399,52613,48408.63,52585.17,-9.63,27.83,0.333564,100,1
3071426,3,18144,0,48414,52655,48408.64,52585.31,5.36,69.69,0.33368,100,1
3071466,3,18184,0,48428,52693,48408.68,52585.53,19.32,107.47,0.333795,100,1
3071506,3,18224,0,48443,52734,48408.75,52585.82,34.25,148.18,0.333909,100,1
3071546,3,18264,0,48461,52771,48408.86,52586.2,52.14,184.8,0.334022,100,1
3071586,3,18304,0,48480,52820,48409,52586.66,71,233.34,0.334133,100,1
3071626,3,18344,0,48497,52853,48409.18,52587.2,87.82,265.8,0.334244,100,1
3071666,3,18384,0,48488,52732,48409.34,52587.49,78.66,144.51,0.334358,100,1
3071706,3,18424,0,48401,52463,48409.32,52587.24,-8.32,-124.24,0.334469,100,1
3071746,3,18464,0,48301,52250,48409.11,52586.57,-108.11,-336.57,0.334579,100,1
3071786,3,18504,0,48240,52165,48408.77,52585.73,-168.77,-420.73,0.334694,100,1
3071826,3,18544,0,48229,52162,48408.41,52584.88,-179.41,-422.88,0.334816,100,1
3071866,3,18584,0,48224,52159,48408.04,52584.03,-184.04,-425.03,0.334944,100,1
3071906,3,18624,0,48226,52177,48407.68,52583.22,-181.68,-406.22,0.33508,100,1
3071946,3,18664,0,48242,52208,48407.35,52582.47,-165.35,-374.47,0.335221,100,1
3071986,3,18704,0,48250,52219,48407.04,52581.74,-157.04,-362.74,0.335367,100,1
3072026,3,18744,0,48245,52207,48406.71,52580.99,-161.71,-373.99,0.335518,100,1
3072066,3,18784,0,48246,52205,48406.39,52580.24,-160.39,-375.24,0.335672,100,1
3072106,3,18824,0,48250,52233,48406.08,52579.55,-156.08,-346.55,0.335831,100,1
3072147,3,18865,0,48268,52286,48405.8,52578.96,-137.8,-292.96,0.335994,100,1
3072187,3,18905,0,48292,52340,48405.58,52578.49,-113.58,-238.49,0.33616,100,1
3072227,3,18945,0,48310,52393,48405.39,52578.12,-95.39,-185.12,0.336328,100,1
3072267,3,18985,0,48328,52440,48405.23,52577.84,-77.23,-137.84,0.336497,100,1
3072307,3,19025,0,48350,52477,48405.12,52577.64,-55.13,-100.64,0.336667,100,1
3072347,3,19065,0,48367,52513,48405.05,52577.52,-38.05,-64.52,0.336837,100,1
3072387,3,19105,0,48383,52553,48405.01,52577.47,-22.01,-24.47,0.337007,100,1
3072427,3,19145,0,48399,52594,48405,52577.5,-6,16.5,0.337176,100,1
3072467,3,19185,0,48420,52635,48405.03,52577.62,14.97,57.38,0.337344,100,1
3072507,3,19225,0,48442,52676,48405.1,52577.82,36.9,98.18,0.337512,100,1
3072547,3,19265,0,48459,52709,48405.21,52578.09,53.79,130.91,0.33768,100,1
3072587,3,19305,0,48476,52750,48405.36,52578.43,70.64,171.57,0.337848,100,1
3072627,3,19345,0,48491,52794,48405.53,52578.86,85.47,215.14,0.338016,100,1
3072667,3,19385,0,48512,52828,48405.74,52579.36,106.26,248.64,0.338186,100,1
3072707,3,19425,0,48510,52717,48405.95,52579.64,104.05,137.36,0.33836,100,1
3072747,3,19465,0,48423,52441,48405.99,52579.36,17.01,-138.36,0.338532,100,1
3072787,3,19505,0,48311,52203,48405.8,52578.61,-94.8,-375.61,0.338698,100,1
3072827,3,19545,0,48237,52103,48405.46,52577.66,-168.46,-474.66,0.338863,100,1
3072867,3,19585,0,48215,52089,48405.09,52576.69,-190.09,-487.69,0.33903,100,1
3072908,3,19626,0,48216,52089,48404.71,52575.71,-188.71,-486.71,0.339199,100,1
3072948,3,19666,0,48218,52104,48404.34,52574.77,-186.34,-470.77,0.33937,100,1
3072988,3,19706,0,48228,52140,48403.99,52573.91,-175.99,-433.91,0.339545,100,1
3073028,3,19746,0,48238,52150,48403.66,52573.06,-165.66,-423.06,0.33972,100,1
3073068,3,19786,0,48234,52126,48403.32,52572.16,-169.32,-446.16,0.339896,100,1
3073108,3,19826,0,48232,52121,48402.98,52571.26,-170.98,-450.26,0.340073,100,1
3073148,3,19866,0,48235,52150,48402.64,52570.42,-167.64,-420.42,0.340251,100,1
3073188,3,19906,0,48249,52204,48402.34,52569.69,-153.34,-365.69,0.340432,100,1
3073228,3,19946,0,48280,52261,48402.09,52569.07,-122.09,-308.07,0.340613,100,1
3073268,3,19986,0,48310,52309,48401.91,52568.55,-91.91,-259.55,0.340793,100,1
3073308,3,20026,0,48329,52350,48401.77,52568.12,-72.77,-218.12,0.340971,100,1
3073348,3,20066,0,48346,52388,48401.66,52567.76,-55.66,-179.76,0.341149,100,1
3073388,3,20106,0,48362,52417,48401.58,52567.46,-39.58,-150.46,0.341325,100,1
3073428,3,20146,0,48371,52444,48401.52,52567.21,-30.52,-123.21,0.341501,100,1
3073468,3,20186,0,48385,52470,48401.49,52567.02,-16.49,-97.02,0.341675,100,1
3073508,3,20226,0,48398,52499,48401.48,52566.89,-3.48,-67.89,0.341848,100,1
3073548,3,20266,0,48408,52531,48401.5,52566.82,6.5,-35.82,0.342021,100,1
3073588,3,20306,0,48423,52568,48401.54,52566.82,21.46,1.18,0.342193,100,1
3073628,3,20346,0,48438,52609,48401.62,52566.91,36.38,42.09,0.342366,100,1
3073669,3,20387,0,48457,52615,48401.73,52567,55.27,48,0.342539,100,1
3073709,3,20427,0,48426,52430,48401.78,52566.73,24.22,-136.73,0.342711,100,1
3073749,3,20467,0,48321,52152,48401.62,52565.9,-80.62,-413.9,0.342873,100,1
3073789,3,20507,0,48217,51987,48401.25,52564.75,-184.25,-577.75,0.343029,100,1
3073829,3,20547,0,48184,51945,48400.82,52563.51,-216.82,-618.51,0.343182,100,1
3073869,3,20587,0,48184,51963,48400.39,52562.31,-216.39,-599.31,0.343335,100,1
3073909,3,20627,0,48196,51992,48399.98,52561.17,-203.98,-569.17,0.343486,100,1
3073949,3,20667,0,48211,52045,48399.61,52560.14,-188.61,-515.14,0.343638,100,1
3073989,3,20707,0,48233,52065,48399.27,52559.15,-166.27,-494.15,0.343787,100,1
3074029,3,20747,0,48235,52044,48398.95,52558.12,-163.95,-514.12,0.343931,100,1
3074069,3,20787,0,48226,52018,48398.6,52557.04,-172.6,-539.04,0.344072,100,1
3074109,3,20827,0,48227,52026,48398.26,52555.98,-171.26,-529.98,0.344208,100,1
3074149,3,20867,0,48240,52068,48397.94,52555.01,-157.94,-487.01,0.344342,100,1
3074189,3,20907,0,48256,52124,48397.66,52554.15,-141.66,-430.15,0.344474,100,1
3074229,3,20947,0,48285,52176,48397.44,52553.39,-112.44,-377.39,0.344602,100,1
3074269,3,20987,0,48303,52213,48397.25,52552.71,-94.25,-339.71,0.344728,100,1
3074309,3,21027,0,48320,52247,48397.1,52552.11,-77.1,-305.11,0.344851,100,1
3074349,3,21067,0,48335,52280,48396.98,52551.56,-61.98,-271.56,0.344971,100,1
3074389,3,21107,0,48342,52307,48396.87,52551.07,-54.87,-244.07,0.345088,100,1
3074430,3,21148,0,48352,52324,48396.78,52550.62,-44.78,-226.62,0.345203,100,1
3074470,3,21188,0,48364,52353,48396.71,52550.23,-32.71,-197.23,0.345316,100,1
3074510,3,21228,0,48375,52391,48396.67,52549.91,-21.67,-158.91,0.345427,100,1
3074550,3,21268,0,48387,52436,48396.65,52549.68,-9.65,-113.68,0.345538,100,1
3074590,3,21308,0,48407,52435,48396.68,52549.46,10.32,-114.46,0.345647,100,1
3074630,3,21348,0,48376,52237,48396.64,52548.83,-20.64,-311.83,0.34575,100,1
3074670,3,21388,0,48267,51931,48396.38,52547.6,-129.38,-616.6,0.345839,100,1
3074710,3,21428,0,48152,51735,48395.89,52545.97,-243.89,-810.97,0.345919,100,1
3074750,3,21468,0,48109,51672,48395.32,52544.23,-286.32,-872.23,0.345996,100,1
3074790,3,21508,0,48102,51657,48394.73,52542.45,-292.73,-885.45,0.34607,100,1
3074830,3,21548,0,48098,51649,48394.14,52540.67,-296.14,-891.67,0.346141,100,1
3074870,3,21588,0,48101,51679,48393.55,52538.95,-292.55,-859.95,0.346213,100,1
3074910,3,21628,0,48120,51718,48393,52537.3,-273,-819.3,0.346283,100,1
3074950,3,21668,0,48129,51714,48392.48,52535.66,-263.48,-821.66,0.34635,100,1
3074990,3,21708,0,48128,51693,48391.95,52533.98,-263.95,-840.98,0.346412,100,1
3075030,3,21748,0,48126,51701,48391.42,52532.31,-265.42,-831.31,0.346472,100,1
3075070,3,21788,0,48133,51737,48390.9,52530.72,-257.9,-793.72,0.34653,100,1
3075110,3,21828,0,48149,51792,48390.42,52529.25,-241.42,-737.25,0.346587,100,1
3075150,3,21868,0,48173,51845,48389.98,52527.88,-216.98,-682.88,0.346642,100,1
3075191,3,21909,0,48197,51884,48389.6,52526.59,-192.6,-642.59,0.346694,100,1
3075231,3,21949,0,48214,51926,48389.25,52525.39,-175.25,-599.39,0.346743,100,1
3075271,3,21989,0,48228,51957,48388.93,52524.26,-160.93,-567.26,0.346789,100,1
3075311,3,22029,0,48236,51991,48388.62,52523.19,-152.62,-532.19,0.346832,100,1
3075351,3,22069,0,48255,52022,48388.36,52522.19,-133.36,-500.19,0.346873,100,1
3075391,3,22109,0,48272,52050,48388.13,52521.25,-116.13,-471.25,0.34691,100,1
3075431,3,22149,0,48287,52091,48387.93,52520.39,-100.93,-429.39,0.346944,100,1
3075471,3,22189,0,48308,52136,48387.77,52519.62,-79.77,-383.62,0.346976,100,1
3075511,3,22229,0,48329,52182,48387.65,52518.95,-58.65,-336.95,0.347004,100,1
3075551,3,22269,0,48343,52134,48387.56,52518.18,-44.56,-384.18,0.347029,100,1
3075591,3,22309,0,48283,51872,48387.36,52516.89,-104.36,-644.89,0.347044,100,1
3075631,3,22349,0,48159,51577,48386.9,52515.01,-227.9,-938.01,0.347048,100,1
3075671,3,22389,0,48058,51417,48386.24,52512.82,-328.24,-1095.82,0.347047,100,1
3075711,3,22429,0,48025,51383,48385.52,52510.56,-360.52,-1127.56,0.347046,100,1
3075751,3,22469,0,48019,51373,48384.79,52508.29,-365.79,-1135.29,0.347046,100,1
3075791,3,22509,0,48016,51370,48384.05,52506.01,-368.05,-1136.01,0.347047,100,1
3075831,3,22549,0,48024,51418,48383.34,52503.84,-359.34,-1085.84,0.347049,100,1
3075871,3,22589,0,48046,51453,48382.66,52501.73,-336.66,-1048.73,0.347051,100,1
3075912,3,22630,0,48051,51447,48382,52499.62,-331,-1052.63,0.347053,100,1
3075952,3,22670,0,48046,51442,48381.33,52497.51,-335.33,-1055.51,0.347054,100,1
3075992,3,22710,0,48053,51471,48380.68,52495.46,-327.68,-1024.46,0.347055,100,1
3076032,3,22750,0,48066,51524,48380.05,52493.52,-314.05,-969.52,0.347057,100,1
3076072,3,22790,0,48096,51586,48379.48,52491.71,-283.48,-905.71,0.347057,100,1
3076112,3,22830,0,48125,51646,48378.97,52490.02,-253.97,-844.02,0.347056,100,1
3076152,3,22870,0,48145,51698,48378.51,52488.43,-233.51,-790.43,0.347054,100,1
3076192,3,22910,0,48165,51747,48378.08,52486.95,-213.08,-739.95,0.34705,100,1
3076232,3,22950,0,48187,51785,48377.7,52485.55,-190.7,-700.55,0.347043,100,1
3076272,3,22990,0,48213,51824,48377.37,52484.23,-164.37,-660.23,0.347033,100,1
3076312,3,23030,0,48230,51850,48377.08,52482.96,-147.08,-632.96,0.34702,100,1
3076352,3,23070,0,48245,51885,48376.82,52481.77,-131.82,-596.77,0.347004,100,1
3076392,3,23110,0,48258,51933,48376.58,52480.67,-118.58,-547.67,0.346986,100,1
3076432,3,23150,0,48279,51978,48376.38,52479.67,-97.38,-501.67,0.346964,100,1
3076472,3,23190,0,48295,51981,48376.22,52478.67,-81.22,-497.67,0.34694,100,1
3076512,3,23230,0,48261,51772,48375.99,52477.26,-114.99,-705.26,0.346909,100,1
3076552,3,23270,0,48143,51463,48375.53,52475.23,-232.53,-1012.23,0.346871,100,1
3076592,3,23310,0,48035,51272,48374.85,52472.83,-339.85,-1200.83,0.346829,100,1
3076632,3,23350,0,47985,51220,48374.07,52470.32,-389.07,-1250.32,0.346788,100,1
3076673,3,23391,0,47983,51222,48373.29,52467.83,-390.29,-1245.83,0.346748,100,1
3076713,3,23431,0,47978,51223,48372.5,52465.34,-394.5,-1242.34,0.346709,100,1
3076753,3,23471,0,47988,51276,48371.73,52462.96,-383.73,-1186.96,0.346673,100,1
3076793,3,23511,0,48010,51328,48371.01,52460.69,-361.01,-1132.69,0.346638,100,1
3076833,3,23551,0,48020,51329,48370.31,52458.43,-350.31,-1129.43,0.346603,100,1
3076873,3,23591,0,48027,51323,48369.62,52456.16,-342.62,-1133.16,0.346567,100,1
3076913,3,23631,0,48028,51341,48368.94,52453.93,-340.94,-1112.93,0.346532,100,1
3076953,3,23671,0,48038,51393,48368.28,52451.81,-330.28,-1058.81,0.346496,100,1
3076993,3,23711,0,48068,51458,48367.68,52449.82,-299.68,-991.82,0.34646,100,1
3077033,3,23751,0,48100,51518,48367.15,52447.96,-267.15,-929.96,0.346423,100,1
3077073,3,23791,0,48127,51562,48366.67,52446.19,-239.67,-884.19,0.346384,100,1
3077113,3,23831,0,48146,51608,48366.23,52444.52,-220.23,-836.52,0.346343,100,1
3077153,3,23871,0,48166,51644,48365.83,52442.91,-199.83,-798.91,0.346299,100,1
3077193,3,23911,0,48172,51669,48365.44,52441.37,-193.44,-772.37,0.346254,100,1
3077233,3,23951,0,48189,51690,48365.09,52439.87,-176.09,-749.87,0.346205,100,1
3077273,3,23991,0,48201,51721,48364.76,52438.43,-163.76,-717.43,0.346154,100,1
3077313,3,24031,0,48216,51767,48364.46,52437.09,-148.46,-670.09,0.346101,100,1
3077353,3,24071,0,48232,51813,48364.2,52435.84,-132.2,-622.84,0.346046,100,1
3077393,3,24111,0,48245,51772,48363.96,52434.52,-118.96,-662.52,0.345988,100,1
3077434,3,24152,0,48181,51516,48363.6,52432.68,-182.6,-916.68,0.345924,100,1
3077474,3,24192,0,48062,51238,48363,52430.29,-301,-1192.29,0.345856,100,1
3077514,3,24232,0,47974,51119,48362.22,52427.67,-388.22,-1308.67,0.345788,100,1
3077554,3,24272,0,47950,51109,48361.39,52425.04,-411.39,-1316.04,0.345722,100,1
3077594,3,24312,0,47956,51129,48360.59,52422.45,-404.59,-1293.45,0.345658,100,1
3077634,3,24352,0,47973,51165,48359.81,52419.93,-386.81,-1254.93,0.345595,100,1
3077674,3,24392,0,47992,51235,48359.08,52417.57,-367.08,-1182.57,0.345533,100,1
3077714,3,24432,0,48012,51255,48358.39,52415.24,-346.39,-1160.24,0.345471,100,1
3077754,3,24472,0,48015,51238,48357.7,52412.89,-342.7,-1174.89,0.345408,100,1
3077794,3,24512,0,48015,51232,48357.02,52410.53,-342.02,-1178.53,0.345345,100,1
3077834,3,24552,0,48023,51269,48356.35,52408.25,-333.35,-1139.25,0.345282,100,1
3077874,3,24592,0,48047,51322,48355.73,52406.08,-308.73,-1084.08,0.345217,100,1
3077914,3,24632,0,48071,51392,48355.17,52404.05,-284.17,-1012.05,0.345152,100,1
3077954,3,24672,0,48093,51435,48354.64,52402.11,-261.64,-967.11,0.345086,100,1
3077994,3,24712,0,48116,51477,48354.17,52400.27,-238.17,-923.27,0.345017,100,1
3078034,3,24752,0,48134,51511,48353.73,52398.49,-219.73,-887.49,0.344947,100,1
3078074,3,24792,0,48147,51539,48353.32,52396.77,-206.32,-857.77,0.344875,100,1
3078114,3,24832,0,48152,51567,48352.91,52395.11,-200.91,-828.11,0.344801,100,1
3078154,3,24872,0,48167,51593,48352.54,52393.51,-185.54,-800.51,0.344726,100,1
3078195,3,24913,0,48179,51636,48352.2,52392,-173.2,-756,0.344648,100,1
3078235,3,24953,0,48193,51673,48351.88,52390.56,-158.88,-717.56,0.344569,100,1
3078275,3,24993,0,48198,51594,48351.57,52388.97,-153.57,-794.97,0.344487,100,1
3078315,3,25033,0,48118,51314,48351.11,52386.82,-233.11,-1072.82,0.3444,100,1
3078355,3,25073,0,47989,51031,48350.39,52384.11,-361.39,-1353.11,0.344312,100,1
3078395,3,25113,0,47909,50903,48349.5,52381.15,-440.5,-1478.15,0.344225,100,1
3078435,3,25153,0,47883,50883,48348.57,52378.16,-465.57,-1495.16,0.34414,100,1
3078475,3,25193,0,47880,50887,48347.63,52375.18,-467.63,-1488.18,0.344058,100,1
3078515,3,25233,0,47879,50907,48346.7,52372.24,-467.7,-1465.24,0.34398,100,1
3078555,3,25273,0,47910,50976,48345.82,52369.45,-435.82,-1393.45,0.343904,100,1
3078595,3,25313,0,47935,51010,48345,52366.73,-410,-1356.73,0.343828,100,1
3078635,3,25353,0,47945,51008,48344.21,52364.02,-399.21,-1356.02,0.343753,100,1
3078675,3,25393,0,47941,51012,48343.4,52361.31,-402.4,-1349.31,0.343678,100,1
3078715,3,25433,0,47948,51046,48342.61,52358.68,-394.61,-1312.68,0.343604,100,1
3078755,3,25473,0,47973,51110,48341.87,52356.19,-368.87,-1246.19,0.343531,100,1
3078795,3,25513,0,48002,51172,48341.2,52353.82,-339.2,-1181.82,0.343457,100,1
3078835,3,25553,0,48026,51227,48340.57,52351.57,-314.57,-1124.57,0.343382,100,1
3078875,3,25593,0,48044,51271,48339.97,52349.41,-295.97,-1078.41,0.343307,100,1
3078915,3,25633,0,48067,51312,48339.43,52347.33,-272.43,-1035.33,0.34323,100,1
3078956,3,25674,0,48084,51349,48338.92,52345.34,-254.92,-996.34,0.343152,100,1
3078996,3,25714,0,48093,51383,48338.43,52343.41,-245.43,-960.41,0.343073,100,1
3079036,3,25754,0,48107,51420,48337.97,52341.57,-230.97,-921.57,0.342993,100,1
3079076,3,25794,0,48119,51462,48337.53,52339.81,-218.53,-877.81,0.342911,100,1
3079116,3,25834,0,48144,51503,48337.14,52338.14,-193.14,-835.14,0.342828,100,1
3079156,3,25874,0,48160,51548,48336.79,52336.56,-176.79,-788.56,0.342744,100,1
3079196,3,25914,0,48184,51604,48336.49,52335.1,-152.49,-731.1,0.342658,100,1
3079236,3,25954,0,48202,51600,48336.22,52333.63,-134.22,-733.63,0.34257,100,1
3079276,3,25994,0,48153,51356,48335.86,52331.68,-182.86,-975.68,0.342479,100,1
3079316,3,26034,0,48025,51031,48335.23,52329.07,-310.23,-1298.07,0.342385,100,1
3079356,3,26074,0,47918,50847,48334.4,52326.11,-416.4,-1479.11,0.342291,100,1
3079396,3,26114,0,47879,50804,48333.49,52323.07,-454.49,-1519.07,0.342198,100,1
3079436,3,26154,0,47871,50803,48332.57,52320.03,-461.57,-1517.03,0.342106,100,1
3079476,3,26194,0,47870,50808,48331.64,52317.01,-461.64,-1509.01,0.342017,100,1
3079516,3,26234,0,47880,50864,48330.74,52314.1,-450.74,-1450.1,0.34193,100,1
3079556,3,26274,0,47907,50918,48329.89,52311.31,-422.89,-1393.31,0.341845,100,1
3079596,3,26314,0,47923,50932,48329.08,52308.55,-406.08,-1376.55,0.34176,100,1
3079636,3,26354,0,47923,50931,48328.27,52305.8,-405.27,-1374.8,0.341675,100,1
3079676,3,26394,0,47922,50956,48327.46,52303.1,-405.46,-1347.1,0.341592,100,1
3079716,3,26434,0,47941,51006,48326.68,52300.51,-385.68,-1294.51,0.341509,100,1
3079757,3,26475,0,47973,51077,48325.98,52298.06,-352.98,-1221.06,0.341426,100,1
3079797,3,26515,0,47998,51144,48325.32,52295.75,-327.32,-1151.75,0.341344,100,1
3079837,3,26555,0,48025,51205,48324.72,52293.57,-299.72,-1088.57,0.341261,100,1
3079877,3,26595,0,48045,51253,48324.16,52291.5,-279.16,-1038.5,0.341177,100,1
3079917,3,26635,0,48069,51302,48323.66,52289.52,-254.66,-987.52,0.341093,100,1
3079957,3,26675,0,48088,51345,48323.19,52287.63,-235.19,-942.63,0.341007,100,1
3079997,3,26715,0,48106,51393,48322.75,52285.84,-216.75,-892.84,0.340921,100,1
3080037,3,26755,0,48127,51442,48322.36,52284.16,-195.36,-842.16,0.340833,100,1
3080077,3,26795,0,48148,51488,48322.02,52282.57,-174.02,-794.57,0.340744,100,1
3080117,3,26835,0,48175,51535,48321.72,52281.07,-146.72,-746.07,0.340654,100,1
3080157,3,26875,0,48199,51586,48321.48,52279.68,-122.48,-693.68,0.340563,100,1
3080197,3,26915,0,48220,51646,48321.27,52278.42,-101.27,-632.42,0.34047,100,1
3080237,3,26955,0,48242,51663,48321.12,52277.19,-79.12,-614.19,0.340376,100,1
3080277,3,26995,0,48206,51451,48320.89,52275.54,-114.89,-824.54,0.34028,100,1
3080317,3,27035,0,48086,51123,48320.42,52273.23,-234.42,-1150.23,0.34018,100,1
3080357,3,27075,0,47970,50925,48319.72,52270.54,-349.72,-1345.54,0.340079,100,1
3080397,3,27115,0,47920,50877,48318.92,52267.75,-398.92,-1390.75,0.339978,100,1
3080437,3,27155,0,47920,50889,48318.12,52264.99,-398.12,-1375.99,0.339878,100,1
3080477,3,27195,0,47921,50904,48317.33,52262.27,-396.33,-1358.27,0.339779,100,1
3080518,3,27236,0,47928,50954,48316.55,52259.66,-388.55,-1305.66,0.339681,100,1
3080558,3,27276,0,47955,51015,48315.83,52257.17,-360.83,-1242.17,0.339584,100,1
3080598,3,27316,0,47967,51029,48315.14,52254.72,-348.14,-1225.72,0.339487,100,1
3080638,3,27356,0,47967,51022,48314.44,52252.25,-347.44,-1230.25,0.33939,100,1
3080678,3,27396,0,47970,51046,48313.75,52249.84,-343.75,-1203.84,0.339294,100,1
3080718,3,27436,0,47988,51101,48313.11,52247.55,-325.11,-1146.55,0.339197,100,1
3080758,3,27476,0,48017,51176,48312.52,52245.41,-295.52,-1069.41,0.339101,100,1
3080798,3,27516,0,48049,51251,48311.99,52243.42,-262.99,-992.42,0.339004,100,1
3080838,3,27556,0,48079,51313,48311.52,52241.56,-232.52,-928.56,0.338907,100,1
3080878,3,27596,0,48110,51365,48311.12,52239.81,-201.12,-874.81,0.338808,100,1
3080918,3,27636,0,48133,51406,48310.77,52238.14,-177.77,-832.14,0.338709,100,1
3080958,3,27676,0,48148,51442,48310.44,52236.55,-162.44,-794.55,0.338608,100,1
3080998,3,27716,0,48164,51483,48310.15,52235.05,-146.15,-752.05,0.338506,100,1
3081038,3,27756,0,48183,51529,48309.89,52233.64,-126.89,-704.64,0.338403,100,1
3081078,3,27796,0,48198,51567,48309.67,52232.3,-111.67,-665.3,0.338299,100,1
3081118,3,27836,0,48221,51613,48309.5,52231.07,-88.5,-618.07,0.338193,100,1
3081158,3,27876,0,48230,51654,48309.34,52229.91,-79.34,-575.91,0.338087,100,1
3081198,3,27916,0,48251,51700,48309.22,52228.86,-58.22,-528.86,0.33798,100,1
3081238,3,27956,0,48269,51748,48309.14,52227.89,-40.14,-479.89,0.337872,100,1
3081279,3,27997,0,48281,51742,48309.09,52226.93,-28.09,-484.93,0.337763,100,1
3081319,3,28037,0,48238,51497,48308.95,52225.47,-70.95,-728.47,0.337652,100,1
3081359,3,28077,0,48105,51172,48308.54,52223.36,-203.54,-1051.36,0.337539,100,1
3081399,3,28117,0,47986,50981,48307.9,52220.88,-321.9,-1239.88,0.337424,100,1
3081439,3,28157,0,47944,50941,48307.17,52218.32,-363.17,-1277.32,0.337311,100,1
3081479,3,28197,0,47944,50952,48306.45,52215.79,-362.45,-1263.79,0.337199,100,1
3081519,3,28237,0,47952,50965,48305.74,52213.29,-353.74,-1248.29,0.337087,100,1
3081559,3,28277,0,47954,51016,48305.04,52210.89,-351.04,-1194.89,0.336976,100,1
3081599,3,28317,0,47984,51075,48304.39,52208.62,-320.39,-1133.63,0.336866,100,1
3081639,3,28357,0,48002,51093,48303.79,52206.39,-301.79,-1113.39,0.336755,100,1
3081679,3,28397,0,48007,51094,48303.2,52204.17,-296.2,-1110.17,0.336645,100,1
3081719,3,28437,0,48016,51109,48302.62,52201.98,-286.62,-1092.98,0.336534,100,1
3081759,3,28477,0,48026,51163,48302.07,52199.91,-276.07,-1036.91,0.336424,100,1
3081799,3,28517,0,48050,51236,48301.57,52197.98,-251.57,-961.98,0.336313,100,1
3081839,3,28557,0,48083,51300,48301.13,52196.19,-218.13,-896.19,0.336201,100,1
3081879,3,28597,0,48111,51361,48300.75,52194.52,-189.75,-833.52,0.336089,100,1
3081919,3,28637,0,48135,51409,48300.42,52192.95,-165.42,-783.95,0.335976,100,1
3081959,3,28677,0,48150,51460,48300.12,52191.48,-150.12,-731.48,0.335862,100,1
3081999,3,28717,0,48167,51501,48299.85,52190.11,-132.85,-689.11,0.335747,100,1
3082040,3,28758,0,48184,51543,48299.62,52188.81,-115.62,-645.81,0.335631,100,1
3082080,3,28798,0,48203,51587,48299.43,52187.61,-96.43,-600.61,0.335514,100,1
3082120,3,28838,0,48221,51636,48299.27,52186.51,-78.27,-550.51,0.335397,100,1
3082160,3,28878,0,48241,51696,48299.16,52185.53,-58.16,-489.53,0.335279,100,1
3082200,3,28918,0,48263,51745,48299.09,52184.65,-36.09,-439.65,0.33516,100,1
3082240,3,28958,0,48291,51798,48299.07,52183.87,-8.07,-385.87,0.335041,100,1
3082280,3,28998,0,48306,51852,48299.09,52183.21,6.91,-331.21,0.334922,100,1
3082320,3,29038,0,48329,51911,48299.15,52182.67,29.85,-271.67,0.334803,100,1
3082360,3,29078,0,48342,51862,48299.23,52182.03,42.77,-320.03,0.334684,100,1
3082400,3,29118,0,48273,51585,48299.18,52180.84,-26.18,-595.84,0.334563,100,1
3082440,3,29158,0,48150,51295,48298.89,52179.07,-148.89,-884.07,0.33444,100,1
3082480,3,29198,0,48060,51158,48298.41,52177.03,-238.41,-1019.03,0.334316,100,1
3082520,3,29238,0,48035,51146,48297.88,52174.96,-262.88,-1028.96,0.334192,100,1
3082560,3,29278,0,48036,51166,48297.36,52172.95,-261.36,-1006.95,0.334068,100,1
3082600,3,29318,0,48041,51184,48296.85,52170.97,-255.85,-986.97,0.333944,100,1
3082640,3,29358,0,48055,51238,48296.36,52169.11,-241.36,-931.11,0.333819,100,1
3082680,3,29398,0,48077,51284,48295.93,52167.34,-218.93,-883.34,0.333695,100,1
3082720,3,29438,0,48085,51285,48295.5,52165.58,-210.5,-880.58,0.33357,100,1
3082760,3,29478,0,48079,51283,48295.07,52163.81,-216.07,-880.81,0.333444,100,1
3082801,3,29519,0,48083,51311,48294.65,52162.11,-211.65,-851.11,0.333318,100,1
3082841,3,29559,0,48106,51364,48294.27,52160.52,-188.27,-796.52,0.333192,100,1
3082881,3,29599,0,48128,51441,48293.94,52159.08,-165.94,-718.08,0.333066,100,1
3082921,3,29639,0,48156,51518,48293.67,52157.8,-137.67,-639.8,0.332939,100,1
3082961,3,29679,0,48187,51578,48293.46,52156.64,-106.46,-578.64,0.332811,100,1
3083001,3,29719,0,48215,51634,48293.3,52155.59,-78.3,-521.59,0.332683,100,1
3083041,3,29759,0,48236,51683,48293.19,52154.65,-57.19,-471.65,0.332555,100,1
3083081,3,29799,0,48251,51734,48293.11,52153.81,-42.11,-419.81,0.332426,100,1
3083121,3,29839,0,48278,51781,48293.08,52153.06,-15.08,-372.06,0.332296,100,1
3083161,3,29879,0,48297,51823,48293.09,52152.4,3.91,-329.4,0.332167,100,1
3083201,3,29919,0,48316,51873,48293.13,52151.84,22.87,-278.84,0.332037,100,1
3083241,3,29959,0,48338,51920,48293.22,52151.38,44.78,-231.38,0.331908,100,1
3083281,3,29999,0,48361,51966,48293.36,52151.01,67.64,-185.01,0.331779,100,1
3083321,3,30039,1,48379,52012,48293.53,52150.73,85.47,-138.73,0.331651,100,1
3083361,3,30079,1,48398,52062,48293.74,52150.56,104.26,-88.56,0.331524,100,1
3083401,3,30119,1,48418,52100,48293.99,52150.46,124.01,-50.46,0.331399,100,1
3083441,3,30159,1,48399,51960,48294.2,52150.08,104.8,-190.08,0.331275,100,1
3083481,3,30199,1,48303,51660,48294.22,52149.1,8.78,-489.1,0.33115,100,1
3083521,3,30239,1,48186,51426,48294.01,52147.65,-108.01,-721.65,0.331023,100,1
3083562,3,30280,1,48122,51349,48293.66,52146.05,-171.66,-797.05,0.330895,100,1
3083602,3,30320,1,48114,51364,48293.3,52144.49,-179.3,-780.49,0.330767,100,1
3083642,3,30360,1,48118,51387,48292.96,52142.98,-174.96,-755.98,0.330638,100,1
3083682,3,30400,1,48127,51432,48292.62,52141.56,-165.62,-709.56,0.330509,100,1
3083722,3,30440,1,48152,51479,48292.34,52140.23,-140.34,-661.23,0.330379,100,1
3083762,3,30480,1,48163,51497,48292.09,52138.95,-129.09,-641.95,0.330248,100,1
3083802,3,30520,1,48163,51491,48291.83,52137.66,-128.83,-646.66,0.330117,100,1
3083842,3,30560,1,48162,51493,48291.57,52136.37,-129.57,-643.37,0.329985,100,1
3083882,3,30600,1,48172,51531,48291.33,52135.16,-119.33,-604.16,0.329853,100,1
3083922,3,30640,1,48200,51587,48291.15,52134.06,-91.15,-547.06,0.32972,100,1
3083962,3,30680,1,48226,51656,48291.02,52133.11,-65.02,-477.11,0.329586,100,1
3084002,3,30720,1,48249,51716,48290.94,52132.28,-41.94,-416.28,0.329452,100,1
3084042,3,30760,1,48272,51767,48290.91,52131.55,-18.91,-364.55,0.329318,100,1
3084082,3,30800,1,48291,51799,48290.91,52130.88,0.09,-331.88,0.329183,100,1
3084122,3,30840,1,48308,51836,48290.94,52130.29,17.06,-294.29,0.329048,100,1
3084162,3,30880,1,48321,51870,48291,52129.77,30,-259.77,0.328913,100,1
3084202,3,30920,1,48329,51901,48291.08,52129.32,37.92,-228.32,0.328778,100,1
3084242,3,30960,1,48346,51944,48291.19,52128.95,54.81,-184.95,0.328644,100,1
3084283,3,31001,1,48359,51981,48291.33,52128.65,67.67,-147.65,0.32851,100,1
3084323,3,31041,1,48375,52016,48291.5,52128.43,83.5,-112.43,0.328378,100,1
3084363,3,31081,1,48389,52067,48291.69,52128.31,97.31,-61.31,0.328246,100,1
3084403,3,31121,1,48406,52117,48291.92,52128.29,114.08,-11.29,0.328117,100,1
3084443,3,31161,1,48425,52142,48292.19,52128.32,132.81,13.68,0.327989,100,1
3084483,3,31201,1,48409,51977,48292.42,52128.02,116.58,-151.02,0.327863,100,1
3084523,3,31241,1,48305,51680,48292.45,52127.12,12.55,-447.12,0.327736,100,1
3084563,3,31281,1,48191,51466,48292.25,52125.8,-101.25,-659.8,0.327607,100,1
3084603,3,31321,1,48135,51405,48291.93,52124.36,-156.93,-719.36,0.327478,100,1
3084643,3,31361,1,48135,51415,48291.62,52122.94,-156.62,-707.94,0.327348,100,1
3084683,3,31401,1,48139,51421,48291.32,52121.54,-152.32,-700.54,0.327217,100,1
3084723,3,31441,1,48151,51459,48291.04,52120.21,-140.04,-661.21,0.327085,100,1
3084763,3,31481,1,48164,51478,48290.78,52118.93,-126.78,-640.93,0.326953,100,1
3084803,3,31521,1,48159,51470,48290.52,52117.64,-131.52,-647.64,0.32682,100,1
3084843,3,31561,1,48153,51444,48290.25,52116.29,-137.25,-672.29,0.326686,100,1
3084883,3,31601,1,48145,51436,48289.96,52114.93,-144.96,-678.93,0.326551,100,1
3084923,3,31641,1,48153,51467,48289.68,52113.64,-136.68,-646.64,0.326416,100,1
3084963,3,31681,1,48165,51516,48289.43,52112.44,-124.43,-596.44,0.32628,100,1
3085003,3,31721,1,48185,51564,48289.23,52111.35,-104.23,-547.35,0.326144,100,1
3085044,3,31762,1,48203,51604,48289.05,52110.34,-86.05,-506.34,0.326007,100,1
3085084,3,31802,1,48221,51637,48288.92,52109.39,-67.92,-472.39,0.32587,100,1
3085124,3,31842,1,48231,51665,48288.8,52108.5,-57.8,-443.5,0.325731,100,1
3085164,3,31882,1,48235,51689,48288.7,52107.67,-53.7,-418.67,0.325593,100,1
3085204,3,31922,1,48249,51708,48288.62,52106.87,-39.62,-398.87,0.325453,100,1
3085244,3,31962,1,48255,51733,48288.55,52106.12,-33.55,-373.12,0.325314,100,1
3085284,3,32002,1,48273,51768,48288.52,52105.45,-15.52,-337.45,0.325173,100,1
3085324,3,32042,1,48287,51811,48288.52,52104.86,-1.52,-293.86,0.325033,100,1
3085364,3,32082,1,48304,51811,48288.55,52104.28,15.45,-293.28,0.324892,100,1
3085404,3,32122,1,48273,51614,48288.52,52103.3,-15.52,-489.3,0.32475,100,1
3085444,3,32162,1,48165,51323,48288.28,52101.74,-123.28,-778.74,0.324606,100,1
3085484,3,32202,1,48063,51149,48287.83,52099.84,-224.83,-950.84,0.324461,100,1
3085524,3,32242,1,48021,51109,48287.3,52097.86,-266.3,-988.86,0.324317,100,1
3085564,3,32282,1,48020,51121,48286.76,52095.9,-266.76,-974.9,0.324175,100,1
3085604,3,32322,1,48015,51121,48286.22,52093.95,-271.22,-972.95,0.324034,100,1
3085644,3,32362,1,48027,51156,48285.7,52092.08,-258.7,-936.08,0.323895,100,1
3085684,3,32402,1,48046,51196,48285.23,52090.29,-239.23,-894.29,0.323756,100,1
3085724,3,32442,1,48051,51197,48284.76,52088.5,-233.76,-891.5,0.323619,100,1
3085764,3,32482,1,48045,51189,48284.28,52086.71,-239.28,-897.71,0.323481,100,1
3085804,3,32522,1,48049,51215,48283.81,52084.96,-234.81,-869.96,0.323345,100,1
3085845,3,32563,1,48067,51259,48283.38,52083.31,-216.38,-824.31,0.32321,100,1
3085885,3,32603,1,48091,51324,48283,52081.8,-192,-757.8,0.323074,100,1
3085925,3,32643,1,48115,51388,48282.66,52080.41,-167.66,-692.41,0.322939,100,1
3085965,3,32683,1,48141,51447,48282.38,52079.14,-141.38,-632.14,0.322803,100,1
3086005,3,32723,1,48163,51489,48282.14,52077.96,-119.14,-588.96,0.322667,100,1
3086045,3,32763,1,48185,51531,48281.95,52076.87,-96.95,-545.87,0.32253,100,1
3086085,3,32803,1,48203,51580,48281.79,52075.88,-78.79,-495.88,0.322392,100,1
3086125,3,32843,1,48217,51622,48281.66,52074.97,-64.66,-452.97,0.322254,100,1
3086165,3,32883,1,48237,51673,48281.57,52074.17,-44.57,-401.17,0.322115,100,1
3086205,3,32923,1,48262,51723,48281.54,52073.47,-19.54,-350.47,0.321976,100,1
3086245,3,32963,1,48289,51781,48281.55,52072.89,7.45,-291.89,0.321836,100,1
3086285,3,33003,1,48313,51807,48281.61,52072.36,31.39,-265.36,0.321697,100,1
3086325,3,33043,1,48289,51670,48281.63,52071.55,7.37,-401.55,0.321557,100,1
3086365,3,33083,1,48207,51456,48281.48,52070.32,-74.48,-614.32,0.321415,100,1
3086405,3,33123,1,48139,51347,48281.2,52068.88,-142.2,-721.88,0.321271,100,1
3086445,3,33163,1,48115,51347,48280.86,52067.44,-165.86,-720.44,0.321128,100,1
3086485,3,33203,1,48125,51384,48280.55,52066.07,-155.55,-682.07,0.320984,100,1
3086525,3,33243,1,48136,51424,48280.27,52064.79,-144.27,-640.79,0.32084,100,1
3086565,3,33283,1,48156,51492,48280.02,52063.64,-124.02,-571.64,0.320696,100,1
3086606,3,33324,1,48179,51522,48279.82,52062.56,-100.82,-540.56,0.320551,100,1
3086646,3,33364,1,48187,51534,48279.64,52061.51,-92.64,-527.51,0.320406,100,1
3086686,3,33404,1,48187,51556,48279.45,52060.5,-92.45,-504.5,0.32026,100,1
3086726,3,33444,1,48197,51599,48279.29,52059.58,-82.29,-460.58,0.320114,100,1
3086766,3,33484,1,48221,51666,48279.17,52058.79,-58.17,-392.79,0.319967,100,1
3086806,3,33524,1,48250,51740,48279.11,52058.16,-29.11,-318.16,0.31982,100,1
3086846,3,33564,1,48282,51810,48279.12,52057.66,2.88,-247.66,0.319673,100,1
3086886,3,33604,1,48308,51876,48279.18,52057.3,28.82,-181.3,0.319527,100,1
3086926,3,33644,1,48333,51935,48279.29,52057.05,53.71,-122.05,0.319381,100,1
3086966,3,33684,1,48360,51989,48279.45,52056.92,80.55,-67.92,0.319236,100,1
3087006,3,33724,1,48385,52030,48279.66,52056.87,105.34,-26.87,0.319093,100,1
3087046,3,33764,1,48401,52079,48279.91,52056.92,121.09,22.08,0.318953,100,1
3087086,3,33804,1,48416,52137,48280.18,52057.08,135.82,79.92,0.318815,100,1
3087126,3,33844,1,48439,52194,48280.5,52057.35,158.5,136.65,0.31868,100,1
3087166,3,33884,1,48468,52248,48280.87,52057.73,187.12,190.27,0.318551,100,1
3087206,3,33924,1,48478,52219,48281.27,52058.06,196.73,160.94,0.318426,100,1
3087246,3,33964,1,48428,52059,48281.56,52058.06,146.44,0.94,0.318305,100,1
3087286,3,34004,1,48356,51921,48281.71,52057.79,74.29,-136.79,0.318185,100,1
3087326,3,34044,1,48316,51876,48281.78,52057.43,34.22,-181.43,0.318065,100,1
3087367,3,34085,1,48311,51884,48281.84,52057.08,29.16,-173.08,0.317945,100,1
3087407,3,34125,1,48315,51896,48281.91,52056.76,33.09,-160.76,0.317826,100,1
3087447,3,34165,1,48317,51935,48281.98,52056.52,35.02,-121.52,0.317707,100,1
3087487,3,34205,1,48332,51986,48282.08,52056.38,49.92,-70.38,0.317588,100,1
3087527,3,34245,1,48352,52012,48282.22,52056.29,69.78,-44.29,0.317471,100,1
3087567,3,34285,1,48356,52029,48282.37,52056.24,73.63,-27.24,0.317354,100,1
3087607,3,34325,1,48368,52069,48282.54,52056.27,85.46,12.73,0.317239,100,1
3087647,3,34365,1,48382,52119,48282.74,52056.39,99.26,62.61,0.317126,100,1
3087687,3,34405,1,48410,52188,48282.99,52056.66,127.01,131.34,0.317015,100,1
3087727,3,34445,1,48438,52249,48283.3,52057.04,154.7,191.96,0.316908,100,1
3087767,3,34485,1,48464,52301,48283.67,52057.53,180.33,243.47,0.316806,100,1
3087807,3,34525,1,48483,52359,48284.07,52058.14,198.93,300.86,0.316708,100,1
3087847,3,34565,1,48505,52411,48284.51,52058.84,220.49,352.16,0.316617,100,1
3087887,3,34605,1,48524,52462,48284.99,52059.65,239.01,402.35,0.316533,100,1
3087927,3,34645,1,48541,52504,48285.5,52060.54,255.5,443.46,0.316456,100,1
3087967,3,34685,1,48564,52554,48286.06,52061.53,277.94,492.47,0.316389,100,1
3088007,3,34725,1,48577,52607,48286.64,52062.62,290.36,544.37,0.316331,100,1
3088047,3,34765,1,48601,52663,48287.27,52063.83,313.73,599.17,0.316283,100,1
3088087,3,34805,1,48615,52664,48287.93,52065.03,327.07,598.97,0.316247,100,1
3088128,3,34846,1,48586,52550,48288.52,52066,297.48,484,0.316221,100,1
3088168,3,34886,1,48526,52440,48289,52066.75,237,373.25,0.316201,100,1
3088208,3,34926,1,48494,52405,48289.41,52067.43,204.59,337.57,0.316186,100,1
3088248,3,34966,1,48483,52407,48289.8,52068.11,193.2,338.89,0.316175,100,1
3088288,3,35006,1,48485,52407,48290.19,52068.79,194.81,338.21,0.316168,100,1
3088328,3,35046,1,48488,52415,48290.59,52069.49,197.41,345.51,0.316165,100,1
3088368,3,35086,1,48498,52459,48291,52070.27,207,388.73,0.316166,100,1
3088408,3,35126,1,48512,52490,48291.45,52071.11,220.55,418.89,0.316172,100,1
3088448,3,35166,1,48520,52500,48291.9,52071.97,228.1,428.03,0.316184,100,1
3088488,3,35206,1,48526,52517,48292.37,52072.86,233.63,444.14,0.3162,100,1
3088528,3,35246,1,48542,52549,48292.87,52073.81,249.13,475.19,0.316223,100,1
3088568,3,35286,1,48558,52596,48293.4,52074.86,264.6,521.14,0.316252,100,1
3088608,3,35326,1,48577,52650,48293.97,52076.01,283.03,573.99,0.316288,100,1
3088648,3,35366,1,48591,52690,48294.57,52077.24,296.43,612.76,0.316331,100,1
3088688,3,35406,1,48612,52733,48295.2,52078.55,316.8,654.45,0.316382,100,1
3088728,3,35446,1,48629,52776,48295.87,52079.95,333.13,696.05,0.316443,100,1
3088768,3,35486,1,48642,52814,48296.57,52081.42,345.43,732.58,0.316512,100,1
3088808,3,35526,1,48656,52852,48297.29,52082.96,358.71,769.04,0.31659,100,1
3088848,3,35566,1,48670,52894,48298.03,52084.59,371.97,809.41,0.316678,100,1
3088889,3,35607,1,48686,52934,48298.81,52086.29,387.19,847.71,0.316775,100,1
3088929,3,35647,1,48704,52983,48299.62,52088.08,404.38,894.92,0.316882,100,1
3088969,3,35687,1,48722,53020,48300.47,52089.94,421.53,930.06,0.317,100,1
3089009,3,35727,1,48710,52948,48301.29,52091.66,408.71,856.34,0.317127,100,1
3089049,3,35767,1,48666,52844,48302.02,52093.17,363.98,750.83,0.317263,100,1
3089089,3,35807,1,48628,52802,48302.67,52094.59,325.33,707.41,0.317404,100,1
3089129,3,35847,1,48623,52809,48303.31,52096.02,319.69,712.98,0.31755,100,1
3089169,3,35887,1,48629,52811,48303.96,52097.45,325.04,713.55,0.317701,100,1
3089209,3,35927,1,48623,52814,48304.61,52098.88,318.39,715.12,0.317856,100,1
3089249,3,35967,1,48638,52835,48305.27,52100.35,332.73,734.65,0.318017,100,1
3089289,3,36007,1,48648,52856,48305.96,52101.86,342.04,754.14,0.318182,100,1
3089329,3,36047,1,48650,52865,48306.65,52103.39,343.35,761.61,0.318353,100,1
3089369,3,36087,1,48650,52867,48307.34,52104.92,342.66,762.08,0.318528,100,1
3089409,3,36127,1,48653,52886,48308.03,52106.48,344.97,779.52,0.318708,100,1
3089449,3,36167,1,48666,52917,48308.75,52108.1,357.25,808.9,0.318893,100,1
3089489,3,36207,1,48675,52953,48309.48,52109.79,365.52,843.21,0.319082,100,1
3089529,3,36247,1,48687,52986,48310.24,52111.55,376.76,874.45,0.319275,100,1
3089569,3,36287,1,48696,53021,48311.01,52113.37,384.99,907.63,0.319473,100,1
3089609,3,36327,1,48712,53051,48311.82,52115.24,400.18,935.76,0.319675,100,1
3089650,3,36368,1,48725,53081,48312.64,52117.18,412.36,963.82,0.319882,100,1
3089690,3,36408,1,48735,53112,48313.49,52119.17,421.51,992.83,0.320093,100,1
3089730,3,36448,1,48743,53146,48314.35,52121.22,428.65,1024.78,0.320308,100,1
3089770,3,36488,1,48751,53179,48315.23,52123.34,435.77,1055.66,0.320527,100,1
3089810,3,36528,1,48773,53219,48316.14,52125.53,456.86,1093.47,0.320749,100,1
3089850,3,36568,1,48789,53260,48317.09,52127.8,471.91,1132.2,0.320976,100,1
3089890,3,36608,1,48796,53250,48318.05,52130.05,477.95,1119.95,0.321208,100,1
3089930,3,36648,1,48765,53146,48318.95,52132.08,446.05,1013.92,0.321445,100,1
3089970,3,36688,1,48721,53068,48319.75,52133.96,401.25,934.04,0.321684,100,1
3090010,3,36728,1,48704,53051,48320.52,52135.79,383.48,915.21,0.321926,100,1
3090050,3,36768,1,48709,53056,48321.3,52137.63,387.7,918.37,0.322169,100,1
3090090,3,36808,1,48705,53056,48322.07,52139.47,382.93,916.53,0.322415,100,1
3090130,3,36848,1,48699,53063,48322.82,52141.32,376.18,921.68,0.322661,100,1
3090170,3,36888,1,48708,53078,48323.59,52143.2,384.41,934.8,0.32291,100,1
3090210,3,36928,1,48711,53082,48324.37,52145.07,386.63,936.93,0.323159,100,1
3090250,3,36968,1,48710,53078,48325.14,52146.94,384.86,931.06,0.32341,100,1
3090290,3,37008,1,48704,53080,48325.9,52148.81,378.1,931.19,0.323662,100,1
3090330,3,37048,1,48708,53105,48326.67,52150.72,381.33,954.28,0.323914,100,1
3090370,3,37088,1,48713,53126,48327.44,52152.68,385.56,973.32,0.324167,100,1
3090411,3,37129,1,48729,53155,48328.25,52154.68,400.75,1000.32,0.324421,100,1
3090451,3,37169,1,48735,53189,48329.06,52156.75,405.94,1032.25,0.324674,100,1
3090491,3,37209,1,48742,53219,48329.89,52158.88,412.11,1060.12,0.324928,100,1
3090531,3,37249,1,48751,53240,48330.73,52161.04,420.27,1078.96,0.325182,100,1
3090571,3,37289,1,48767,53274,48331.61,52163.27,435.39,1110.73,0.325435,100,1
3090611,3,37329,1,48772,53302,48332.49,52165.55,439.51,1136.45,0.325689,100,1
3090651,3,37369,1,48788,53334,48333.41,52167.89,454.59,1166.11,0.325943,100,1
3090691,3,37409,1,48799,53358,48334.34,52170.27,464.66,1187.73,0.326196,100,1
3090731,3,37449,1,48815,53387,48335.3,52172.7,479.7,1214.3,0.326451,100,1
3090771,3,37489,1,48823,53418,48336.28,52175.2,486.72,1242.8,0.326705,100,1
3090811,3,37529,1,48836,53434,48337.28,52177.71,498.72,1256.29,0.32696,100,1
3090851,3,37569,1,48820,53338,48338.24,52180.04,481.76,1157.96,0.327217,100,1
3090891,3,37609,1,48761,53224,48339.09,52182.12,421.91,1041.88,0.327475,100,1
3090931,3,37649,1,48728,53185,48339.87,52184.13,388.13,1000.87,0.327732,100,1
3090971,3,37689,1,48715,53188,48340.62,52186.14,374.38,1001.86,0.327988,100,1
3091011,3,37729,1,48718,53183,48341.37,52188.14,376.62,994.86,0.328243,100,1
3091052,3,37770,1,48715,53177,48342.12,52190.12,372.87,986.88,0.328497,100,1
3091092,3,37810,1,48715,53191,48342.87,52192.12,372.13,998.88,0.32875,100,1
3091132,3,37850,1,48712,53195,48343.61,52194.13,368.39,1000.87,0.329001,100,1
3091172,3,37890,1,48705,53185,48344.33,52196.11,360.67,988.89,0.329251,100,1
3091212,3,37930,1,48705,53179,48345.05,52198.08,359.95,980.92,0.329499,100,1
3091252,3,37970,1,48706,53190,48345.78,52200.07,360.22,989.93,0.329746,100,1
3091292,3,38010,1,48711,53223,48346.51,52202.11,364.49,1020.89,0.329991,100,1
3091332,3,38050,1,48723,53249,48347.26,52204.21,375.74,1044.79,0.330234,100,1
3091372,3,38090,1,48741,53275,48348.05,52206.35,392.95,1068.65,0.330475,100,1
3091412,3,38130,1,48747,53292,48348.85,52208.52,398.15,1083.48,0.330715,100,1
3091452,3,38170,1,48757,53319,48349.67,52210.75,407.33,1108.25,0.330954,100,1
3091492,3,38210,1,48763,53336,48350.5,52213,412.5,1123,0.331191,100,1
3091532,3,38250,1,48768,53358,48351.33,52215.29,416.67,1142.71,0.331427,100,1
3091572,3,38290,1,48773,53373,48352.18,52217.61,420.82,1155.39,0.331661,100,1
3091612,3,38330,1,48779,53394,48353.03,52219.96,425.97,1174.04,0.331894,100,1
3091652,3,38370,1,48790,53417,48353.91,52222.36,436.09,1194.64,0.332125,100,1
3091692,3,38410,1,48793,53444,48354.79,52224.8,438.21,1219.2,0.332354,100,1
3091732,3,38450,1,48807,53471,48355.69,52227.29,451.31,1243.71,0.332581,100,1
3091773,3,38491,1,48811,53464,48356.6,52229.77,454.4,1234.23,0.332807,100,1
3091813,3,38531,1,48782,53348,48357.45,52232.01,424.55,1115.99,0.333032,100,1
3091853,3,38571,1,48722,53248,48358.18,52234.04,363.82,1013.96,0.333256,100,1
3091893,3,38611,1,48688,53207,48358.84,52235.99,329.16,971.01,0.333478,100,1
3091933,3,38651,1,48683,53204,48359.49,52237.93,323.51,966.07,0.333698,100,1
3091973,3,38691,1,48681,53197,48360.14,52239.84,320.86,957.16,0.333915,100,1
3092013,3,38731,1,48676,53197,48360.77,52241.76,315.23,955.24,0.33413,100,1
3092053,3,38771,1,48680,53207,48361.41,52243.69,318.59,963.31,0.334343,100,1
3092093,3,38811,1,48683,53208,48362.05,52245.62,320.95,962.38,0.334554,100,1
3092133,3,38851,1,48682,53193,48362.7,52247.52,319.3,945.48,0.334762,100,1
3092173,3,38891,1,48675,53182,48363.32,52249.39,311.68,932.61,0.334969,100,1
3092213,3,38931,1,48677,53190,48363.95,52251.27,313.05,938.73,0.335173,100,1
3092253,3,38971,1,48678,53209,48364.58,52253.19,313.42,955.81,0.335376,100,1
3092293,3,39011,1,48688,53232,48365.23,52255.14,322.77,976.86,0.335576,100,1
3092333,3,39051,1,48698,53254,48365.89,52257.14,332.11,996.86,0.335774,100,1
3092373,3,39091,1,48702,53275,48366.57,52259.18,335.43,1015.82,0.33597,100,1
3092413,3,39131,1,48707,53292,48367.25,52261.25,339.75,1030.75,0.336163,100,1
3092453,3,39171,1,48709,53307,48367.93,52263.34,341.07,1043.66,0.336354,100,1
3092494,3,39212,1,48718,53322,48368.64,52265.46,349.36,1056.54,0.336543,100,1
3092534,3,39252,1,48720,53347,48369.34,52267.62,350.66,1079.38,0.336729,100,1
3092574,3,39292,1,48730,53370,48370.06,52269.83,359.94,1100.17,0.336912,100,1
3092614,3,39332,1,48738,53398,48370.8,52272.09,367.2,1125.91,0.337093,100,1
3092654,3,39372,1,48749,53425,48371.56,52274.39,377.44,1150.61,0.337272,100,1
3092694,3,39412,1,48764,53459,48372.34,52276.77,391.66,1182.23,0.337448,100,1
3092734,3,39452,1,48765,53467,48373.13,52279.15,391.87,1187.85,0.337621,100,1
3092774,3,39492,1,48749,53359,48373.88,52281.31,375.12,1077.69,0.337794,100,1
3092814,3,39532,1,48699,53230,48374.54,52283.21,324.46,946.79,0.337965,100,1
3092854,3,39572,1,48660,53163,48375.11,52284.97,284.89,878.03,0.338134,100,1
3092894,3,39612,1,48646,53160,48375.65,52286.72,270.35,873.28,0.338301,100,1
3092934,3,39652,1,48638,53154,48376.18,52288.45,261.82,865.55,0.338466,100,1
3092974,3,39692,1,48634,53137,48376.69,52290.15,257.31,846.85,0.338629,100,1
3093014,3,39732,1,48636,53142,48377.21,52291.86,258.79,850.14,0.33879,100,1
3093054,3,39772,1,48634,53135,48377.73,52293.54,256.27,841.46,0.338949,100,1
3093094,3,39812,1,48622,53119,48378.21,52295.2,243.79,823.8,0.339106,100,1
3093134,3,39852,1,48612,53100,48378.68,52296.8,233.32,803.2,0.33926,100,1
3093175,3,39893,1,48610,53101,48379.15,52298.41,230.85,802.59,0.339413,100,1
3093215,3,39933,1,48614,53119,48379.62,52300.05,234.38,818.95,0.339563,100,1
3093255,3,39973,1,48624,53145,48380.11,52301.75,243.89,843.25,0.339711,100,1
3093295,3,40013,1,48625,53173,48380.6,52303.49,244.4,869.51,0.339857,100,1
3093335,3,40053,1,48641,53194,48381.12,52305.27,259.87,888.73,0.34,100,1
3093375,3,40093,1,48648,53216,48381.66,52307.09,266.34,908.91,0.34014,100,1
3093415,3,40133,1,48655,53243,48382.21,52308.97,272.79,934.03,0.340279,100,1
3093455,3,40173,1,48665,53265,48382.77,52310.88,282.23,954.12,0.340414,100,1
3093495,3,40213,1,48678,53290,48383.36,52312.84,294.64,977.16,0.340548,100,1
3093535,3,40253,1,48689,53311,48383.98,52314.84,305.02,996.16,0.340679,100,1
3093575,3,40293,1,48700,53337,48384.61,52316.89,315.39,1020.11,0.340808,100,1
3093615,3,40333,1,48715,53363,48385.27,52318.98,329.73,1044.02,0.340935,100,1
3093655,3,40373,1,48723,53393,48385.95,52321.13,337.05,1071.87,0.341059,100,1
3093695,3,40413,1,48733,53393,48386.64,52323.27,346.36,1069.73,0.341183,100,1
3093735,3,40453,1,48709,53262,48387.29,52325.15,321.71,936.85,0.341305,100,1
3093775,3,40493,1,48645,53126,48387.8,52326.75,257.2,799.25,0.341427,100,1
3093815,3,40533,1,48601,53056,48388.23,52328.21,212.77,727.79,0.341546,100,1
3093855,3,40573,1,48582,53040,48388.62,52329.64,193.38,710.36,0.341665,100,1
3093895,3,40613,1,48580,53030,48389,52331.04,191,698.96,0.341781,100,1
3093935,3,40653,1,48574,53016,48389.37,52332.41,184.63,683.59,0.341896,100,1
3093976,3,40694,1,48569,53020,48389.73,52333.79,179.27,686.21,0.342009,100,1
3094016,3,40734,1,48568,53017,48390.09,52335.16,177.91,681.84,0.34212,100,1
3094056,3,40774,1,48564,53003,48390.44,52336.49,173.56,666.51,0.342229,100,1
3094096,3,40814,1,48552,52993,48390.76,52337.8,161.24,655.2,0.342336,100,1
3094136,3,40854,1,48553,52991,48391.09,52339.11,161.91,651.89,0.342442,100,1
3094176,3,40894,1,48558,53011,48391.42,52340.46,166.58,670.54,0.342546,100,1
3094216,3,40934,1,48568,53046,48391.78,52341.87,176.22,704.13,0.342647,100,1
3094256,3,40974,1,48583,53079,48392.16,52343.35,190.84,735.65,0.342747,100,1
3094296,3,41014,1,48598,53107,48392.57,52344.87,205.43,762.12,0.342845,100,1
3094336,3,41054,1,48614,53124,48393.02,52346.43,220.98,777.57,0.342941,100,1
3094376,3,41094,1,48625,53150,48393.48,52348.04,231.52,801.96,0.343035,100,1
3094416,3,41134,1,48628,53171,48393.95,52349.69,234.05,821.31,0.343127,100,1
3094456,3,41174,1,48639,53197,48394.45,52351.39,244.55,845.61,0.343218,100,1
3094496,3,41214,1,48648,53211,48394.95,52353.11,253.05,857.89,0.343307,100,1
3094536,3,41254,1,48660,53241,48395.48,52354.88,264.52,886.12,0.343394,100,1
3094576,3,41294,1,48671,53267,48396.04,52356.71,274.96,910.29,0.343479,100,1
3094616,3,41334,1,48677,53298,48396.6,52358.59,280.4,939.41,0.343563,100,1
3094656,3,41374,1,48684,53273,48397.17,52360.42,286.83,912.58,0.343646,100,1
3094697,3,41415,1,48649,53128,48397.68,52361.96,251.32,766.04,0.343728,100,1
3094737,3,41455,1,48584,52983,48398.05,52363.2,185.95,619.8,0.343809,100,1
3094777,3,41495,1,48538,52919,48398.33,52364.31,139.67,554.69,0.343889,100,1
3094817,3,41535,1,48525,52906,48398.59,52365.4,126.41,540.6,0.343967,100,1
3094857,3,41575,1,48521,52900,48398.83,52366.47,122.17,533.53,0.344044,100,1
3094897,3,41615,1,48518,52899,48399.07,52367.54,118.93,531.46,0.34412,100,1
3094937,3,41655,1,48519,52908,48399.31,52368.62,119.69,539.38,0.344194,100,1
3094977,3,41695,1,48521,52906,48399.56,52369.69,121.44,536.31,0.344267,100,1
3095017,3,41735,1,48520,52883,48399.8,52370.72,120.2,512.28,0.344339,100,1
3095057,3,41775,1,48517,52868,48400.04,52371.71,116.96,496.29,0.344409,100,1
3095097,3,41815,1,48517,52871,48400.27,52372.71,116.73,498.29,0.344478,100,1
3095137,3,41855,1,48527,52894,48400.52,52373.76,126.48,520.24,0.344546,100,1
3095177,3,41895,1,48533,52924,48400.79,52374.86,132.21,549.14,0.344613,100,1
3095217,3,41935,1,48547,52950,48401.08,52376.01,145.92,573.99,0.344678,100,1
3095257,3,41975,1,48558,52974,48401.4,52377.21,156.6,596.79,0.344742,100,1
3095297,3,42015,1,48569,52998,48401.73,52378.45,167.27,619.55,0.344805,100,1
3095337,3,42055,1,48574,53017,48402.08,52379.73,171.92,637.27,0.344867,100,1
3095377,3,42095,1,48584,53038,48402.45,52381.05,181.55,656.95,0.344927,100,1
3095418,3,42136,1,48595,53058,48402.83,52382.4,192.17,675.6,0.344986,100,1
3095458,3,42176,1,48601,53080,48403.23,52383.8,197.77,696.2,0.345044,100,1
3095498,3,42216,1,48609,53110,48403.64,52385.25,205.36,724.75,0.3451,100,1
3095538,3,42256,1,48622,53144,48404.08,52386.77,217.92,757.23,0.345155,100,1
3095578,3,42296,1,48638,53167,48404.55,52388.34,233.45,778.66,0.345209,100,1
3095618,3,42336,1,48626,53065,48405,52389.69,221,675.31,0.345262,100,1
3095658,3,42376,1,48568,52898,48405.32,52390.71,162.68,507.29,0.345316,100,1
3095698,3,42416,1,48508,52791,48405.53,52391.51,102.47,399.49,0.345368,100,1
3095738,3,42456,1,48482,52756,48405.68,52392.24,76.32,363.76,0.34542,100,1
3095778,3,42496,1,48482,52742,48405.84,52392.94,76.16,349.06,0.345471,100,1
3095818,3,42536,1,48482,52729,48405.99,52393.61,76.01,335.39,0.345522,100,1
3095858,3,42576,1,48479,52735,48406.14,52394.3,72.86,340.7,0.345571,100,1
3095898,3,42616,1,48485,52741,48406.3,52394.99,78.7,346.01,0.34562,100,1
3095938,3,42656,1,48479,52723,48406.45,52395.65,72.55,327.35,0.345669,100,1
3095978,3,42696,1,48474,52700,48406.58,52396.26,67.42,303.74,0.345717,100,1
3096018,3,42736,1,48469,52699,48406.71,52396.86,62.29,302.14,0.345764,100,1
3096058,3,42776,1,48472,52718,48406.84,52397.51,65.16,320.49,0.34581,100,1
3096098,3,42816,1,48482,52744,48406.99,52398.2,75.01,345.8,0.345856,100,1
3096138,3,42856,1,48496,52779,48407.17,52398.96,88.83,380.04,0.345901,100,1
3096179,3,42897,1,48508,52806,48407.37,52399.78,100.62,406.22,0.345945,100,1
3096219,3,42937,1,48520,52834,48407.6,52400.65,112.4,433.35,0.345989,100,1
3096259,3,42977,1,48527,52864,48407.84,52401.58,119.16,462.42,0.346031,100,1
3096299,3,43017,1,48539,52889,48408.1,52402.56,130.9,486.44,0.346073,100,1
3096339,3,43057,1,48549,52914,48408.38,52403.58,140.62,510.42,0.346114,100,1
3096379,3,43097,1,48567,52944,48408.7,52404.66,158.3,539.34,0.346154,100,1
3096419,3,43137,1,48576,52969,48409.04,52405.79,166.96,563.21,0.346194,100,1
3096459,3,43177,1,48588,53014,48409.4,52407.01,178.6,606.99,0.346232,100,1
3096499,3,43217,1,48611,53051,48409.8,52408.3,201.2,642.7,0.34627,100,1
3096539,3,43257,1,48618,53000,48410.22,52409.48,207.78,590.52,0.346309,100,1
3096579,3,43297,1,48576,52831,48410.55,52410.33,165.45,420.67,0.346348,100,1
3096619,3,43337,1,48507,52685,48410.75,52410.88,96.25,274.12,0.346387,100,1
3096659,3,43377,1,48467,52620,48410.86,52411.3,56.14,208.7,0.346426,100,1
3096699,3,43417,1,48450,52610,48410.94,52411.7,39.06,198.3,0.346464,100,1
3096739,3,43457,1,48450,52599,48411.02,52412.07,38.98,186.93,0.346502,100,1
3096779,3,43497,1,48449,52597,48411.1,52412.44,37.9,184.56,0.34654,100,1
3096819,3,43537,1,48453,52602,48411.18,52412.82,41.82,189.18,0.346578,100,1
3096859,3,43577,1,48447,52601,48411.26,52413.2,35.74,187.8,0.346615,100,1
3096899,3,43617,1,48443,52580,48411.32,52413.54,31.68,166.46,0.346652,100,1
3096939,3,43657,1,48437,52569,48411.37,52413.85,25.62,155.15,0.346688,100,1
3096980,3,43698,1,48439,52579,48411.43,52414.18,27.57,164.82,0.346724,100,1
3097020,3,43738,1,48449,52612,48411.51,52414.58,37.49,197.42,0.34676,100,1
3097060,3,43778,1,48467,52654,48411.62,52415.06,55.38,238.94,0.346796,100,1
3097100,3,43818,1,48477,52694,48411.75,52415.62,65.25,278.38,0.346831,100,1
3097140,3,43858,1,48494,52722,48411.92,52416.23,82.08,305.77,0.346865,100,1
3097180,3,43898,1,48511,52758,48412.12,52416.91,98.88,341.09,0.346899,100,1
3097220,3,43938,1,48522,52790,48412.34,52417.66,109.66,372.34,0.346933,100,1
3097260,3,43978,1,48534,52822,48412.59,52418.47,121.41,403.53,0.346967,100,1
3097300,3,44018,1,48549,52846,48412.86,52419.32,136.14,426.68,0.347,100,1
3097340,3,44058,1,48564,52875,48413.16,52420.24,150.84,454.76,0.347033,100,1
3097380,3,44098,1,48580,52907,48413.5,52421.21,166.5,485.79,0.347066,100,1
3097420,3,44138,1,48596,52943,48413.87,52422.26,182.13,520.74,0.347099,100,1
3097460,3,44178,1,48608,52959,48414.26,52423.33,193.74,535.67,0.347133,100,1
3097500,3,44218,1,48590,52838,48414.61,52424.16,175.39,413.84,0.347168,100,1
3097540,3,44258,1,48521,52652,48414.82,52424.62,106.18,227.38,0.347204,100,1
3097580,3,44298,1,48460,52533,48414.91,52424.84,45.09,108.16,0.34724,100,1
3097620,3,44338,1,48434,52499,48414.95,52424.99,19.05,74.01,0.347275,100,1
3097660,3,44378,1,48424,52490,48414.97,52425.12,9.03,64.88,0.34731,100,1
3097700,3,44418,1,48420,52482,48414.98,52425.23,5.02,56.77,0.347345,100,1
3097741,3,44459,1,48423,52490,48415,52425.37,8,64.63,0.34738,100,1
3097781,3,44499,1,48427,52500,48415.02,52425.52,11.98,74.48,0.347415,100,1
3097821,3,44539,1,48423,52484,48415.04,52425.64,7.96,58.36,0.34745,100,1
3097861,3,44579,1,48419,52477,48415.05,52425.74,3.95,51.26,0.347484,100,1
3097901,3,44619,1,48416,52481,48415.05,52425.86,0.95,55.14,0.347519,100,1
3097941,3,44659,1,48425,52508,48415.07,52426.02,9.93,81.98,0.347553,100,1
3097981,3,44699,1,48443,52549,48415.13,52426.27,27.87,122.73,0.347587,100,1
3098021,3,44739,1,48459,52591,48415.22,52426.6,43.78,164.4,0.347621,100,1
3098061,3,44779,1,48475,52633,48415.34,52427.01,59.66,205.99,0.347655,100,1
3098101,3,44819,1,48498,52669,48415.51,52427.5,82.49,241.5,0.347688,100,1
3098141,3,44859,1,48511,52695,48415.7,52428.03,95.3,266.97,0.347722,100,1
3098181,3,44899,1,48526,52718,48415.92,52428.61,110.08,289.39,0.347756,100,1
3098221,3,44939,1,48536,52751,48416.16,52429.26,119.84,321.74,0.34779,100,1
3098261,3,44979,1,48546,52782,48416.43,52429.96,129.57,352.04,0.347824,100,1
3098301,3,45019,1,48558,52814,48416.71,52430.73,141.29,383.27,0.347859,100,1
3098341,3,45059,1,48575,52848,48417.03,52431.57,157.97,416.43,0.347894,100,1
3098381,3,45099,1,48590,52880,48417.37,52432.47,172.62,447.53,0.347931,100,1
3098421,3,45139,1,48599,52852,48417.74,52433.31,181.26,418.69,0.347968,100,1
3098461,3,45179,1,48548,52675,48418,52433.79,130,241.21,0.348007,100,1
3098501,3,45219,1,48474,52500,48418.11,52433.93,55.89,66.07,0.348047,100,1
3098542,3,45260,1,48421,52417,48418.12,52433.89,2.88,-16.89,0.348086,100,1
3098582,3,45300,1,48406,52400,48418.1,52433.83,-12.1,-33.83,0.348125,100,1
3098622,3,45340,1,48399,52393,48418.06,52433.75,-19.06,-40.75,0.348164,100,1
3098662,3,45380,1,48397,52395,48418.02,52433.67,-21.02,-38.67,0.348202,100,1
3098702,3,45420,1,48403,52411,48418,52433.63,-15,-22.63,0.348241,100,1
3098742,3,45460,1,48412,52409,48417.98,52433.58,-5.98,-24.58,0.34828,100,1
3098782,3,45500,1,48406,52402,48417.96,52433.52,-11.96,-31.52,0.348318,100,1
3098822,3,45540,1,48403,52403,48417.93,52433.46,-14.93,-30.46,0.348356,100,1
3098862,3,45580,1,48411,52426,48417.92,52433.45,-6.92,-7.45,0.348395,100,1
3098902,3,45620,1,48427,52461,48417.94,52433.5,9.06,27.5,0.348433,100,1
3098942,3,45660,1,48451,52498,48418.01,52433.63,32.99,64.37,0.348471,100,1
3098982,3,45700,1,48466,52544,48418.11,52433.86,47.89,110.14,0.348509,100,1
3099022,3,45740,1,48482,52579,48418.23,52434.15,63.77,144.85,0.348547,100,1
3099062,3,45780,1,48495,52614,48418.39,52434.51,76.61,179.49,0.348586,100,1
3099102,3,45820,1,48507,52642,48418.57,52434.93,88.43,207.07,0.348625,100,1
3099142,3,45860,1,48518,52666,48418.77,52435.39,99.23,230.61,0.348664,100,1
3099182,3,45900,1,48526,52697,48418.98,52435.91,107.02,261.09,0.348704,100,1
3099222,3,45940,1,48539,52725,48419.23,52436.49,119.77,288.51,0.348744,100,1
3099262,3,45980,1,48553,52761,48419.5,52437.14,133.5,323.86,0.348785,100,1
3099303,3,46021,1,48568,52795,48419.79,52437.86,148.21,357.14,0.348827,100,1
3099343,3,46061,1,48581,52833,48420.12,52438.65,160.88,394.35,0.348871,100,1
3099383,3,46101,1,48585,52797,48420.45,52439.37,164.55,357.63,0.348916,100,1
3099423,3,46141,1,48539,52613,48420.69,52439.72,118.31,173.28,0.348962,100,1
3099463,3,46181,1,48461,52432,48420.77,52439.7,40.23,-7.7,0.349009,100,1
3099503,3,46221,1,48413,52355,48420.75,52439.54,-7.75,-84.54,0.349056,100,1
3099543,3,46261,1,48395,52340,48420.7,52439.34,-25.7,-99.34,0.349102,100,1
3099583,3,46301,1,48396,52335,48420.66,52439.13,-24.66,-104.13,0.349148,100,1
3099623,3,46341,1,48392,52330,48420.6,52438.91,-28.6,-108.91,0.349194,100,1
3099663,3,46381,1,48403,52351,48420.57,52438.73,-17.57,-87.73,0.349239,100,1
3099703,3,46421,1,48408,52347,48420.54,52438.55,-12.54,-91.55,0.349284,100,1
3099743,3,46461,1,48408,52335,48420.52,52438.34,-12.52,-103.34,0.349329,100,1
3099783,3,46501,1,48397,52332,48420.47,52438.13,-23.47,-106.13,0.349374,100,1
3099823,3,46541,1,48405,52354,48420.44,52437.96,-15.44,-83.96,0.349419,100,1
3099863,3,46581,1,48422,52390,48420.45,52437.87,1.55,-47.87,0.349463,100,1
3099903,3,46621,1,48436,52430,48420.48,52437.86,15.52,-7.86,0.349507,100,1
3099943,3,46661,1,48451,52468,48420.54,52437.92,30.46,30.08,0.349551,100,1
3099983,3,46701,1,48466,52506,48420.63,52438.05,45.37,67.95,0.349596,100,1
3100023,3,46741,1,48480,52535,48420.75,52438.25,59.25,96.75,0.34964,100,1
3100064,3,46782,1,48486,52556,48420.89,52438.49,65.11,117.51,0.349685,100,1
3100104,3,46822,1,48499,52592,48421.04,52438.8,77.96,153.2,0.349731,100,1
3100144,3,46862,1,48510,52624,48421.22,52439.17,88.78,184.83,0.349777,100,1
3100184,3,46902,1,48520,52659,48421.42,52439.61,98.58,219.39,0.349823,100,1
3100224,3,46942,1,48536,52690,48421.65,52440.11,114.35,249.89,0.349871,100,1
3100264,3,46982,1,48551,52729,48421.91,52440.69,129.09,288.31,0.34992,100,1
3100304,3,47022,1,48568,52759,48422.21,52441.33,145.79,317.67,0.34997,100,1
3100344,3,47062,1,48571,52732,48422.51,52441.91,148.49,290.09,0.350023,100,1
3100384,3,47102,1,48532,52554,48422.73,52442.14,109.27,111.86,0.350078,100,1
3100424,3,47142,1,48455,52357,48422.79,52441.97,32.21,-84.97,0.350132,100,1
3100464,3,47182,1,48401,52266,48422.75,52441.62,-21.75,-175.62,0.350186,100,1
3100504,3,47222,1,48382,52239,48422.67,52441.21,-40.67,-202.21,0.350238,100,1
3100544,3,47262,1,48376,52232,48422.57,52440.8,-46.57,-208.8,0.35029,100,1
3100584,3,47302,1,48373,52227,48422.48,52440.37,-49.48,-213.37,0.350342,100,1
3100624,3,47342,1,48380,52248,48422.39,52439.99,-42.39,-191.99,0.350393,100,1
3100664,3,47382,1,48384,52248,48422.32,52439.61,-38.32,-191.61,0.350443,100,1
3100704,3,47422,1,48384,52238,48422.25,52439.2,-38.25,-201.2,0.350492,100,1
3100744,3,47462,1,48376,52229,48422.16,52438.79,-46.16,-209.79,0.35054,100,1
3100784,3,47502,1,48379,52249,48422.07,52438.41,-43.07,-189.41,0.350588,100,1
3100825,3,47543,1,48390,52284,48422.01,52438.1,-32.01,-154.1,0.350636,100,1
3100865,3,47583,1,48409,52329,48421.98,52437.88,-12.98,-108.88,0.350683,100,1
3100905,3,47623,1,48428,52373,48422,52437.75,6,-64.75,0.350729,100,1
3100945,3,47663,1,48438,52415,48422.03,52437.71,15.97,-22.71,0.350776,100,1
3100985,3,47703,1,48453,52444,48422.09,52437.72,30.91,6.28,0.350823,100,1
3101025,3,47743,1,48469,52475,48422.19,52437.8,46.81,37.2,0.35087,100,1
3101065,3,47783,1,48482,52506,48422.31,52437.93,59.69,68.07,0.350917,100,1
3101105,3,47823,1,48493,52546,48422.45,52438.15,70.55,107.85,0.350965,100,1
3101145,3,47863,1,48513,52580,48422.64,52438.44,90.36,141.56,0.351015,100,1
3101185,3,47903,1,48528,52611,48422.85,52438.79,105.15,172.21,0.351066,100,1
3101225,3,47943,1,48543,52648,48423.09,52439.2,119.91,208.8,0.351119,100,1
3101265,3,47983,1,48561,52685,48423.37,52439.7,137.63,245.3,0.351174,100,1
3101305,3,48023,1,48574,52662,48423.67,52440.14,150.33,221.86,0.351233,100,1
3101345,3,48063,1,48526,52480,48423.87,52440.22,102.12,39.78,0.351295,100,1
3101385,3,48103,1,48440,52258,48423.91,52439.86,16.09,-181.86,0.351355,100,1
3101425,3,48143,1,48373,52149,48423.81,52439.28,-50.81,-290.28,0.351413,100,1
3101465,3,48183,1,48348,52122,48423.66,52438.64,-75.66,-316.64,0.35147,100,1
3101505,3,48223,1,48338,52109,48423.49,52437.99,-85.49,-328.99,0.351525,100,1
3101545,3,48263,1,48337,52099,48423.32,52437.31,-86.32,-338.31,0.351579,100,1
3101586,3,48304,1,48335,52123,48423.14,52436.68,-88.14,-313.68,0.351632,100,1
3101626,3,48344,1,48346,52126,48422.99,52436.06,-76.99,-310.06,0.351683,100,1
3101666,3,48384,1,48344,52114,48422.83,52435.42,-78.83,-321.42,0.351733,100,1
3101706,3,48424,1,48337,52116,48422.66,52434.78,-85.66,-318.78,0.351781,100,1
3101746,3,48464,1,48343,52136,48422.5,52434.18,-79.5,-298.18,0.351829,100,1
3101786,3,48504,1,48362,52178,48422.38,52433.67,-60.38,-255.67,0.351875,100,1
3101826,3,48544,1,48379,52229,48422.3,52433.27,-43.3,-204.27,0.35192,100,1
3101866,3,48584,1,48398,52280,48422.25,52432.96,-24.25,-152.96,0.351965,100,1
3101906,3,48624,1,48416,52319,48422.24,52432.73,-6.24,-113.73,0.352009,100,1
3101946,3,48664,1,48439,52353,48422.27,52432.58,16.73,-79.58,0.352053,100,1
3101986,3,48704,1,48454,52382,48422.34,52432.48,31.66,-50.48,0.352097,100,1
3102026,3,48744,1,48466,52409,48422.43,52432.43,43.57,-23.43,0.352142,100,1
3102066,3,48784,1,48480,52440,48422.55,52432.45,57.45,7.55,0.352187,100,1
3102106,3,48824,1,48488,52470,48422.68,52432.52,65.32,37.48,0.352233,100,1
3102146,3,48864,1,48502,52505,48422.84,52432.67,79.16,72.33,0.35228,100,1
3102186,3,48904,1,48520,52536,48423.04,52432.87,96.96,103.12,0.35233,100,1
3102226,3,48944,1,48532,52574,48423.25,52433.16,108.75,140.84,0.352382,100,1
3102266,3,48984,1,48543,52599,48423.5,52433.49,119.5,165.51,0.352437,100,1
3102306,3,49024,1,48530,52484,48423.71,52433.59,106.29,50.41,0.352494,100,1
3102347,3,49065,1,48451,52245,48423.77,52433.22,27.23,-188.22,0.352551,100,1
3102387,3,49105,1,48360,52055,48423.64,52432.46,-63.64,-377.46,0.352604,100,1
3102427,3,49145,1,48312,51996,48423.42,52431.59,-111.42,-435.59,0.352654,100,1
3102467,3,49185,1,48298,51992,48423.17,52430.71,-125.17,-438.71,0.352702,100,1
3102507,3,49225,1,48296,51973,48422.91,52429.8,-126.91,-456.8,0.352747,100,1
3102547,3,49265,1,48297,51985,48422.66,52428.91,-125.66,-443.91,0.35279,100,1
3102587,3,49305,1,48309,52017,48422.44,52428.09,-113.44,-411.09,0.352832,100,1
3102627,3,49345,1,48314,52020,48422.22,52427.27,-108.22,-407.27,0.352871,100,1
3102667,3,49385,1,48315,52013,48422.01,52426.45,-107.01,-413.45,0.352908,100,1
3102707,3,49425,1,48317,52024,48421.8,52425.64,-104.8,-401.64,0.352942,100,1
3102747,3,49465,1,48328,52055,48421.61,52424.9,-93.61,-369.9,0.352975,100,1
3102787,3,49505,1,48348,52101,48421.47,52424.26,-73.47,-323.26,0.353006,100,1
3102827,3,49545,1,48365,52152,48421.36,52423.71,-56.36,-271.71,0.353035,100,1
3102867,3,49585,1,48381,52196,48421.28,52423.26,-40.28,-227.26,0.353063,100,1
3102907,3,49625,1,48401,52231,48421.24,52422.88,-20.24,-191.88,0.353089,100,1
3102947,3,49665,1,48415,52259,48421.23,52422.55,-6.23,-163.55,0.353115,100,1
3102987,3,49705,1,48426,52287,48421.24,52422.28,4.76,-135.28,0.35314,100,1
3103027,3,49745,1,48435,52312,48421.27,52422.06,13.73,-110.06,0.353164,100,1
3103067,3,49785,1,48448,52340,48421.32,52421.9,26.68,-81.9,0.353189,100,1
3103108,3,49826,1,48459,52375,48421.4,52421.8,37.6,-46.8,0.353214,100,1
3103148,3,49866,1,48475,52407,48421.51,52421.78,53.49,-14.78,0.353239,100,1
3103188,3,49906,1,48487,52448,48421.64,52421.83,65.36,26.17,0.353266,100,1
3103228,3,49946,1,48498,52493,48421.79,52421.98,76.21,71.02,0.353294,100,1
3103268,3,49986,1,48512,52468,48421.98,52422.07,90.02,45.93,0.353325,100,1
3103308,3,50026,1,48471,52271,48422.07,52421.77,48.93,-150.77,0.353356,100,1
3103348,3,50066,1,48371,52030,48421.97,52420.99,-50.97,-390.99,0.353381,100,1
3103388,3,50106,1,48292,51908,48421.71,52419.96,-129.71,-511.96,0.353403,100,1
3103428,3,50146,1,48267,51878,48421.41,52418.88,-154.41,-540.88,0.353422,100,1
3103468,3,50186,1,48266,51876,48421.1,52417.8,-155.1,-541.8,0.353438,100,1
3103508,3,50226,1,48267,51867,48420.79,52416.7,-153.79,-549.7,0.353451,100,1
3103548,3,50266,1,48274,51896,48420.5,52415.66,-146.5,-519.66,0.353462,100,1
3103588,3,50306,1,48282,51912,48420.22,52414.65,-138.22,-502.65,0.35347,100,1
3103628,3,50346,1,48281,51905,48419.94,52413.63,-138.94,-508.63,0.353475,100,1
3103668,3,50386,1,48279,51897,48419.66,52412.6,-140.66,-515.6,0.353478,100,1
3103708,3,50426,1,48282,51910,48419.39,52411.59,-137.39,-501.59,0.353478,100,1
3103748,3,50466,1,48294,51954,48419.14,52410.68,-125.14,-456.68,0.353475,100,1
3103788,3,50506,1,48313,52003,48418.93,52409.87,-105.93,-406.87,0.353471,100,1
3103828,3,50546,1,48328,52053,48418.75,52409.16,-90.75,-356.16,0.353466,100,1
3103869,3,50587,1,48346,52086,48418.6,52408.51,-72.6,-322.51,0.353458,100,1
3103909,3,50627,1,48361,52117,48418.49,52407.93,-57.49,-290.93,0.353449,100,1
3103949,3,50667,1,48372,52150,48418.4,52407.41,-46.4,-257.41,0.353439,100,1
3103989,3,50707,1,48379,52180,48418.32,52406.96,-39.32,-226.96,0.353427,100,1
3104029,3,50747,1,48391,52213,48418.27,52406.57,-27.27,-193.57,0.353414,100,1
3104069,3,50787,1,48405,52236,48418.24,52406.23,-13.24,-170.23,0.3534,100,1
3104109,3,50827,1,48417,52273,48418.24,52405.97,-1.24,-132.97,0.353386,100,1
3104149,3,50867,1,48435,52314,48418.28,52405.79,16.72,-91.79,0.353372,100,1
3104189,3,50907,1,48454,52360,48418.35,52405.7,35.65,-45.7,0.353358,100,1
3104229,3,50947,1,48467,52360,48418.45,52405.61,48.55,-45.61,0.353345,100,1
3104269,3,50987,1,48440,52182,48418.49,52405.16,21.51,-223.16,0.35333,100,1
3104309,3,51027,1,48343,51916,48418.34,52404.18,-75.34,-488.18,0.353309,100,1
3104349,3,51067,1,48250,51753,48418.01,52402.88,-168.01,-649.88,0.353283,100,1
3104389,3,51107,1,48210,51711,48417.59,52401.5,-207.59,-690.5,0.353255,100,1
3104429,3,51147,1,48200,51698,48417.16,52400.09,-217.16,-702.09,0.353226,100,1
3104469,3,51187,1,48194,51682,48416.71,52398.66,-222.71,-716.66,0.353197,100,1
3104509,3,51227,1,48191,51704,48416.27,52397.27,-225.27,-693.27,0.353169,100,1
3104549,3,51267,1,48201,51723,48415.84,52395.93,-214.84,-672.93,0.353141,100,1
3104589,3,51307,1,48199,51717,48415.4,52394.57,-216.4,-677.57,0.353113,100,1
3104629,3,51347,1,48191,51703,48414.95,52393.19,-223.95,-690.19,0.353085,100,1
3104670,3,51388,1,48196,51718,48414.52,52391.84,-218.52,-673.84,0.353059,100,1
3104710,3,51428,1,48203,51759,48414.09,52390.57,-211.09,-631.57,0.353033,100,1
3104750,3,51468,1,48220,51816,48413.71,52389.43,-193.71,-573.43,0.353009,100,1
3104790,3,51508,1,48237,51864,48413.36,52388.37,-176.36,-524.37,0.352986,100,1
3104830,3,51548,1,48260,51902,48413.05,52387.4,-153.05,-485.4,0.352962,100,1
3104870,3,51588,1,48279,51936,48412.79,52386.5,-133.79,-450.5,0.352938,100,1
3104910,3,51628,1,48286,51972,48412.53,52385.67,-126.53,-413.67,0.352914,100,1
3104950,3,51668,1,48301,51996,48412.31,52384.89,-111.31,-388.89,0.352889,100,1
3104990,3,51708,1,48315,52028,48412.11,52384.18,-97.11,-356.18,0.352863,100,1
3105030,3,51748,1,48329,52052,48411.95,52383.52,-82.95,-331.52,0.352835,100,1
3105070,3,51788,1,48344,52081,48411.82,52382.91,-67.82,-301.91,0.352807,100,1
3105110,3,51828,1,48352,52121,48411.7,52382.39,-59.7,-261.39,0.352778,100,1
3105150,3,51868,1,48370,52161,48411.62,52381.95,-41.62,-220.95,0.352748,100,1
3105190,3,51908,1,48379,52132,48411.55,52381.45,-32.55,-249.45,0.352716,100,1
3105230,3,51948,1,48328,51914,48411.39,52380.52,-83.39,-466.52,0.35268,100,1
3105270,3,51988,1,48213,51652,48411,52379.06,-198,-727.06,0.352641,100,1
3105310,3,52028,1,48126,51522,48410.43,52377.35,-284.43,-855.35,0.352604,100,1
3105350,3,52068,1,48096,51491,48409.8,52375.58,-313.8,-884.58,0.352573,100,1
3105390,3,52108,1,48088,51481,48409.16,52373.79,-321.16,-892.79,0.352548,100,1
3105431,3,52149,1,48078,51467,48408.5,52371.98,-330.5,-904.98,0.352529,100,1
3105471,3,52189,1,48081,51508,48407.84,52370.25,-326.84,-862.25,0.352518,100,1
3105511,3,52229,1,48092,51546,48407.21,52368.6,-315.21,-822.6,0.352514,100,1
3105551,3,52269,1,48100,51537,48406.6,52366.94,-306.6,-829.94,0.352515,100,1
3105591,3,52309,1,48093,51541,48405.98,52365.29,-312.98,-824.29,0.352521,100,1
3105631,3,52349,1,48102,51568,48405.37,52363.7,-303.37,-795.7,0.352532,100,1
3105671,3,52389,1,48116,51627,48404.79,52362.22,-288.79,-735.22,0.352549,100,1
3105711,3,52429,1,48142,51684,48404.27,52360.87,-262.27,-676.87,0.352569,100,1
3105751,3,52469,1,48167,51739,48403.8,52359.62,-236.8,-620.62,0.352593,100,1
3105791,3,52509,1,48192,51776,48403.37,52358.46,-211.37,-582.46,0.352617,100,1
3105831,3,52549,1,48209,51811,48402.99,52357.37,-193.99,-546.37,0.352643,100,1
3105871,3,52589,1,48221,51842,48402.62,52356.34,-181.62,-514.34,0.352669,100,1
3105911,3,52629,1,48231,51873,48402.28,52355.37,-171.28,-482.37,0.352695,100,1
3105951,3,52669,1,48244,51900,48401.96,52354.46,-157.96,-454.46,0.352722,100,1
3105991,3,52709,1,48254,51926,48401.67,52353.61,-147.67,-427.61,0.352749,100,1
3106031,3,52749,1,48265,51963,48401.4,52352.82,-136.4,-389.82,0.352777,100,1
3106071,3,52789,1,48277,52005,48401.15,52352.13,-124.15,-347.13,0.352804,100,1
3106111,3,52829,1,48291,52043,48400.93,52351.51,-109.93,-308.51,0.352832,100,1
3106152,3,52870,1,48303,52060,48400.74,52350.93,-97.74,-290.93,0.35286,100,1
3106192,3,52910,1,48282,51908,48400.5,52350.05,-118.5,-442.05,0.352886,100,1
3106232,3,52950,1,48175,51629,48400.05,52348.61,-225.05,-719.61,0.35291,100,1
3106272,3,52990,1,48065,51457,48399.39,52346.82,-334.39,-889.82,0.352939,100,1
3106312,3,53030,1,48021,51411,48398.63,52344.95,-377.63,-933.95,0.352977,100,1
3106352,3,53070,1,48019,51408,48397.87,52343.08,-378.87,-935.08,0.353023,100,1
3106392,3,53110,1,48010,51394,48397.1,52341.18,-387.1,-947.18,0.353077,100,1
3106432,3,53150,1,48010,51431,48396.33,52339.36,-386.33,-908.36,0.353141,100,1
3106472,3,53190,1,48029,51482,48395.59,52337.65,-366.59,-855.65,0.353212,100,1
3106512,3,53230,1,48046,51491,48394.89,52335.96,-348.89,-844.96,0.353289,100,1
3106552,3,53270,1,48046,51490,48394.2,52334.27,-348.2,-844.27,0.353371,100,1
3106592,3,53310,1,48049,51512,48393.51,52332.62,-344.51,-820.62,0.353459,100,1
3106632,3,53350,1,48055,51562,48392.84,52331.08,-337.84,-769.08,0.353553,100,1
3106672,3,53390,1,48082,51619,48392.21,52329.66,-310.21,-710.66,0.353651,100,1
3106712,3,53430,1,48104,51672,48391.64,52328.35,-287.64,-656.35,0.353754,100,1
3106752,3,53470,1,48120,51712,48391.1,52327.12,-271.1,-615.12,0.353861,100,1
3106792,3,53510,1,48136,51748,48390.59,52325.96,-254.59,-577.96,0.35397,100,1
3106832,3,53550,1,48151,51785,48390.11,52324.88,-239.11,-539.88,0.354082,100,1
3106872,3,53590,1,48159,51817,48389.65,52323.86,-230.65,-506.86,0.354197,100,1
3106913,3,53631,1,48172,51851,48389.22,52322.92,-217.22,-471.92,0.354314,100,1
3106953,3,53671,1,48184,51882,48388.81,52322.04,-204.81,-440.04,0.354433,100,1
3106993,3,53711,1,48197,51924,48388.43,52321.25,-191.43,-397.25,0.354554,100,1
3107033,3,53751,1,48209,51975,48388.07,52320.55,-179.07,-345.55,0.354678,100,1
3107073,3,53791,1,48233,52019,48387.76,52319.95,-154.76,-300.95,0.354803,100,1
3107113,3,53831,1,48240,51974,48387.46,52319.26,-147.46,-345.26,0.354928,100,1
3107153,3,53871,1,48179,51751,48387.05,52318.12,-208.05,-567.12,0.355053,100,1
3107193,3,53911,1,48063,51521,48386.4,52316.53,-323.4,-795.53,0.355181,100,1
3107233,3,53951,1,47988,51433,48385.61,52314.77,-397.61,-881.77,0.355316,100,1
3107273,3,53991,1,47973,51423,48384.78,52312.98,-411.78,-889.98,0.35546,100,1
3107313,3,54031,1,47971,51412,48383.95,52311.18,-412.95,-899.18,0.355612,100,1
3107353,3,54071,1,47970,51421,48383.12,52309.41,-413.12,-888.41,0.355771,100,1
3107393,3,54111,1,47983,51475,48382.32,52307.74,-399.32,-832.74,0.355939,100,1
3107433,3,54151,1,48000,51510,48381.56,52306.14,-381.56,-796.14,0.356113,100,1
3107473,3,54191,1,48004,51512,48380.81,52304.56,-376.81,-792.56,0.356294,100,1
3107513,3,54231,1,48004,51524,48380.05,52303,-376.05,-779,0.356481,100,1
3107553,3,54271,1,48014,51563,48379.32,52301.52,-365.32,-738.52,0.356673,100,1
3107593,3,54311,1,48027,51621,48378.62,52300.16,-351.62,-679.16,0.356873,100,1
3107633,3,54351,1,48049,51676,48377.96,52298.91,-328.96,-622.91,0.357077,100,1
3107673,3,54391,1,48065,51728,48377.34,52297.77,-312.34,-569.77,0.357288,100,1
3107714,3,54432,1,48088,51765,48376.76,52296.71,-288.76,-531.71,0.357502,100,1
3107754,3,54472,1,48103,51806,48376.21,52295.73,-273.21,-489.73,0.357721,100,1
3107794,3,54512,1,48117,51845,48375.7,52294.83,-258.7,-449.83,0.357943,100,1
3107834,3,54552,1,48124,51882,48375.2,52294.01,-251.2,-412.01,0.35817,100,1
3107874,3,54592,1,48141,51918,48374.73,52293.26,-233.73,-375.26,0.358399,100,1
3107914,3,54632,1,48160,51965,48374.3,52292.6,-214.3,-327.6,0.358632,100,1
3107954,3,54672,1,48176,52011,48373.9,52292.04,-197.9,-281.04,0.358867,100,1
3107994,3,54712,1,48193,52063,48373.54,52291.58,-180.54,-228.58,0.359105,100,1
3108034,3,54752,1,48211,52033,48373.22,52291.07,-162.22,-258.07,0.359344,100,1
3108074,3,54792,1,48160,51816,48372.79,52290.12,-212.79,-474.12,0.359584,100,1
3108114,3,54832,1,48046,51587,48372.14,52288.71,-326.14,-701.71,0.359825,100,1
3108154,3,54872,1,47973,51496,48371.34,52287.12,-398.34,-791.12,0.360074,100,1
3108194,3,54912,1,47950,51484,48370.5,52285.52,-420.5,-801.52,0.36033,100,1
3108234,3,54952,1,47948,51472,48369.66,52283.89,-421.66,-811.89,0.360593,100,1
3108274,3,54992,1,47940,51477,48368.8,52282.28,-428.8,-805.28,0.360864,100,1
3108314,3,55032,1,47951,51530,48367.96,52280.78,-416.96,-750.78,0.361144,100,1
3108354,3,55072,1,47970,51570,48367.17,52279.36,-397.17,-709.36,0.361431,100,1
3108394,3,55112,1,47976,51580,48366.39,52277.96,-390.39,-697.96,0.361724,100,1
3108434,3,55152,1,47975,51594,48365.61,52276.59,-390.61,-682.59,0.362025,100,1
3108475,3,55193,1,47982,51632,48364.84,52275.3,-382.84,-643.3,0.362333,100,1
3108515,3,55233,1,48005,51697,48364.12,52274.14,-359.12,-577.14,0.362647,100,1
3108555,3,55273,1,48026,51765,48363.45,52273.13,-337.45,-508.13,0.362968,100,1
3108595,3,55313,1,48047,51821,48362.82,52272.23,-315.82,-451.23,0.363296,100,1
3108635,3,55353,1,48072,51872,48362.23,52271.43,-290.23,-399.43,0.363628,100,1
3108675,3,55393,1,48094,51919,48361.7,52270.72,-267.7,-351.72,0.363964,100,1
3108715,3,55433,1,48112,51967,48361.2,52270.12,-249.2,-303.12,0.364305,100,1
3108755,3,55473,1,48133,52011,48360.74,52269.6,-227.74,-258.6,0.364649,100,1
3108795,3,55513,1,48145,52057,48360.31,52269.18,-215.31,-212.18,0.364997,100,1
3108835,3,55553,1,48172,52103,48359.94,52268.84,-187.94,-165.84,0.365347,100,1
3108875,3,55593,1,48196,52157,48359.61,52268.62,-163.61,-111.62,0.365698,100,1
3108915,3,55633,1,48216,52214,48359.32,52268.51,-143.32,-54.51,0.366051,100,1
3108955,3,55673,1,48228,52174,48359.06,52268.32,-131.06,-94.32,0.366405,100,1
3108995,3,55713,1,48166,51975,48358.68,52267.74,-192.68,-292.74,0.36676,100,1
3109035,3,55753,1,48066,51798,48358.09,52266.8,-292.09,-468.8,0.367119,100,1
3109075,3,55793,1,48012,51737,48357.4,52265.74,-345.4,-528.74,0.367485,100,1
3109115,3,55833,1,47995,51726,48356.68,52264.66,-361.68,-538.66,0.367857,100,1
3109155,3,55873,1,47985,51714,48355.93,52263.56,-370.93,-549.56,0.368238,100,1
3109196,3,55914,1,47978,51731,48355.18,52262.5,-377.18,-531.5,0.368627,100,1
3109236,3,55954,1,47994,51785,48354.46,52261.55,-360.46,-476.55,0.369024,100,1
3109276,3,55994,1,48014,51818,48353.78,52260.66,-339.78,-442.66,0.369429,100,1
3109316,3,56034,1,48016,51837,48353.1,52259.81,-337.1,-422.81,0.369841,100,1
3109356,3,56074,1,48020,51862,48352.44,52259.02,-332.44,-397.02,0.370261,100,1
3109396,3,56114,1,48040,51910,48351.81,52258.32,-311.81,-348.32,0.370688,100,1
3109436,3,56154,1,48064,51977,48351.24,52257.76,-287.24,-280.76,0.371121,100,1
3109476,3,56194,1,48088,52045,48350.71,52257.34,-262.71,-212.34,0.371559,100,1
3109516,3,56234,1,48118,52108,48350.25,52257.04,-232.25,-149.04,0.372002,100,1
3109556,3,56274,1,48144,52163,48349.84,52256.85,-205.84,-93.85,0.372449,100,1
3109596,3,56314,1,48167,52209,48349.48,52256.76,-182.48,-47.76,0.372898,100,1
3109636,3,56354,1,48183,52254,48349.14,52256.75,-166.14,-2.75,0.373349,100,1
3109676,3,56394,1,48201,52300,48348.85,52256.84,-147.85,43.16,0.373801,100,1
3109716,3,56434,1,48216,52351,48348.58,52257.03,-132.58,93.97,0.374254,100,1
3109756,3,56474,1,48236,52403,48348.36,52257.32,-112.36,145.68,0.374706,100,1
3109796,3,56514,1,48262,52455,48348.19,52257.72,-86.19,197.28,0.375157,100,1
3109836,3,56554,1,48283,52503,48348.06,52258.21,-65.06,244.79,0.375605,100,1
3109876,3,56594,1,48280,52441,48347.92,52258.58,-67.92,182.42,0.376052,100,1
3109916,3,56634,1,48218,52272,48347.66,52258.61,-129.66,13.39,0.376499,100,1
3109956,3,56674,1,48136,52145,48347.24,52258.38,-211.24,-113.38,0.376951,100,1
3109997,3,56715,1,48097,52111,48346.74,52258.09,-249.74,-147.09,0.377408,100,1
3110037,3,56755,1,48088,52108,48346.23,52257.79,-258.23,-149.79,0.377872,100,1
3110077,3,56795,1,48077,52096,48345.69,52257.47,-268.69,-161.47,0.378343,100,1
3110117,3,56835,1,48072,52122,48345.14,52257.2,-273.14,-135.2,0.378822,100,1
3110157,3,56875,1,48089,52169,48344.63,52257.02,-255.63,-88.02,0.379308,100,1
3110197,3,56915,1,48112,52196,48344.16,52256.9,-232.16,-60.9,0.379799,100,1
3110237,3,56955,1,48114,52213,48343.7,52256.82,-229.7,-43.82,0.380296,100,1
3110277,3,56995,1,48124,52251,48343.27,52256.8,-219.27,-5.8,0.380798,100,1
3110317,3,57035,1,48138,52295,48342.86,52256.88,-204.86,38.12,0.381304,100,1
3110357,3,57075,1,48160,52347,48342.49,52257.06,-182.49,89.94,0.381812,100,1
3110397,3,57115,1,48189,52404,48342.19,52257.36,-153.19,146.64,0.382322,100,1
3110437,3,57155,1,48214,52459,48341.93,52257.77,-127.93,201.23,0.382831,100,1
3110477,3,57195,1,48231,52503,48341.71,52258.26,-110.71,244.74,0.383338,100,1
3110517,3,57235,1,48248,52550,48341.53,52258.84,-93.53,291.16,0.383841,100,1
3110557,3,57275,1,48269,52589,48341.38,52259.5,-72.38,329.5,0.38434,100,1
3110597,3,57315,1,48284,52624,48341.27,52260.23,-57.27,363.77,0.384833,100,1
3110637,3,57355,1,48298,52668,48341.18,52261.05,-43.18,406.95,0.385319,100,1
3110677,3,57395,1,48310,52714,48341.12,52261.96,-31.12,452.04,0.385796,100,1
3110717,3,57435,1,48330,52765,48341.1,52262.96,-11.1,502.04,0.386262,100,1
3110758,3,57476,1,48350,52791,48341.12,52264.02,8.88,526.98,0.386717,100,1
3110798,3,57516,1,48334,52697,48341.11,52264.89,-7.11,432.11,0.387165,100,1
3110838,3,57556,1,48266,52551,48340.96,52265.46,-74.96,285.54,0.387608,100,1
3110878,3,57596,1,48203,52470,48340.69,52265.87,-137.69,204.12,0.388052,100,1
3110918,3,57636,1,48181,52454,48340.37,52266.25,-159.37,187.75,0.388497,100,1
3110958,3,57676,1,48181,52448,48340.05,52266.62,-159.05,181.38,0.388943,100,1
3110998,3,57716,1,48177,52448,48339.73,52266.98,-162.73,181.02,0.38939,100,1
3111038,3,57756,1,48178,52480,48339.41,52267.41,-161.41,212.59,0.389839,100,1
3111078,3,57796,1,48198,52519,48339.13,52267.91,-141.13,251.09,0.390287,100,1
3111118,3,57836,1,48216,52530,48338.88,52268.44,-122.88,261.56,0.390733,100,1
3111158,3,57876,1,48213,52534,48338.63,52268.97,-125.63,265.03,0.391177,100,1
3111198,3,57916,1,48217,52563,48338.39,52269.56,-121.39,293.44,0.39162,100,1
3111238,3,57956,1,48233,52608,48338.18,52270.24,-105.18,337.76,0.392058,100,1
3111278,3,57996,1,48253,52658,48338.01,52271.02,-85.01,386.98,0.39249,100,1
3111318,3,58036,1,48275,52702,48337.89,52271.88,-62.89,430.12,0.392915,100,1
3111358,3,58076,1,48292,52746,48337.8,52272.83,-45.8,473.17,0.39333,100,1
3111398,3,58116,1,48306,52783,48337.73,52273.85,-31.73,509.15,0.393734,100,1
3111438,3,58156,1,48320,52819,48337.7,52274.94,-17.7,544.06,0.394125,100,1
3111478,3,58196,1,48333,52854,48337.69,52276.1,-4.69,577.9,0.394503,100,1
3111519,3,58237,1,48345,52894,48337.71,52277.34,7.29,616.66,0.394866,100,1
3111559,3,58277,1,48369,52939,48337.77,52278.66,31.23,660.34,0.395212,100,1
3111599,3,58317,1,48381,52986,48337.86,52280.08,43.14,705.92,0.39554,100,1
3111639,3,58357,1,48399,53009,48337.98,52281.54,61.02,727.46,0.395849,100,1
3111679,3,58397,1,48378,52913,48338.06,52282.81,39.94,630.19,0.396144,100,1
3111719,3,58437,1,48319,52793,48338.03,52283.83,-19.03,509.17,0.396429,100,1
3111759,3,58477,1,48271,52736,48337.89,52284.74,-66.89,451.26,0.396708,100,1
3111799,3,58517,1,48255,52734,48337.73,52285.64,-82.73,448.36,0.39698,100,1
3111839,3,58557,1,48253,52720,48337.56,52286.51,-84.56,433.49,0.397247,100,1
3111879,3,58597,1,48249,52715,48337.39,52287.37,-88.39,427.63,0.397508,100,1
3111919,3,58637,1,48251,52740,48337.21,52288.27,-86.21,451.73,0.397763,100,1
3111959,3,58677,1,48265,52764,48337.07,52289.23,-72.07,474.77,0.39801,100,1
3111999,3,58717,1,48267,52773,48336.93,52290.2,-69.93,482.8,0.39825,100,1
3112039,3,58757,1,48265,52778,48336.79,52291.17,-71.79,486.83,0.398483,100,1
3112079,3,58797,1,48273,52803,48336.66,52292.2,-63.66,510.8,0.398707,100,1
3112119,3,58837,1,48286,52837,48336.56,52293.29,-50.56,543.71,0.398921,100,1
3112159,3,58877,1,48306,52876,48336.5,52294.45,-30.5,581.55,0.399124,100,1
3112199,3,58917,1,48317,52914,48336.46,52295.7,-19.46,618.3,0.399315,100,1
3112239,3,58957,1,48331,52955,48336.45,52297.02,-5.45,657.98,0.399492,100,1
3112279,3,58997,1,48345,52984,48336.47,52298.39,8.53,685.61,0.399654,100,1
3112320,3,59038,1,48359,53013,48336.52,52299.82,22.48,713.18,0.399801,100,1
3112360,3,59078,1,48365,53050,48336.58,52301.32,28.42,748.68,0.399932,100,1
3112400,3,59118,1,48381,53090,48336.67,52302.9,44.33,787.1,0.400046,100,1
3112440,3,59158,1,48401,53132,48336.8,52304.56,64.2,827.44,0.400141,100,1
3112480,3,59198,1,48412,53153,48336.95,52306.26,75.05,846.74,0.400218,100,1
3112520,3,59238,1,48406,53081,48337.09,52307.81,68.91,773.19,0.40028,100,1
3112560,3,59278,1,48349,52968,48337.11,52309.13,11.89,658.87,0.400332,100,1
3112600,3,59318,1,48303,52911,48337.05,52310.34,-34.05,600.66,0.400375,100,1
3112640,3,59358,1,48286,52900,48336.95,52311.52,-50.95,588.48,0.400409,100,1
3112680,3,59398,1,48285,52887,48336.84,52312.67,-51.84,574.33,0.400436,100,1
3112720,3,59438,1,48279,52874,48336.73,52313.79,-57.73,560.21,0.400456,100,1
3112760,3,59478,1,48280,52896,48336.62,52314.96,-56.62,581.04,0.400469,100,1
3112800,3,59518,1,48290,52913,48336.52,52316.16,-46.52,596.84,0.400474,100,1
3112840,3,59558,1,48287,52916,48336.43,52317.36,-49.43,598.64,0.40047,100,1
3112880,3,59598,1,48288,52919,48336.33,52318.56,-48.33,600.44,0.400459,100,1
3112920,3,59638,1,48289,52933,48336.24,52319.79,-47.24,613.21,0.40044,100,1
3112960,3,59678,1,48300,52968,48336.17,52321.09,-36.17,646.91,0.400411,100,1
3113000,3,59718,1,48314,53001,48336.12,52322.45,-22.12,678.55,0.400373,100,1
3113040,3,59758,1,48324,53034,48336.1,52323.87,-12.1,710.13,0.400324,100,1
3113080,3,59798,1,48339,53066,48336.11,52325.36,2.89,740.64,0.400263,100,1
3113121,3,59839,1,48350,53094,48336.14,52326.89,13.86,767.11,0.40019,100,1
3113161,3,59879,1,48361,53131,48336.19,52328.5,24.81,802.5,0.400105,100,1
3113201,3,59919,1,48375,53160,48336.27,52330.17,38.73,829.83,0.400006,100,1
3113241,3,59959,1,48386,53198,48336.37,52331.91,49.63,866.09,0.399893,100,1
3113281,3,59999,1,48407,53237,48336.51,52333.72,70.49,903.28,0.399767,100,1
3113321,3,60039,2,48416,53242,48336.67,52335.54,79.33,906.46,0.399627,100,1
3113361,3,60079,2,48392,53146,48336.78,52337.16,55.22,808.84,0.399476,100,1
3113401,3,60119,2,48337,53059,48336.78,52338.6,0.22,720.4,0.399317,100,1
3113441,3,60159,2,48310,53024,48336.73,52339.97,-26.73,684.03,0.399151,100,1
3113481,3,60199,2,48306,53016,48336.67,52341.32,-30.67,674.68,0.398977,100,1
3113521,3,60239,2,48298,52992,48336.6,52342.62,-38.6,649.37,0.398797,100,1
3113561,3,60279,2,48288,52994,48336.5,52343.93,-48.5,650.07,0.398611,100,1
3113601,3,60319,2,48293,53020,48336.41,52345.28,-43.41,674.72,0.398419,100,1
3113641,3,60359,2,48302,53032,48336.35,52346.66,-34.35,685.34,0.39822,100,1
3113681,3,60399,2,48303,53029,48336.28,52348.02,-33.28,680.98,0.398014,100,1
3113721,3,60439,2,48301,53037,48336.21,52349.4,-35.21,687.6,0.397802,100,1
3113761,3,60479,2,48307,53060,48336.15,52350.82,-29.15,709.18,0.397583,100,1
3113801,3,60519,2,48317,53095,48336.12,52352.31,-19.12,742.69,0.397355,100,1
3113841,3,60559,2,48331,53126,48336.11,52353.86,-5.11,772.14,0.39712,100,1
3113882,3,60600,2,48342,53159,48336.12,52355.47,5.88,803.53,0.396876,100,1
3113922,3,60640,2,48355,53188,48336.16,52357.14,18.84,830.86,0.396623,100,1
3113962,3,60680,2,48365,53222,48336.22,52358.87,28.78,863.13,0.39636,100,1
3114002,3,60720,2,48379,53260,48336.3,52360.68,42.7,899.32,0.396087,100,1
3114042,3,60760,2,48395,53291,48336.42,52362.54,58.58,928.46,0.395804,100,1
3114082,3,60800,2,48414,53331,48336.58,52364.48,77.42,966.52,0.39551,100,1
3114122,3,60840,2,48430,53366,48336.77,52366.48,93.23,999.52,0.395207,100,1
3114162,3,60880,2,48430,53339,48336.95,52368.43,93.05,970.57,0.394894,100,1
3114202,3,60920,2,48393,53240,48337.07,52370.17,55.93,869.83,0.394573,100,1
3114242,3,60960,2,48353,53187,48337.1,52371.81,15.9,815.19,0.394246,100,1
3114282,3,61000,2,48335,53172,48337.09,52373.41,-2.09,798.59,0.393912,100,1
3114322,3,61040,2,48338,53164,48337.1,52374.99,0.9,789.01,0.393572,100,1
3114362,3,61080,2,48326,53150,48337.08,52376.54,-11.08,773.46,0.393227,100,1
3114402,3,61120,2,48320,53172,48337.05,52378.14,-17.05,793.86,0.392876,100,1
3114442,3,61160,2,48336,53186,48337.05,52379.75,-1.05,806.25,0.392518,100,1
3114482,3,61200,2,48340,53192,48337.05,52381.38,2.95,810.62,0.392155,100,1
3114522,3,61240,2,48338,53198,48337.06,52383.01,0.94,814.99,0.391786,100,1
3114562,3,61280,2,48340,53220,48337.07,52384.69,2.93,835.31,0.39141,100,1
3114602,3,61320,2,48348,53247,48337.09,52386.41,10.91,860.59,0.391029,100,1
3114642,3,61360,2,48367,53280,48337.15,52388.2,29.85,891.8,0.39064,100,1
3114683,3,61401,2,48378,53308,48337.23,52390.04,40.77,917.96,0.390245,100,1
3114723,3,61441,2,48385,53340,48337.33,52391.95,47.67,948.05,0.389843,100,1
3114763,3,61481,2,48401,53374,48337.46,52393.91,63.54,980.09,0.389433,100,1
3114803,3,61521,2,48411,53407,48337.61,52395.94,73.39,1011.06,0.389017,100,1
3114843,3,61561,2,48429,53435,48337.79,52398.02,91.21,1036.98,0.388593,100,1
3114883,3,61601,2,48444,53474,48338.01,52400.17,105.99,1073.83,0.388163,100,1
3114923,3,61641,2,48463,53523,48338.26,52402.41,124.74,1120.59,0.387726,100,1
3114963,3,61681,2,48480,53560,48338.54,52404.73,141.46,1155.27,0.387283,100,1
3115003,3,61721,2,48497,53582,48338.86,52407.09,158.14,1174.91,0.386834,100,1
3115043,3,61761,2,48486,53513,48339.16,52409.3,146.84,1103.7,0.386381,100,1
3115083,3,61801,2,48445,53447,48339.37,52411.38,105.63,1035.62,0.385923,100,1
3115123,3,61841,2,48423,53438,48339.54,52413.43,83.46,1024.57,0.385459,100,1
3115163,3,61881,2,48422,53436,48339.71,52415.48,82.29,1020.52,0.384991,100,1
3115203,3,61921,2,48425,53440,48339.88,52417.53,85.12,1022.47,0.384518,100,1
3115243,3,61961,2,48424,53444,48340.05,52419.59,83.95,1024.41,0.38404,100,1
3115283,3,62001,2,48432,53476,48340.23,52421.7,91.77,1054.3,0.383557,100,1
3115323,3,62041,2,48447,53493,48340.45,52423.84,106.55,1069.16,0.38307,100,1
3115363,3,62081,2,48448,53498,48340.66,52425.99,107.34,1072.01,0.382579,100,1
3115403,3,62121,2,48448,53514,48340.87,52428.17,107.12,1085.83,0.382084,100,1
3115443,3,62161,2,48456,53539,48341.11,52430.39,114.89,1108.61,0.381584,100,1
3115484,3,62202,2,48465,53566,48341.36,52432.66,123.64,1133.34,0.381081,100,1
3115524,3,62242,2,48480,53594,48341.63,52434.99,138.37,1159.01,0.380574,100,1
3115564,3,62282,2,48492,53628,48341.93,52437.37,150.07,1190.63,0.380064,100,1
3115604,3,62322,2,48502,53660,48342.25,52439.82,159.75,1220.18,0.37955,100,1
3115644,3,62362,2,48515,53686,48342.6,52442.31,172.4,1243.69,0.379035,100,1
3115684,3,62402,2,48526,53714,48342.97,52444.86,183.03,1269.14,0.378517,100,1
3115724,3,62442,2,48544,53745,48343.37,52447.46,200.63,1297.54,0.377997,100,1
3115764,3,62482,2,48558,53787,48343.8,52450.14,214.2,1336.86,0.377477,100,1
