t_ms,trial_id,t_trial_ms,phase,red_raw,ir_raw,red_dc,ir_dc,red_ac,ir_ac,R,spo2,spo2_valid
2804568,1,0,0,48205,51427,48353.86,52007.13,-148.86,-580.13,0.38987,99.96,1
2804608,1,40,0,48208,51447,48353.57,52006.02,-145.57,-559.02,0.389617,99.96,1
2804648,1,80,0,48223,51504,48353.31,52005.01,-130.31,-501.01,0.389363,99.96,1
2804688,1,120,0,48253,51578,48353.11,52004.16,-100.11,-426.16,0.38911,99.96,1
2804728,1,160,0,48280,51655,48352.97,52003.46,-72.97,-348.46,0.388856,99.96,1
2804768,1,200,0,48314,51724,48352.89,52002.91,-38.89,-278.91,0.388603,99.96,1
2804808,1,240,0,48340,51783,48352.87,52002.47,-12.87,-219.47,0.38835,99.96,1
2804848,1,280,0,48366,51835,48352.89,52002.14,13.11,-167.14,0.388097,99.96,1
2804888,1,320,0,48382,51800,48352.95,52001.73,29.05,-201.73,0.387845,99.96,1
2804928,1,360,0,48324,51568,48352.89,52000.87,-28.89,-432.87,0.387592,99.97,1
2804968,1,400,0,48205,51316,48352.6,51999.5,-147.6,-683.5,0.387337,99.97,1
2805008,1,440,0,48132,51213,48352.16,51997.93,-220.16,-784.93,0.387082,99.97,1
2805048,1,480,0,48122,51233,48351.7,51996.4,-229.7,-763.4,0.38683,99.97,1
2805088,1,520,0,48137,51292,48351.27,51995,-214.27,-703,0.386579,99.97,1
2805128,1,560,0,48157,51367,48350.88,51993.74,-193.88,-626.74,0.386329,99.97,1
2805168,1,600,0,48190,51435,48350.56,51992.62,-160.56,-557.62,0.386081,99.97,1
2805209,1,641,0,48211,51459,48350.29,51991.56,-139.29,-532.56,0.385833,99.97,1
2805249,1,681,0,48210,51442,48350,51990.46,-140,-548.46,0.385585,99.97,1
2805289,1,721,0,48205,51445,48349.71,51989.37,-144.71,-544.37,0.385337,99.97,1
2805329,1,761,0,48203,51472,48349.42,51988.34,-146.42,-516.34,0.38509,99.97,1
2805369,1,801,0,48223,51534,48349.17,51987.43,-126.17,-453.43,0.384844,99.98,1
2805409,1,841,0,48250,51592,48348.98,51986.64,-98.98,-394.64,0.384598,99.98,1
2805449,1,881,0,48276,51654,48348.83,51985.98,-72.83,-331.98,0.384353,99.98,1
2805489,1,921,0,48299,51715,48348.73,51985.44,-49.73,-270.44,0.384107,99.98,1
2805529,1,961,0,48323,51772,48348.68,51985.01,-25.68,-213.01,0.383862,99.98,1
2805569,1,1001,0,48342,51768,48348.67,51984.58,-6.67,-216.58,0.383617,99.98,1
2805609,1,1041,0,48307,51576,48348.59,51983.76,-41.59,-407.76,0.383371,99.98,1
2805649,1,1081,0,48201,51320,48348.3,51982.43,-147.3,-662.43,0.383124,99.98,1
2805689,1,1121,0,48114,51190,48347.83,51980.85,-233.83,-790.85,0.382878,99.98,1
2805729,1,1161,0,48091,51200,48347.32,51979.29,-256.32,-779.29,0.382636,99.98,1
2805769,1,1201,0,48109,51258,48346.84,51977.85,-237.84,-719.85,0.382397,99.98,1
2805809,1,1241,0,48136,51321,48346.42,51976.54,-210.42,-655.54,0.38216,99.98,1
2805849,1,1281,0,48168,51396,48346.06,51975.38,-178.06,-579.38,0.381924,99.98,1
2805889,1,1321,0,48192,51430,48345.75,51974.29,-153.75,-544.29,0.381689,99.98,1
2805929,1,1361,0,48192,51423,48345.45,51973.19,-153.45,-550.19,0.381455,99.98,1
2805969,1,1401,0,48186,51421,48345.13,51972.09,-159.13,-551.09,0.381222,99.98,1
2806009,1,1441,0,48189,51451,48344.82,51971.05,-155.82,-520.05,0.38099,99.99,1
2806050,1,1482,0,48211,51509,48344.55,51970.12,-133.55,-461.12,0.380758,99.99,1
2806090,1,1522,0,48236,51576,48344.34,51969.34,-108.34,-393.34,0.380528,99.99,1
2806130,1,1562,0,48263,51637,48344.18,51968.68,-81.18,-331.68,0.380297,99.99,1
2806170,1,1602,0,48285,51698,48344.06,51968.14,-59.06,-270.14,0.380067,99.99,1
2806210,1,1642,0,48308,51749,48343.99,51967.7,-35.99,-218.7,0.379837,99.99,1
2806250,1,1682,0,48329,51736,48343.96,51967.24,-14.96,-231.24,0.379607,99.99,1
2806290,1,1722,0,48279,51523,48343.84,51966.35,-64.84,-443.35,0.379376,99.99,1
2806330,1,1762,0,48164,51272,48343.48,51964.96,-179.48,-692.96,0.379145,99.99,1
2806370,1,1802,0,48087,51150,48342.96,51963.34,-255.96,-813.34,0.378917,99.99,1
2806410,1,1842,0,48067,51158,48342.41,51961.73,-275.41,-803.73,0.378693,99.99,1
2806450,1,1882,0,48080,51194,48341.89,51960.19,-261.89,-766.19,0.378473,99.99,1
2806490,1,1922,0,48100,51248,48341.41,51958.77,-241.41,-710.77,0.378256,99.99,1
2806530,1,1962,0,48129,51318,48340.98,51957.49,-211.98,-639.49,0.378042,99.99,1
2806570,1,2002,0,48148,51355,48340.6,51956.29,-192.6,-601.29,0.37783,99.99,1
2806610,1,2042,0,48155,51359,48340.23,51955.09,-185.23,-596.09,0.377619,99.99,1
2806650,1,2082,0,48158,51360,48339.87,51953.91,-181.87,-593.91,0.377409,99.99,1
2806690,1,2122,0,48165,51388,48339.52,51952.78,-174.52,-564.78,0.377201,99.99,1
2806730,1,2162,0,48179,51449,48339.2,51951.77,-160.2,-502.77,0.376994,99.99,1
2806770,1,2202,0,48205,51518,48338.93,51950.9,-133.93,-432.9,0.376787,99.99,1
2806810,1,2242,0,48229,51573,48338.71,51950.15,-109.71,-377.15,0.376582,99.99,1
2806851,1,2283,0,48255,51629,48338.55,51949.51,-83.55,-320.51,0.376377,99.99,1
2806891,1,2323,0,48276,51684,48338.42,51948.98,-62.42,-264.98,0.376172,99.99,1
2806931,1,2363,0,48292,51731,48338.33,51948.54,-46.33,-217.54,0.375968,99.99,1
2806971,1,2403,0,48298,51680,48338.25,51948.01,-40.25,-268.01,0.375764,99.99,1
2807011,1,2443,0,48234,51445,48338.05,51947,-104.05,-502,0.375558,99.99,1
2807051,1,2483,0,48128,51228,48337.63,51945.57,-209.63,-717.57,0.375354,99.99,1
2807091,1,2523,0,48065,51156,48337.09,51943.99,-272.09,-787.99,0.375153,99.99,1
2807131,1,2563,0,48059,51181,48336.53,51942.46,-277.53,-761.46,0.374958,99.99,1
2807171,1,2603,0,48074,51218,48336.01,51941.02,-262.01,-723.02,0.374768,99.99,1
2807211,1,2643,0,48092,51275,48335.52,51939.68,-243.52,-664.68,0.374581,99.99,1
2807251,1,2683,0,48125,51335,48335.1,51938.48,-210.1,-603.48,0.374397,99.99,1
2807291,1,2723,0,48145,51366,48334.72,51937.33,-189.72,-571.33,0.374215,99.99,1
2807331,1,2763,0,48149,51372,48334.35,51936.2,-185.35,-564.2,0.374035,99.99,1
2807371,1,2803,0,48150,51386,48333.98,51935.11,-183.98,-549.11,0.373856,99.99,1
2807411,1,2843,0,48159,51430,48333.64,51934.1,-174.64,-504.1,0.373679,99.99,1
2807451,1,2883,0,48184,51492,48333.34,51933.21,-149.34,-441.21,0.373504,100,1
2807491,1,2923,0,48211,51558,48333.1,51932.46,-122.1,-374.46,0.373329,100,1
2807531,1,2963,0,48234,51621,48332.9,51931.84,-98.9,-310.84,0.373155,100,1
2807571,1,3003,0,48259,51679,48332.75,51931.34,-73.75,-252.34,0.372982,100,1
2807611,1,3043,0,48282,51727,48332.65,51930.93,-50.65,-203.93,0.372809,100,1
2807652,1,3084,0,48298,51767,48332.59,51930.61,-34.59,-163.61,0.372636,100,1
2807692,1,3124,0,48312,51807,48332.55,51930.36,-20.55,-123.36,0.372464,100,1
2807732,1,3164,0,48328,51859,48332.54,51930.22,-4.54,-71.22,0.372292,100,1
2807772,1,3204,0,48346,51899,48332.57,51930.16,13.43,-31.16,0.372121,100,1
2807812,1,3244,0,48337,51780,48332.58,51929.86,4.42,-149.86,0.37195,100,1
2807852,1,3284,0,48258,51540,48332.43,51929.08,-74.43,-389.08,0.371778,100,1
2807892,1,3324,0,48162,51381,48332.09,51927.98,-170.09,-546.98,0.371608,100,1
2807932,1,3364,0,48121,51349,48331.67,51926.83,-210.67,-577.83,0.37144,100,1
2807972,1,3404,0,48125,51382,48331.26,51925.74,-206.26,-543.74,0.371276,100,1
2808012,1,3444,0,48141,51424,48330.88,51924.73,-189.88,-500.73,0.371114,100,1
2808052,1,3484,0,48169,51488,48330.55,51923.86,-161.55,-435.86,0.370955,100,1
2808092,1,3524,0,48193,51537,48330.28,51923.09,-137.28,-386.09,0.370797,100,1
2808132,1,3564,0,48201,51545,48330.02,51922.34,-129.02,-377.34,0.370641,100,1
2808172,1,3604,0,48202,51543,48329.77,51921.58,-127.77,-378.58,0.370485,100,1
2808212,1,3644,0,48200,51563,48329.51,51920.86,-129.51,-357.86,0.370331,100,1
2808252,1,3684,0,48209,51607,48329.27,51920.24,-120.27,-313.24,0.370178,100,1
2808292,1,3724,0,48237,51668,48329.09,51919.73,-92.09,-251.73,0.370026,100,1
2808332,1,3764,0,48262,51733,48328.96,51919.36,-66.96,-186.36,0.369875,100,1
2808372,1,3804,0,48283,51788,48328.87,51919.1,-45.87,-131.1,0.369725,100,1
2808412,1,3844,0,48299,51837,48328.81,51918.94,-29.81,-81.94,0.369575,100,1
2808453,1,3885,0,48320,51880,48328.79,51918.86,-8.79,-38.86,0.369425,100,1
2808493,1,3925,0,48332,51920,48328.8,51918.86,3.2,1.14,0.369276,100,1
2808533,1,3965,0,48350,51962,48328.84,51918.95,21.16,43.05,0.369127,100,1
2808573,1,4005,0,48361,51997,48328.91,51919.11,32.09,77.89,0.368979,100,1
2808613,1,4045,0,48377,52044,48329.01,51919.36,47.99,124.64,0.368832,100,1
2808653,1,4085,0,48400,52093,48329.15,51919.7,70.85,173.3,0.368685,100,1
2808693,1,4125,0,48413,52062,48329.32,51919.99,83.68,142.01,0.36854,100,1
2808733,1,4165,0,48355,51849,48329.37,51919.85,25.63,-70.85,0.368396,100,1
2808773,1,4205,0,48254,51635,48329.22,51919.28,-75.22,-284.28,0.368251,100,1
2808813,1,4245,0,48190,51544,48328.95,51918.53,-138.95,-374.53,0.368108,100,1
2808853,1,4285,0,48178,51556,48328.64,51917.81,-150.64,-361.81,0.367968,100,1
2808893,1,4325,0,48195,51589,48328.38,51917.15,-133.38,-328.15,0.36783,100,1
2808933,1,4365,0,48211,51649,48328.14,51916.62,-117.14,-267.62,0.367694,100,1
2808973,1,4405,0,48232,51699,48327.95,51916.18,-95.95,-217.18,0.367559,100,1
2809013,1,4445,0,48242,51708,48327.78,51915.77,-85.78,-207.77,0.367425,100,1
2809053,1,4485,0,48237,51692,48327.6,51915.32,-90.6,-223.32,0.367292,100,1
2809093,1,4525,0,48231,51687,48327.41,51914.87,-96.41,-227.87,0.367161,100,1
2809133,1,4565,0,48234,51716,48327.22,51914.47,-93.22,-198.47,0.367031,100,1
2809173,1,4605,0,48246,51765,48327.06,51914.18,-81.06,-149.18,0.366902,100,1
2809213,1,4645,0,48270,51822,48326.95,51913.99,-56.95,-91.99,0.366775,100,1
2809254,1,4686,0,48293,51874,48326.88,51913.91,-33.88,-39.91,0.366647,100,1
2809294,1,4726,0,48307,51925,48326.84,51913.94,-19.84,11.06,0.366521,100,1
2809334,1,4766,0,48323,51966,48326.84,51914.04,-3.84,51.96,0.366394,100,1
2809374,1,4806,0,48335,52004,48326.86,51914.22,8.14,89.78,0.366268,100,1
2809414,1,4846,0,48354,52037,48326.91,51914.47,27.09,122.53,0.366143,100,1
2809454,1,4886,0,48366,52074,48326.99,51914.79,39.01,159.21,0.366017,100,1
2809494,1,4926,0,48389,52125,48327.11,51915.21,61.89,209.79,0.365892,100,1
2809534,1,4966,0,48402,52108,48327.27,51915.6,74.73,192.4,0.365767,100,1
2809574,1,5006,0,48354,51919,48327.32,51915.61,26.68,3.39,0.365643,100,1
2809614,1,5046,0,48262,51699,48327.19,51915.17,-65.19,-216.17,0.36552,100,1
2809654,1,5086,0,48194,51596,48326.93,51914.54,-132.93,-318.54,0.365399,100,1
2809694,1,5126,0,48179,51599,48326.63,51913.91,-147.63,-314.91,0.365281,100,1
2809734,1,5166,0,48188,51641,48326.36,51913.36,-138.36,-272.36,0.365166,100,1
2809774,1,5206,0,48207,51700,48326.12,51912.94,-119.12,-212.94,0.365054,100,1
2809814,1,5246,0,48231,51754,48325.93,51912.62,-94.93,-158.62,0.364944,100,1
2809854,1,5286,0,48249,51760,48325.78,51912.32,-76.78,-152.32,0.364835,100,1
2809894,1,5326,0,48243,51744,48325.61,51911.98,-82.61,-167.98,0.364727,100,1
2809934,1,5366,0,48225,51726,48325.41,51911.61,-100.41,-185.61,0.364622,100,1
2809974,1,5406,0,48229,51749,48325.22,51911.29,-96.22,-162.29,0.364518,100,1
2810014,1,5446,0,48238,51794,48325.05,51911.05,-87.05,-117.05,0.364416,100,1
2810055,1,5487,0,48260,51845,48324.92,51910.92,-64.92,-65.92,0.364316,100,1
2810095,1,5527,0,48280,51900,48324.83,51910.9,-44.83,-10.9,0.364216,100,1
2810135,1,5567,0,48300,51955,48324.79,51910.99,-24.79,44.01,0.364116,100,1
2810175,1,5607,0,48318,51998,48324.77,51911.17,-6.77,86.83,0.364017,100,1
2810215,1,5647,0,48333,52024,48324.79,51911.39,8.21,112.61,0.363918,100,1
2810255,1,5687,0,48347,52057,48324.84,51911.69,22.16,145.31,0.363818,100,1
2810295,1,5727,0,48359,52100,48324.91,51912.07,34.09,187.93,0.363719,100,1
2810335,1,5767,0,48379,52143,48325.02,51912.53,53.98,230.47,0.363619,100,1
2810375,1,5807,0,48391,52114,48325.15,51912.93,65.85,201.07,0.363519,100,1
2810415,1,5847,0,48341,51908,48325.18,51912.93,15.82,-4.93,0.36342,100,1
2810455,1,5887,0,48244,51675,48325.02,51912.45,-81.02,-237.45,0.363322,100,1
2810495,1,5927,0,48172,51565,48324.72,51911.76,-152.72,-346.76,0.363227,100,1
2810535,1,5967,0,48146,51561,48324.36,51911.06,-178.36,-350.06,0.363138,100,1
2810575,1,6007,0,48156,51597,48324.03,51910.43,-168.03,-313.43,0.363054,100,1
2810615,1,6047,0,48175,51645,48323.73,51909.9,-148.73,-264.9,0.362974,100,1
2810655,1,6087,0,48194,51690,48323.47,51909.46,-129.47,-219.46,0.362898,100,1
2810695,1,6127,0,48204,51703,48323.23,51909.05,-119.23,-206.05,0.362825,100,1
2810735,1,6167,0,48197,51684,48322.98,51908.61,-125.98,-224.61,0.362755,100,1
2810775,1,6207,0,48185,51664,48322.71,51908.12,-137.71,-244.12,0.362689,100,1
2810816,1,6248,0,48185,51680,48322.44,51907.66,-137.44,-227.66,0.362627,100,1
2810856,1,6288,0,48196,51728,48322.19,51907.3,-126.19,-179.3,0.362568,100,1
2810896,1,6328,0,48217,51786,48321.98,51907.06,-104.98,-121.06,0.362512,100,1
2810936,1,6368,0,48238,51847,48321.81,51906.95,-83.81,-59.95,0.362459,100,1
2810976,1,6408,0,48260,51895,48321.69,51906.92,-61.69,-11.92,0.362406,100,1
2811016,1,6448,0,48283,51940,48321.61,51906.99,-38.61,33.01,0.362354,100,1
2811056,1,6488,0,48299,51983,48321.57,51907.14,-22.57,75.86,0.362303,100,1
2811096,1,6528,0,48313,52019,48321.55,51907.37,-8.55,111.63,0.362251,100,1
2811136,1,6568,0,48328,52050,48321.57,51907.65,6.43,142.35,0.362198,100,1
2811176,1,6608,0,48344,52079,48321.62,51908,22.38,171,0.362145,100,1
2811216,1,6648,0,48360,52118,48321.7,51908.42,38.3,209.58,0.362092,100,1
2811256,1,6688,0,48381,52133,48321.82,51908.87,59.18,224.13,0.362037,100,1
2811296,1,6728,0,48349,51944,48321.87,51908.94,27.13,35.06,0.361984,100,1
2811336,1,6768,0,48238,51672,48321.7,51908.46,-83.7,-236.46,0.361931,100,1
2811376,1,6808,0,48136,51498,48321.33,51907.64,-185.33,-409.64,0.361883,100,1
2811416,1,6848,0,48100,51455,48320.89,51906.74,-220.89,-451.74,0.361843,100,1
2811456,1,6888,0,48094,51473,48320.44,51905.87,-226.44,-432.87,0.361814,100,1
2811496,1,6928,0,48102,51503,48320,51905.07,-218,-402.07,0.361793,100,1
2811536,1,6968,0,48119,51554,48319.6,51904.37,-200.6,-350.37,0.36178,100,1
2811576,1,7008,0,48139,51578,48319.24,51903.72,-180.24,-325.72,0.361774,100,1
2811617,1,7049,0,48138,51569,48318.88,51903.05,-180.88,-334.05,0.361773,100,1
2811657,1,7089,0,48128,51552,48318.5,51902.35,-190.5,-350.35,0.361779,100,1
2811697,1,7129,0,48121,51556,48318.11,51901.66,-197.11,-345.66,0.361792,100,1
2811737,1,7169,0,48131,51597,48317.73,51901.05,-186.73,-304.05,0.361812,100,1
2811777,1,7209,0,48153,51656,48317.41,51900.56,-164.41,-244.56,0.361838,100,1
2811817,1,7249,0,48178,51714,48317.13,51900.19,-139.13,-186.19,0.361868,100,1
2811857,1,7289,0,48199,51768,48316.89,51899.93,-117.89,-131.93,0.361902,100,1
2811897,1,7329,0,48221,51823,48316.7,51899.78,-95.7,-76.78,0.361938,100,1
2811937,1,7369,0,48245,51867,48316.56,51899.71,-71.56,-32.71,0.361975,100,1
2811977,1,7409,0,48264,51902,48316.46,51899.72,-52.46,2.28,0.362014,100,1
2812017,1,7449,0,48282,51928,48316.39,51899.78,-34.39,28.22,0.362052,100,1
2812057,1,7489,0,48293,51960,48316.34,51899.9,-23.34,60.1,0.36209,100,1
2812097,1,7529,0,48307,52002,48316.33,51900.11,-9.33,101.89,0.362128,100,1
2812137,1,7569,0,48324,52048,48316.34,51900.41,7.66,147.59,0.362165,100,1
2812177,1,7609,0,48343,52067,48316.4,51900.74,26.6,166.26,0.362201,100,1
2812217,1,7649,0,48323,51913,48316.41,51900.77,6.59,12.23,0.362237,100,1
2812257,1,7689,0,48221,51637,48316.22,51900.24,-95.22,-263.24,0.362273,100,1
2812297,1,7729,0,48119,51434,48315.83,51899.31,-196.83,-465.31,0.362313,100,1
2812337,1,7769,0,48060,51379,48315.32,51898.27,-255.32,-519.27,0.362362,100,1
2812377,1,7809,0,48060,51402,48314.81,51897.28,-254.81,-495.28,0.362422,100,1
2812418,1,7850,0,48076,51435,48314.33,51896.36,-238.33,-461.36,0.362492,100,1
2812458,1,7890,0,48091,51486,48313.89,51895.54,-222.89,-409.54,0.362569,100,1
2812498,1,7930,0,48112,51524,48313.48,51894.8,-201.48,-370.8,0.362653,100,1
2812538,1,7970,0,48114,51525,48313.09,51894.06,-199.09,-369.06,0.362743,100,1
2812578,1,8010,0,48110,51503,48312.68,51893.28,-202.68,-390.28,0.362839,100,1
2812618,1,8050,0,48105,51498,48312.27,51892.49,-207.27,-394.49,0.362941,100,1
2812658,1,8090,0,48111,51531,48311.86,51891.77,-200.86,-360.77,0.36305,100,1
2812698,1,8130,0,48130,51593,48311.5,51891.17,-181.5,-298.17,0.363164,100,1
2812738,1,8170,0,48154,51655,48311.19,51890.7,-157.19,-235.7,0.363283,100,1
2812778,1,8210,0,48184,51711,48310.93,51890.34,-126.93,-179.34,0.363404,100,1
2812818,1,8250,0,48210,51758,48310.73,51890.07,-100.73,-132.07,0.363528,100,1
2812858,1,8290,0,48230,51792,48310.57,51889.88,-80.57,-97.88,0.363653,100,1
2812898,1,8330,0,48246,51828,48310.45,51889.76,-64.45,-61.76,0.363779,100,1
2812938,1,8370,0,48252,51857,48310.33,51889.7,-58.33,-32.7,0.363905,100,1
2812978,1,8410,0,48264,51884,48310.24,51889.68,-46.24,-5.68,0.364032,100,1
2813018,1,8450,0,48279,51909,48310.18,51889.72,-31.18,19.28,0.364158,100,1
2813058,1,8490,0,48290,51948,48310.14,51889.84,-20.14,58.16,0.364284,100,1
2813098,1,8530,0,48306,51986,48310.13,51890.04,-4.13,95.96,0.36441,100,1
2813138,1,8570,0,48311,51896,48310.13,51890.05,0.87,5.95,0.364535,100,1
2813178,1,8610,0,48227,51628,48309.97,51889.52,-82.97,-261.52,0.364658,100,1
2813219,1,8651,0,48113,51397,48309.57,51888.54,-196.57,-491.54,0.364783,100,1
2813259,1,8691,0,48053,51312,48309.06,51887.39,-256.06,-575.39,0.364913,100,1
2813299,1,8731,0,48039,51340,48308.52,51886.29,-269.52,-546.29,0.365051,100,1
2813339,1,8771,0,48054,51393,48308.02,51885.31,-254.02,-492.31,0.365198,100,1
2813379,1,8811,0,48077,51463,48307.55,51884.46,-230.55,-421.46,0.365353,100,1
2813419,1,8851,0,48108,51500,48307.16,51883.7,-199.16,-383.7,0.365512,100,1
2813459,1,8891,0,48113,51488,48306.77,51882.91,-193.77,-394.91,0.365675,100,1
2813499,1,8931,0,48100,51455,48306.36,51882.05,-206.36,-427.05,0.365842,100,1
2813539,1,8971,0,48090,51447,48305.93,51881.18,-215.93,-434.18,0.366013,100,1
2813579,1,9011,0,48098,51471,48305.51,51880.36,-207.51,-409.36,0.366189,100,1
2813619,1,9051,0,48117,51521,48305.14,51879.64,-188.14,-358.64,0.366369,100,1
2813659,1,9091,0,48144,51572,48304.82,51879.03,-160.82,-307.03,0.366551,100,1
2813699,1,9131,0,48163,51624,48304.54,51878.52,-141.54,-254.52,0.366736,100,1
2813739,1,9171,0,48184,51672,48304.3,51878.11,-120.3,-206.11,0.366922,100,1
2813779,1,9211,0,48198,51700,48304.09,51877.76,-106.09,-177.76,0.36711,100,1
2813819,1,9251,0,48211,51725,48303.9,51877.45,-92.9,-152.45,0.367299,100,1
2813859,1,9291,0,48220,51738,48303.73,51877.18,-83.73,-139.18,0.367488,100,1
2813899,1,9331,0,48224,51762,48303.57,51876.95,-79.57,-114.95,0.367678,100,1
2813939,1,9371,0,48236,51799,48303.44,51876.79,-67.44,-77.79,0.367868,100,1
2813979,1,9411,0,48250,51819,48303.34,51876.68,-53.34,-57.68,0.368059,100,1
2814019,1,9451,0,48236,51682,48303.2,51876.29,-67.2,-194.29,0.368248,100,1
2814060,1,9492,0,48142,51405,48302.88,51875.35,-160.88,-470.35,0.368434,100,1
2814100,1,9532,0,48039,51207,48302.36,51874.01,-263.36,-667.01,0.368619,100,1
2814140,1,9572,0,47985,51159,48301.72,51872.58,-316.72,-713.58,0.368809,100,1
2814180,1,9612,0,47984,51195,48301.09,51871.23,-317.09,-676.23,0.369005,100,1
2814220,1,9652,0,48003,51248,48300.5,51869.98,-297.5,-621.98,0.369208,100,1
2814260,1,9692,0,48032,51316,48299.96,51868.87,-267.96,-552.87,0.369416,100,1
2814300,1,9732,0,48059,51347,48299.48,51867.83,-240.48,-520.83,0.369627,100,1
2814340,1,9772,0,48056,51331,48299,51866.76,-243,-535.76,0.36984,100,1
2814380,1,9812,0,48050,51308,48298.5,51865.64,-248.5,-557.64,0.370055,100,1
2814420,1,9852,0,48048,51315,48298,51864.54,-250,-549.54,0.370272,100,1
2814460,1,9892,0,48058,51354,48297.52,51863.52,-239.52,-509.52,0.370492,100,1
2814500,1,9932,0,48085,51408,48297.1,51862.61,-212.1,-454.61,0.370714,100,1
2814540,1,9972,0,48107,51466,48296.72,51861.82,-189.72,-395.82,0.370938,100,1
2814580,1,10012,0,48130,51519,48296.39,51861.13,-166.39,-342.13,0.371162,100,1
2814620,1,10052,0,48148,51554,48296.09,51860.52,-148.09,-306.52,0.371388,100,1
2814660,1,10092,0,48164,51587,48295.83,51859.97,-131.83,-272.97,0.371614,100,1
2814700,1,10132,0,48176,51614,48295.59,51859.48,-119.59,-245.48,0.37184,100,1
2814740,1,10172,0,48188,51641,48295.37,51859.04,-107.37,-218.04,0.372067,100,1
2814780,1,10212,0,48191,51665,48295.17,51858.66,-104.17,-193.66,0.372294,100,1
2814820,1,10252,0,48199,51694,48294.98,51858.33,-95.98,-164.33,0.372521,100,1
2814861,1,10293,0,48220,51733,48294.83,51858.08,-74.83,-125.08,0.372749,100,1
2814901,1,10333,0,48233,51747,48294.71,51857.86,-61.71,-110.86,0.372976,100,1
2814941,1,10373,0,48201,51554,48294.52,51857.25,-93.52,-303.25,0.3732,100,1
2814981,1,10413,0,48082,51240,48294.1,51856.02,-212.1,-616.02,0.373419,100,1
2815021,1,10453,0,47965,51025,48293.44,51854.36,-328.44,-829.36,0.373634,100,1
2815061,1,10493,0,47911,50967,48292.68,51852.58,-381.68,-885.58,0.373851,100,1
2815101,1,10533,0,47911,50989,48291.92,51850.86,-380.92,-861.86,0.374071,100,1
2815141,1,10573,0,47919,51007,48291.17,51849.17,-372.17,-842.17,0.374294,100,1
2815181,1,10613,0,47934,51059,48290.46,51847.59,-356.46,-788.59,0.374521,100,1
2815221,1,10653,0,47960,51103,48289.8,51846.1,-329.8,-743.1,0.374749,100,1
2815261,1,10693,0,47973,51101,48289.16,51844.61,-316.16,-743.61,0.374977,100,1
2815301,1,10733,0,47967,51088,48288.52,51843.1,-321.52,-755.1,0.375205,100,1
2815341,1,10773,0,47965,51090,48287.87,51841.6,-322.87,-751.6,0.375434,100,1
2815381,1,10813,0,47973,51133,48287.25,51840.18,-314.25,-707.18,0.375663,100,1
2815421,1,10853,0,47993,51190,48286.66,51838.88,-293.66,-648.88,0.375895,100,1
2815461,1,10893,0,48024,51249,48286.14,51837.7,-262.14,-588.7,0.376127,100,1
2815501,1,10933,0,48048,51297,48285.66,51836.62,-237.66,-539.62,0.376359,100,1
2815541,1,10973,0,48064,51344,48285.22,51835.64,-221.22,-491.64,0.376592,100,1
2815581,1,11013,0,48082,51379,48284.81,51834.73,-202.81,-455.73,0.376824,100,1
2815621,1,11053,0,48093,51411,48284.43,51833.88,-191.43,-422.88,0.377057,100,1
2815661,1,11093,0,48107,51437,48284.07,51833.09,-177.07,-396.09,0.37729,100,1
2815702,1,11134,0,48118,51471,48283.74,51832.37,-165.74,-361.37,0.377522,100,1
2815742,1,11174,0,48129,51504,48283.43,51831.71,-154.43,-327.71,0.377755,100,1
2815782,1,11214,0,48145,51548,48283.16,51831.14,-138.16,-283.14,0.377989,100,1
2815822,1,11254,0,48158,51595,48282.91,51830.67,-124.91,-235.67,0.378222,100,1
2815862,1,11294,0,48177,51587,48282.7,51830.19,-105.7,-243.19,0.378455,100,1
2815902,1,11334,0,48135,51351,48282.4,51829.23,-147.4,-478.23,0.378684,100,1
2815942,1,11374,0,48008,51043,48281.86,51827.66,-273.86,-784.66,0.378905,100,1
2815982,1,11414,0,47902,50878,48281.1,51825.76,-379.1,-947.76,0.379122,100,1
2816022,1,11454,0,47868,50862,48280.27,51823.84,-412.27,-961.84,0.379339,100,1
2816062,1,11494,0,47879,50893,48279.47,51821.98,-400.47,-928.98,0.379558,100,1
2816102,1,11534,0,47894,50923,48278.7,51820.18,-384.7,-897.18,0.379776,100,1
2816142,1,11574,0,47911,50981,48277.97,51818.5,-366.97,-837.5,0.379996,100,1
2816182,1,11614,0,47938,51017,48277.29,51816.9,-339.29,-799.9,0.380215,100,1
2816222,1,11654,0,47944,51022,48276.62,51815.31,-332.62,-793.31,0.380433,100,1
2816262,1,11694,0,47943,51012,48275.96,51813.71,-332.96,-801.71,0.38065,100,1
2816302,1,11734,0,47942,51026,48275.29,51812.13,-333.29,-786.13,0.380866,100,1
2816342,1,11774,0,47962,51075,48274.67,51810.66,-312.67,-735.66,0.381082,100,1
2816382,1,11814,0,47983,51141,48274.09,51809.32,-291.09,-668.32,0.381298,100,1
2816422,1,11854,0,48008,51206,48273.55,51808.11,-265.55,-602.11,0.381514,100,1
2816462,1,11894,0,48032,51254,48273.07,51807.01,-241.07,-553.01,0.38173,100,1
2816502,1,11934,0,48055,51301,48272.64,51806,-217.64,-505,0.381946,100,1
2816543,1,11975,0,48073,51336,48272.24,51805.06,-199.24,-469.06,0.382161,100,1
2816583,1,12015,0,48089,51370,48271.87,51804.19,-182.87,-434.19,0.382376,100,1
2816623,1,12055,0,48097,51409,48271.53,51803.4,-174.53,-394.4,0.38259,100,1
2816663,1,12095,0,48115,51452,48271.21,51802.7,-156.21,-350.7,0.382804,100,1
2816703,1,12135,0,48132,51486,48270.94,51802.07,-138.94,-316.07,0.383018,100,1
2816743,1,12175,0,48150,51524,48270.7,51801.51,-120.7,-277.51,0.383231,100,1
2816783,1,12215,0,48169,51573,48270.49,51801.05,-101.49,-228.05,0.383443,100,1
2816823,1,12255,0,48191,51627,48270.34,51800.71,-79.34,-173.71,0.383655,100,1
2816863,1,12295,0,48205,51568,48270.21,51800.24,-65.21,-232.24,0.383866,100,1
2816903,1,12335,0,48129,51294,48269.93,51799.23,-140.93,-505.23,0.384071,100,1
2816943,1,12375,0,48011,51016,48269.41,51797.66,-258.41,-781.66,0.38427,100,1
2816983,1,12415,0,47932,50912,48268.74,51795.89,-336.74,-883.89,0.384464,100,1
2817023,1,12455,0,47917,50917,48268.04,51794.14,-351.04,-877.14,0.384656,100,1
2817063,1,12495,0,47929,50959,48267.36,51792.47,-338.36,-833.47,0.384846,100,1
2817103,1,12535,0,47945,50994,48266.71,51790.87,-321.71,-796.87,0.385034,100,1
2817143,1,12575,0,47967,51049,48266.12,51789.39,-299.12,-740.39,0.385221,100,1
2817183,1,12615,0,47986,51070,48265.56,51787.96,-279.56,-717.96,0.385406,100,1
2817223,1,12655,0,47984,51054,48265,51786.49,-281,-732.49,0.385588,100,1
2817263,1,12695,0,47979,51045,48264.43,51785.01,-285.43,-740.01,0.385768,100,1
2817303,1,12735,0,47985,51070,48263.87,51783.58,-278.87,-713.58,0.385945,100,1
2817344,1,12776,0,48006,51127,48263.35,51782.27,-257.35,-655.27,0.386121,100,1
2817384,1,12816,0,48028,51195,48262.88,51781.1,-234.88,-586.1,0.386296,100,1
2817424,1,12856,0,48054,51255,48262.46,51780.05,-208.46,-525.05,0.38647,100,1
2817464,1,12896,0,48079,51307,48262.1,51779.1,-183.1,-472.1,0.386643,100,1
2817504,1,12936,0,48101,51346,48261.78,51778.24,-160.78,-432.24,0.386814,100,1
2817544,1,12976,0,48117,51381,48261.49,51777.45,-144.49,-396.45,0.386984,100,1
2817584,1,13016,0,48130,51425,48261.23,51776.74,-131.23,-351.74,0.387153,100,1
2817624,1,13056,0,48153,51455,48261.01,51776.1,-108.01,-321.1,0.38732,100,1
2817664,1,13096,0,48169,51482,48260.83,51775.52,-91.83,-293.52,0.387486,100,1
2817704,1,13136,0,48192,51525,48260.69,51775.02,-68.69,-250.02,0.387651,100,1
2817744,1,13176,0,48205,51568,48260.58,51774.6,-55.58,-206.6,0.387815,100,1
2817784,1,13216,0,48228,51619,48260.52,51774.29,-32.52,-155.29,0.387977,100,1
2817824,1,13256,0,48240,51611,48260.48,51773.97,-20.48,-162.97,0.388139,100,1
2817864,1,13296,0,48199,51397,48260.36,51773.21,-61.36,-376.21,0.388297,100,1
2817904,1,13336,0,48090,51125,48260.02,51771.92,-170.02,-646.92,0.388448,100,1
2817944,1,13376,0,48004,50992,48259.51,51770.36,-255.51,-778.36,0.388593,100,1
2817984,1,13416,0,47986,51001,48258.96,51768.82,-272.96,-767.82,0.388734,100,1
2818025,1,13457,0,47996,51050,48258.44,51767.38,-262.44,-717.38,0.388873,100,1
2818065,1,13497,0,48023,51109,48257.97,51766.07,-234.97,-657.07,0.389009,100,1
2818105,1,13537,0,48051,51175,48257.55,51764.89,-206.55,-589.89,0.389142,100,1
2818145,1,13577,0,48067,51204,48257.18,51763.77,-190.18,-559.77,0.389272,100,1
2818185,1,13617,0,48070,51187,48256.8,51762.61,-186.8,-575.61,0.3894,100,1
2818225,1,13657,0,48067,51184,48256.42,51761.46,-189.42,-577.46,0.389524,100,1
2818265,1,13697,0,48078,51220,48256.07,51760.37,-178.07,-540.37,0.389646,100,1
2818305,1,13737,0,48094,51281,48255.74,51759.42,-161.74,-478.42,0.389766,100,1
2818345,1,13777,0,48128,51353,48255.49,51758.61,-127.49,-405.61,0.389884,100,1
2818385,1,13817,0,48165,51418,48255.31,51757.93,-90.31,-339.93,0.389999,100,1
2818425,1,13857,0,48191,51472,48255.18,51757.36,-64.18,-285.36,0.390114,100,1
2818465,1,13897,0,48215,51513,48255.1,51756.87,-40.1,-243.87,0.390227,100,1
2818505,1,13937,0,48231,51553,48255.05,51756.46,-24.05,-203.46,0.390338,100,1
2818545,1,13977,0,48243,51586,48255.03,51756.12,-12.03,-170.12,0.390448,100,1
2818585,1,14017,0,48261,51618,48255.04,51755.85,5.96,-137.85,0.390558,100,1
2818625,1,14057,0,48274,51655,48255.08,51755.65,18.92,-100.65,0.390667,100,1
2818665,1,14097,0,48293,51690,48255.16,51755.52,37.84,-65.52,0.390776,100,1
2818705,1,14137,0,48305,51734,48255.26,51755.48,49.74,-21.48,0.390885,100,1
2818745,1,14177,0,48324,51778,48255.4,51755.52,68.6,22.48,0.390994,100,1
2818786,1,14218,0,48340,51819,48255.57,51755.65,84.43,63.35,0.391104,100,1
2818826,1,14258,0,48342,51727,48255.75,51755.6,86.25,-28.6,0.391215,100,1
2818866,1,14298,0,48262,51449,48255.77,51754.98,6.23,-305.98,0.391324,100,1
2818906,1,14338,0,48143,51200,48255.54,51753.87,-112.54,-553.87,0.391425,100,1
2818946,1,14378,0,48073,51115,48255.18,51752.6,-182.18,-637.6,0.391522,100,1
2818986,1,14418,0,48065,51128,48254.8,51751.35,-189.8,-623.35,0.391614,100,1
2819026,1,14458,0,48080,51160,48254.45,51750.17,-174.45,-590.17,0.391702,100,1
2819066,1,14498,0,48088,51194,48254.12,51749.06,-166.12,-555.06,0.391786,100,1
2819106,1,14538,0,48112,51248,48253.84,51748.06,-141.84,-500.06,0.391867,100,1
2819146,1,14578,0,48136,51276,48253.61,51747.12,-117.61,-471.12,0.391944,100,1
2819186,1,14618,0,48144,51266,48253.39,51746.16,-109.39,-480.16,0.392017,100,1
2819226,1,14658,0,48141,51264,48253.16,51745.2,-112.16,-481.2,0.392087,100,1
2819266,1,14698,0,48152,51301,48252.96,51744.31,-100.96,-443.31,0.392153,100,1
2819306,1,14738,0,48172,51354,48252.8,51743.53,-80.8,-389.53,0.392215,100,1
2819346,1,14778,0,48194,51417,48252.69,51742.88,-58.69,-325.88,0.392276,100,1
2819386,1,14818,0,48224,51474,48252.63,51742.34,-28.63,-268.34,0.392335,100,1
2819426,1,14858,0,48239,51518,48252.61,51741.89,-13.61,-223.89,0.392392,100,1
2819466,1,14898,0,48260,51559,48252.62,51741.53,7.38,-182.53,0.392448,100,1
2819506,1,14938,0,48277,51592,48252.67,51741.23,24.33,-149.23,0.392504,100,1
2819546,1,14978,0,48287,51625,48252.74,51741,34.26,-116,0.392559,100,1
2819587,1,15019,0,48304,51658,48252.85,51740.84,51.15,-82.84,0.392614,100,1
2819627,1,15059,0,48314,51694,48252.97,51740.75,61.03,-46.75,0.39267,100,1
2819667,1,15099,0,48332,51744,48253.13,51740.75,78.87,3.25,0.392727,100,1
2819707,1,15139,0,48349,51779,48253.32,51740.83,95.68,38.17,0.392785,100,1
2819747,1,15179,0,48368,51825,48253.55,51741,114.45,84,0.392845,100,1
2819787,1,15219,0,48390,51872,48253.83,51741.26,136.17,130.74,0.392909,100,1
2819827,1,15259,0,48405,51891,48254.13,51741.56,150.87,149.44,0.392975,100,1
2819867,1,15299,0,48380,51708,48254.39,51741.5,125.61,-33.5,0.393045,100,1
2819907,1,15339,0,48277,51406,48254.43,51740.83,22.57,-334.83,0.393111,100,1
2819947,1,15379,0,48181,51222,48254.29,51739.79,-73.29,-517.79,0.39317,100,1
2819987,1,15419,0,48138,51190,48254.06,51738.7,-116.06,-548.7,0.393223,100,1
2820027,1,15459,0,48142,51220,48253.84,51737.66,-111.84,-517.66,0.393271,100,1
2820067,1,15499,0,48156,51241,48253.64,51736.67,-97.64,-495.67,0.393313,100,1
2820107,1,15539,0,48169,51282,48253.47,51735.76,-84.47,-453.76,0.393351,100,1
2820147,1,15579,0,48185,51327,48253.34,51734.95,-68.34,-407.95,0.393385,100,1
2820187,1,15619,0,48193,51329,48253.21,51734.13,-60.21,-405.13,0.393415,100,1
2820227,1,15659,0,48192,51323,48253.09,51733.31,-61.09,-410.31,0.39344,100,1
2820268,1,15700,0,48188,51324,48252.96,51732.5,-64.96,-408.5,0.393462,100,1
2820308,1,15740,0,48204,51370,48252.87,51731.77,-48.87,-361.77,0.393481,100,1
2820348,1,15780,0,48220,51435,48252.8,51731.18,-32.8,-296.18,0.393497,100,1
2820388,1,15820,0,48247,51494,48252.79,51730.71,-5.79,-236.71,0.393512,100,1
2820428,1,15860,0,48276,51546,48252.84,51730.34,23.16,-184.34,0.393526,100,1
2820468,1,15900,0,48294,51594,48252.92,51730.07,41.08,-136.07,0.393539,100,1
2820508,1,15940,0,48314,51638,48253.04,51729.89,60.96,-91.89,0.393553,100,1
2820548,1,15980,0,48333,51673,48253.2,51729.77,79.8,-56.77,0.393569,100,1
2820588,1,16020,0,48355,51706,48253.41,51729.73,101.59,-23.73,0.393586,100,1
2820628,1,16060,0,48369,51736,48253.64,51729.74,115.36,6.26,0.393606,100,1
2820668,1,16100,0,48381,51772,48253.9,51729.83,127.1,42.17,0.39363,100,1
2820708,1,16140,0,48392,51808,48254.18,51729.98,137.82,78.02,0.393657,100,1
2820748,1,16180,0,48410,51841,48254.49,51730.21,155.51,110.79,0.39369,100,1
2820788,1,16220,0,48428,51882,48254.84,51730.51,173.16,151.49,0.393728,100,1
2820828,1,16260,0,48442,51919,48255.21,51730.89,186.79,188.11,0.393772,100,1
2820868,1,16300,0,48437,51836,48255.57,51731.1,181.43,104.9,0.393824,100,1
2820908,1,16340,0,48362,51561,48255.79,51730.76,106.21,-169.76,0.393876,100,1
2820949,1,16381,0,48248,51304,48255.77,51729.91,-7.77,-425.91,0.393923,100,1
2820989,1,16421,0,48175,51216,48255.61,51728.88,-80.61,-512.88,0.393962,100,1
2821029,1,16461,0,48163,51233,48255.43,51727.89,-92.43,-494.89,0.393996,100,1
2821069,1,16501,0,48175,51273,48255.27,51726.98,-80.27,-453.98,0.394024,100,1
2821109,1,16541,0,48194,51317,48255.15,51726.16,-61.15,-409.16,0.394047,100,1
2821149,1,16581,0,48221,51378,48255.08,51725.46,-34.08,-347.46,0.394066,100,1
2821189,1,16621,0,48234,51392,48255.04,51724.8,-21.04,-332.8,0.394083,100,1
2821229,1,16661,0,48235,51371,48255,51724.09,-20,-353.09,0.394095,100,1
2821269,1,16701,0,48233,51364,48254.96,51723.37,-21.96,-359.37,0.394103,100,1
2821309,1,16741,0,48242,51386,48254.94,51722.7,-12.94,-336.7,0.394107,100,1
2821349,1,16781,0,48254,51437,48254.94,51722.13,-0.94,-285.13,0.394109,100,1
2821389,1,16821,0,48278,51501,48254.98,51721.69,23.02,-220.69,0.394109,100,1
2821429,1,16861,0,48304,51554,48255.08,51721.36,48.92,-167.36,0.394109,100,1
2821469,1,16901,0,48327,51591,48255.23,51721.1,71.77,-130.1,0.39411,100,1
2821509,1,16941,0,48343,51629,48255.4,51720.91,87.6,-91.91,0.394112,100,1
2821549,1,16981,0,48352,51658,48255.6,51720.79,96.4,-62.79,0.394116,100,1
2821589,1,17021,0,48362,51683,48255.81,51720.71,106.19,-37.71,0.394123,100,1
2821630,1,17062,0,48373,51704,48256.05,51720.68,116.95,-16.68,0.394134,100,1
2821670,1,17102,0,48382,51738,48256.3,51720.72,125.7,17.28,0.394148,100,1
2821710,1,17142,0,48394,51774,48256.58,51720.83,137.42,53.17,0.394167,100,1
2821750,1,17182,0,48408,51820,48256.88,51721.03,151.12,98.97,0.394192,100,1
2821790,1,17222,0,48430,51853,48257.23,51721.29,172.77,131.71,0.394223,100,1
2821830,1,17262,0,48422,51736,48257.56,51721.32,164.44,14.68,0.394262,100,1
2821870,1,17302,0,48334,51455,48257.71,51720.79,76.29,-265.79,0.394299,100,1
2821910,1,17342,0,48229,51238,48257.66,51719.83,-28.66,-481.83,0.394327,100,1
2821950,1,17382,0,48179,51181,48257.5,51718.75,-78.5,-537.75,0.394346,100,1
2821990,1,17422,0,48178,51208,48257.35,51717.73,-79.35,-509.73,0.394358,100,1
2822030,1,17462,0,48196,51247,48257.23,51716.79,-61.23,-469.79,0.394363,100,1
2822070,1,17502,0,48212,51301,48257.14,51715.96,-45.14,-414.96,0.394361,100,1
2822110,1,17542,0,48233,51340,48257.09,51715.21,-24.09,-375.21,0.394356,100,1
2822150,1,17582,0,48245,51336,48257.07,51714.45,-12.07,-378.45,0.394345,100,1
2822190,1,17622,0,48238,51314,48257.03,51713.65,-19.03,-399.65,0.394328,100,1
2822230,1,17662,0,48229,51323,48256.98,51712.87,-27.98,-389.87,0.394307,100,1
2822270,1,17702,0,48238,51353,48256.94,51712.15,-18.94,-359.15,0.394281,100,1
2822310,1,17742,0,48256,51408,48256.94,51711.54,-0.94,-303.54,0.394252,100,1
2822351,1,17783,0,48280,51461,48256.99,51711.04,23.01,-250.04,0.394221,100,1
2822391,1,17823,0,48299,51518,48257.07,51710.66,41.93,-192.66,0.394189,100,1
2822431,1,17863,0,48319,51557,48257.2,51710.36,61.8,-153.36,0.394157,100,1
2822471,1,17903,0,48335,51596,48257.36,51710.13,77.64,-114.13,0.394127,100,1
2822511,1,17943,0,48352,51623,48257.55,51709.96,94.45,-86.96,0.394099,100,1
2822551,1,17983,0,48362,51657,48257.76,51709.85,104.24,-52.85,0.394075,100,1
2822591,1,18023,0,48379,51694,48258,51709.82,121,-15.82,0.394054,100,1
2822631,1,18063,0,48395,51724,48258.27,51709.85,136.73,14.15,0.394039,100,1
2822671,1,18103,0,48411,51758,48258.58,51709.95,152.42,48.05,0.394031,100,1
2822711,1,18143,0,48426,51796,48258.92,51710.12,167.08,85.88,0.39403,100,1
2822751,1,18183,0,48443,51831,48259.29,51710.36,183.71,120.64,0.394039,100,1
2822791,1,18223,0,48443,51726,48259.66,51710.39,183.34,15.61,0.394057,100,1
2822831,1,18263,0,48355,51424,48259.85,51709.82,95.15,-285.82,0.394075,100,1
2822871,1,18303,0,48231,51152,48259.79,51708.71,-28.79,-556.71,0.39408,100,1
2822911,1,18343,0,48152,51053,48259.58,51707.4,-107.58,-654.4,0.394072,100,1
2822951,1,18383,0,48138,51054,48259.34,51706.1,-121.34,-652.1,0.394051,100,1
2822991,1,18423,0,48140,51065,48259.1,51704.82,-119.1,-639.82,0.39402,100,1
2823031,1,18463,0,48142,51076,48258.86,51703.56,-116.86,-627.56,0.393978,100,1
2823072,1,18504,0,48158,51119,48258.66,51702.39,-100.66,-583.39,0.393928,100,1
2823112,1,18544,0,48171,51141,48258.49,51701.27,-87.49,-560.27,0.393868,100,1
2823152,1,18584,0,48175,51131,48258.32,51700.13,-83.32,-569.13,0.3938,100,1
2823192,1,18624,0,48168,51137,48258.14,51699,-90.14,-562,0.393723,100,1
2823232,1,18664,0,48178,51165,48257.98,51697.94,-79.98,-532.94,0.393639,100,1
2823272,1,18704,0,48198,51221,48257.87,51696.98,-59.87,-475.98,0.393549,100,1
2823312,1,18744,0,48224,51281,48257.8,51696.15,-33.8,-415.15,0.393454,100,1
2823352,1,18784,0,48244,51338,48257.77,51695.44,-13.77,-357.44,0.393355,100,1
2823392,1,18824,0,48271,51385,48257.8,51694.82,13.2,-309.82,0.393253,100,1
2823432,1,18864,0,48290,51423,48257.87,51694.27,32.13,-271.27,0.393149,100,1
2823472,1,18904,0,48311,51451,48257.98,51693.79,53.02,-242.79,0.393045,100,1
2823512,1,18944,0,48324,51477,48258.11,51693.36,65.89,-216.36,0.392941,100,1
2823552,1,18984,0,48334,51512,48258.26,51692.99,75.74,-180.99,0.392837,100,1
2823592,1,19024,0,48347,51540,48258.44,51692.69,88.56,-152.69,0.392736,100,1
2823632,1,19064,0,48362,51567,48258.65,51692.44,103.35,-125.44,0.392637,100,1
2823672,1,19104,0,48367,51608,48258.87,51692.27,108.13,-84.27,0.392542,100,1
2823712,1,19144,0,48385,51652,48259.12,51692.19,125.88,-40.19,0.392452,100,1
2823752,1,19184,0,48401,51668,48259.41,51692.14,141.59,-24.14,0.392368,100,1
2823792,1,19224,0,48378,51491,48259.64,51691.74,118.36,-200.74,0.392288,100,1
2823833,1,19265,0,48270,51175,48259.67,51690.71,10.33,-515.71,0.392198,100,1
2823873,1,19305,0,48152,50965,48259.45,51689.26,-107.45,-724.26,0.392094,100,1
2823913,1,19345,0,48098,50918,48259.13,51687.72,-161.13,-769.72,0.391978,100,1
2823953,1,19385,0,48096,50939,48258.81,51686.22,-162.81,-747.22,0.391853,100,1
2823993,1,19425,0,48107,50951,48258.51,51684.75,-151.51,-733.75,0.391718,100,1
2824033,1,19465,0,48117,50986,48258.23,51683.36,-141.23,-697.36,0.391574,100,1
2824073,1,19505,0,48142,51040,48258,51682.07,-116,-642.07,0.391422,100,1
2824113,1,19545,0,48153,51061,48257.79,51680.83,-104.79,-619.83,0.391263,100,1
2824153,1,19585,0,48156,51056,48257.59,51679.58,-101.59,-623.58,0.391097,100,1
2824193,1,19625,0,48160,51059,48257.39,51678.34,-97.39,-619.34,0.390923,100,1
2824233,1,19665,0,48173,51102,48257.22,51677.19,-84.22,-575.19,0.390742,100,1
2824273,1,19705,0,48195,51161,48257.1,51676.16,-62.1,-515.16,0.390556,100,1
2824313,1,19745,0,48224,51221,48257.03,51675.25,-33.03,-454.25,0.390365,100,1
2824353,1,19785,0,48242,51270,48257,51674.44,-15,-404.44,0.39017,100,1
2824393,1,19825,0,48264,51309,48257.02,51673.71,6.98,-364.71,0.389973,100,1
2824433,1,19865,0,48281,51345,48257.07,51673.05,23.93,-328.05,0.389773,100,1
2824473,1,19905,0,48292,51373,48257.14,51672.46,34.86,-299.46,0.389572,100,1
2824513,1,19945,0,48299,51401,48257.23,51671.91,41.77,-270.91,0.38937,100,1
2824553,1,19985,0,48315,51430,48257.34,51671.43,57.66,-241.43,0.389168,100,1
2824594,1,20026,0,48324,51458,48257.48,51671,66.52,-213,0.388967,100,1
2824634,1,20066,0,48339,51484,48257.64,51670.63,81.36,-186.63,0.388767,100,1
2824674,1,20106,0,48350,51530,48257.83,51670.35,92.17,-140.35,0.38857,100,1
2824714,1,20146,0,48364,51580,48258.04,51670.17,105.96,-90.17,0.388377,100,1
2824754,1,20186,0,48380,51587,48258.29,51670.01,121.71,-83.01,0.388189,100,1
2824794,1,20226,0,48347,51379,48258.47,51669.43,88.53,-290.43,0.388001,100,1
2824834,1,20266,0,48233,51070,48258.42,51668.23,-25.42,-598.23,0.387804,100,1
2824874,1,20306,0,48127,50895,48258.16,51666.68,-131.16,-771.68,0.387596,100,1
2824914,1,20346,0,48088,50873,48257.82,51665.09,-169.82,-792.09,0.387381,100,1
2824954,1,20386,0,48104,50908,48257.51,51663.58,-153.51,-755.58,0.387159,100,1
2824994,1,20426,0,48112,50930,48257.22,51662.12,-145.22,-732.12,0.386931,100,1
2825034,1,20466,0,48131,50984,48256.97,51660.76,-125.97,-676.76,0.386696,100,1
2825074,1,20506,0,48153,51022,48256.77,51659.48,-103.77,-637.48,0.386456,100,1
2825114,1,20546,0,48160,51016,48256.57,51658.2,-96.57,-642.2,0.386209,100,1
2825154,1,20586,0,48155,51001,48256.37,51656.89,-101.37,-655.89,0.385956,100,1
2825194,1,20626,0,48149,51007,48256.16,51655.59,-107.16,-648.59,0.385697,100,1
2825234,1,20666,0,48162,51053,48255.97,51654.39,-93.97,-601.39,0.385434,100,1
2825274,1,20706,0,48183,51114,48255.82,51653.31,-72.82,-539.31,0.385167,100,1
2825314,1,20746,0,48207,51169,48255.73,51652.34,-48.73,-483.34,0.384896,100,1
2825354,1,20786,0,48224,51214,48255.66,51651.46,-31.66,-437.46,0.384621,100,1
2825395,1,20827,0,48245,51256,48255.64,51650.68,-10.64,-394.68,0.384345,100,1
2825435,1,20867,0,48261,51284,48255.66,51649.95,5.34,-365.95,0.384066,100,1
2825475,1,20907,0,48270,51312,48255.69,51649.27,14.31,-337.27,0.383785,100,1
2825515,1,20947,0,48280,51340,48255.74,51648.65,24.26,-308.65,0.383504,100,1
2825555,1,20987,0,48284,51360,48255.8,51648.08,28.2,-288.08,0.383222,100,1
2825595,1,21027,0,48303,51394,48255.89,51647.57,47.11,-253.57,0.38294,100,1
2825635,1,21067,0,48318,51447,48256.02,51647.17,61.98,-200.17,0.382659,100,1
2825675,1,21107,0,48333,51496,48256.17,51646.87,76.83,-150.87,0.38238,100,1
2825715,1,21147,0,48347,51439,48256.36,51646.46,90.64,-207.46,0.382103,100,1
2825755,1,21187,0,48286,51165,48256.41,51645.5,29.59,-480.5,0.381823,100,1
2825795,1,21227,0,48162,50891,48256.23,51643.99,-94.23,-752.99,0.381533,100,1
2825835,1,21267,0,48079,50792,48255.87,51642.29,-176.87,-850.29,0.381239,100,1
2825875,1,21307,0,48074,50811,48255.51,51640.62,-181.51,-829.62,0.38094,100,1
2825915,1,21347,0,48085,50852,48255.17,51639.05,-170.17,-787.05,0.380639,100,1
2825955,1,21387,0,48096,50899,48254.86,51637.57,-158.86,-738.57,0.380335,100,1
2825995,1,21427,0,48127,50961,48254.6,51636.22,-127.6,-675.22,0.380027,100,1
2826035,1,21467,0,48137,50977,48254.37,51634.9,-117.37,-657.9,0.379716,100,1
2826075,1,21507,0,48139,50964,48254.14,51633.56,-115.14,-669.56,0.379402,100,1
2826115,1,21547,0,48131,50954,48253.89,51632.2,-122.89,-678.2,0.379084,100,1
2826156,1,21588,0,48138,50991,48253.66,51630.92,-115.66,-639.92,0.378763,100,1
2826196,1,21628,0,48155,51055,48253.46,51629.77,-98.46,-574.77,0.37844,100,1
2826236,1,21668,0,48180,51126,48253.32,51628.76,-73.32,-502.76,0.378115,100,1
2826276,1,21708,0,48203,51179,48253.22,51627.86,-50.22,-448.86,0.377788,100,1
2826316,1,21748,0,48228,51224,48253.17,51627.06,-25.17,-403.06,0.377459,100,1
2826356,1,21788,0,48248,51262,48253.16,51626.33,-5.16,-364.33,0.377129,100,1
2826396,1,21828,0,48262,51294,48253.18,51625.66,8.82,-331.66,0.376797,100,1
2826436,1,21868,0,48273,51332,48253.22,51625.08,19.78,-293.08,0.376466,100,1
2826476,1,21908,0,48287,51365,48253.29,51624.56,33.71,-259.56,0.376134,100,1
2826516,1,21948,0,48310,51400,48253.41,51624.11,56.59,-224.11,0.375804,100,1
2826556,1,21988,0,48326,51437,48253.55,51623.74,72.45,-186.74,0.375475,100,1
2826596,1,22028,0,48336,51474,48253.72,51623.44,82.28,-149.44,0.375149,100,1
2826636,1,22068,0,48354,51518,48253.92,51623.23,100.08,-105.23,0.374827,100,1
2826676,1,22108,0,48372,51548,48254.16,51623.08,117.84,-75.08,0.37451,100,1
2826716,1,22148,0,48365,51413,48254.38,51622.66,110.62,-209.66,0.374196,100,1
2826756,1,22188,0,48262,51076,48254.4,51621.57,7.6,-545.57,0.373878,100,1
2826796,1,22228,0,48122,50816,48254.14,51619.96,-132.14,-803.96,0.373554,100,1
2826836,1,22268,0,48056,50741,48253.74,51618.2,-197.74,-877.2,0.373228,100,1
2826876,1,22308,0,48046,50751,48253.33,51616.47,-207.33,-865.47,0.372903,100,1
2826917,1,22349,0,48051,50760,48252.93,51614.76,-201.93,-854.76,0.372577,100,1
2826957,1,22389,0,48050,50784,48252.52,51613.1,-202.52,-829.1,0.372252,100,1
2826997,1,22429,0,48067,50842,48252.15,51611.56,-185.15,-769.56,0.371927,100,1
2827037,1,22469,0,48086,50884,48251.82,51610.11,-165.82,-726.11,0.371603,100,1
2827077,1,22509,0,48095,50877,48251.5,51608.64,-156.5,-731.64,0.371277,100,1
2827117,1,22549,0,48097,50887,48251.2,51607.2,-154.2,-720.2,0.37095,100,1
2827157,1,22589,0,48102,50929,48250.9,51605.84,-148.9,-676.84,0.370622,100,1
2827197,1,22629,0,48128,50998,48250.65,51604.63,-122.65,-606.63,0.370294,100,1
2827237,1,22669,0,48159,51066,48250.47,51603.55,-91.47,-537.55,0.369964,100,1
2827277,1,22709,0,48187,51121,48250.34,51602.59,-63.34,-481.59,0.369633,100,1
2827317,1,22749,0,48214,51174,48250.27,51601.73,-36.27,-427.73,0.3693,100,1
2827357,1,22789,0,48232,51217,48250.24,51600.96,-18.24,-383.96,0.368966,100,1
2827397,1,22829,0,48250,51254,48250.24,51600.27,-0.24,-346.27,0.368631,100,1
2827437,1,22869,0,48261,51290,48250.26,51599.65,10.74,-309.65,0.368295,100,1
2827477,1,22909,0,48277,51326,48250.32,51599.11,26.68,-273.11,0.36796,100,1
2827517,1,22949,0,48289,51365,48250.39,51598.64,38.61,-233.64,0.367625,100,1
2827557,1,22989,0,48305,51403,48250.5,51598.25,54.5,-195.25,0.367291,100,1
2827597,1,23029,0,48324,51450,48250.65,51597.95,73.35,-147.95,0.36696,100,1
2827637,1,23069,0,48335,51490,48250.82,51597.73,84.18,-107.73,0.366631,100,1
2827678,1,23110,0,48358,51541,48251.04,51597.62,106.96,-56.62,0.366307,100,1
2827718,1,23150,0,48369,51514,48251.28,51597.46,117.72,-83.46,0.365987,100,1
2827758,1,23190,0,48309,51251,48251.39,51596.77,57.61,-345.77,0.365667,100,1
2827798,1,23230,0,48177,50944,48251.25,51595.46,-74.25,-651.46,0.365343,100,1
2827838,1,23270,0,48080,50796,48250.91,51593.86,-170.91,-797.86,0.365017,100,1
2827878,1,23310,0,48055,50794,48250.52,51592.27,-195.52,-798.27,0.364693,100,1
2827918,1,23350,0,48064,50828,48250.14,51590.74,-186.14,-762.74,0.36437,100,1
2827958,1,23390,0,48067,50850,48249.78,51589.26,-182.78,-739.26,0.364048,100,1
2827998,1,23430,0,48083,50901,48249.45,51587.88,-166.45,-686.88,0.363728,100,1
2828038,1,23470,0,48114,50950,48249.18,51586.61,-135.18,-636.61,0.363407,100,1
2828078,1,23510,0,48124,50954,48248.93,51585.34,-124.93,-631.34,0.363085,100,1
2828118,1,23550,0,48120,50949,48248.67,51584.07,-128.67,-635.07,0.362762,100,1
2828158,1,23590,0,48118,50971,48248.41,51582.85,-130.41,-611.85,0.362439,100,1
2828198,1,23630,0,48136,51021,48248.19,51581.73,-112.19,-560.73,0.362116,100,1
2828238,1,23670,0,48162,51085,48248.02,51580.73,-86.02,-495.73,0.361792,100,1
2828278,1,23710,0,48189,51152,48247.9,51579.88,-58.9,-427.88,0.361467,100,1
2828318,1,23750,0,48207,51204,48247.82,51579.13,-40.82,-375.13,0.361141,100,1
2828358,1,23790,0,48230,51251,48247.78,51578.47,-17.78,-327.47,0.360815,100,1
2828398,1,23830,0,48248,51286,48247.78,51577.89,0.22,-291.89,0.360488,100,1
2828439,1,23871,0,48260,51319,48247.81,51577.37,12.19,-258.37,0.360161,100,1
2828479,1,23911,0,48271,51357,48247.86,51576.94,23.14,-219.94,0.359835,100,1
2828519,1,23951,0,48284,51389,48247.93,51576.56,36.07,-187.56,0.35951,100,1
2828559,1,23991,0,48299,51431,48248.03,51576.27,50.97,-145.27,0.359186,100,1
2828599,1,24031,0,48317,51473,48248.17,51576.07,68.83,-103.07,0.358864,100,1
2828639,1,24071,0,48333,51526,48248.34,51575.97,84.66,-49.97,0.358545,100,1
2828679,1,24111,0,48355,51585,48248.56,51575.99,106.44,9.01,0.35823,100,1
2828719,1,24151,0,48366,51508,48248.79,51575.86,117.21,-67.86,0.35792,100,1
2828759,1,24191,0,48291,51221,48248.88,51575.15,42.12,-354.15,0.35761,100,1
2828799,1,24231,0,48167,50961,48248.71,51573.92,-81.71,-612.92,0.357296,100,1
2828839,1,24271,0,48091,50877,48248.4,51572.53,-157.4,-695.53,0.356982,100,1
2828879,1,24311,0,48086,50906,48248.08,51571.2,-162.08,-665.2,0.35667,100,1
2828919,1,24351,0,48102,50952,48247.79,51569.96,-145.79,-617.96,0.356359,100,1
2828959,1,24391,0,48117,50997,48247.53,51568.82,-130.53,-571.82,0.356048,100,1
2828999,1,24431,0,48139,51052,48247.31,51567.79,-108.31,-515.79,0.355737,100,1
2829039,1,24471,0,48154,51063,48247.13,51566.78,-93.13,-503.78,0.355426,100,1
2829079,1,24511,0,48147,51046,48246.93,51565.74,-99.93,-519.74,0.355114,100,1
2829119,1,24551,0,48138,51045,48246.71,51564.7,-108.71,-519.7,0.354802,100,1
2829160,1,24592,0,48144,51077,48246.51,51563.73,-102.51,-486.73,0.354491,100,1
2829200,1,24632,0,48166,51133,48246.35,51562.87,-80.35,-429.87,0.354179,100,1
2829240,1,24672,0,48189,51206,48246.24,51562.16,-57.24,-356.16,0.353867,100,1
2829280,1,24712,0,48215,51271,48246.18,51561.57,-31.18,-290.57,0.353555,100,1
2829320,1,24752,0,48239,51324,48246.16,51561.1,-7.16,-237.1,0.353243,100,1
2829360,1,24792,0,48260,51364,48246.19,51560.71,13.81,-196.71,0.352932,100,1
2829400,1,24832,0,48279,51407,48246.26,51560.4,32.74,-153.4,0.352621,100,1
2829440,1,24872,0,48293,51449,48246.35,51560.18,46.65,-111.18,0.352312,100,1
2829480,1,24912,0,48307,51481,48246.47,51560.02,60.53,-79.02,0.352004,100,1
2829520,1,24952,0,48325,51514,48246.63,51559.93,78.37,-45.93,0.351699,100,1
2829560,1,24992,0,48345,51551,48246.83,51559.92,98.17,-8.92,0.351399,100,1
2829600,1,25032,0,48362,51597,48247.06,51559.99,114.94,37.01,0.351103,100,1
2829640,1,25072,0,48384,51647,48247.34,51560.17,136.66,86.83,0.350813,100,1
2829680,1,25112,0,48386,51568,48247.61,51560.18,138.39,7.82,0.350531,100,1
2829720,1,25152,0,48306,51269,48247.73,51559.6,58.27,-290.6,0.350249,100,1
2829760,1,25192,0,48174,50984,48247.59,51558.45,-73.59,-574.45,0.349963,100,1
2829800,1,25232,0,48088,50879,48247.27,51557.09,-159.27,-678.09,0.349678,100,1
2829840,1,25272,0,48064,50884,48246.9,51555.75,-182.9,-671.75,0.349396,100,1
2829880,1,25312,0,48076,50910,48246.56,51554.46,-170.56,-644.46,0.349117,100,1
2829921,1,25353,0,48083,50932,48246.24,51553.22,-163.24,-621.22,0.34884,100,1
2829961,1,25393,0,48098,50989,48245.94,51552.09,-147.94,-563.09,0.348564,100,1
2830001,1,25433,0,48118,51020,48245.69,51551.03,-127.69,-531.03,0.34829,100,1
2830041,1,25473,0,48118,51020,48245.43,51549.96,-127.43,-529.96,0.348016,100,1
2830081,1,25513,0,48115,51010,48245.18,51548.89,-130.18,-538.89,0.347743,100,1
2830121,1,25553,0,48119,51038,48244.93,51547.87,-125.93,-509.87,0.347471,100,1
2830161,1,25593,0,48141,51100,48244.72,51546.97,-103.72,-446.97,0.3472,100,1
2830201,1,25633,0,48163,51174,48244.55,51546.23,-81.55,-372.23,0.346929,100,1
2830241,1,25673,0,48196,51238,48244.46,51545.61,-48.46,-307.61,0.346658,100,1
2830281,1,25713,0,48224,51287,48244.42,51545.1,-20.42,-258.1,0.346387,100,1
2830321,1,25753,0,48247,51330,48244.43,51544.67,2.57,-214.67,0.346116,100,1
2830361,1,25793,0,48265,51366,48244.47,51544.31,20.53,-178.31,0.345845,100,1
2830401,1,25833,0,48279,51403,48244.54,51544.03,34.46,-141.03,0.345575,100,1
2830441,1,25873,0,48293,51431,48244.64,51543.8,48.36,-112.8,0.345306,100,1
2830481,1,25913,0,48305,51461,48244.76,51543.64,60.24,-82.64,0.34504,100,1
2830521,1,25953,0,48319,51492,48244.91,51543.54,74.09,-51.54,0.344775,100,1
2830561,1,25993,0,48331,51528,48245.08,51543.51,85.92,-15.51,0.344514,100,1
2830601,1,26033,0,48347,51577,48245.29,51543.57,101.71,33.43,0.344257,100,1
2830641,1,26073,0,48367,51595,48245.53,51543.68,121.47,51.32,0.344005,100,1
2830682,1,26114,0,48340,51418,48245.72,51543.43,94.28,-125.43,0.343757,100,1
2830722,1,26154,0,48224,51098,48245.68,51542.54,-21.68,-444.54,0.343505,100,1
2830762,1,26194,0,48098,50880,48245.39,51541.21,-147.39,-661.21,0.343253,100,1
2830802,1,26234,0,48039,50838,48244.98,51539.81,-205.98,-701.81,0.343006,100,1
2830842,1,26274,0,48046,50864,48244.58,51538.46,-198.58,-674.46,0.342764,100,1
2830882,1,26314,0,48063,50893,48244.21,51537.17,-181.21,-644.17,0.342525,100,1
2830922,1,26354,0,48067,50939,48243.86,51535.97,-176.86,-596.97,0.342289,100,1
2830962,1,26394,0,48092,50990,48243.56,51534.88,-151.56,-544.88,0.342055,100,1
2831002,1,26434,0,48107,51000,48243.29,51533.81,-136.29,-533.81,0.341823,100,1
2831042,1,26474,0,48106,50984,48243.02,51532.71,-137.02,-548.71,0.341591,100,1
2831082,1,26514,0,48104,50983,48242.74,51531.62,-138.74,-548.62,0.34136,100,1
2831122,1,26554,0,48114,51026,48242.48,51530.61,-128.48,-504.61,0.34113,100,1
2831162,1,26594,0,48134,51087,48242.27,51529.72,-108.27,-442.72,0.340901,100,1
2831202,1,26634,0,48162,51151,48242.11,51528.96,-80.11,-377.96,0.340671,100,1
2831242,1,26674,0,48186,51202,48242,51528.31,-56,-326.31,0.340442,100,1
2831282,1,26714,0,48208,51245,48241.93,51527.74,-33.93,-282.74,0.340212,100,1
2831322,1,26754,0,48225,51282,48241.9,51527.25,-16.9,-245.25,0.339981,100,1
2831362,1,26794,0,48237,51309,48241.89,51526.82,-4.89,-217.82,0.339751,100,1
2831402,1,26834,0,48244,51337,48241.89,51526.44,2.11,-189.44,0.33952,100,1
2831443,1,26875,0,48255,51362,48241.92,51526.11,13.08,-164.11,0.339289,100,1
2831483,1,26915,0,48268,51394,48241.98,51525.85,26.02,-131.85,0.33906,100,1
2831523,1,26955,0,48280,51441,48242.05,51525.68,37.95,-84.68,0.338831,100,1
2831563,1,26995,0,48297,51491,48242.16,51525.62,54.84,-34.62,0.338603,100,1
2831603,1,27035,0,48315,51484,48242.31,51525.54,72.69,-41.54,0.338379,100,1
2831643,1,27075,0,48270,51253,48242.37,51524.99,27.63,-271.99,0.338153,100,1
2831683,1,27115,0,48147,50963,48242.18,51523.87,-95.18,-560.87,0.337925,100,1
2831723,1,27155,0,48049,50834,48241.79,51522.49,-192.79,-688.49,0.337701,100,1
2831763,1,27195,0,48029,50844,48241.36,51521.14,-212.36,-677.14,0.337482,100,1
2831803,1,27235,0,48052,50895,48240.98,51519.89,-188.98,-624.89,0.337268,100,1
2831843,1,27275,0,48074,50943,48240.65,51518.73,-166.65,-575.73,0.337057,100,1
2831883,1,27315,0,48101,51010,48240.37,51517.72,-139.37,-507.72,0.336847,100,1
2831923,1,27355,0,48120,51030,48240.14,51516.75,-120.14,-486.75,0.336638,100,1
2831963,1,27395,0,48113,51008,48239.88,51515.73,-126.88,-507.73,0.336429,100,1
2832003,1,27435,0,48105,50989,48239.61,51514.68,-134.61,-525.68,0.336221,100,1
2832043,1,27475,0,48105,51004,48239.34,51513.66,-134.34,-509.66,0.336015,100,1
2832083,1,27515,0,48116,51052,48239.1,51512.74,-123.1,-460.74,0.335809,100,1
2832123,1,27555,0,48138,51120,48238.9,51511.95,-100.9,-391.95,0.335605,100,1
2832163,1,27595,0,48165,51175,48238.75,51511.28,-73.75,-336.28,0.3354,100,1
2832203,1,27635,0,48188,51224,48238.65,51510.71,-50.65,-286.71,0.335195,100,1
2832244,1,27676,0,48208,51261,48238.59,51510.21,-30.59,-249.21,0.33499,100,1
2832284,1,27716,0,48216,51290,48238.55,51509.77,-22.55,-219.77,0.334785,100,1
2832324,1,27756,0,48221,51313,48238.51,51509.38,-17.51,-196.38,0.33458,100,1
2832364,1,27796,0,48234,51338,48238.5,51509.04,-4.5,-171.04,0.334375,100,1
2832404,1,27836,0,48245,51376,48238.52,51508.77,6.48,-132.77,0.33417,100,1
2832444,1,27876,0,48265,51424,48238.57,51508.61,26.43,-84.61,0.333965,100,1
2832484,1,27916,0,48284,51447,48238.67,51508.48,45.33,-61.48,0.333762,100,1
2832524,1,27956,0,48259,51275,48238.71,51508.02,20.29,-233.02,0.333559,100,1
2832564,1,27996,0,48155,50984,48238.54,51506.97,-83.54,-522.97,0.333353,100,1
2832604,1,28036,0,48048,50799,48238.16,51505.56,-190.16,-706.56,0.333149,100,1
2832644,1,28076,0,48012,50772,48237.71,51504.09,-225.71,-732.09,0.332952,100,1
2832684,1,28116,0,48015,50811,48237.27,51502.71,-222.27,-691.71,0.332761,100,1
2832724,1,28156,0,48033,50846,48236.86,51501.39,-203.86,-655.39,0.332575,100,1
2832764,1,28196,0,48051,50897,48236.49,51500.19,-185.49,-603.19,0.332393,100,1
2832804,1,28236,0,48066,50934,48236.15,51499.05,-170.15,-565.05,0.332214,100,1
2832844,1,28276,0,48077,50924,48235.84,51497.91,-158.84,-573.91,0.332036,100,1
2832884,1,28316,0,48063,50906,48235.49,51496.72,-172.49,-590.72,0.331861,100,1
2832924,1,28356,0,48061,50916,48235.14,51495.56,-174.14,-579.56,0.331689,100,1
2832964,1,28396,0,48072,50962,48234.82,51494.5,-162.82,-532.5,0.33152,100,1
2833005,1,28437,0,48093,51022,48234.54,51493.55,-141.54,-471.55,0.331353,100,1
2833045,1,28477,0,48120,51080,48234.31,51492.73,-114.31,-412.73,0.331187,100,1
2833085,1,28517,0,48142,51130,48234.13,51492,-92.13,-362,0.331021,100,1
2833125,1,28557,0,48157,51168,48233.98,51491.36,-76.98,-323.36,0.330856,100,1
2833165,1,28597,0,48167,51201,48233.84,51490.78,-66.84,-289.78,0.33069,100,1
2833205,1,28637,0,48187,51234,48233.75,51490.27,-46.75,-256.27,0.330525,100,1
2833245,1,28677,0,48199,51257,48233.68,51489.8,-34.68,-232.8,0.330359,100,1
2833285,1,28717,0,48209,51294,48233.64,51489.41,-24.64,-195.41,0.330193,100,1
2833325,1,28757,0,48226,51328,48233.62,51489.09,-7.62,-161.09,0.330027,100,1
2833365,1,28797,0,48246,51378,48233.65,51488.87,12.35,-110.87,0.329861,100,1
2833405,1,28837,0,48266,51411,48233.71,51488.71,32.29,-77.71,0.329696,100,1
2833445,1,28877,0,48267,51315,48233.78,51488.36,33.22,-173.36,0.329532,100,1
2833485,1,28917,0,48178,51011,48233.67,51487.41,-55.67,-476.41,0.329364,100,1
2833525,1,28957,0,48048,50753,48233.3,51485.94,-185.3,-732.94,0.329196,100,1
2833565,1,28997,0,47969,50655,48232.77,51484.28,-263.77,-829.28,0.329036,100,1
2833605,1,29037,0,47965,50667,48232.24,51482.65,-267.24,-815.65,0.328884,100,1
2833645,1,29077,0,47970,50676,48231.71,51481.04,-261.71,-805.04,0.32874,100,1
2833685,1,29117,0,47972,50691,48231.2,51479.46,-259.2,-788.46,0.328603,100,1
2833725,1,29157,0,47986,50744,48230.71,51477.99,-244.71,-733.99,0.328472,100,1
2833765,1,29197,0,48003,50773,48230.25,51476.58,-227.25,-703.58,0.328346,100,1
2833806,1,29238,0,48010,50763,48229.82,51475.15,-219.82,-712.15,0.328223,100,1
2833846,1,29278,0,48001,50768,48229.36,51473.74,-228.36,-705.74,0.328104,100,1
2833886,1,29318,0,48007,50800,48228.91,51472.39,-221.91,-672.39,0.327991,100,1
2833926,1,29358,0,48028,50865,48228.51,51471.18,-200.51,-606.18,0.32788,100,1
2833966,1,29398,0,48057,50935,48228.17,51470.11,-171.17,-535.11,0.327772,100,1
2834006,1,29438,0,48088,50989,48227.89,51469.14,-139.89,-480.14,0.327665,100,1
2834046,1,29478,0,48109,51042,48227.66,51468.29,-118.66,-426.29,0.327559,100,1
2834086,1,29518,0,48128,51087,48227.46,51467.53,-99.46,-380.53,0.327452,100,1
2834126,1,29558,0,48149,51127,48227.3,51466.85,-78.3,-339.85,0.327345,100,1
2834166,1,29598,0,48170,51160,48227.19,51466.24,-57.19,-306.24,0.327238,100,1
2834206,1,29638,0,48181,51198,48227.1,51465.7,-46.1,-267.7,0.32713,100,1
2834246,1,29678,0,48203,51232,48227.05,51465.24,-24.05,-233.24,0.327021,100,1
2834286,1,29718,0,48214,51273,48227.03,51464.86,-13.03,-191.86,0.326912,100,1
2834326,1,29758,0,48233,51317,48227.04,51464.56,5.96,-147.56,0.326803,100,1
2834366,1,29798,0,48248,51366,48227.08,51464.37,20.92,-98.37,0.326694,100,1
2834406,1,29838,0,48271,51357,48227.17,51464.15,43.83,-107.15,0.326586,100,1
2834446,1,29878,0,48223,51122,48227.16,51463.47,-4.16,-341.47,0.326476,100,1
2834486,1,29918,0,48095,50812,48226.9,51462.17,-131.9,-650.17,0.326362,100,1
2834526,1,29958,0,47991,50661,48226.43,51460.57,-235.43,-799.57,0.326251,100,1
2834566,1,29998,0,47962,50647,48225.91,51458.94,-263.91,-811.94,0.326146,100,1
2834607,1,30039,1,47966,50673,48225.39,51457.37,-259.39,-784.37,0.326047,100,1
2834647,1,30079,1,47975,50683,48224.89,51455.82,-249.89,-772.82,0.325952,100,1
2834687,1,30119,1,47988,50742,48224.41,51454.4,-236.41,-712.4,0.325861,100,1
2834727,1,30159,1,48009,50789,48223.98,51453.07,-214.98,-664.07,0.325774,100,1
2834767,1,30199,1,48020,50786,48223.58,51451.74,-203.58,-665.74,0.325688,100,1
2834807,1,30239,1,48018,50773,48223.17,51450.38,-205.17,-677.38,0.325605,100,1
2834847,1,30279,1,48018,50797,48222.76,51449.08,-204.76,-652.08,0.325523,100,1
2834887,1,30319,1,48033,50857,48222.38,51447.89,-189.38,-590.89,0.325444,100,1
2834927,1,30359,1,48064,50924,48222.06,51446.85,-158.06,-522.85,0.325366,100,1
2834967,1,30399,1,48095,50979,48221.81,51445.91,-126.81,-466.91,0.325288,100,1
2835007,1,30439,1,48118,51030,48221.6,51445.08,-103.6,-415.08,0.325209,100,1
2835047,1,30479,1,48139,51070,48221.44,51444.33,-82.44,-374.33,0.32513,100,1
2835087,1,30519,1,48158,51110,48221.31,51443.66,-63.31,-333.66,0.325049,100,1
2835127,1,30559,1,48173,51142,48221.22,51443.06,-48.22,-301.06,0.324968,100,1
2835167,1,30599,1,48183,51172,48221.14,51442.52,-38.14,-270.52,0.324886,100,1
2835207,1,30639,1,48198,51207,48221.1,51442.05,-23.1,-235.05,0.324804,100,1
2835247,1,30679,1,48218,51257,48221.09,51441.69,-3.09,-184.69,0.324721,100,1
2835287,1,30719,1,48238,51315,48221.13,51441.43,16.87,-126.43,0.324638,100,1
2835327,1,30759,1,48255,51318,48221.2,51441.19,33.8,-123.19,0.324555,100,1
2835367,1,30799,1,48217,51118,48221.19,51440.54,-4.19,-322.54,0.324471,100,1
2835408,1,30840,1,48107,50844,48220.96,51439.35,-113.96,-595.35,0.324383,100,1
2835448,1,30880,1,48021,50715,48220.57,51437.9,-199.57,-722.9,0.324295,100,1
2835488,1,30920,1,47997,50725,48220.12,51436.48,-223.12,-711.48,0.32421,100,1
2835528,1,30960,1,48009,50775,48219.7,51435.16,-210.7,-660.16,0.324129,100,1
2835568,1,31000,1,48026,50819,48219.31,51433.93,-193.31,-614.93,0.324049,100,1
2835608,1,31040,1,48060,50890,48219,51432.84,-159,-542.84,0.32397,100,1
2835648,1,31080,1,48082,50931,48218.72,51431.84,-136.72,-500.84,0.323891,100,1
2835688,1,31120,1,48085,50927,48218.46,51430.83,-133.46,-503.83,0.323812,100,1
2835728,1,31160,1,48082,50929,48218.18,51429.82,-136.18,-500.82,0.323733,100,1
2835768,1,31200,1,48092,50953,48217.93,51428.87,-125.93,-475.87,0.323653,100,1
2835808,1,31240,1,48114,51012,48217.73,51428.04,-103.73,-416.04,0.323574,100,1
2835848,1,31280,1,48146,51078,48217.59,51427.34,-71.59,-349.34,0.323493,100,1
2835888,1,31320,1,48171,51142,48217.49,51426.77,-46.49,-284.77,0.323412,100,1
2835928,1,31360,1,48192,51194,48217.44,51426.3,-25.44,-232.3,0.32333,100,1
2835968,1,31400,1,48218,51237,48217.45,51425.93,0.55,-188.93,0.323247,100,1
2836008,1,31440,1,48233,51274,48217.48,51425.62,15.52,-151.62,0.323165,100,1
2836048,1,31480,1,48248,51303,48217.54,51425.38,30.46,-122.38,0.323083,100,1
2836088,1,31520,1,48253,51338,48217.61,51425.21,35.39,-87.21,0.323001,100,1
2836128,1,31560,1,48270,51382,48217.71,51425.12,52.29,-43.13,0.32292,100,1
2836169,1,31601,1,48291,51427,48217.86,51425.13,73.14,1.87,0.32284,100,1
2836209,1,31641,1,48306,51436,48218.04,51425.15,87.96,10.85,0.322763,100,1
2836249,1,31681,1,48271,51244,48218.14,51424.79,52.86,-180.79,0.322686,100,1
2836289,1,31721,1,48164,50983,48218.04,51423.91,-54.04,-440.91,0.322607,100,1
2836329,1,31761,1,48079,50856,48217.76,51422.78,-138.76,-566.78,0.322525,100,1
2836369,1,31801,1,48056,50857,48217.44,51421.65,-161.44,-564.65,0.322445,100,1
2836409,1,31841,1,48070,50892,48217.14,51420.59,-147.14,-528.59,0.322365,100,1
2836449,1,31881,1,48078,50925,48216.87,51419.6,-138.87,-494.6,0.322285,100,1
2836489,1,31921,1,48099,50982,48216.63,51418.73,-117.63,-436.73,0.322205,100,1
2836529,1,31961,1,48127,51035,48216.45,51417.96,-89.45,-382.96,0.322125,100,1
2836569,1,32001,1,48142,51042,48216.3,51417.21,-74.3,-375.21,0.322043,100,1
2836609,1,32041,1,48144,51044,48216.16,51416.46,-72.16,-372.46,0.321961,100,1
2836649,1,32081,1,48146,51072,48216.02,51415.78,-70.02,-343.78,0.321877,100,1
2836689,1,32121,1,48166,51131,48215.92,51415.21,-49.92,-284.21,0.321793,100,1
2836729,1,32161,1,48195,51199,48215.88,51414.78,-20.88,-215.78,0.321708,100,1
2836769,1,32201,1,48221,51261,48215.89,51414.48,5.11,-153.48,0.321623,100,1
2836809,1,32241,1,48244,51317,48215.95,51414.28,28.05,-97.28,0.321538,100,1
2836849,1,32281,1,48267,51359,48216.05,51414.17,50.95,-55.17,0.321454,100,1
2836889,1,32321,1,48284,51404,48216.19,51414.15,67.81,-10.15,0.321372,100,1
2836929,1,32361,1,48300,51442,48216.36,51414.21,83.64,27.79,0.321291,100,1
2836970,1,32402,1,48312,51476,48216.55,51414.34,95.45,61.66,0.321214,100,1
2837010,1,32442,1,48327,51516,48216.77,51414.54,110.23,101.46,0.32114,100,1
2837050,1,32482,1,48345,51566,48217.03,51414.84,127.97,151.16,0.32107,100,1
2837090,1,32522,1,48362,51619,48217.32,51415.25,144.68,203.75,0.321006,100,1
2837130,1,32562,1,48385,51673,48217.66,51415.77,167.34,257.23,0.320949,100,1
2837170,1,32602,1,48400,51678,48218.03,51416.3,181.97,261.7,0.320899,100,1
2837210,1,32642,1,48363,51481,48218.32,51416.43,144.68,64.57,0.320856,100,1
2837250,1,32682,1,48260,51227,48218.41,51416.05,41.59,-189.05,0.320812,100,1
2837290,1,32722,1,48182,51118,48218.34,51415.45,-36.34,-297.45,0.320767,100,1
2837330,1,32762,1,48167,51122,48218.23,51414.87,-51.23,-292.87,0.32072,100,1
2837370,1,32802,1,48183,51154,48218.16,51414.35,-35.16,-260.35,0.320673,100,1
2837410,1,32842,1,48194,51168,48218.12,51413.86,-24.12,-245.86,0.320624,100,1
2837450,1,32882,1,48203,51216,48218.09,51413.46,-15.09,-197.46,0.320575,100,1
2837490,1,32922,1,48219,51262,48218.09,51413.16,0.91,-151.16,0.320525,100,1
2837530,1,32962,1,48234,51275,48218.12,51412.89,15.88,-137.89,0.320475,100,1
2837570,1,33002,1,48234,51284,48218.16,51412.63,15.84,-128.63,0.320424,100,1
2837610,1,33042,1,48241,51319,48218.2,51412.44,22.8,-93.44,0.320374,100,1
2837650,1,33082,1,48258,51382,48218.29,51412.38,39.71,-30.38,0.320325,100,1
2837690,1,33122,1,48290,51448,48218.43,51412.46,71.57,35.54,0.320277,100,1
2837731,1,33163,1,48313,51510,48218.62,51412.65,94.38,97.35,0.320232,100,1
2837771,1,33203,1,48336,51563,48218.86,51412.95,117.14,150.05,0.32019,100,1
2837811,1,33243,1,48356,51615,48219.13,51413.36,136.87,201.64,0.320154,100,1
2837851,1,33283,1,48370,51667,48219.44,51413.87,150.56,253.13,0.320124,100,1
2837891,1,33323,1,48390,51717,48219.78,51414.48,170.22,302.52,0.320101,100,1
2837931,1,33363,1,48410,51762,48220.16,51415.17,189.84,346.83,0.320086,100,1
2837971,1,33403,1,48431,51815,48220.59,51415.97,210.41,399.03,0.32008,100,1
2838011,1,33443,1,48455,51866,48221.05,51416.87,233.95,449.12,0.320087,100,1
2838051,1,33483,1,48473,51928,48221.56,51417.9,251.44,510.1,0.320105,100,1
2838091,1,33523,1,48500,51987,48222.12,51419.04,277.88,567.96,0.320138,100,1
2838131,1,33563,1,48532,52033,48222.74,51420.27,309.26,612.73,0.320187,100,1
2838171,1,33603,1,48527,51925,48223.35,51421.28,303.65,503.72,0.320256,100,1
2838211,1,33643,1,48448,51709,48223.8,51421.86,224.2,287.14,0.320337,100,1
2838251,1,33683,1,48363,51569,48224.08,51422.16,138.92,146.84,0.320422,100,1
2838291,1,33723,1,48334,51563,48224.3,51422.44,109.7,140.56,0.32051,100,1
2838331,1,33763,1,48340,51595,48224.54,51422.79,115.46,172.21,0.320601,100,1
2838371,1,33803,1,48359,51626,48224.8,51423.19,134.2,202.81,0.320695,100,1
2838411,1,33843,1,48366,51663,48225.09,51423.67,140.91,239.33,0.320793,100,1
2838451,1,33883,1,48382,51708,48225.41,51424.24,156.59,283.76,0.320895,100,1
2838491,1,33923,1,48392,51729,48225.74,51424.85,166.26,304.15,0.321002,100,1
2838532,1,33964,1,48395,51737,48226.08,51425.48,168.92,311.52,0.321113,100,1
2838572,1,34004,1,48396,51754,48226.42,51426.14,169.58,327.86,0.321229,100,1
2838612,1,34044,1,48408,51808,48226.79,51426.9,181.21,381.1,0.32135,100,1
2838652,1,34084,1,48431,51877,48227.2,51427.8,203.8,449.2,0.321475,100,1
2838692,1,34124,1,48456,51941,48227.65,51428.83,228.35,512.17,0.321606,100,1
2838732,1,34164,1,48486,52000,48228.17,51429.98,257.83,570.02,0.321745,100,1
2838772,1,34204,1,48513,52062,48228.74,51431.24,284.26,630.76,0.321892,100,1
2838812,1,34244,1,48528,52112,48229.34,51432.61,298.66,679.39,0.322048,100,1
2838852,1,34284,1,48546,52167,48229.98,51434.07,316.02,732.93,0.322212,100,1
2838892,1,34324,1,48567,52214,48230.65,51435.64,336.35,778.36,0.322386,100,1
2838932,1,34364,1,48597,52262,48231.39,51437.29,365.61,824.71,0.32257,100,1
2838972,1,34404,1,48613,52306,48232.15,51439.03,380.85,866.97,0.322764,100,1
2839012,1,34444,1,48633,52364,48232.96,51440.88,400.04,923.12,0.322969,100,1
2839052,1,34484,1,48653,52420,48233.8,51442.84,419.2,977.16,0.323183,100,1
2839092,1,34524,1,48670,52449,48234.67,51444.85,435.33,1004.15,0.323407,100,1
2839132,1,34564,1,48653,52328,48235.51,51446.62,417.49,881.38,0.323643,100,1
2839172,1,34604,1,48582,52154,48236.21,51448.04,345.79,705.96,0.323888,100,1
2839212,1,34644,1,48518,52057,48236.77,51449.26,281.23,607.74,0.324136,100,1
2839252,1,34684,1,48495,52052,48237.29,51450.46,257.71,601.54,0.324387,100,1
2839292,1,34724,1,48504,52079,48237.83,51451.72,266.17,627.28,0.32464,100,1
2839333,1,34765,1,48510,52093,48238.37,51453.01,271.62,639.99,0.324894,100,1
2839373,1,34805,1,48514,52129,48238.93,51454.36,275.07,674.64,0.325149,100,1
2839413,1,34845,1,48533,52163,48239.52,51455.78,293.48,707.22,0.325406,100,1
2839453,1,34885,1,48534,52180,48240.11,51457.23,293.89,722.77,0.325663,100,1
2839493,1,34925,1,48535,52189,48240.7,51458.69,294.3,730.31,0.325921,100,1
2839533,1,34965,1,48542,52214,48241.3,51460.2,300.7,753.8,0.326179,100,1
2839573,1,35005,1,48556,52261,48241.93,51461.8,314.07,799.2,0.326437,100,1
2839613,1,35045,1,48576,52323,48242.6,51463.53,333.4,859.47,0.326694,100,1
2839653,1,35085,1,48600,52377,48243.31,51465.36,356.69,911.64,0.326951,100,1
2839693,1,35125,1,48623,52430,48244.07,51467.29,378.93,962.71,0.327208,100,1
2839733,1,35165,1,48646,52479,48244.88,51469.31,401.12,1009.69,0.327466,100,1
2839773,1,35205,1,48669,52519,48245.73,51471.41,423.27,1047.59,0.327725,100,1
2839813,1,35245,1,48686,52566,48246.61,51473.6,439.39,1092.4,0.327985,100,1
2839853,1,35285,1,48697,52603,48247.51,51475.86,449.49,1127.14,0.328246,100,1
2839893,1,35325,1,48713,52640,48248.45,51478.19,464.55,1161.81,0.328508,100,1
2839933,1,35365,1,48729,52680,48249.41,51480.6,479.59,1199.4,0.328771,100,1
2839973,1,35405,1,48747,52726,48250.4,51483.09,496.6,1242.91,0.329034,100,1
2840013,1,35445,1,48760,52773,48251.42,51485.67,508.58,1287.33,0.329297,100,1
2840053,1,35485,1,48776,52788,48252.47,51488.28,523.53,1299.72,0.329561,100,1
2840093,1,35525,1,48748,52661,48253.46,51490.62,494.54,1170.38,0.329829,100,1
2840134,1,35566,1,48679,52519,48254.32,51492.68,424.68,1026.32,0.330097,100,1
2840174,1,35606,1,48634,52453,48255.08,51494.61,378.92,958.39,0.330365,100,1
2840214,1,35646,1,48623,52462,48255.82,51496.54,367.18,965.46,0.330632,100,1
2840254,1,35686,1,48629,52487,48256.56,51498.52,372.44,988.48,0.330896,100,1
2840294,1,35726,1,48630,52500,48257.31,51500.53,372.69,999.47,0.331158,100,1
2840334,1,35766,1,48638,52525,48258.07,51502.58,379.93,1022.42,0.331417,100,1
2840374,1,35806,1,48651,52547,48258.86,51504.67,392.14,1042.33,0.331675,100,1
2840414,1,35846,1,48652,52550,48259.65,51506.76,392.35,1043.24,0.331931,100,1
2840454,1,35886,1,48645,52548,48260.42,51508.84,384.58,1039.16,0.332184,100,1
2840494,1,35926,1,48652,52566,48261.21,51510.96,390.79,1055.04,0.332435,100,1
2840534,1,35966,1,48667,52593,48262.02,51513.12,404.98,1079.88,0.332684,100,1
2840574,1,36006,1,48681,52636,48262.86,51515.37,418.14,1120.63,0.332931,100,1
2840614,1,36046,1,48699,52679,48263.73,51517.7,435.27,1161.3,0.333175,100,1
2840654,1,36086,1,48711,52718,48264.63,51520.1,446.37,1197.9,0.333418,100,1
2840694,1,36126,1,48726,52754,48265.55,51522.57,460.45,1231.43,0.333659,100,1
2840734,1,36166,1,48739,52775,48266.5,51525.08,472.5,1249.92,0.333898,100,1
2840774,1,36206,1,48748,52806,48267.47,51527.64,480.53,1278.36,0.334135,100,1
2840814,1,36246,1,48761,52838,48268.46,51530.26,492.54,1307.74,0.33437,100,1
2840854,1,36286,1,48764,52868,48269.45,51532.94,494.55,1335.06,0.334603,100,1
2840894,1,36326,1,48778,52904,48270.47,51535.68,507.53,1368.32,0.334834,100,1
2840935,1,36367,1,48790,52937,48271.51,51538.48,518.49,1398.52,0.335062,100,1
2840975,1,36407,1,48804,52969,48272.57,51541.35,531.43,1427.65,0.335288,100,1
2841015,1,36447,1,48812,52950,48273.66,51544.17,538.34,1405.83,0.335514,100,1
2841055,1,36487,1,48770,52818,48274.65,51546.72,495.35,1271.28,0.335739,100,1
2841095,1,36527,1,48706,52698,48275.51,51549.02,430.49,1148.98,0.335963,100,1
2841135,1,36567,1,48670,52647,48276.3,51551.22,393.7,1095.78,0.336185,100,1
2841175,1,36607,1,48672,52661,48277.09,51553.45,394.91,1107.55,0.336404,100,1
2841215,1,36647,1,48674,52671,48277.89,51555.68,396.11,1115.32,0.336621,100,1
2841255,1,36687,1,48672,52682,48278.68,51557.94,393.32,1124.06,0.336836,100,1
2841295,1,36727,1,48679,52704,48279.48,51560.23,399.52,1143.77,0.337047,100,1
2841335,1,36767,1,48685,52700,48280.29,51562.51,404.71,1137.49,0.337257,100,1
2841375,1,36807,1,48682,52688,48281.1,51564.77,400.9,1123.23,0.337464,100,1
2841415,1,36847,1,48680,52679,48281.9,51567,398.1,1112,0.33767,100,1
2841455,1,36887,1,48677,52695,48282.69,51569.25,394.31,1125.75,0.337873,100,1
2841495,1,36927,1,48683,52723,48283.49,51571.56,399.51,1151.44,0.338074,100,1
2841535,1,36967,1,48695,52752,48284.32,51573.93,410.68,1178.07,0.338272,100,1
2841575,1,37007,1,48707,52778,48285.16,51576.34,421.84,1201.66,0.338467,100,1
2841615,1,37047,1,48714,52808,48286.02,51578.8,427.98,1229.2,0.33866,100,1
2841655,1,37087,1,48726,52831,48286.91,51581.3,439.09,1249.7,0.338851,100,1
2841695,1,37127,1,48731,52858,48287.8,51583.86,443.2,1274.14,0.33904,100,1
2841735,1,37167,1,48738,52873,48288.7,51586.44,449.3,1286.56,0.339225,100,1
2841776,1,37208,1,48745,52897,48289.61,51589.06,455.39,1307.94,0.339409,100,1
2841816,1,37248,1,48754,52919,48290.54,51591.72,463.46,1327.28,0.339589,100,1
2841856,1,37288,1,48763,52952,48291.49,51594.44,471.51,1357.56,0.339768,100,1
2841896,1,37328,1,48767,52982,48292.44,51597.22,474.56,1384.78,0.339943,100,1
2841936,1,37368,1,48783,52985,48293.42,51600,489.58,1385,0.340117,100,1
2841976,1,37408,1,48757,52862,48294.35,51602.52,462.65,1259.48,0.340289,100,1
2842016,1,37448,1,48689,52721,48295.14,51604.76,393.86,1116.24,0.34046,100,1
2842056,1,37488,1,48642,52651,48295.84,51606.85,346.16,1044.15,0.340629,100,1
2842096,1,37528,1,48630,52634,48296.5,51608.91,333.5,1025.09,0.340796,100,1
2842136,1,37568,1,48627,52637,48297.17,51610.96,329.83,1026.04,0.34096,100,1
2842176,1,37608,1,48630,52629,48297.84,51613,332.16,1016,0.341122,100,1
2842216,1,37648,1,48630,52636,48298.5,51615.05,331.5,1020.95,0.341282,100,1
2842256,1,37688,1,48635,52635,48299.18,51617.09,335.82,1017.91,0.34144,100,1
2842296,1,37728,1,48625,52618,48299.83,51619.1,325.17,998.9,0.341596,100,1
2842336,1,37768,1,48613,52599,48300.46,51621.06,312.54,977.94,0.341749,100,1
2842376,1,37808,1,48615,52601,48301.09,51623.02,313.91,977.98,0.341901,100,1
2842416,1,37848,1,48615,52621,48301.71,51625.02,313.29,995.98,0.34205,100,1
2842456,1,37888,1,48624,52649,48302.36,51627.07,321.64,1021.93,0.342197,100,1
2842496,1,37928,1,48626,52673,48303.01,51629.16,322.99,1043.84,0.342341,100,1
2842536,1,37968,1,48642,52698,48303.69,51631.3,338.31,1066.7,0.342482,100,1
2842577,1,38009,1,48650,52716,48304.38,51633.47,345.62,1082.53,0.342622,100,1
2842617,1,38049,1,48655,52735,48305.09,51635.68,349.91,1099.32,0.342758,100,1
2842657,1,38089,1,48660,52760,48305.8,51637.93,354.2,1122.07,0.342893,100,1
2842697,1,38129,1,48665,52783,48306.52,51640.22,358.48,1142.78,0.343024,100,1
2842737,1,38169,1,48675,52808,48307.25,51642.55,367.75,1165.45,0.343154,100,1
2842777,1,38209,1,48689,52832,48308.02,51644.93,380.98,1187.07,0.34328,100,1
2842817,1,38249,1,48704,52864,48308.81,51647.37,395.19,1216.63,0.343405,100,1
2842857,1,38289,1,48709,52877,48309.61,51649.84,399.39,1227.16,0.343527,100,1
2842897,1,38329,1,48691,52765,48310.38,51652.07,380.62,1112.93,0.343648,100,1
2842937,1,38369,1,48624,52598,48311.01,51653.96,312.99,944.04,0.343768,100,1
2842977,1,38409,1,48571,52496,48311.53,51655.64,259.47,840.36,0.343886,100,1
2843017,1,38449,1,48549,52470,48312,51657.27,237,812.73,0.344002,100,1
2843057,1,38489,1,48547,52462,48312.48,51658.88,234.52,803.12,0.344117,100,1
2843097,1,38529,1,48538,52452,48312.93,51660.47,225.07,791.53,0.34423,100,1
2843137,1,38569,1,48531,52457,48313.37,51662.06,217.63,794.94,0.344341,100,1
2843177,1,38609,1,48535,52451,48313.81,51663.64,221.19,787.36,0.34445,100,1
2843217,1,38649,1,48531,52423,48314.25,51665.16,216.75,757.84,0.344557,100,1
2843257,1,38689,1,48518,52402,48314.66,51666.64,203.34,735.36,0.344662,100,1
2843297,1,38729,1,48507,52401,48315.05,51668.11,191.95,732.89,0.344766,100,1
2843337,1,38769,1,48511,52418,48315.44,51669.61,195.56,748.39,0.344867,100,1
2843377,1,38809,1,48521,52444,48315.86,51671.16,205.14,772.84,0.344966,100,1
2843418,1,38850,1,48530,52471,48316.29,51672.76,213.71,798.24,0.345063,100,1
2843458,1,38890,1,48540,52500,48316.73,51674.41,223.27,825.59,0.345158,100,1
2843498,1,38930,1,48551,52528,48317.2,51676.12,233.8,851.88,0.345251,100,1
2843538,1,38970,1,48557,52550,48317.68,51677.87,239.32,872.13,0.345342,100,1
2843578,1,39010,1,48569,52570,48318.19,51679.66,250.81,890.34,0.34543,100,1
2843618,1,39050,1,48581,52594,48318.71,51681.48,262.29,912.52,0.345516,100,1
2843658,1,39090,1,48586,52620,48319.25,51683.36,266.75,936.64,0.3456,100,1
2843698,1,39130,1,48597,52648,48319.81,51685.29,277.19,962.71,0.345682,100,1
2843738,1,39170,1,48614,52680,48320.4,51687.29,293.6,992.71,0.345762,100,1
2843778,1,39210,1,48632,52712,48321.02,51689.34,310.98,1022.66,0.34584,100,1
2843818,1,39250,1,48640,52668,48321.66,51691.29,318.34,976.71,0.345917,100,1
2843858,1,39290,1,48592,52500,48322.21,51692.91,269.79,807.09,0.345993,100,1
2843898,1,39330,1,48515,52335,48322.59,51694.2,192.41,640.8,0.346068,100,1
2843938,1,39370,1,48469,52258,48322.89,51695.32,146.11,562.68,0.346143,100,1
2843978,1,39410,1,48454,52245,48323.15,51696.43,130.85,548.57,0.346216,100,1
2844018,1,39450,1,48450,52237,48323.4,51697.51,126.6,539.49,0.346287,100,1
2844058,1,39490,1,48448,52233,48323.65,51698.58,124.35,534.42,0.346358,100,1
2844098,1,39530,1,48442,52238,48323.89,51699.66,118.11,538.34,0.346427,100,1
2844138,1,39570,1,48450,52232,48324.14,51700.73,125.86,531.27,0.346494,100,1
2844179,1,39611,1,48437,52207,48324.37,51701.75,112.63,505.25,0.346561,100,1
2844219,1,39651,1,48429,52196,48324.58,51702.73,104.42,493.27,0.346626,100,1
2844259,1,39691,1,48430,52210,48324.79,51703.75,105.21,506.25,0.34669,100,1
2844299,1,39731,1,48441,52244,48325.03,51704.83,115.97,539.17,0.346753,100,1
2844339,1,39771,1,48454,52280,48325.29,51705.98,128.71,574.02,0.346814,100,1
2844379,1,39811,1,48471,52310,48325.58,51707.2,145.42,602.8,0.346873,100,1
2844419,1,39851,1,48489,52351,48325.91,51708.48,163.09,642.52,0.346931,100,1
2844459,1,39891,1,48498,52378,48326.25,51709.82,171.75,668.18,0.346988,100,1
2844499,1,39931,1,48514,52410,48326.62,51711.23,187.37,698.77,0.347043,100,1
2844539,1,39971,1,48525,52439,48327.02,51712.68,197.98,726.32,0.347096,100,1
2844579,1,40011,1,48548,52459,48327.46,51714.18,220.54,744.82,0.347148,100,1
2844619,1,40051,1,48557,52485,48327.93,51715.72,229.07,769.28,0.3472,100,1
2844659,1,40091,1,48566,52517,48328.4,51717.32,237.6,799.68,0.347249,100,1
2844699,1,40131,1,48579,52556,48328.91,51719,250.09,837,0.347298,100,1
2844739,1,40171,1,48595,52581,48329.44,51720.73,265.56,860.27,0.347346,100,1
2844779,1,40211,1,48595,52482,48329.97,51722.25,265.03,759.75,0.347393,100,1
2844819,1,40251,1,48524,52292,48330.36,51723.39,193.64,568.61,0.347441,100,1
2844859,1,40291,1,48452,52150,48330.61,51724.25,121.39,425.75,0.347488,100,1
2844899,1,40331,1,48412,52102,48330.77,51725.01,81.23,376.99,0.347534,100,1
2844939,1,40371,1,48408,52102,48330.93,51725.76,77.07,376.24,0.34758,100,1
2844980,1,40412,1,48407,52099,48331.08,51726.51,75.92,372.49,0.347624,100,1
2845020,1,40452,1,48407,52103,48331.23,51727.26,75.77,375.74,0.347668,100,1
2845060,1,40492,1,48410,52123,48331.39,51728.05,78.61,394.95,0.347711,100,1
2845100,1,40532,1,48412,52121,48331.56,51728.84,80.44,392.16,0.347753,100,1
2845140,1,40572,1,48407,52099,48331.71,51729.59,75.29,369.41,0.347794,100,1
2845180,1,40612,1,48407,52101,48331.86,51730.33,75.14,370.67,0.347835,100,1
2845220,1,40652,1,48414,52129,48332.03,51731.13,81.97,397.87,0.347874,100,1
2845260,1,40692,1,48422,52172,48332.21,51732.01,89.79,439.99,0.347913,100,1
2845300,1,40732,1,48444,52215,48332.43,51732.98,111.57,482.02,0.34795,100,1
2845340,1,40772,1,48464,52255,48332.7,51734.03,131.3,520.97,0.347987,100,1
2845380,1,40812,1,48485,52288,48333,51735.14,152,552.86,0.348022,100,1
2845420,1,40852,1,48502,52316,48333.34,51736.3,168.66,579.7,0.348057,100,1
2845460,1,40892,1,48512,52346,48333.7,51737.52,178.3,608.48,0.348091,100,1
2845500,1,40932,1,48517,52373,48334.07,51738.8,182.93,634.2,0.348124,100,1
2845540,1,40972,1,48532,52401,48334.47,51740.12,197.53,660.88,0.348156,100,1
2845580,1,41012,1,48547,52424,48334.89,51741.49,212.11,682.51,0.348187,100,1
2845620,1,41052,1,48553,52457,48335.33,51742.92,217.67,714.08,0.348218,100,1
2845660,1,41092,1,48570,52498,48335.8,51744.43,234.2,753.57,0.348248,100,1
2845700,1,41132,1,48579,52515,48336.29,51745.98,242.71,769.02,0.348277,100,1
2845740,1,41172,1,48562,52397,48336.74,51747.28,225.26,649.72,0.348307,100,1
2845781,1,41213,1,48489,52189,48337.05,51748.17,151.95,440.83,0.348337,100,1
2845821,1,41253,1,48417,52056,48337.21,51748.79,79.79,307.21,0.348366,100,1
2845861,1,41293,1,48388,52025,48337.31,51749.34,50.69,275.66,0.348394,100,1
2845901,1,41333,1,48387,52031,48337.41,51749.91,49.59,281.09,0.348422,100,1
2845941,1,41373,1,48385,52033,48337.51,51750.47,47.49,282.53,0.34845,100,1
2845981,1,41413,1,48385,52046,48337.61,51751.07,47.39,294.93,0.348477,100,1
2846021,1,41453,1,48398,52062,48337.73,51751.69,60.27,310.31,0.348503,100,1
2846061,1,41493,1,48396,52050,48337.84,51752.29,58.16,297.71,0.348529,100,1
2846101,1,41533,1,48392,52047,48337.95,51752.88,54.05,294.12,0.348554,100,1
2846141,1,41573,1,48391,52052,48338.06,51753.48,52.94,298.52,0.348578,100,1
2846181,1,41613,1,48403,52081,48338.19,51754.13,64.81,326.87,0.348602,100,1
2846221,1,41653,1,48420,52120,48338.36,51754.87,81.64,365.13,0.348625,100,1
2846261,1,41693,1,48442,52164,48338.56,51755.69,103.44,408.31,0.348647,100,1
2846301,1,41733,1,48457,52201,48338.8,51756.58,118.2,444.42,0.348669,100,1
2846341,1,41773,1,48471,52237,48339.07,51757.54,131.93,479.46,0.34869,100,1
2846381,1,41813,1,48481,52264,48339.35,51758.55,141.65,505.45,0.34871,100,1
2846421,1,41853,1,48497,52287,48339.67,51759.61,157.33,527.39,0.348729,100,1
2846461,1,41893,1,48503,52306,48340,51760.71,163,545.29,0.348748,100,1
2846501,1,41933,1,48509,52335,48340.34,51761.86,168.66,573.14,0.348767,100,1
2846541,1,41973,1,48517,52363,48340.69,51763.06,176.31,599.94,0.348784,100,1
2846581,1,42013,1,48533,52394,48341.08,51764.32,191.92,629.68,0.348801,100,1
2846622,1,42054,1,48546,52433,48341.49,51765.66,204.51,667.34,0.348818,100,1
2846662,1,42094,1,48558,52441,48341.92,51767.01,216.08,673.99,0.348834,100,1
2846702,1,42134,1,48536,52306,48342.31,51768.09,193.69,537.91,0.34885,100,1
2846742,1,42174,1,48450,52100,48342.53,51768.75,107.47,331.25,0.348867,100,1
2846782,1,42214,1,48381,51972,48342.61,51769.16,38.39,202.84,0.348883,100,1
2846822,1,42254,1,48359,51940,48342.64,51769.5,16.36,170.5,0.348898,100,1
2846862,1,42294,1,48356,51954,48342.67,51769.87,13.33,184.12,0.348914,100,1
2846902,1,42334,1,48358,51960,48342.7,51770.26,15.3,189.74,0.348929,100,1
2846942,1,42374,1,48364,51983,48342.74,51770.68,21.26,212.32,0.348944,100,1
2846982,1,42414,1,48376,51991,48342.81,51771.12,33.19,219.87,0.348958,100,1
2847022,1,42454,1,48381,51982,48342.89,51771.55,38.11,210.45,0.348972,100,1
2847062,1,42494,1,48376,51964,48342.95,51771.93,33.05,192.07,0.348985,100,1
2847102,1,42534,1,48374,51976,48343.02,51772.34,30.98,203.66,0.348998,100,1
2847142,1,42574,1,48382,52008,48343.09,51772.82,38.91,235.18,0.349011,100,1
2847182,1,42614,1,48399,52052,48343.21,51773.37,55.79,278.62,0.349023,100,1
2847222,1,42654,1,48418,52094,48343.36,51774.02,74.64,319.98,0.349035,100,1
2847262,1,42694,1,48431,52124,48343.54,51774.72,87.46,349.28,0.349046,100,1
2847302,1,42734,1,48445,52157,48343.74,51775.49,101.26,381.51,0.349056,100,1
2847342,1,42774,1,48455,52183,48343.96,51776.3,111.04,406.7,0.349066,100,1
2847382,1,42814,1,48466,52218,48344.21,51777.19,121.79,440.81,0.349075,100,1
2847423,1,42855,1,48477,52241,48344.47,51778.12,132.53,462.88,0.349084,100,1
2847463,1,42895,1,48487,52261,48344.76,51779.09,142.24,481.91,0.349092,100,1
2847503,1,42935,1,48494,52297,48345.06,51780.12,148.94,516.87,0.349099,100,1
2847543,1,42975,1,48504,52338,48345.38,51781.24,158.62,556.76,0.349106,100,1
2847583,1,43015,1,48523,52374,48345.73,51782.43,177.27,591.57,0.349111,100,1
2847623,1,43055,1,48539,52379,48346.12,51783.62,192.88,595.37,0.349117,100,1
2847663,1,43095,1,48515,52235,48346.46,51784.53,168.54,450.47,0.349124,100,1
2847703,1,43135,1,48428,52019,48346.62,51785,81.37,234,0.34913,100,1
2847743,1,43175,1,48357,51893,48346.65,51785.21,10.35,107.79,0.349137,100,1
2847783,1,43215,1,48333,51873,48346.62,51785.39,-13.62,87.61,0.349143,100,1
2847823,1,43255,1,48343,51880,48346.61,51785.58,-3.61,94.42,0.349149,100,1
2847863,1,43295,1,48345,51887,48346.61,51785.79,-1.61,101.21,0.349155,100,1
2847903,1,43335,1,48348,51907,48346.61,51786.03,1.39,120.97,0.349161,100,1
2847943,1,43375,1,48358,51924,48346.64,51786.3,11.36,137.7,0.349167,100,1
2847983,1,43415,1,48356,51914,48346.66,51786.56,9.34,127.44,0.349172,100,1
2848023,1,43455,1,48352,51896,48346.67,51786.78,5.33,109.22,0.349177,100,1
2848063,1,43495,1,48352,51908,48346.68,51787.02,5.32,120.98,0.349182,100,1
2848103,1,43535,1,48361,51942,48346.71,51787.34,14.29,154.66,0.349187,100,1
2848143,1,43575,1,48378,51987,48346.77,51787.74,31.23,199.26,0.349192,100,1
2848183,1,43615,1,48391,52034,48346.86,51788.23,44.14,245.77,0.349196,100,1
2848223,1,43655,1,48411,52069,48346.99,51788.79,64.01,280.21,0.349199,100,1
2848264,1,43696,1,48427,52102,48347.15,51789.42,79.85,312.58,0.349202,100,1
2848304,1,43736,1,48438,52130,48347.34,51790.11,90.66,339.89,0.349204,100,1
2848344,1,43776,1,48443,52162,48347.53,51790.85,95.47,371.15,0.349206,100,1
2848384,1,43816,1,48459,52199,48347.75,51791.67,111.25,407.33,0.349207,100,1
2848424,1,43856,1,48471,52225,48348,51792.54,123,432.46,0.349207,100,1
2848464,1,43896,1,48485,52259,48348.27,51793.47,136.73,465.53,0.349207,100,1
2848504,1,43936,1,48501,52292,48348.58,51794.47,152.42,497.53,0.349207,100,1
2848544,1,43976,1,48516,52343,48348.91,51795.57,167.09,547.43,0.349206,100,1
2848584,1,44016,1,48535,52376,48349.29,51796.73,185.71,579.27,0.349205,100,1
2848624,1,44056,1,48533,52285,48349.66,51797.71,183.34,487.29,0.349205,100,1
2848664,1,44096,1,48470,52058,48349.9,51798.23,120.1,259.77,0.349206,100,1
2848704,1,44136,1,48382,51882,48349.96,51798.4,32.04,83.6,0.349207,100,1
2848744,1,44176,1,48339,51832,48349.95,51798.47,-10.95,33.53,0.349208,100,1
2848784,1,44216,1,48332,51840,48349.91,51798.55,-17.91,41.45,0.349209,100,1
2848824,1,44256,1,48339,51850,48349.89,51798.66,-10.89,51.34,0.34921,100,1
2848864,1,44296,1,48342,51866,48349.87,51798.8,-7.87,67.2,0.349211,100,1
2848904,1,44336,1,48353,51889,48349.88,51798.98,3.12,90.02,0.349212,100,1
2848944,1,44376,1,48356,51881,48349.89,51799.14,6.11,81.86,0.349212,100,1
2848984,1,44416,1,48346,51865,48349.89,51799.28,-3.89,65.72,0.349213,100,1
2849025,1,44457,1,48344,51863,48349.87,51799.41,-5.87,63.59,0.349214,100,1
2849065,1,44497,1,48350,51891,48349.87,51799.59,0.13,91.41,0.349214,100,1
2849105,1,44537,1,48363,51940,48349.9,51799.87,13.1,140.13,0.349214,100,1
2849145,1,44577,1,48380,51994,48349.96,51800.26,30.04,193.74,0.349214,100,1
2849185,1,44617,1,48403,52041,48350.07,51800.75,52.93,240.25,0.349213,100,1
2849225,1,44657,1,48419,52073,48350.21,51801.29,68.79,271.71,0.349212,100,1
2849265,1,44697,1,48435,52107,48350.38,51801.91,84.62,305.09,0.349211,100,1
2849305,1,44737,1,48443,52140,48350.57,51802.58,92.43,337.42,0.349209,100,1
2849345,1,44777,1,48461,52171,48350.79,51803.32,110.21,367.68,0.349206,100,1
2849385,1,44817,1,48478,52199,48351.05,51804.11,126.95,394.89,0.349204,100,1
2849425,1,44857,1,48490,52227,48351.32,51804.96,138.68,422.04,0.349202,100,1
2849465,1,44897,1,48504,52257,48351.63,51805.87,152.37,451.13,0.3492,100,1
2849505,1,44937,1,48517,52298,48351.96,51806.85,165.04,491.15,0.349198,100,1
2849545,1,44977,1,48530,52332,48352.32,51807.9,177.68,524.1,0.349197,100,1
2849585,1,45017,1,48545,52316,48352.7,51808.92,192.3,507.08,0.349197,100,1
2849625,1,45057,1,48502,52121,48353,51809.54,149,311.46,0.349199,100,1
2849665,1,45097,1,48405,51890,48353.11,51809.71,51.89,80.29,0.349201,100,1
2849705,1,45137,1,48330,51778,48353.06,51809.64,-23.06,-31.64,0.349203,100,1
2849745,1,45177,1,48314,51769,48352.98,51809.57,-38.98,-40.57,0.349206,100,1
2849785,1,45217,1,48319,51786,48352.92,51809.52,-33.92,-23.52,0.349209,100,1
2849826,1,45258,1,48320,51795,48352.85,51809.49,-32.85,-14.49,0.349211,100,1
2849866,1,45298,1,48329,51817,48352.8,51809.51,-23.8,7.49,0.349214,100,1
2849906,1,45338,1,48335,51835,48352.77,51809.56,-17.77,25.44,0.349217,100,1
2849946,1,45378,1,48327,51814,48352.72,51809.57,-25.72,4.43,0.34922,100,1
2849986,1,45418,1,48326,51803,48352.67,51809.56,-26.67,-6.56,0.349224,100,1
2850026,1,45458,1,48329,51824,48352.62,51809.59,-23.62,14.41,0.349227,100,1
2850066,1,45498,1,48339,51871,48352.59,51809.71,-13.59,61.29,0.34923,100,1
2850106,1,45538,1,48361,51923,48352.61,51809.94,8.39,113.06,0.349233,100,1
2850146,1,45578,1,48382,51969,48352.67,51810.26,29.33,158.74,0.349236,100,1
2850186,1,45618,1,48404,52011,48352.78,51810.66,51.22,200.34,0.349238,100,1
2850226,1,45658,1,48422,52042,48352.92,51811.13,69.08,230.87,0.34924,100,1
2850266,1,45698,1,48439,52069,48353.09,51811.64,85.91,257.36,0.349243,100,1
2850306,1,45738,1,48449,52096,48353.28,51812.21,95.72,283.79,0.349245,100,1
2850346,1,45778,1,48454,52124,48353.48,51812.84,100.52,311.16,0.349247,100,1
2850386,1,45818,1,48467,52148,48353.71,51813.51,113.29,334.49,0.34925,100,1
2850426,1,45858,1,48477,52175,48353.96,51814.23,123.04,360.77,0.349253,100,1
2850466,1,45898,1,48491,52209,48354.23,51815.02,136.77,393.98,0.349256,100,1
2850506,1,45938,1,48500,52250,48354.52,51815.89,145.48,434.11,0.349259,100,1
2850546,1,45978,1,48520,52247,48354.86,51816.76,165.14,430.24,0.349264,100,1
2850586,1,46018,1,48483,52081,48355.11,51817.29,127.89,263.71,0.34927,100,1
2850627,1,46059,1,48392,51834,48355.19,51817.32,36.81,16.68,0.349277,100,1
2850667,1,46099,1,48310,51689,48355.1,51817.07,-45.1,-128.07,0.349283,100,1
2850707,1,46139,1,48281,51678,48354.95,51816.79,-73.95,-138.79,0.34929,100,1
2850747,1,46179,1,48281,51699,48354.8,51816.56,-73.8,-117.56,0.349298,100,1
2850787,1,46219,1,48289,51703,48354.67,51816.33,-65.67,-113.33,0.349307,100,1
2850827,1,46259,1,48300,51727,48354.56,51816.16,-54.56,-89.16,0.349316,100,1
2850867,1,46299,1,48309,51750,48354.47,51816.02,-45.47,-66.02,0.349325,100,1
2850907,1,46339,1,48308,51744,48354.38,51815.88,-46.38,-71.88,0.349334,100,1
2850947,1,46379,1,48307,51731,48354.29,51815.71,-47.29,-84.71,0.349344,100,1
2850987,1,46419,1,48309,51753,48354.2,51815.59,-45.2,-62.59,0.349354,100,1
2851027,1,46459,1,48328,51787,48354.15,51815.53,-26.15,-28.53,0.349364,100,1
2851067,1,46499,1,48348,51839,48354.14,51815.58,-6.14,23.42,0.349374,100,1
2851107,1,46539,1,48370,51890,48354.17,51815.73,15.83,74.27,0.349384,100,1
2851147,1,46579,1,48385,51927,48354.23,51815.95,30.77,111.05,0.349394,100,1
2851187,1,46619,1,48403,51961,48354.33,51816.24,48.67,144.76,0.349404,100,1
2851227,1,46659,1,48415,51988,48354.45,51816.59,60.55,171.41,0.349414,100,1
2851267,1,46699,1,48424,52013,48354.59,51816.98,69.41,196.02,0.349424,100,1
2851307,1,46739,1,48433,52038,48354.75,51817.43,78.25,220.57,0.349434,100,1
2851347,1,46779,1,48441,52064,48354.92,51817.92,86.08,246.08,0.349445,100,1
2851387,1,46819,1,48452,52095,48355.11,51818.48,96.89,276.52,0.349455,100,1
2851428,1,46860,1,48463,52126,48355.33,51819.09,107.67,306.91,0.349466,100,1
2851468,1,46900,1,48477,52162,48355.58,51819.78,121.42,342.22,0.349477,100,1
2851508,1,46940,1,48489,52168,48355.85,51820.48,133.15,347.52,0.34949,100,1
2851548,1,46980,1,48461,51991,48356.06,51820.82,104.94,170.18,0.349504,100,1
2851588,1,47020,1,48364,51739,48356.07,51820.66,7.93,-81.66,0.349517,100,1
2851628,1,47060,1,48281,51595,48355.93,51820.21,-74.93,-225.21,0.349531,100,1
2851668,1,47100,1,48258,51585,48355.73,51819.74,-97.73,-234.74,0.349546,100,1
2851708,1,47140,1,48260,51612,48355.54,51819.33,-95.54,-207.33,0.349561,100,1
2851748,1,47180,1,48273,51622,48355.37,51818.93,-82.37,-196.93,0.349578,100,1
2851788,1,47220,1,48281,51653,48355.23,51818.6,-74.23,-165.6,0.349594,100,1
2851828,1,47260,1,48301,51671,48355.12,51818.31,-54.12,-147.31,0.349611,100,1
2851868,1,47300,1,48299,51658,48355.01,51817.99,-56.01,-159.99,0.349628,100,1
2851908,1,47340,1,48292,51644,48354.89,51817.64,-62.89,-173.64,0.349645,100,1
2851948,1,47380,1,48290,51662,48354.76,51817.33,-64.76,-155.33,0.349662,100,1
2851988,1,47420,1,48306,51702,48354.66,51817.1,-48.66,-115.1,0.349679,100,1
2852028,1,47460,1,48328,51752,48354.61,51816.97,-26.61,-64.97,0.349696,100,1
2852068,1,47500,1,48349,51802,48354.6,51816.95,-5.6,-14.95,0.349714,100,1
2852108,1,47540,1,48364,51839,48354.62,51816.99,9.38,22.01,0.349731,100,1
2852148,1,47580,1,48376,51871,48354.66,51817.1,21.34,53.9,0.349748,100,1
2852188,1,47620,1,48388,51897,48354.73,51817.26,33.27,79.74,0.349766,100,1
2852229,1,47661,1,48393,51924,48354.8,51817.48,38.2,106.52,0.349783,100,1
2852269,1,47701,1,48408,51942,48354.91,51817.73,53.09,124.27,0.3498,100,1
2852309,1,47741,1,48418,51976,48355.04,51818.04,62.96,157.96,0.349818,100,1
2852349,1,47781,1,48427,52011,48355.19,51818.43,71.81,192.57,0.349836,100,1
2852389,1,47821,1,48441,52048,48355.36,51818.89,85.64,229.11,0.349855,100,1
2852429,1,47861,1,48463,52088,48355.57,51819.43,107.43,268.57,0.349874,100,1
2852469,1,47901,1,48476,52068,48355.82,51819.93,120.18,248.07,0.349895,100,1
2852509,1,47941,1,48428,51872,48355.96,51820.04,72.04,51.96,0.349918,100,1
2852549,1,47981,1,48337,51615,48355.93,51819.62,-18.93,-204.62,0.34994,100,1
2852589,1,48021,1,48259,51492,48355.73,51818.97,-96.73,-326.97,0.34996,100,1
2852629,1,48061,1,48240,51491,48355.5,51818.32,-115.5,-327.32,0.349981,100,1
2852669,1,48101,1,48249,51510,48355.29,51817.7,-106.29,-307.7,0.350002,100,1
2852709,1,48141,1,48253,51519,48355.09,51817.1,-102.09,-298.1,0.350024,100,1
2852749,1,48181,1,48261,51554,48354.9,51816.58,-93.9,-262.58,0.350045,100,1
2852789,1,48221,1,48274,51566,48354.74,51816.08,-80.74,-250.08,0.350066,100,1
2852829,1,48261,1,48272,51554,48354.58,51815.55,-82.58,-261.55,0.350087,100,1
2852869,1,48301,1,48269,51545,48354.41,51815.02,-85.41,-270.02,0.350108,100,1
2852909,1,48341,1,48267,51566,48354.24,51814.52,-87.24,-248.52,0.350129,100,1
2852949,1,48381,1,48279,51610,48354.09,51814.11,-75.09,-204.11,0.35015,100,1
2852989,1,48421,1,48302,51665,48353.99,51813.82,-51.99,-148.82,0.350171,100,1
2853030,1,48462,1,48323,51709,48353.93,51813.61,-30.93,-104.61,0.350192,100,1
2853070,1,48502,1,48340,51751,48353.9,51813.48,-13.9,-62.48,0.350213,100,1
2853110,1,48542,1,48348,51784,48353.89,51813.43,-5.89,-29.43,0.350233,100,1
2853150,1,48582,1,48358,51814,48353.89,51813.43,4.11,0.57,0.350254,100,1
2853190,1,48622,1,48375,51841,48353.94,51813.48,21.06,27.52,0.350275,100,1
2853230,1,48662,1,48392,51868,48354.02,51813.59,37.98,54.41,0.350296,100,1
2853270,1,48702,1,48403,51899,48354.11,51813.77,48.89,85.23,0.350317,100,1
2853310,1,48742,1,48416,51937,48354.24,51814.01,61.76,122.99,0.350339,100,1
2853350,1,48782,1,48427,51977,48354.39,51814.34,72.61,162.66,0.350362,100,1
2853390,1,48822,1,48447,52012,48354.57,51814.74,92.43,197.26,0.350386,100,1
2853430,1,48862,1,48466,52022,48354.8,51815.15,111.2,206.85,0.350412,100,1
2853470,1,48902,1,48439,51843,48354.96,51815.21,84.04,27.79,0.350441,100,1
2853510,1,48942,1,48339,51568,48354.93,51814.72,-15.93,-246.72,0.350467,100,1
2853550,1,48982,1,48242,51401,48354.71,51813.89,-112.71,-412.89,0.350491,100,1
2853590,1,49022,1,48212,51385,48354.42,51813.04,-142.42,-428.04,0.350515,100,1
2853630,1,49062,1,48217,51407,48354.15,51812.23,-137.15,-405.23,0.350539,100,1
2853670,1,49102,1,48223,51414,48353.89,51811.43,-130.89,-397.43,0.350563,100,1
2853710,1,49142,1,48223,51440,48353.62,51810.69,-130.62,-370.69,0.350587,100,1
2853750,1,49182,1,48231,51468,48353.38,51810,-122.38,-342,0.350612,100,1
2853790,1,49222,1,48237,51454,48353.15,51809.29,-116.15,-355.29,0.350636,100,1
2853831,1,49263,1,48231,51439,48352.91,51808.55,-121.91,-369.55,0.350661,100,1
2853871,1,49303,1,48229,51456,48352.66,51807.85,-123.66,-351.85,0.350685,100,1
2853911,1,49343,1,48241,51503,48352.44,51807.24,-111.44,-304.24,0.350711,100,1
2853951,1,49383,1,48260,51562,48352.26,51806.75,-92.26,-244.75,0.350736,100,1
2853991,1,49423,1,48284,51609,48352.12,51806.36,-68.12,-197.36,0.350762,100,1
2854031,1,49463,1,48307,51652,48352.03,51806.05,-45.03,-154.05,0.350787,100,1
2854071,1,49503,1,48324,51692,48351.98,51805.82,-27.98,-113.82,0.350812,100,1
2854111,1,49543,1,48337,51724,48351.95,51805.66,-14.95,-81.66,0.350837,100,1
2854151,1,49583,1,48349,51753,48351.95,51805.55,-2.95,-52.55,0.350862,100,1
2854191,1,49623,1,48367,51781,48351.98,51805.51,15.02,-24.51,0.350887,100,1
2854231,1,49663,1,48382,51807,48352.04,51805.51,29.96,1.49,0.350912,100,1
2854271,1,49703,1,48394,51838,48352.12,51805.58,41.88,32.42,0.350937,100,1
2854311,1,49743,1,48404,51874,48352.23,51805.71,51.77,68.29,0.350963,100,1
2854351,1,49783,1,48419,51918,48352.37,51805.94,66.63,112.06,0.35099,100,1
2854391,1,49823,1,48436,51949,48352.54,51806.23,83.46,142.77,0.351019,100,1
2854431,1,49863,1,48439,51872,48352.71,51806.36,86.29,65.64,0.35105,100,1
2854471,1,49903,1,48364,51607,48352.73,51805.96,11.27,-198.96,0.35108,100,1
2854511,1,49943,1,48246,51372,48352.52,51805.1,-106.52,-433.1,0.351106,100,1
2854551,1,49983,1,48189,51292,48352.2,51804.07,-163.2,-512.07,0.35113,100,1
2854592,1,50024,1,48177,51312,48351.85,51803.09,-174.85,-491.09,0.351156,100,1
2854632,1,50064,1,48186,51330,48351.52,51802.14,-165.52,-472.14,0.351182,100,1
2854672,1,50104,1,48186,51349,48351.19,51801.24,-165.19,-452.24,0.35121,100,1
2854712,1,50144,1,48196,51391,48350.88,51800.42,-154.88,-409.42,0.35124,100,1
2854752,1,50184,1,48212,51406,48350.61,51799.63,-138.61,-393.63,0.35127,100,1
2854792,1,50224,1,48212,51397,48350.33,51798.82,-138.33,-401.82,0.3513,100,1
2854832,1,50264,1,48211,51404,48350.05,51798.04,-139.05,-394.04,0.351331,100,1
2854872,1,50304,1,48216,51449,48349.79,51797.34,-133.79,-348.34,0.351363,100,1
2854912,1,50344,1,48243,51509,48349.57,51796.77,-106.57,-287.77,0.351396,100,1
2854952,1,50384,1,48266,51564,48349.41,51796.3,-83.41,-232.3,0.351429,100,1
2854992,1,50424,1,48288,51616,48349.29,51795.94,-61.29,-179.94,0.351462,100,1
2855032,1,50464,1,48313,51655,48349.22,51795.66,-36.22,-140.66,0.351494,100,1
2855072,1,50504,1,48327,51694,48349.18,51795.46,-22.18,-101.46,0.351526,100,1
2855112,1,50544,1,48340,51722,48349.16,51795.31,-9.16,-73.31,0.351558,100,1
2855152,1,50584,1,48355,51754,48349.17,51795.23,5.83,-41.23,0.351589,100,1
2855192,1,50624,1,48364,51779,48349.2,51795.2,14.8,-16.2,0.351621,100,1
2855232,1,50664,1,48376,51814,48349.26,51795.24,26.74,18.76,0.351652,100,1
2855272,1,50704,1,48382,51844,48349.32,51795.34,32.68,48.66,0.351684,100,1
2855312,1,50744,1,48399,51889,48349.43,51795.52,49.57,93.48,0.351716,100,1
2855353,1,50785,1,48411,51929,48349.55,51795.79,61.45,133.21,0.351749,100,1
2855393,1,50825,1,48427,51937,48349.71,51796.08,77.29,140.92,0.351784,100,1
2855433,1,50865,1,48397,51767,48349.8,51796.02,47.2,-29.02,0.351819,100,1
2855473,1,50905,1,48291,51489,48349.69,51795.41,-58.69,-306.41,0.351851,100,1
2855513,1,50945,1,48199,51324,48349.39,51794.46,-150.39,-470.46,0.351882,100,1
2855553,1,50985,1,48165,51309,48349.02,51793.5,-184.02,-484.5,0.351915,100,1
2855593,1,51025,1,48173,51345,48348.67,51792.6,-175.67,-447.6,0.351952,100,1
2855633,1,51065,1,48178,51367,48348.33,51791.75,-170.33,-424.75,0.351991,100,1
2855673,1,51105,1,48188,51405,48348.01,51790.98,-160.01,-385.98,0.352034,100,1
2855713,1,51145,1,48211,51439,48347.73,51790.27,-136.73,-351.27,0.352078,100,1
2855753,1,51185,1,48216,51438,48347.47,51789.57,-131.47,-351.57,0.352123,100,1
2855793,1,51225,1,48211,51429,48347.2,51788.85,-136.2,-359.85,0.352169,100,1
2855833,1,51265,1,48216,51454,48346.94,51788.18,-130.94,-334.18,0.352216,100,1
2855873,1,51305,1,48229,51498,48346.7,51787.61,-117.7,-289.61,0.352265,100,1
2855913,1,51345,1,48249,51556,48346.51,51787.14,-97.51,-231.14,0.352315,100,1
2855953,1,51385,1,48271,51613,48346.36,51786.8,-75.36,-173.8,0.352366,100,1
2855993,1,51425,1,48292,51661,48346.25,51786.55,-54.25,-125.55,0.352417,100,1
2856033,1,51465,1,48303,51693,48346.16,51786.36,-43.16,-93.36,0.352468,100,1
2856073,1,51505,1,48317,51724,48346.11,51786.23,-29.11,-62.23,0.352519,100,1
2856114,1,51546,1,48330,51753,48346.07,51786.17,-16.07,-33.17,0.35257,100,1
2856154,1,51586,1,48340,51787,48346.06,51786.17,-6.06,0.83,0.352621,100,1
2856194,1,51626,1,48352,51820,48346.07,51786.24,5.93,33.76,0.352671,100,1
2856234,1,51666,1,48361,51854,48346.11,51786.38,14.89,67.62,0.352722,100,1
2856274,1,51706,1,48372,51894,48346.16,51786.59,25.84,107.41,0.352772,100,1
2856314,1,51746,1,48394,51931,48346.26,51786.88,47.74,144.12,0.352821,100,1
2856354,1,51786,1,48409,51981,48346.38,51787.27,62.62,193.73,0.352871,100,1
2856394,1,51826,1,48423,51981,48346.54,51787.66,76.46,193.34,0.352921,100,1
2856434,1,51866,1,48386,51777,48346.62,51787.64,39.38,-10.64,0.352971,100,1
2856474,1,51906,1,48279,51496,48346.49,51787.06,-67.49,-291.06,0.353019,100,1
2856514,1,51946,1,48190,51347,48346.18,51786.18,-156.18,-439.18,0.353067,100,1
2856554,1,51986,1,48163,51344,48345.81,51785.3,-182.81,-441.3,0.353119,100,1
2856594,1,52026,1,48169,51376,48345.46,51784.48,-176.46,-408.48,0.353176,100,1
2856634,1,52066,1,48169,51392,48345.11,51783.7,-176.11,-391.7,0.353238,100,1
2856674,1,52106,1,48180,51426,48344.78,51782.98,-164.78,-356.98,0.353305,100,1
2856714,1,52146,1,48200,51454,48344.49,51782.33,-144.49,-328.33,0.353375,100,1
2856754,1,52186,1,48197,51449,48344.2,51781.66,-147.2,-332.66,0.353448,100,1
2856794,1,52226,1,48194,51446,48343.9,51780.99,-149.9,-334.99,0.353524,100,1
2856834,1,52266,1,48198,51467,48343.61,51780.37,-145.61,-313.37,0.353603,100,1
2856875,1,52307,1,48204,51511,48343.33,51779.83,-139.33,-268.83,0.353687,100,1
2856915,1,52347,1,48226,51566,48343.1,51779.4,-117.1,-213.4,0.353773,100,1
2856955,1,52387,1,48245,51628,48342.9,51779.1,-97.9,-151.1,0.353862,100,1
2856995,1,52427,1,48263,51672,48342.74,51778.89,-79.74,-106.89,0.353953,100,1
2857035,1,52467,1,48280,51713,48342.62,51778.76,-62.62,-65.76,0.354045,100,1
2857075,1,52507,1,48299,51741,48342.53,51778.69,-43.53,-37.69,0.354137,100,1
2857115,1,52547,1,48312,51777,48342.47,51778.68,-30.47,-1.68,0.35423,100,1
2857155,1,52587,1,48323,51814,48342.43,51778.75,-19.43,35.25,0.354322,100,1
2857195,1,52627,1,48340,51855,48342.43,51778.91,-2.43,76.09,0.354414,100,1
2857235,1,52667,1,48357,51890,48342.46,51779.13,14.54,110.87,0.354505,100,1
2857275,1,52707,1,48372,51925,48342.52,51779.42,29.48,145.58,0.354594,100,1
2857315,1,52747,1,48386,51962,48342.61,51779.79,43.39,182.21,0.354683,100,1
2857355,1,52787,1,48403,52004,48342.73,51780.24,60.27,223.76,0.35477,100,1
2857395,1,52827,1,48412,51979,48342.87,51780.64,69.13,198.36,0.354856,100,1
2857435,1,52867,1,48360,51747,48342.91,51780.57,17.09,-33.57,0.354943,100,1
2857475,1,52907,1,48248,51465,48342.72,51779.94,-94.72,-314.94,0.355027,100,1
2857515,1,52947,1,48155,51339,48342.34,51779.06,-187.34,-440.06,0.355116,100,1
2857555,1,52987,1,48125,51345,48341.91,51778.2,-216.91,-433.2,0.355214,100,1
2857595,1,53027,1,48133,51375,48341.49,51777.39,-208.49,-402.39,0.355322,100,1
2857635,1,53067,1,48142,51383,48341.09,51776.6,-199.09,-393.6,0.355439,100,1
2857676,1,53108,1,48146,51422,48340.7,51775.89,-194.7,-353.89,0.355563,100,1
2857716,1,53148,1,48159,51448,48340.34,51775.24,-181.34,-327.24,0.355695,100,1
2857756,1,53188,1,48162,51442,48339.98,51774.57,-177.98,-332.57,0.355834,100,1
2857796,1,53228,1,48155,51439,48339.62,51773.91,-184.62,-334.91,0.35598,100,1
2857836,1,53268,1,48162,51466,48339.26,51773.29,-177.26,-307.29,0.356133,100,1
2857876,1,53308,1,48176,51524,48338.94,51772.8,-162.94,-248.8,0.356293,100,1
2857916,1,53348,1,48198,51584,48338.66,51772.42,-140.66,-188.42,0.356458,100,1
2857956,1,53388,1,48221,51640,48338.42,51772.16,-117.42,-132.16,0.356628,100,1
2857996,1,53428,1,48247,51687,48338.24,51771.99,-91.24,-84.99,0.3568,100,1
2858036,1,53468,1,48267,51722,48338.1,51771.89,-71.1,-49.89,0.356974,100,1
2858076,1,53508,1,48278,51751,48337.98,51771.86,-59.98,-20.86,0.357149,100,1
2858116,1,53548,1,48291,51781,48337.89,51771.87,-46.89,9.13,0.357324,100,1
2858156,1,53588,1,48299,51811,48337.81,51771.95,-38.81,39.05,0.357499,100,1
2858196,1,53628,1,48310,51837,48337.76,51772.09,-27.76,64.91,0.357674,100,1
2858236,1,53668,1,48322,51868,48337.73,51772.28,-15.73,95.72,0.357848,100,1
2858276,1,53708,1,48336,51899,48337.72,51772.53,-1.72,126.47,0.35802,100,1
2858316,1,53748,1,48349,51940,48337.75,51772.87,11.25,167.13,0.35819,100,1
2858356,1,53788,1,48359,51978,48337.79,51773.28,21.21,204.72,0.358356,100,1
2858396,1,53828,1,48364,51932,48337.84,51773.6,26.16,158.4,0.358521,100,1
2858437,1,53869,1,48301,51677,48337.77,51773.41,-36.77,-96.41,0.358685,100,1
2858477,1,53909,1,48175,51397,48337.45,51772.66,-162.45,-375.66,0.358852,100,1
2858517,1,53949,1,48091,51285,48336.95,51771.68,-245.95,-486.68,0.359029,100,1
2858557,1,53989,1,48067,51298,48336.41,51770.74,-269.41,-472.74,0.359222,100,1
2858597,1,54029,1,48075,51323,48335.89,51769.84,-260.89,-446.84,0.359431,100,1
2858637,1,54069,1,48079,51330,48335.38,51768.96,-256.38,-438.96,0.359654,100,1
2858677,1,54109,1,48089,51371,48334.89,51768.17,-245.89,-397.17,0.35989,100,1
2858717,1,54149,1,48104,51398,48334.43,51767.43,-230.43,-369.43,0.360138,100,1
2858757,1,54189,1,48107,51395,48333.97,51766.69,-226.97,-371.69,0.360397,100,1
2858797,1,54229,1,48103,51397,48333.51,51765.95,-230.51,-368.95,0.360666,100,1
2858837,1,54269,1,48111,51421,48333.07,51765.27,-222.07,-344.27,0.360946,100,1
2858877,1,54309,1,48129,51471,48332.66,51764.68,-203.66,-293.68,0.361235,100,1
2858917,1,54349,1,48148,51531,48332.29,51764.21,-184.29,-233.21,0.361532,100,1
2858957,1,54389,1,48173,51584,48331.98,51763.86,-158.98,-179.86,0.361836,100,1
2858997,1,54429,1,48187,51619,48331.69,51763.57,-144.69,-144.57,0.362146,100,1
2859037,1,54469,1,48208,51649,48331.44,51763.34,-123.44,-114.34,0.36246,100,1
2859077,1,54509,1,48213,51674,48331.21,51763.16,-118.21,-89.16,0.362778,100,1
2859117,1,54549,1,48222,51702,48330.99,51763.04,-108.99,-61.04,0.363099,100,1
2859157,1,54589,1,48231,51730,48330.79,51762.98,-99.79,-32.98,0.363424,100,1
2859197,1,54629,1,48239,51756,48330.61,51762.96,-91.61,-6.96,0.36375,100,1
2859238,1,54670,1,48251,51785,48330.45,51763.01,-79.45,21.99,0.364079,100,1
2859278,1,54710,1,48265,51817,48330.32,51763.12,-65.32,53.88,0.364407,100,1
2859318,1,54750,1,48276,51860,48330.21,51763.32,-54.21,96.68,0.364736,100,1
2859358,1,54790,1,48289,51900,48330.13,51763.59,-41.13,136.41,0.365062,100,1
2859398,1,54830,1,48299,51839,48330.07,51763.74,-31.07,75.26,0.365388,100,1
2859438,1,54870,1,48227,51570,48329.87,51763.36,-102.87,-193.36,0.365713,100,1
2859478,1,54910,1,48096,51304,48329.4,51762.44,-233.4,-458.44,0.366044,100,1
2859518,1,54950,1,48010,51210,48328.77,51761.33,-318.77,-551.33,0.36639,100,1
2859558,1,54990,1,47998,51226,48328.11,51760.26,-330.11,-534.26,0.366755,100,1
2859598,1,55030,1,48012,51244,48327.47,51759.23,-315.47,-515.23,0.367136,100,1
2859638,1,55070,1,48012,51250,48326.84,51758.21,-314.84,-508.21,0.367531,100,1
2859678,1,55110,1,48021,51290,48326.23,51757.28,-305.23,-467.28,0.367942,100,1
2859718,1,55150,1,48034,51312,48325.65,51756.39,-291.65,-444.39,0.368366,100,1
2859758,1,55190,1,48034,51304,48325.07,51755.49,-291.07,-451.49,0.368802,100,1
2859798,1,55230,1,48031,51297,48324.48,51754.57,-293.48,-457.57,0.369249,100,1
2859838,1,55270,1,48033,51326,48323.9,51753.72,-290.9,-427.72,0.369709,100,1
2859878,1,55310,1,48050,51379,48323.36,51752.97,-273.36,-373.97,0.370181,100,1
2859918,1,55350,1,48069,51436,48322.85,51752.34,-253.85,-316.34,0.370665,100,1
2859958,1,55390,1,48090,51484,48322.38,51751.8,-232.38,-267.8,0.371158,100,1
2859999,1,55431,1,48106,51518,48321.95,51751.34,-215.95,-233.34,0.371661,100,1
2860039,1,55471,1,48117,51547,48321.54,51750.93,-204.54,-203.93,0.372173,100,1
2860079,1,55511,1,48128,51581,48321.16,51750.59,-193.16,-169.59,0.372692,100,1
2860119,1,55551,1,48135,51612,48320.79,51750.31,-185.79,-138.31,0.37322,100,1
2860159,1,55591,1,48146,51638,48320.44,51750.09,-174.44,-112.09,0.373755,100,1
2860199,1,55631,1,48157,51666,48320.11,51749.92,-163.11,-83.92,0.374296,100,1
2860239,1,55671,1,48175,51703,48319.82,51749.83,-144.82,-46.83,0.374842,100,1
2860279,1,55711,1,48184,51749,48319.55,51749.83,-135.55,-0.83,0.375393,100,1
2860319,1,55751,1,48204,51793,48319.32,51749.91,-115.32,43.09,0.375946,100,1
2860359,1,55791,1,48226,51814,48319.14,51750.04,-93.14,63.96,0.3765,100,1
2860399,1,55831,1,48214,51677,48318.93,51749.9,-104.93,-72.9,0.377056,100,1
2860439,1,55871,1,48107,51370,48318.51,51749.14,-211.51,-379.14,0.377611,100,1
2860479,1,55911,1,47985,51159,48317.84,51747.96,-332.84,-588.96,0.37817,100,1
2860519,1,55951,1,47926,51118,48317.06,51746.7,-391.06,-628.7,0.378741,100,1
2860559,1,55991,1,47925,51136,48316.28,51745.48,-391.28,-609.48,0.379325,100,1
2860599,1,56031,1,47927,51137,48315.5,51744.27,-388.5,-607.27,0.37992,100,1
2860639,1,56071,1,47931,51159,48314.73,51743.1,-383.73,-584.1,0.380526,100,1
2860679,1,56111,1,47940,51202,48313.98,51742.02,-373.98,-540.02,0.381146,100,1
2860719,1,56151,1,47948,51214,48313.25,51740.96,-365.25,-526.96,0.381777,100,1
2860759,1,56191,1,47946,51197,48312.52,51739.88,-366.52,-542.88,0.382418,100,1
2860800,1,56232,1,47942,51208,48311.78,51738.82,-369.78,-530.82,0.38307,100,1
2860840,1,56272,1,47949,51251,48311.06,51737.84,-362.06,-486.84,0.383734,100,1
2860880,1,56312,1,47966,51308,48310.37,51736.98,-344.37,-428.98,0.384411,100,1
2860920,1,56352,1,47989,51370,48309.73,51736.25,-320.73,-366.25,0.3851,100,1
2860960,1,56392,1,48014,51415,48309.14,51735.61,-295.14,-320.61,0.385801,100,1
2861000,1,56432,1,48029,51449,48308.58,51735.04,-279.58,-286.04,0.386511,100,1
2861040,1,56472,1,48045,51485,48308.05,51734.54,-263.05,-249.54,0.387232,100,1
2861080,1,56512,1,48051,51515,48307.54,51734.1,-256.54,-219.1,0.387962,100,1
2861120,1,56552,1,48065,51548,48307.06,51733.73,-242.06,-185.73,0.388701,100,1
2861160,1,56592,1,48081,51577,48306.61,51733.42,-225.61,-156.42,0.389448,100,1
2861200,1,56632,1,48096,51605,48306.19,51733.16,-210.19,-128.16,0.390202,100,1
2861240,1,56672,1,48110,51639,48305.8,51732.98,-195.8,-93.98,0.390963,100,1
2861280,1,56712,1,48125,51680,48305.44,51732.87,-180.44,-52.87,0.391729,100,1
2861320,1,56752,1,48136,51719,48305.1,51732.84,-169.1,-13.84,0.3925,100,1
2861360,1,56792,1,48137,51651,48304.77,51732.68,-167.77,-81.68,0.393276,100,1
2861400,1,56832,1,48063,51372,48304.29,51731.96,-241.29,-359.96,0.394051,100,1
2861440,1,56872,1,47924,51098,48303.53,51730.7,-379.53,-632.7,0.394823,100,1
2861480,1,56912,1,47836,51007,48302.59,51729.25,-466.59,-722.25,0.395598,100,1
2861520,1,56952,1,47818,51019,48301.62,51727.83,-483.62,-708.83,0.396382,100,1
2861560,1,56992,1,47826,51026,48300.68,51726.43,-474.68,-700.43,0.397172,100,1
2861601,1,57033,1,47823,51022,48299.72,51725.02,-476.72,-703.02,0.397968,100,1
2861641,1,57073,1,47832,51076,48298.79,51723.73,-466.79,-647.73,0.398773,100,1
2861681,1,57113,1,47852,51104,48297.9,51722.49,-445.9,-618.49,0.399586,100,1
2861721,1,57153,1,47850,51100,48297,51721.25,-447,-621.25,0.400405,100,1
2861761,1,57193,1,47844,51103,48296.1,51720.01,-452.1,-617.01,0.401233,100,1
2861801,1,57233,1,47855,51141,48295.21,51718.86,-440.21,-577.86,0.402069,100,1
2861841,1,57273,1,47877,51203,48294.38,51717.82,-417.38,-514.82,0.402915,100,1
2861881,1,57313,1,47900,51266,48293.59,51716.92,-393.59,-450.92,0.403771,99.99,1
2861921,1,57353,1,47926,51312,48292.86,51716.11,-366.86,-404.11,0.404637,99.99,1
2861961,1,57393,1,47942,51347,48292.16,51715.37,-350.16,-368.37,0.405512,99.99,1
2862001,1,57433,1,47962,51378,48291.5,51714.7,-329.5,-336.7,0.406395,99.98,1
2862041,1,57473,1,47970,51405,48290.86,51714.09,-320.86,-309.09,0.407286,99.98,1
2862081,1,57513,1,47976,51430,48290.23,51713.52,-314.23,-283.52,0.408186,99.97,1
2862121,1,57553,1,47983,51461,48289.61,51713.02,-306.61,-252.02,0.409095,99.96,1
2862161,1,57593,1,47997,51491,48289.03,51712.57,-292.03,-221.57,0.410013,99.96,1
2862201,1,57633,1,48010,51524,48288.47,51712.2,-278.47,-188.2,0.410938,99.95,1
2862241,1,57673,1,48022,51563,48287.94,51711.9,-265.94,-148.9,0.411872,99.94,1
2862281,1,57713,1,48043,51600,48287.45,51711.68,-244.45,-111.68,0.412813,99.94,1
2862321,1,57753,1,48040,51521,48286.96,51711.3,-246.96,-190.3,0.413758,99.93,1
2862361,1,57793,1,47958,51239,48286.3,51710.36,-328.3,-471.36,0.414702,99.92,1
2862402,1,57834,1,47819,50977,48285.37,51708.89,-466.37,-731.89,0.415638,99.91,1
2862442,1,57874,1,47732,50897,48284.27,51707.27,-552.27,-810.27,0.416571,99.9,1
2862482,1,57914,1,47718,50914,48283.13,51705.69,-565.13,-791.69,0.417507,99.89,1
2862522,1,57954,1,47718,50922,48282,51704.12,-564,-782.12,0.418445,99.88,1
2862562,1,57994,1,47719,50935,48280.88,51702.59,-561.88,-767.59,0.419386,99.87,1
2862602,1,58034,1,47738,50990,48279.79,51701.16,-541.79,-711.16,0.420333,99.86,1
2862642,1,58074,1,47762,51025,48278.76,51699.81,-516.76,-674.81,0.421285,99.85,1
2862682,1,58114,1,47765,51024,48277.73,51698.46,-512.73,-674.46,0.422241,99.83,1
2862722,1,58154,1,47764,51037,48276.7,51697.14,-512.7,-660.14,0.423201,99.82,1
2862762,1,58194,1,47775,51076,48275.7,51695.89,-500.7,-619.89,0.424167,99.81,1
2862802,1,58234,1,47800,51135,48274.75,51694.77,-474.75,-559.77,0.425141,99.79,1
2862842,1,58274,1,47827,51187,48273.86,51693.76,-446.86,-506.76,0.426121,99.78,1
2862882,1,58314,1,47845,51238,48273,51692.85,-428,-454.85,0.427109,99.77,1
2862922,1,58354,1,47861,51272,48272.18,51692.01,-411.18,-420.01,0.428104,99.75,1
2862962,1,58394,1,47874,51304,48271.38,51691.23,-397.38,-387.23,0.429108,99.74,1
2863002,1,58434,1,47886,51335,48270.61,51690.52,-384.61,-355.52,0.430119,99.72,1
2863042,1,58474,1,47899,51365,48269.87,51689.87,-370.87,-324.87,0.431139,99.71,1
2863082,1,58514,1,47910,51394,48269.15,51689.29,-359.15,-295.29,0.432166,99.69,1
2863122,1,58554,1,47917,51427,48268.45,51688.76,-351.45,-261.76,0.433201,99.68,1
2863162,1,58594,1,47926,51464,48267.76,51688.31,-341.76,-224.31,0.434246,99.66,1
2863203,1,58635,1,47944,51507,48267.12,51687.95,-323.12,-180.95,0.435298,99.65,1
2863243,1,58675,1,47961,51547,48266.51,51687.67,-305.51,-140.67,0.436359,99.63,1
2863283,1,58715,1,47966,51503,48265.91,51687.3,-299.91,-184.3,0.437425,99.61,1
2863323,1,58755,1,47899,51250,48265.17,51686.43,-366.17,-436.43,0.438493,99.6,1
2863363,1,58795,1,47757,50971,48264.16,51685,-507.16,-714,0.439554,99.58,1
2863403,1,58835,1,47665,50862,48262.96,51683.36,-597.96,-821.36,0.44061,99.56,1
2863443,1,58875,1,47646,50876,48261.73,51681.74,-615.73,-805.74,0.441667,99.54,1
2863483,1,58915,1,47648,50889,48260.5,51680.16,-612.5,-791.16,0.442724,99.52,1
2863523,1,58955,1,47653,50899,48259.29,51678.59,-606.29,-779.59,0.443782,99.5,1
2863563,1,58995,1,47665,50948,48258.1,51677.13,-593.1,-729.13,0.444843,99.49,1
2863603,1,59035,1,47687,50991,48256.96,51675.76,-569.96,-684.76,0.445908,99.47,1
2863643,1,59075,1,47699,50988,48255.84,51674.39,-556.84,-686.39,0.446975,99.45,1
2863683,1,59115,1,47694,50993,48254.72,51673.02,-560.72,-680.02,0.448045,99.43,1
2863723,1,59155,1,47700,51029,48253.61,51671.74,-553.61,-642.74,0.44912,99.41,1
2863763,1,59195,1,47721,51095,48252.55,51670.59,-531.55,-575.59,0.450201,99.39,1
2863803,1,59235,1,47748,51147,48251.54,51669.54,-503.54,-522.54,0.451289,99.37,1
2863843,1,59275,1,47770,51194,48250.58,51668.59,-480.58,-474.59,0.452385,99.35,1
2863883,1,59315,1,47788,51241,48249.66,51667.73,-461.66,-426.73,0.453488,99.33,1
2863923,1,59355,1,47799,51271,48248.76,51666.94,-449.76,-395.94,0.4546,99.31,1
2863963,1,59395,1,47810,51298,48247.88,51666.2,-437.88,-368.2,0.45572,99.29,1
2864004,1,59436,1,47823,51331,48247.04,51665.54,-424.04,-334.54,0.456848,99.26,1
2864044,1,59476,1,47831,51364,48246.2,51664.93,-415.2,-300.93,0.457985,99.24,1
2864084,1,59516,1,47839,51399,48245.39,51664.4,-406.39,-265.4,0.459131,99.22,1
2864124,1,59556,1,47855,51440,48244.61,51663.95,-389.61,-223.95,0.460286,99.2,1
2864164,1,59596,1,47871,51479,48243.86,51663.59,-372.86,-184.59,0.46145,99.18,1
2864204,1,59636,1,47888,51530,48243.15,51663.32,-355.15,-133.32,0.462623,99.16,1
2864244,1,59676,1,47903,51530,48242.47,51663.05,-339.47,-133.05,0.463803,99.13,1
2864284,1,59716,1,47859,51327,48241.71,51662.38,-382.71,-335.38,0.464987,99.11,1
2864324,1,59756,1,47730,51034,48240.68,51661.13,-510.68,-627.13,0.466169,99.09,1
2864364,1,59796,1,47619,50882,48239.44,51659.57,-620.44,-777.57,0.467347,99.06,1
2864404,1,59836,1,47587,50875,48238.14,51658,-651.14,-783,0.468524,99.04,1
2864444,1,59876,1,47593,50889,48236.85,51656.47,-643.85,-767.47,0.469701,99.02,1
2864484,1,59916,1,47590,50892,48235.55,51654.94,-645.55,-762.94,0.470878,98.99,1
2864524,1,59956,1,47591,50933,48234.27,51653.5,-643.27,-720.5,0.472059,98.97,1
2864564,1,59996,1,47617,50987,48233.03,51652.17,-616.03,-665.17,0.473245,98.95,1
2864604,1,60036,2,47631,50994,48231.83,51650.85,-600.83,-656.85,0.474435,98.92,1
2864644,1,60076,2,47629,50993,48230.62,51649.54,-601.62,-656.54,0.475628,98.9,1
2864684,1,60116,2,47626,51019,48229.42,51648.28,-603.42,-629.28,0.476827,98.87,1
2864724,1,60156,2,47639,51077,48228.24,51647.14,-589.24,-570.14,0.478033,98.85,1
2864764,1,60196,2,47669,51140,48227.12,51646.13,-558.12,-506.13,0.479248,98.82,1
2864805,1,60237,2,47693,51193,48226.05,51645.22,-533.05,-452.22,0.480472,98.8,1
2864845,1,60277,2,47716,51240,48225.04,51644.41,-509.04,-404.41,0.481706,98.77,1
2864885,1,60317,2,47729,51280,48224.04,51643.69,-495.04,-363.69,0.482949,98.75,1
2864925,1,60357,2,47743,51321,48223.08,51643.04,-480.08,-322.04,0.484202,98.72,1
2864965,1,60397,2,47757,51353,48222.15,51642.46,-465.15,-289.46,0.485465,98.7,1
2865005,1,60437,2,47774,51390,48221.26,51641.96,-447.26,-251.96,0.486738,98.67,1
2865045,1,60477,2,47791,51430,48220.4,51641.54,-429.4,-211.54,0.488021,98.64,1
2865085,1,60517,2,47803,51475,48219.57,51641.21,-416.57,-166.21,0.489313,98.62,1
2865125,1,60557,2,47822,51522,48218.77,51640.97,-396.77,-118.97,0.490615,98.59,1
2865165,1,60597,2,47847,51569,48218.03,51640.82,-371.03,-71.82,0.491925,98.56,1
2865205,1,60637,2,47865,51564,48217.33,51640.67,-352.33,-76.67,0.493241,98.54,1
2865245,1,60677,2,47814,51343,48216.52,51640.08,-402.52,-297.08,0.494563,98.51,1
2865285,1,60717,2,47679,51054,48215.45,51638.91,-536.45,-584.91,0.495882,98.48,1
2865325,1,60757,2,47566,50924,48214.15,51637.48,-648.15,-713.48,0.497201,98.46,1
2865365,1,60797,2,47533,50921,48212.79,51636.05,-679.79,-715.05,0.498522,98.43,1
2865405,1,60837,2,47542,50939,48211.45,51634.65,-669.45,-695.65,0.499845,98.4,1
2865445,1,60877,2,47542,50941,48210.12,51633.27,-668.12,-692.27,0.501171,98.37,1
2865485,1,60917,2,47543,50990,48208.79,51631.98,-665.79,-641.98,0.502504,98.34,1
2865525,1,60957,2,47565,51034,48207.5,51630.79,-642.5,-596.79,0.503843,98.32,1
2865565,1,60997,2,47578,51044,48206.24,51629.61,-628.24,-585.61,0.505189,98.29,1
2865606,1,61038,2,47572,51040,48204.98,51628.43,-632.98,-588.43,0.506541,98.26,1
2865646,1,61078,2,47573,51070,48203.71,51627.32,-630.71,-557.32,0.507901,98.23,1
2865686,1,61118,2,47590,51125,48202.49,51626.31,-612.49,-501.31,0.509271,98.2,1
2865726,1,61158,2,47617,51196,48201.32,51625.45,-584.32,-429.45,0.510651,98.17,1
2865766,1,61198,2,47646,51256,48200.21,51624.71,-554.21,-368.71,0.512044,98.14,1
2865806,1,61238,2,47671,51300,48199.15,51624.07,-528.15,-324.07,0.513447,98.11,1
2865846,1,61278,2,47688,51343,48198.13,51623.5,-510.13,-280.5,0.514861,98.08,1
2865886,1,61318,2,47703,51380,48197.14,51623.02,-494.14,-243.02,0.516287,98.06,1
2865926,1,61358,2,47713,51418,48196.18,51622.61,-483.18,-204.61,0.517724,98.03,1
2865966,1,61398,2,47731,51451,48195.25,51622.27,-464.25,-171.27,0.519172,97.99,1
2866006,1,61438,2,47746,51483,48194.35,51621.99,-448.35,-138.99,0.520631,97.96,1
2866046,1,61478,2,47768,51524,48193.5,51621.79,-425.5,-97.79,0.522099,97.93,1
2866086,1,61518,2,47784,51578,48192.68,51621.71,-408.68,-43.71,0.523576,97.9,1
2866126,1,61558,2,47805,51607,48191.91,51621.68,-386.91,-14.68,0.525061,97.87,1
2866166,1,61598,2,47789,51478,48191.1,51621.39,-402.1,-143.39,0.526554,97.84,1
2866206,1,61638,2,47676,51185,48190.07,51620.52,-514.07,-435.52,0.528049,97.81,1
2866246,1,61678,2,47544,50982,48188.79,51619.25,-644.79,-637.25,0.529544,97.78,1
2866286,1,61718,2,47484,50940,48187.37,51617.89,-703.37,-677.89,0.53104,97.75,1
2866326,1,61758,2,47476,50961,48185.95,51616.58,-709.95,-655.58,0.532539,97.72,1
2866366,1,61798,2,47482,50966,48184.55,51615.28,-702.55,-649.28,0.534043,97.68,1
2866406,1,61838,2,47481,50994,48183.14,51614.04,-702.14,-620.04,0.535552,97.65,1
2866447,1,61879,2,47501,51053,48181.78,51612.91,-680.78,-559.91,0.53707,97.62,1
2866487,1,61919,2,47520,51072,48180.45,51611.83,-660.45,-539.83,0.538595,97.59,1
2866527,1,61959,2,47519,51077,48179.13,51610.77,-660.13,-533.77,0.540129,97.55,1
2866567,1,61999,2,47520,51101,48177.82,51609.75,-657.82,-508.75,0.541671,97.52,1
2866607,1,62039,2,47531,51155,48176.52,51608.84,-645.52,-453.84,0.543225,97.49,1
2866647,1,62079,2,47566,51228,48175.3,51608.08,-609.3,-380.08,0.544791,97.45,1
2866687,1,62119,2,47600,51297,48174.16,51607.46,-574.16,-310.46,0.546371,97.42,1
