t_ms,trial_id,t_trial_ms,phase,red_raw,ir_raw,red_dc,ir_dc,red_ac,ir_ac,R,spo2,spo2_valid
2928924,2,0,0,48234,51767,48076.43,51326.56,157.57,440.44,0.429257,99.01,1
2928964,2,40,0,48243,51779,48076.77,51327.46,166.23,451.54,0.429023,99.02,1
2929004,2,80,0,48250,51799,48077.12,51328.41,172.88,470.59,0.42879,99.03,1
2929044,2,120,0,48261,51849,48077.48,51329.45,183.52,519.55,0.428559,99.03,1
2929084,2,160,0,48281,51904,48077.89,51330.61,203.11,573.39,0.42833,99.04,1
2929124,2,200,0,48309,51959,48078.36,51331.86,230.64,627.14,0.428104,99.05,1
2929164,2,240,0,48329,52011,48078.86,51333.22,250.14,677.78,0.427881,99.06,1
2929204,2,280,0,48345,52059,48079.4,51334.68,265.6,724.32,0.427661,99.07,1
2929244,2,320,0,48364,52105,48079.97,51336.22,284.03,768.78,0.427445,99.07,1
2929284,2,360,0,48382,52148,48080.57,51337.84,301.43,810.16,0.427233,99.08,1
2929325,2,401,0,48401,52191,48081.21,51339.55,319.79,851.45,0.427026,99.09,1
2929365,2,441,0,48415,52232,48081.88,51341.34,333.12,890.66,0.426823,99.09,1
2929405,2,481,0,48434,52285,48082.59,51343.22,351.41,941.78,0.426625,99.1,1
2929445,2,521,0,48448,52334,48083.32,51345.21,364.68,988.79,0.426432,99.11,1
2929485,2,561,0,48470,52386,48084.09,51347.29,385.91,1038.71,0.426243,99.12,1
2929525,2,601,0,48492,52434,48084.91,51349.46,407.09,1084.54,0.42606,99.12,1
2929565,2,641,0,48509,52421,48085.76,51351.61,423.24,1069.39,0.425885,99.13,1
2929605,2,681,0,48460,52268,48086.51,51353.45,373.49,914.55,0.425716,99.14,1
2929645,2,721,0,48388,52127,48087.11,51354.99,300.89,772.01,0.425551,99.14,1
2929685,2,761,0,48342,52077,48087.62,51356.44,254.37,720.56,0.425386,99.15,1
2929725,2,801,0,48340,52073,48088.13,51357.87,251.87,715.13,0.425222,99.16,1
2929765,2,841,0,48349,52078,48088.66,51359.31,260.34,718.69,0.42506,99.16,1
2929805,2,881,0,48350,52086,48089.18,51360.77,260.82,725.23,0.424899,99.17,1
2929845,2,921,0,48354,52121,48089.71,51362.29,264.29,758.71,0.424738,99.18,1
2929885,2,961,0,48368,52150,48090.27,51363.87,277.73,786.13,0.424578,99.18,1
2929925,2,1001,0,48372,52142,48090.84,51365.43,281.16,776.57,0.42442,99.19,1
2929965,2,1041,0,48368,52141,48091.39,51366.98,276.61,774.02,0.424263,99.19,1
2930005,2,1081,0,48372,52161,48091.95,51368.57,280.05,792.43,0.424106,99.2,1
2930045,2,1121,0,48379,52205,48092.53,51370.24,286.47,834.76,0.42395,99.21,1
2930085,2,1161,0,48396,52248,48093.14,51372,302.86,876,0.423793,99.21,1
2930126,2,1202,0,48416,52289,48093.79,51373.84,322.21,915.16,0.423638,99.22,1
2930166,2,1242,0,48433,52332,48094.46,51375.75,338.54,956.25,0.423484,99.22,1
2930206,2,1282,0,48446,52368,48095.17,51377.74,350.83,990.26,0.423331,99.23,1
2930246,2,1322,0,48460,52405,48095.9,51379.79,364.1,1025.21,0.423178,99.24,1
2930286,2,1362,0,48472,52440,48096.65,51381.91,375.35,1058.09,0.423027,99.24,1
2930326,2,1402,0,48483,52467,48097.43,51384.09,385.57,1082.91,0.422877,99.25,1
2930366,2,1442,0,48498,52505,48098.23,51386.33,399.77,1118.67,0.422729,99.25,1
2930406,2,1482,0,48520,52555,48099.07,51388.67,420.93,1166.33,0.422582,99.26,1
2930446,2,1522,0,48537,52599,48099.95,51391.09,437.05,1207.91,0.422437,99.26,1
2930486,2,1562,0,48546,52576,48100.84,51393.46,445.16,1182.54,0.422295,99.27,1
2930526,2,1602,0,48504,52423,48101.65,51395.52,402.35,1027.48,0.422158,99.27,1
2930566,2,1642,0,48433,52293,48102.32,51397.32,330.68,895.68,0.422021,99.28,1
2930606,2,1682,0,48399,52248,48102.91,51399.02,296.09,848.98,0.421886,99.28,1
2930646,2,1722,0,48394,52251,48103.49,51400.73,290.51,850.27,0.421749,99.29,1
2930686,2,1762,0,48393,52256,48104.07,51402.44,288.93,853.56,0.421613,99.3,1
2930726,2,1802,0,48393,52270,48104.65,51404.18,288.35,865.82,0.421476,99.3,1
2930766,2,1842,0,48400,52292,48105.25,51405.95,294.75,886.05,0.421338,99.31,1
2930806,2,1882,0,48407,52287,48105.85,51407.71,301.15,879.29,0.421201,99.31,1
2930846,2,1922,0,48396,52279,48106.43,51409.46,289.57,869.54,0.421062,99.31,1
2930886,2,1962,0,48393,52277,48107.01,51411.2,285.99,865.8,0.420924,99.32,1
2930926,2,2002,0,48401,52304,48107.6,51412.98,293.4,891.02,0.420784,99.32,1
2930966,2,2042,0,48409,52343,48108.2,51414.84,300.8,928.16,0.420643,99.33,1
2931007,2,2083,0,48427,52388,48108.84,51416.79,318.16,971.21,0.420502,99.33,1
2931047,2,2123,0,48448,52428,48109.52,51418.82,338.48,1009.18,0.42036,99.34,1
2931087,2,2163,0,48463,52473,48110.23,51420.93,352.77,1052.07,0.420217,99.34,1
2931127,2,2203,0,48476,52507,48110.96,51423.1,365.04,1083.9,0.420074,99.35,1
2931167,2,2243,0,48490,52548,48111.72,51425.35,378.28,1122.65,0.41993,99.35,1
2931207,2,2283,0,48508,52579,48112.52,51427.66,395.48,1151.34,0.419787,99.36,1
2931247,2,2323,0,48524,52618,48113.34,51430.04,410.66,1187.96,0.419643,99.36,1
2931287,2,2363,0,48539,52664,48114.19,51432.51,424.81,1231.49,0.4195,99.37,1
2931327,2,2403,0,48558,52708,48115.08,51435.06,442.92,1272.94,0.419357,99.37,1
2931367,2,2443,0,48581,52745,48116.02,51437.68,464.98,1307.32,0.419216,99.38,1
2931407,2,2483,0,48576,52649,48116.94,51440.11,459.06,1208.89,0.419078,99.38,1
2931447,2,2523,0,48508,52482,48117.72,51442.19,390.28,1039.81,0.418942,99.38,1
2931487,2,2563,0,48443,52389,48118.37,51444.09,324.62,944.91,0.418806,99.39,1
2931527,2,2603,0,48422,52373,48118.98,51445.95,303.02,927.05,0.418669,99.39,1
2931567,2,2643,0,48420,52369,48119.59,51447.79,300.41,921.21,0.418532,99.4,1
2931607,2,2683,0,48420,52359,48120.19,51449.62,299.81,909.38,0.418395,99.4,1
2931647,2,2723,0,48414,52361,48120.78,51451.44,293.22,909.56,0.418256,99.41,1
2931687,2,2763,0,48421,52387,48121.38,51453.31,299.62,933.69,0.418117,99.41,1
2931727,2,2803,0,48423,52391,48121.98,51455.19,301.02,935.81,0.417977,99.41,1
2931767,2,2843,0,48420,52382,48122.58,51457.04,297.42,924.96,0.417836,99.42,1
2931808,2,2884,0,48421,52390,48123.18,51458.91,297.82,931.09,0.417695,99.42,1
2931848,2,2924,0,48423,52417,48123.78,51460.83,299.22,956.17,0.417552,99.43,1
2931888,2,2964,0,48442,52457,48124.42,51462.82,317.58,994.18,0.417409,99.43,1
2931928,2,3004,0,48456,52506,48125.08,51464.91,330.92,1041.09,0.417264,99.44,1
2931968,2,3044,0,48472,52544,48125.78,51467.07,346.22,1076.93,0.417118,99.44,1
2932008,2,3084,0,48489,52577,48126.5,51469.29,362.5,1107.71,0.416972,99.44,1
2932048,2,3124,0,48504,52609,48127.26,51471.57,376.74,1137.43,0.416825,99.45,1
2932088,2,3164,0,48517,52644,48128.04,51473.92,388.96,1170.08,0.416678,99.45,1
2932128,2,3204,0,48534,52685,48128.86,51476.34,405.14,1208.66,0.416531,99.46,1
2932168,2,3244,0,48552,52722,48129.7,51478.83,422.3,1243.17,0.416384,99.46,1
2932208,2,3284,0,48567,52755,48130.58,51481.39,436.42,1273.61,0.416237,99.46,1
2932248,2,3324,0,48587,52793,48131.49,51484.01,455.51,1308.99,0.416092,99.47,1
2932288,2,3364,0,48602,52836,48132.43,51486.72,469.57,1349.28,0.415947,99.47,1
2932328,2,3404,0,48616,52845,48133.4,51489.44,482.6,1355.56,0.415803,99.48,1
2932368,2,3444,0,48586,52716,48134.31,51491.89,451.69,1224.11,0.415662,99.48,1
2932408,2,3484,0,48518,52567,48135.08,51494.04,382.92,1072.96,0.415522,99.48,1
2932448,2,3524,0,48471,52503,48135.75,51496.06,335.25,1006.94,0.415382,99.49,1
2932488,2,3564,0,48458,52495,48136.39,51498.06,321.61,996.94,0.415241,99.49,1
2932528,2,3604,0,48454,52505,48137.03,51500.08,316.97,1004.92,0.4151,99.5,1
2932568,2,3644,0,48452,52497,48137.66,51502.07,314.34,994.93,0.414957,99.5,1
2932608,2,3684,0,48455,52515,48138.3,51504.1,316.7,1010.9,0.414814,99.5,1
2932649,2,3725,0,48466,52527,48138.96,51506.15,327.04,1020.85,0.41467,99.51,1
2932689,2,3765,0,48465,52531,48139.61,51508.2,325.39,1022.8,0.414526,99.51,1
2932729,2,3805,0,48459,52526,48140.25,51510.23,318.75,1015.77,0.414381,99.51,1
2932769,2,3845,0,48462,52543,48140.89,51512.3,321.11,1030.7,0.414235,99.52,1
2932809,2,3885,0,48470,52579,48141.55,51514.43,328.45,1064.57,0.414087,99.52,1
2932849,2,3925,0,48491,52613,48142.25,51516.63,348.75,1096.37,0.413939,99.53,1
2932889,2,3965,0,48511,52663,48142.99,51518.93,368.01,1144.07,0.413791,99.53,1
2932929,2,4005,0,48525,52703,48143.76,51521.3,381.24,1181.7,0.413642,99.53,1
2932969,2,4045,0,48543,52744,48144.56,51523.74,398.44,1220.26,0.413492,99.54,1
2933009,2,4085,0,48561,52777,48145.39,51526.25,415.61,1250.75,0.413343,99.54,1
2933049,2,4125,0,48584,52813,48146.27,51528.82,437.73,1284.18,0.413194,99.55,1
2933089,2,4165,0,48598,52844,48147.18,51531.46,450.82,1312.54,0.413046,99.55,1
2933129,2,4205,0,48613,52879,48148.11,51534.15,464.89,1344.85,0.412898,99.55,1
2933169,2,4245,0,48626,52920,48149.07,51536.93,476.93,1383.07,0.412752,99.56,1
2933209,2,4285,0,48640,52955,48150.05,51539.76,489.95,1415.24,0.412606,99.56,1
2933249,2,4325,0,48655,52970,48151.07,51542.62,503.93,1427.38,0.412462,99.56,1
2933289,2,4365,0,48633,52853,48152.03,51545.25,480.97,1307.75,0.412321,99.57,1
2933329,2,4405,0,48564,52718,48152.86,51547.59,411.14,1170.41,0.41218,99.57,1
2933369,2,4445,0,48521,52661,48153.59,51549.82,367.41,1111.18,0.412039,99.58,1
2933409,2,4485,0,48507,52655,48154.3,51552.03,352.7,1102.97,0.411898,99.58,1
2933450,2,4526,0,48509,52670,48155.01,51554.27,353.99,1115.73,0.411756,99.58,1
2933490,2,4566,0,48517,52678,48155.74,51556.52,361.26,1121.48,0.411614,99.59,1
2933530,2,4606,0,48520,52700,48156.47,51558.81,363.53,1141.19,0.411471,99.59,1
2933570,2,4646,0,48527,52722,48157.21,51561.14,369.79,1160.86,0.411328,99.6,1
2933610,2,4686,0,48528,52716,48157.95,51563.45,370.05,1152.55,0.411184,99.6,1
2933650,2,4726,0,48524,52708,48158.69,51565.74,365.31,1142.26,0.41104,99.6,1
2933690,2,4766,0,48524,52725,48159.42,51568.06,364.58,1156.94,0.410895,99.61,1
2933730,2,4806,0,48536,52758,48160.17,51570.44,375.83,1187.56,0.410749,99.61,1
2933770,2,4846,0,48555,52799,48160.96,51572.9,394.04,1226.1,0.410603,99.61,1
2933810,2,4886,0,48577,52838,48161.79,51575.43,415.21,1262.57,0.410457,99.62,1
2933850,2,4926,0,48597,52871,48162.66,51578.02,434.34,1292.98,0.410311,99.62,1
2933890,2,4966,0,48610,52905,48163.56,51580.68,446.44,1324.32,0.410166,99.63,1
2933930,2,5006,0,48621,52931,48164.48,51583.38,456.52,1347.62,0.410021,99.63,1
2933970,2,5046,0,48629,52961,48165.41,51586.14,463.59,1374.86,0.409877,99.63,1
2934010,2,5086,0,48643,52987,48166.36,51588.95,476.64,1398.05,0.409733,99.64,1
2934050,2,5126,0,48656,53019,48167.34,51591.81,488.66,1427.19,0.409591,99.64,1
2934090,2,5166,0,48667,53054,48168.34,51594.73,498.66,1459.27,0.409448,99.64,1
2934130,2,5206,0,48677,53071,48169.36,51597.69,507.64,1473.31,0.409307,99.65,1
2934170,2,5246,0,48659,52966,48170.34,51600.43,488.66,1365.57,0.409168,99.65,1
2934210,2,5286,0,48594,52824,48171.19,51602.87,422.81,1221.13,0.409029,99.65,1
2934251,2,5327,0,48545,52757,48171.94,51605.18,373.06,1151.82,0.40889,99.66,1
2934291,2,5367,0,48531,52756,48172.66,51607.49,358.34,1148.51,0.40875,99.66,1
2934331,2,5407,0,48535,52772,48173.39,51609.82,361.61,1162.18,0.40861,99.67,1
2934371,2,5447,0,48535,52786,48174.11,51612.18,360.89,1173.82,0.408469,99.67,1
2934411,2,5487,0,48551,52812,48174.86,51614.58,376.14,1197.42,0.408328,99.67,1
2934451,2,5527,0,48559,52823,48175.63,51617,383.37,1206,0.408186,99.68,1
2934491,2,5567,0,48554,52818,48176.39,51619.4,377.61,1198.6,0.408043,99.68,1
2934531,2,5607,0,48548,52806,48177.14,51621.77,370.86,1184.23,0.4079,99.68,1
2934571,2,5647,0,48552,52816,48177.89,51624.16,374.11,1191.84,0.407756,99.69,1
2934611,2,5687,0,48559,52842,48178.65,51626.6,380.35,1215.4,0.407612,99.69,1
2934651,2,5727,0,48577,52878,48179.45,51629.11,397.55,1248.89,0.407468,99.7,1
2934691,2,5767,0,48591,52908,48180.27,51631.66,410.73,1276.34,0.407323,99.7,1
2934731,2,5807,0,48605,52943,48181.12,51634.29,423.88,1308.71,0.407178,99.7,1
2934771,2,5847,0,48613,52969,48181.98,51636.96,431.02,1332.04,0.407033,99.71,1
2934811,2,5887,0,48627,52991,48182.87,51639.67,444.12,1351.33,0.406888,99.71,1
2934851,2,5927,0,48637,53013,48183.79,51642.42,453.21,1370.58,0.406744,99.71,1
2934891,2,5967,0,48641,53044,48184.7,51645.22,456.3,1398.78,0.406599,99.72,1
2934931,2,6007,0,48652,53072,48185.64,51648.08,466.36,1423.92,0.406455,99.72,1
2934971,2,6047,0,48654,53014,48186.57,51650.81,467.43,1363.19,0.406311,99.72,1
2935012,2,6088,0,48597,52863,48187.39,51653.24,409.61,1209.76,0.406168,99.73,1
2935052,2,6128,0,48542,52761,48188.11,51655.46,353.89,1105.54,0.406025,99.73,1
2935092,2,6168,0,48509,52734,48188.75,51657.62,320.25,1076.38,0.405881,99.74,1
2935132,2,6208,0,48506,52745,48189.39,51659.79,316.61,1085.21,0.405737,99.74,1
2935172,2,6248,0,48509,52759,48190.03,51661.99,318.97,1097.01,0.405591,99.74,1
2935212,2,6288,0,48520,52786,48190.69,51664.24,329.31,1121.76,0.405445,99.75,1
2935252,2,6328,0,48533,52803,48191.37,51666.52,341.62,1136.48,0.405297,99.75,1
2935292,2,6368,0,48527,52799,48192.05,51668.79,334.95,1130.21,0.405149,99.75,1
2935332,2,6408,0,48519,52786,48192.7,51671.02,326.3,1114.98,0.405001,99.76,1
2935372,2,6448,0,48520,52791,48193.36,51673.26,326.64,1117.74,0.404851,99.76,1
2935412,2,6488,0,48533,52810,48194.04,51675.54,338.96,1134.46,0.404701,99.76,1
2935452,2,6528,0,48548,52842,48194.75,51677.87,353.25,1164.13,0.40455,99.77,1
2935492,2,6568,0,48562,52880,48195.48,51680.28,366.52,1199.72,0.404398,99.77,1
2935532,2,6608,0,48577,52921,48196.25,51682.76,380.75,1238.24,0.404246,99.78,1
2935572,2,6648,0,48586,52944,48197.03,51685.29,388.97,1258.71,0.404094,99.78,1
2935612,2,6688,0,48599,52969,48197.84,51687.86,401.16,1281.14,0.403942,99.78,1
2935652,2,6728,0,48610,52988,48198.66,51690.46,411.34,1297.54,0.403789,99.79,1
2935692,2,6768,0,48621,53015,48199.51,51693.11,421.49,1321.89,0.403636,99.79,1
2935732,2,6808,0,48626,53048,48200.36,51695.82,425.64,1352.18,0.403483,99.79,1
2935772,2,6848,0,48639,53071,48201.24,51698.57,437.76,1372.43,0.403331,99.8,1
2935813,2,6889,0,48634,52989,48202.11,51701.15,431.89,1287.85,0.403178,99.8,1
2935853,2,6929,0,48565,52812,48202.84,51703.37,362.16,1108.63,0.403027,99.8,1
2935893,2,6969,0,48497,52693,48203.43,51705.36,293.57,987.64,0.402875,99.81,1
2935933,2,7009,0,48463,52651,48203.95,51707.25,259.05,943.75,0.402722,99.81,1
2935973,2,7049,0,48455,52646,48204.45,51709.13,250.55,936.87,0.402568,99.82,1
2936013,2,7089,0,48452,52631,48204.95,51710.97,247.05,920.03,0.402414,99.82,1
2936053,2,7129,0,48449,52639,48205.43,51712.83,243.57,926.17,0.402259,99.82,1
2936093,2,7169,0,48457,52656,48205.94,51714.71,251.06,941.29,0.402103,99.83,1
2936133,2,7209,0,48456,52653,48206.44,51716.59,249.56,936.41,0.401946,99.83,1
2936173,2,7249,0,48456,52639,48206.94,51718.44,249.06,920.56,0.401788,99.83,1
2936213,2,7289,0,48454,52633,48207.43,51720.27,246.57,912.73,0.40163,99.84,1
2936253,2,7329,0,48458,52647,48207.94,51722.13,250.06,924.87,0.40147,99.84,1
2936293,2,7369,0,48473,52683,48208.47,51724.05,264.53,958.95,0.401311,99.85,1
2936333,2,7409,0,48490,52717,48209.03,51726.04,280.97,990.96,0.40115,99.85,1
2936373,2,7449,0,48501,52753,48209.62,51728.09,291.38,1024.91,0.400989,99.85,1
2936413,2,7489,0,48517,52787,48210.23,51730.21,306.77,1056.79,0.400828,99.86,1
2936453,2,7529,0,48528,52806,48210.87,51732.37,317.13,1073.63,0.400666,99.86,1
2936493,2,7569,0,48541,52837,48211.53,51734.58,329.47,1102.42,0.400504,99.86,1
2936533,2,7609,0,48549,52857,48212.21,51736.82,336.79,1120.18,0.400341,99.87,1
2936573,2,7649,0,48559,52889,48212.9,51739.13,346.1,1149.87,0.400179,99.87,1
2936613,2,7689,0,48573,52925,48213.62,51741.5,359.37,1183.5,0.400016,99.88,1
2936654,2,7730,0,48585,52921,48214.37,51743.86,370.63,1177.14,0.399853,99.88,1
2936694,2,7770,0,48553,52772,48215.05,51745.92,337.95,1026.08,0.399691,99.88,1
2936734,2,7810,0,48479,52620,48215.57,51747.67,263.43,872.33,0.399529,99.89,1
2936774,2,7850,0,48424,52543,48215.99,51749.27,208.01,793.73,0.399367,99.89,1
2936814,2,7890,0,48405,52526,48216.37,51750.82,188.63,775.18,0.399204,99.89,1
2936854,2,7930,0,48411,52525,48216.76,51752.37,194.24,772.63,0.399041,99.9,1
2936894,2,7970,0,48411,52532,48217.15,51753.93,193.85,778.07,0.398876,99.9,1
2936934,2,8010,0,48420,52555,48217.56,51755.54,202.44,799.46,0.398712,99.9,1
2936974,2,8050,0,48424,52565,48217.97,51757.16,206.03,807.84,0.398546,99.91,1
2937014,2,8090,0,48429,52555,48218.39,51758.75,210.61,796.25,0.398381,99.91,1
2937054,2,8130,0,48429,52545,48218.82,51760.33,210.18,784.67,0.398214,99.91,1
2937094,2,8170,0,48432,52560,48219.24,51761.93,212.76,798.07,0.398048,99.91,1
2937134,2,8210,0,48446,52591,48219.7,51763.59,226.3,827.41,0.397881,99.92,1
2937174,2,8250,0,48461,52633,48220.18,51765.33,240.82,867.67,0.397714,99.92,1
2937214,2,8290,0,48479,52676,48220.7,51767.15,258.3,908.85,0.397546,99.92,1
2937254,2,8330,0,48498,52707,48221.25,51769.04,276.75,937.96,0.397379,99.92,1
2937294,2,8370,0,48513,52741,48221.84,51770.98,291.16,970.02,0.397211,99.93,1
2937334,2,8410,0,48524,52771,48222.45,51772.98,301.55,998.02,0.397044,99.93,1
2937374,2,8450,0,48535,52802,48223.07,51775.04,311.93,1026.96,0.396877,99.93,1
2937414,2,8490,0,48545,52831,48223.71,51777.15,321.29,1053.85,0.396709,99.93,1
2937454,2,8530,0,48555,52869,48224.38,51779.34,330.62,1089.66,0.396542,99.93,1
2937495,2,8571,0,48573,52905,48225.08,51781.59,347.92,1123.41,0.396375,99.94,1
2937535,2,8611,0,48585,52902,48225.8,51783.83,359.2,1118.17,0.396209,99.94,1
2937575,2,8651,0,48551,52760,48226.45,51785.79,324.55,974.21,0.396044,99.94,1
2937615,2,8691,0,48475,52601,48226.95,51787.42,248.05,813.58,0.395879,99.94,1
2937655,2,8731,0,48429,52529,48227.36,51788.9,201.64,740.1,0.395713,99.94,1
2937695,2,8771,0,48415,52517,48227.73,51790.36,187.27,726.64,0.395548,99.95,1
2937735,2,8811,0,48418,52527,48228.12,51791.84,189.88,735.16,0.395382,99.95,1
2937775,2,8851,0,48419,52547,48228.5,51793.35,190.5,753.65,0.395216,99.95,1
2937815,2,8891,0,48432,52576,48228.91,51794.91,203.09,781.09,0.395049,99.95,1
2937855,2,8931,0,48449,52587,48229.35,51796.5,219.65,790.5,0.394882,99.95,1
2937895,2,8971,0,48452,52569,48229.8,51798.05,222.2,770.95,0.394715,99.95,1
2937935,2,9011,0,48441,52561,48230.22,51799.57,210.78,761.43,0.394548,99.95,1
2937975,2,9051,0,48443,52573,48230.64,51801.12,212.36,771.88,0.39438,99.96,1
2938015,2,9091,0,48454,52609,48231.09,51802.74,222.91,806.26,0.394213,99.96,1
2938055,2,9131,0,48470,52650,48231.57,51804.43,238.43,845.57,0.394045,99.96,1
2938095,2,9171,0,48491,52684,48232.09,51806.2,258.91,877.8,0.393877,99.96,1
2938135,2,9211,0,48507,52722,48232.64,51808.03,274.36,913.97,0.39371,99.96,1
2938175,2,9251,0,48522,52755,48233.22,51809.92,288.78,945.08,0.393543,99.96,1
2938215,2,9291,0,48525,52783,48233.81,51811.87,291.19,971.13,0.393376,99.96,1
2938255,2,9331,0,48539,52805,48234.42,51813.86,304.58,991.14,0.393209,99.96,1
2938296,2,9372,0,48548,52833,48235.05,51815.9,312.95,1017.1,0.393042,99.97,1
2938336,2,9412,0,48559,52867,48235.7,51818,323.3,1049,0.392876,99.97,1
2938376,2,9452,0,48574,52907,48236.38,51820.18,337.62,1086.82,0.39271,99.97,1
2938416,2,9492,0,48581,52872,48237.07,51822.29,343.93,1049.71,0.392545,99.97,1
2938456,2,9532,0,48528,52706,48237.65,51824.06,290.35,881.94,0.392382,99.97,1
2938496,2,9572,0,48457,52571,48238.09,51825.55,218.91,745.45,0.392218,99.97,1
2938536,2,9612,0,48423,52524,48238.46,51826.95,184.54,697.05,0.392054,99.97,1
2938576,2,9652,0,48420,52525,48238.83,51828.35,181.17,696.65,0.39189,99.97,1
2938616,2,9692,0,48425,52546,48239.2,51829.79,185.8,716.21,0.391725,99.97,1
2938656,2,9732,0,48436,52577,48239.6,51831.29,196.4,745.71,0.39156,99.97,1
2938696,2,9772,0,48452,52600,48240.02,51832.82,211.98,767.18,0.391395,99.97,1
2938736,2,9812,0,48457,52588,48240.46,51834.34,216.54,753.66,0.39123,99.98,1
2938776,2,9852,0,48456,52569,48240.89,51835.8,215.11,733.2,0.391066,99.98,1
2938816,2,9892,0,48446,52565,48241.3,51837.27,204.7,727.73,0.390901,99.98,1
2938856,2,9932,0,48446,52584,48241.71,51838.76,204.29,745.24,0.390736,99.98,1
2938896,2,9972,0,48456,52618,48242.14,51840.32,213.86,777.68,0.390571,99.98,1
2938936,2,10012,0,48476,52655,48242.61,51841.95,233.39,813.05,0.390406,99.98,1
2938976,2,10052,0,48492,52689,48243.11,51843.64,248.89,845.36,0.39024,99.98,1
2939016,2,10092,0,48498,52720,48243.62,51845.4,254.38,874.6,0.390075,99.98,1
2939056,2,10132,0,48513,52746,48244.16,51847.2,268.84,898.8,0.389911,99.98,1
2939096,2,10172,0,48519,52769,48244.71,51849.04,274.29,919.96,0.389746,99.98,1
2939136,2,10212,0,48532,52797,48245.29,51850.94,286.71,946.06,0.389581,99.98,1
2939177,2,10253,0,48544,52822,48245.88,51852.89,298.12,969.11,0.389417,99.98,1
2939217,2,10293,0,48548,52787,48246.49,51854.76,301.51,932.24,0.389254,99.98,1
2939257,2,10333,0,48499,52636,48247,51856.32,252,779.68,0.389092,99.98,1
2939297,2,10373,0,48429,52504,48247.36,51857.62,181.64,646.38,0.388929,99.98,1
2939337,2,10413,0,48390,52457,48247.65,51858.82,142.35,598.18,0.388767,99.98,1
2939377,2,10453,0,48390,52453,48247.93,51860.01,142.07,592.99,0.388604,99.98,1
2939417,2,10493,0,48393,52480,48248.23,51861.25,144.77,618.75,0.38844,99.99,1
2939457,2,10533,0,48408,52518,48248.55,51862.57,159.45,655.43,0.388277,99.99,1
2939497,2,10573,0,48425,52549,48248.9,51863.94,176.1,685.06,0.388113,99.99,1
2939537,2,10613,0,48432,52545,48249.27,51865.3,182.73,679.7,0.387949,99.99,1
2939577,2,10653,0,48428,52528,48249.63,51866.63,178.37,661.37,0.387784,99.99,1
2939617,2,10693,0,48431,52529,48249.99,51867.96,181.01,661.04,0.38762,99.99,1
2939657,2,10733,0,48435,52557,48250.36,51869.34,184.64,687.66,0.387456,99.99,1
2939697,2,10773,0,48448,52601,48250.76,51870.8,197.24,730.2,0.387291,99.99,1
2939737,2,10813,0,48466,52642,48251.2,51872.34,214.8,769.66,0.387127,99.99,1
2939777,2,10853,0,48484,52680,48251.66,51873.96,232.34,806.04,0.386962,99.99,1
2939817,2,10893,0,48499,52717,48252.16,51875.65,246.84,841.35,0.386798,99.99,1
2939857,2,10933,0,48512,52746,48252.68,51877.39,259.32,868.61,0.386633,99.99,1
2939897,2,10973,0,48520,52772,48253.21,51879.18,266.79,892.82,0.386469,99.99,1
2939937,2,11013,0,48531,52798,48253.77,51881.02,277.23,916.98,0.386306,99.99,1
2939977,2,11053,0,48544,52831,48254.36,51882.92,289.64,948.08,0.386142,99.99,1
2940018,2,11094,0,48555,52826,48254.96,51884.81,300.04,941.19,0.38598,99.99,1
2940058,2,11134,0,48521,52680,48255.49,51886.4,265.51,793.6,0.385819,99.99,1
2940098,2,11174,0,48439,52500,48255.86,51887.63,183.14,612.37,0.385658,99.99,1
2940138,2,11214,0,48379,52401,48256.11,51888.66,122.89,512.34,0.385497,99.99,1
2940178,2,11254,0,48359,52373,48256.31,51889.62,102.69,483.37,0.385336,99.99,1
2940218,2,11294,0,48359,52369,48256.52,51890.59,102.48,478.41,0.385174,99.99,1
2940258,2,11334,0,48358,52372,48256.72,51891.55,101.28,480.45,0.385012,99.99,1
2940298,2,11374,0,48360,52402,48256.93,51892.57,103.07,509.43,0.38485,99.99,1
2940338,2,11414,0,48369,52421,48257.16,51893.63,111.84,527.37,0.384688,99.99,1
2940378,2,11454,0,48375,52411,48257.39,51894.67,117.61,516.33,0.384526,99.99,1
2940418,2,11494,0,48372,52400,48257.62,51895.68,114.37,504.32,0.384363,99.99,1
2940458,2,11534,0,48377,52407,48257.86,51896.7,119.14,510.3,0.3842,99.99,1
2940498,2,11574,0,48383,52444,48258.11,51897.8,124.89,546.2,0.384037,99.99,1
2940538,2,11614,0,48402,52487,48258.4,51898.98,143.6,588.02,0.383873,99.99,1
2940578,2,11654,0,48417,52530,48258.72,51900.24,158.28,629.76,0.383709,99.99,1
2940618,2,11694,0,48432,52569,48259.07,51901.58,172.93,667.42,0.383545,99.99,1
2940658,2,11734,0,48450,52598,48259.45,51902.98,190.55,695.02,0.383381,99.99,1
2940698,2,11774,0,48461,52627,48259.86,51904.43,201.14,722.57,0.383217,99.99,1
2940738,2,11814,0,48472,52651,48260.29,51905.92,211.71,745.08,0.383053,99.99,1
2940778,2,11854,0,48485,52687,48260.73,51907.48,224.27,779.52,0.382889,99.99,1
2940818,2,11894,0,48498,52722,48261.21,51909.11,236.79,812.89,0.382725,100,1
2940858,2,11934,0,48510,52699,48261.71,51910.7,248.29,788.3,0.382562,100,1
2940899,2,11975,0,48462,52531,48262.11,51911.94,199.89,619.06,0.3824,100,1
2940939,2,12015,0,48382,52360,48262.36,51912.84,119.64,447.16,0.382238,100,1
2940979,2,12055,0,48330,52279,48262.49,51913.57,67.51,365.43,0.382076,100,1
2941019,2,12095,0,48312,52267,48262.59,51914.28,49.41,352.72,0.381914,100,1
2941059,2,12135,0,48310,52271,48262.69,51914.99,47.31,356.01,0.381751,100,1
2941099,2,12175,0,48316,52290,48262.8,51915.74,53.2,374.26,0.381589,100,1
2941139,2,12215,0,48333,52319,48262.94,51916.55,70.06,402.45,0.381426,100,1
2941179,2,12255,0,48343,52335,48263.1,51917.39,79.9,417.61,0.381263,100,1
2941219,2,12295,0,48342,52328,48263.26,51918.21,78.74,409.79,0.3811,100,1
2941259,2,12335,0,48340,52330,48263.42,51919.04,76.58,410.96,0.380936,100,1
2941299,2,12375,0,48347,52347,48263.59,51919.89,83.41,427.11,0.380773,100,1
2941339,2,12415,0,48360,52388,48263.78,51920.83,96.22,467.17,0.380609,100,1
2941379,2,12455,0,48381,52428,48264.02,51921.85,116.98,506.15,0.380445,100,1
2941419,2,12495,0,48400,52480,48264.29,51922.96,135.71,557.04,0.38028,100,1
2941459,2,12535,0,48421,52519,48264.61,51924.16,156.39,594.84,0.380116,100,1
2941499,2,12575,0,48433,52555,48264.95,51925.42,168.05,629.58,0.379951,100,1
2941539,2,12615,0,48444,52579,48265.3,51926.73,178.7,652.27,0.379787,100,1
2941579,2,12655,0,48459,52608,48265.69,51928.09,193.31,679.91,0.379622,100,1
2941619,2,12695,0,48470,52639,48266.1,51929.52,203.9,709.48,0.379458,100,1
2941659,2,12735,0,48484,52675,48266.54,51931.01,217.46,743.99,0.379294,100,1
2941699,2,12775,0,48498,52711,48267,51932.57,231,778.43,0.379131,100,1
2941739,2,12815,0,48499,52659,48267.47,51934.02,231.53,724.98,0.378968,100,1
2941780,2,12856,0,48443,52473,48267.82,51935.1,175.18,537.9,0.378806,100,1
2941820,2,12896,0,48368,52337,48268.02,51935.91,99.98,401.09,0.378645,100,1
2941860,2,12936,0,48329,52294,48268.15,51936.62,60.85,357.37,0.378483,100,1
2941900,2,12976,0,48328,52303,48268.27,51937.36,59.73,365.64,0.378321,100,1
2941940,2,13016,0,48331,52318,48268.39,51938.12,62.61,379.88,0.378159,100,1
2941980,2,13056,0,48339,52357,48268.54,51938.96,70.46,418.04,0.377996,100,1
2942020,2,13096,0,48366,52389,48268.73,51939.86,97.27,449.14,0.377833,100,1
2942060,2,13136,0,48367,52384,48268.93,51940.75,98.07,443.25,0.37767,100,1
2942100,2,13176,0,48359,52377,48269.11,51941.63,89.89,435.37,0.377507,100,1
2942140,2,13216,0,48359,52384,48269.29,51942.52,89.71,441.48,0.377344,100,1
2942180,2,13256,0,48372,52415,48269.5,51943.46,102.5,471.54,0.37718,100,1
2942220,2,13296,0,48393,52458,48269.75,51944.49,123.25,513.51,0.377016,100,1
2942260,2,13336,0,48410,52499,48270.03,51945.6,139.97,553.4,0.376852,100,1
2942300,2,13376,0,48428,52544,48270.34,51946.8,157.66,597.2,0.376688,100,1
2942340,2,13416,0,48442,52586,48270.69,51948.08,171.31,637.92,0.376523,100,1
2942380,2,13456,0,48461,52609,48271.07,51949.41,189.93,659.59,0.376359,100,1
2942420,2,13496,0,48469,52637,48271.47,51950.78,197.53,686.22,0.376195,100,1
2942460,2,13536,0,48479,52668,48271.89,51952.22,207.11,715.78,0.376032,100,1
2942500,2,13576,0,48492,52701,48272.33,51953.72,219.67,747.28,0.375869,100,1
2942540,2,13616,0,48509,52735,48272.8,51955.28,236.2,779.72,0.375706,100,1
2942580,2,13656,0,48511,52673,48273.28,51956.72,237.72,716.28,0.375545,100,1
2942621,2,13697,0,48451,52500,48273.63,51957.81,177.37,542.19,0.375385,100,1
2942661,2,13737,0,48374,52364,48273.84,51958.62,100.16,405.38,0.375225,100,1
2942701,2,13777,0,48342,52330,48273.97,51959.36,68.03,370.64,0.375064,100,1
2942741,2,13817,0,48342,52348,48274.11,51960.14,67.89,387.86,0.374904,100,1
2942781,2,13857,0,48352,52366,48274.27,51960.95,77.73,405.05,0.374743,100,1
2942821,2,13897,0,48364,52406,48274.45,51961.84,89.55,444.16,0.374582,100,1
2942861,2,13937,0,48381,52438,48274.66,51962.8,106.34,475.2,0.37442,100,1
2942901,2,13977,0,48383,52432,48274.88,51963.74,108.12,468.26,0.374259,100,1
2942941,2,14017,0,48378,52423,48275.09,51964.66,102.91,458.34,0.374097,100,1
2942981,2,14057,0,48380,52437,48275.3,51965.6,104.7,471.4,0.373934,100,1
2943021,2,14097,0,48397,52466,48275.54,51966.61,121.46,499.39,0.373772,100,1
2943061,2,14137,0,48413,52512,48275.82,51967.7,137.18,544.3,0.373609,100,1
2943101,2,14177,0,48433,52558,48276.14,51968.88,156.86,589.12,0.373446,100,1
2943141,2,14217,0,48446,52600,48276.48,51970.14,169.52,629.86,0.373284,100,1
2943181,2,14257,0,48464,52635,48276.85,51971.48,187.15,663.52,0.373121,100,1
2943221,2,14297,0,48476,52667,48277.25,51972.87,198.75,694.13,0.372959,100,1
2943261,2,14337,0,48496,52694,48277.69,51974.31,218.31,719.69,0.372797,100,1
2943301,2,14377,0,48505,52721,48278.14,51975.81,226.86,745.19,0.372636,100,1
2943341,2,14417,0,48508,52752,48278.61,51977.36,229.39,774.64,0.372476,100,1
2943381,2,14457,0,48524,52783,48279.1,51978.98,244.9,804.02,0.372316,100,1
2943422,2,14498,0,48539,52825,48279.62,51980.67,259.38,844.33,0.372157,100,1
2943462,2,14538,0,48550,52821,48280.16,51982.36,269.84,838.64,0.372,100,1
2943502,2,14578,0,48513,52658,48280.63,51983.71,232.37,674.29,0.371845,100,1
2943542,2,14618,0,48428,52466,48280.93,51984.67,147.07,481.33,0.37169,100,1
2943582,2,14658,0,48367,52360,48281.1,51985.43,85.9,374.57,0.371535,100,1
2943622,2,14698,0,48343,52327,48281.22,51986.11,61.78,340.89,0.37138,100,1
2943662,2,14738,0,48334,52320,48281.33,51986.78,52.67,333.22,0.371225,100,1
2943702,2,14778,0,48331,52324,48281.43,51987.45,49.57,336.55,0.37107,100,1
2943742,2,14818,0,48338,52351,48281.54,51988.18,56.46,362.82,0.370914,100,1
2943782,2,14858,0,48353,52364,48281.69,51988.93,71.31,375.07,0.370758,100,1
2943822,2,14898,0,48357,52364,48281.84,51989.68,75.16,374.32,0.370602,100,1
2943862,2,14938,0,48352,52353,48281.98,51990.41,70.02,362.59,0.370445,100,1
2943902,2,14978,0,48356,52365,48282.13,51991.16,73.87,373.84,0.370289,100,1
2943942,2,15018,0,48362,52400,48282.29,51991.98,79.71,408.02,0.370132,100,1
2943982,2,15058,0,48381,52441,48282.49,51992.88,98.51,448.12,0.369974,100,1
2944022,2,15098,0,48400,52485,48282.72,51993.86,117.28,491.14,0.369817,100,1
2944062,2,15138,0,48414,52522,48282.99,51994.92,131.01,527.08,0.369659,100,1
2944102,2,15178,0,48426,52555,48283.28,51996.04,142.72,558.96,0.369501,100,1
2944142,2,15218,0,48445,52591,48283.6,51997.23,161.4,593.77,0.369343,100,1
2944182,2,15258,0,48458,52619,48283.95,51998.48,174.05,620.52,0.369185,100,1
2944223,2,15299,0,48467,52648,48284.32,51999.78,182.68,648.22,0.369027,100,1
2944263,2,15339,0,48477,52680,48284.71,52001.14,192.29,678.86,0.36887,100,1
2944303,2,15379,0,48491,52717,48285.12,52002.58,205.88,714.42,0.368713,100,1
2944343,2,15419,0,48502,52758,48285.55,52004.09,216.45,753.91,0.368556,100,1
2944383,2,15459,0,48522,52786,48286.03,52005.66,235.97,780.34,0.3684,100,1
2944423,2,15499,0,48514,52673,48286.48,52006.99,227.52,666.01,0.368245,100,1
2944463,2,15539,0,48439,52479,48286.79,52007.94,152.21,471.06,0.368092,100,1
2944503,2,15579,0,48362,52347,48286.94,52008.62,75.06,338.38,0.367939,100,1
2944543,2,15619,0,48329,52307,48287.03,52009.21,41.97,297.79,0.367785,100,1
2944583,2,15659,0,48332,52306,48287.12,52009.81,44.88,296.19,0.367632,100,1
2944623,2,15699,0,48332,52305,48287.21,52010.4,44.79,294.6,0.367478,100,1
2944663,2,15739,0,48341,52333,48287.32,52011.05,53.68,321.95,0.367324,100,1
2944703,2,15779,0,48347,52353,48287.44,52011.73,59.56,341.27,0.36717,100,1
2944743,2,15819,0,48352,52351,48287.57,52012.41,64.43,338.59,0.367015,100,1
2944783,2,15859,0,48344,52340,48287.68,52013.07,56.32,326.93,0.366861,100,1
2944823,2,15899,0,48348,52342,48287.8,52013.73,60.2,328.27,0.366706,100,1
2944863,2,15939,0,48354,52373,48287.93,52014.45,66.07,358.55,0.366551,100,1
2944903,2,15979,0,48367,52421,48288.09,52015.26,78.91,405.74,0.366395,100,1
2944943,2,16019,0,48385,52464,48288.29,52016.16,96.71,447.84,0.366239,100,1
2944983,2,16059,0,48404,52505,48288.52,52017.14,115.48,487.86,0.366083,100,1
2945024,2,16100,0,48424,52544,48288.8,52018.19,135.2,525.81,0.365926,100,1
2945064,2,16140,0,48436,52577,48289.09,52019.31,146.91,557.69,0.36577,100,1
2945104,2,16180,0,48448,52609,48289.41,52020.49,158.59,588.51,0.365613,100,1
2945144,2,16220,0,48458,52647,48289.75,52021.74,168.25,625.26,0.365457,100,1
2945184,2,16260,0,48474,52675,48290.12,52023.05,183.87,651.95,0.3653,100,1
2945224,2,16300,0,48492,52705,48290.53,52024.42,201.47,680.58,0.365144,100,1
2945264,2,16340,0,48505,52749,48290.96,52025.87,214.04,723.13,0.364989,100,1
2945304,2,16380,0,48522,52801,48291.43,52027.42,230.57,773.58,0.364835,100,1
2945344,2,16420,0,48540,52799,48291.93,52028.96,248.07,770.04,0.364682,100,1
2945384,2,16460,0,48517,52645,48292.38,52030.2,224.62,614.8,0.364532,100,1
2945424,2,16500,0,48432,52439,48292.66,52031.02,139.34,407.98,0.364384,100,1
2945464,2,16540,0,48364,52334,48292.8,52031.62,71.2,302.38,0.364235,100,1
2945504,2,16580,0,48338,52316,48292.89,52032.19,45.11,283.81,0.364086,100,1
2945544,2,16620,0,48335,52323,48292.98,52032.77,42.02,290.23,0.363937,100,1
2945584,2,16660,0,48346,52332,48293.09,52033.37,52.91,298.62,0.363788,100,1
2945624,2,16700,0,48353,52367,48293.21,52034.04,59.79,332.96,0.363639,100,1
2945664,2,16740,0,48358,52375,48293.34,52034.73,64.66,340.27,0.363489,100,1
2945704,2,16780,0,48359,52357,48293.47,52035.37,65.53,321.63,0.363339,100,1
2945745,2,16821,0,48345,52334,48293.57,52035.97,51.43,298.03,0.363189,100,1
2945785,2,16861,0,48342,52351,48293.67,52036.6,48.33,314.4,0.363039,100,1
2945825,2,16901,0,48351,52389,48293.79,52037.31,57.21,351.69,0.362888,100,1
2945865,2,16941,0,48374,52434,48293.95,52038.1,80.05,395.9,0.362737,100,1
2945905,2,16981,0,48391,52479,48294.14,52038.98,96.86,440.02,0.362586,100,1
2945945,2,17021,0,48409,52514,48294.37,52039.94,114.62,474.06,0.362434,100,1
2945985,2,17061,0,48422,52558,48294.63,52040.98,127.37,517.02,0.362281,100,1
2946025,2,17101,0,48439,52589,48294.92,52042.07,144.08,546.93,0.362129,100,1
2946065,2,17141,0,48457,52618,48295.25,52043.23,161.75,574.77,0.361977,100,1
2946105,2,17181,0,48473,52640,48295.6,52044.42,177.4,595.58,0.361825,100,1
2946145,2,17221,0,48479,52668,48295.97,52045.67,183.03,622.33,0.361675,100,1
2946185,2,17261,0,48495,52709,48296.37,52047,198.63,662,0.361525,100,1
2946225,2,17301,0,48510,52736,48296.8,52048.38,213.2,687.62,0.361376,100,1
2946265,2,17341,0,48502,52622,48297.21,52049.53,204.79,572.47,0.36123,100,1
2946305,2,17381,0,48426,52422,48297.46,52050.27,128.54,371.73,0.361085,100,1
2946345,2,17421,0,48349,52280,48297.57,52050.73,51.43,229.27,0.36094,100,1
2946385,2,17461,0,48309,52231,48297.59,52051.1,11.41,179.9,0.360795,100,1
2946425,2,17501,0,48304,52240,48297.61,52051.48,6.39,188.52,0.36065,100,1
2946466,2,17542,0,48309,52255,48297.63,52051.89,11.37,203.11,0.360505,100,1
2946506,2,17582,0,48320,52294,48297.68,52052.37,22.32,241.63,0.36036,100,1
2946546,2,17622,0,48333,52316,48297.75,52052.9,35.25,263.1,0.360215,100,1
2946586,2,17662,0,48332,52309,48297.82,52053.41,34.18,255.59,0.360069,100,1
2946626,2,17702,0,48325,52294,48297.87,52053.89,27.12,240.11,0.359924,100,1
2946666,2,17742,0,48320,52300,48297.92,52054.39,22.08,245.61,0.359778,100,1
2946706,2,17782,0,48333,52333,48297.99,52054.95,35.01,278.05,0.359632,100,1
2946746,2,17822,0,48351,52384,48298.1,52055.61,52.9,328.39,0.359485,100,1
2946786,2,17862,0,48373,52434,48298.25,52056.36,74.75,377.64,0.359338,100,1
2946826,2,17902,0,48403,52481,48298.46,52057.21,104.54,423.79,0.359191,100,1
2946866,2,17942,0,48418,52519,48298.7,52058.14,119.3,460.86,0.359043,100,1
2946906,2,17982,0,48438,52552,48298.98,52059.13,139.02,492.87,0.358896,100,1
2946946,2,18022,0,48444,52581,48299.28,52060.18,144.72,520.82,0.35875,100,1
2946986,2,18062,0,48459,52609,48299.6,52061.27,159.4,547.73,0.358603,100,1
2947026,2,18102,0,48472,52635,48299.95,52062.42,172.05,572.58,0.358458,100,1
2947066,2,18142,0,48486,52663,48300.32,52063.62,185.68,599.37,0.358314,100,1
2947106,2,18182,0,48494,52705,48300.71,52064.91,193.29,640.09,0.358171,100,1
2947146,2,18222,0,48508,52736,48301.12,52066.25,206.88,669.75,0.358029,100,1
2947186,2,18262,0,48506,52658,48301.53,52067.44,204.47,590.56,0.357889,100,1
2947227,2,18303,0,48438,52426,48301.8,52068.16,136.2,357.84,0.357751,100,1
2947267,2,18343,0,48339,52223,48301.88,52068.47,37.12,154.53,0.357614,100,1
2947307,2,18383,0,48274,52126,48301.82,52068.59,-27.82,57.41,0.357476,100,1
2947347,2,18423,0,48253,52109,48301.73,52068.67,-48.73,40.33,0.35734,100,1
2947387,2,18463,0,48250,52101,48301.62,52068.73,-51.63,32.27,0.357205,100,1
2947427,2,18503,0,48252,52110,48301.53,52068.82,-49.53,41.18,0.35707,100,1
2947467,2,18543,0,48265,52138,48301.46,52068.96,-36.46,69.04,0.356936,100,1
2947507,2,18583,0,48268,52144,48301.39,52069.11,-33.39,74.89,0.356802,100,1
2947547,2,18623,0,48266,52127,48301.32,52069.23,-35.32,57.77,0.356669,100,1
2947587,2,18663,0,48259,52116,48301.24,52069.32,-42.24,46.68,0.356537,100,1
2947627,2,18703,0,48264,52131,48301.16,52069.45,-37.16,61.55,0.356405,100,1
2947667,2,18743,0,48280,52171,48301.12,52069.65,-21.12,101.35,0.356273,100,1
2947707,2,18783,0,48302,52220,48301.12,52069.95,0.88,150.05,0.356142,100,1
2947747,2,18823,0,48319,52267,48301.16,52070.34,17.84,196.66,0.35601,100,1
2947787,2,18863,0,48340,52304,48301.24,52070.81,38.76,233.19,0.355879,100,1
2947827,2,18903,0,48354,52339,48301.34,52071.35,52.66,267.65,0.355747,100,1
2947867,2,18943,0,48369,52361,48301.48,52071.93,67.52,289.07,0.355615,100,1
2947907,2,18983,0,48375,52391,48301.63,52072.57,73.37,318.43,0.355483,100,1
2947947,2,19023,0,48385,52420,48301.8,52073.27,83.2,346.73,0.355351,100,1
2947987,2,19063,0,48397,52447,48301.99,52074.02,95.01,372.98,0.355218,100,1
2948028,2,19104,0,48410,52481,48302.21,52074.84,107.79,406.16,0.355086,100,1
2948068,2,19144,0,48427,52517,48302.46,52075.72,124.54,441.28,0.354954,100,1
2948108,2,19184,0,48442,52554,48302.74,52076.68,139.26,477.32,0.354823,100,1
2948148,2,19224,0,48437,52460,48303.01,52077.45,133.99,382.55,0.354693,100,1
2948188,2,19264,0,48358,52212,48303.12,52077.72,54.88,134.28,0.354563,100,1
2948228,2,19304,0,48260,51999,48303.03,52077.56,-43.03,-78.56,0.354435,100,1
2948268,2,19344,0,48198,51915,48302.82,52077.24,-104.82,-162.24,0.354308,100,1
2948308,2,19384,0,48179,51906,48302.58,52076.9,-123.58,-170.9,0.354184,100,1
2948348,2,19424,0,48184,51909,48302.34,52076.56,-118.34,-167.56,0.354063,100,1
2948388,2,19464,0,48192,51933,48302.12,52076.28,-110.12,-143.28,0.353944,100,1
2948428,2,19504,0,48212,51961,48301.95,52076.05,-89.95,-115.05,0.353827,100,1
2948468,2,19544,0,48220,51965,48301.78,52075.82,-81.78,-110.82,0.353711,100,1
2948508,2,19584,0,48213,51942,48301.61,52075.56,-88.61,-133.56,0.353597,100,1
2948548,2,19624,0,48207,51937,48301.42,52075.28,-94.42,-138.28,0.353485,100,1
2948588,2,19664,0,48212,51959,48301.24,52075.05,-89.24,-116.05,0.353375,100,1
2948628,2,19704,0,48228,52004,48301.1,52074.91,-73.1,-70.91,0.353266,100,1
2948668,2,19744,0,48251,52052,48301,52074.87,-50,-22.87,0.353157,100,1
2948708,2,19784,0,48269,52097,48300.94,52074.91,-31.94,22.09,0.353049,100,1
2948748,2,19824,0,48285,52138,48300.91,52075.04,-15.91,62.96,0.352942,100,1
2948788,2,19864,0,48303,52169,48300.91,52075.23,2.09,93.77,0.352835,100,1
2948829,2,19905,0,48312,52198,48300.93,52075.48,11.07,122.52,0.352727,100,1
2948869,2,19945,0,48329,52219,48300.99,52075.77,28.01,143.23,0.35262,100,1
2948909,2,19985,0,48335,52247,48301.06,52076.11,33.94,170.89,0.352513,100,1
2948949,2,20025,0,48345,52283,48301.15,52076.52,43.85,206.48,0.352406,100,1
2948989,2,20065,0,48361,52321,48301.27,52077.02,59.73,243.98,0.352299,100,1
2949029,2,20105,0,48383,52367,48301.44,52077.6,81.56,289.4,0.352192,100,1
2949069,2,20145,0,48405,52405,48301.64,52078.25,103.36,326.75,0.352085,100,1
2949109,2,20185,0,48395,52288,48301.83,52078.68,93.17,209.32,0.35198,100,1
2949149,2,20225,0,48311,52033,48301.85,52078.59,9.15,-45.59,0.351876,100,1
2949189,2,20265,0,48215,51843,48301.68,52078.12,-86.68,-235.12,0.351772,100,1
2949229,2,20305,0,48170,51783,48301.42,52077.53,-131.42,-294.53,0.351671,100,1
2949269,2,20345,0,48166,51797,48301.15,52076.97,-135.15,-279.97,0.351573,100,1
2949309,2,20385,0,48180,51825,48300.91,52076.46,-120.91,-251.46,0.351477,100,1
2949349,2,20425,0,48192,51871,48300.69,52076.05,-108.69,-205.05,0.351384,100,1
2949389,2,20465,0,48212,51898,48300.52,52075.7,-88.52,-177.7,0.351291,100,1
2949429,2,20505,0,48214,51876,48300.34,52075.3,-86.34,-199.3,0.351201,100,1
2949469,2,20545,0,48204,51847,48300.15,52074.84,-96.15,-227.84,0.351111,100,1
2949509,2,20585,0,48192,51850,48299.94,52074.39,-107.94,-224.39,0.351024,100,1
2949549,2,20625,0,48201,51882,48299.74,52074.01,-98.74,-192.01,0.350938,100,1
2949589,2,20665,0,48223,51932,48299.59,52073.73,-76.59,-141.73,0.350853,100,1
2949630,2,20706,0,48245,51987,48299.48,52073.56,-54.48,-86.56,0.35077,100,1
2949670,2,20746,0,48269,52033,48299.42,52073.48,-30.42,-40.48,0.350687,100,1
2949710,2,20786,0,48284,52071,48299.39,52073.48,-15.39,-2.48,0.350604,100,1
2949750,2,20826,0,48297,52108,48299.39,52073.55,-2.39,34.45,0.350521,100,1
2949790,2,20866,0,48315,52141,48299.42,52073.68,15.58,67.32,0.350439,100,1
2949830,2,20906,0,48328,52164,48299.48,52073.87,28.52,90.13,0.350357,100,1
2949870,2,20946,0,48339,52194,48299.56,52074.11,39.44,119.89,0.350275,100,1
2949910,2,20986,0,48354,52237,48299.67,52074.44,54.33,162.56,0.350193,100,1
2949950,2,21026,0,48379,52285,48299.83,52074.86,79.17,210.14,0.350113,100,1
2949990,2,21066,0,48396,52272,48300.02,52075.25,95.98,196.75,0.350034,100,1
2950030,2,21106,0,48353,52056,48300.13,52075.21,52.87,-19.21,0.349956,100,1
2950070,2,21146,0,48247,51782,48300.02,52074.63,-53.02,-292.63,0.349877,100,1
2950110,2,21186,0,48158,51632,48299.74,52073.75,-141.74,-441.75,0.349799,100,1
2950150,2,21226,0,48126,51605,48299.39,52072.81,-173.39,-467.81,0.349724,100,1
2950190,2,21266,0,48127,51618,48299.05,52071.9,-172.05,-453.9,0.349652,100,1
2950230,2,21306,0,48132,51630,48298.72,52071.02,-166.72,-441.02,0.349583,100,1
2950270,2,21346,0,48147,51675,48298.42,52070.23,-151.42,-395.23,0.349517,100,1
2950310,2,21386,0,48162,51697,48298.14,52069.48,-136.14,-372.48,0.349452,100,1
2950350,2,21426,0,48161,51685,48297.87,52068.71,-136.87,-383.71,0.349389,100,1
2950390,2,21466,0,48154,51670,48297.59,52067.91,-143.59,-397.91,0.349328,100,1
2950431,2,21507,0,48156,51684,48297.3,52067.15,-141.3,-383.15,0.349268,100,1
2950471,2,21547,0,48171,51734,48297.05,52066.48,-126.05,-332.48,0.349211,100,1
2950511,2,21587,0,48196,51793,48296.86,52065.94,-100.86,-272.94,0.349154,100,1
2950551,2,21627,0,48215,51852,48296.69,52065.51,-81.69,-213.51,0.349098,100,1
2950591,2,21667,0,48241,51897,48296.58,52065.18,-55.58,-168.18,0.349042,100,1
2950631,2,21707,0,48261,51937,48296.51,52064.92,-35.51,-127.92,0.348987,100,1
2950671,2,21747,0,48280,51977,48296.48,52064.75,-16.48,-87.75,0.348931,100,1
2950711,2,21787,0,48295,52013,48296.48,52064.64,-1.48,-51.64,0.348876,100,1
2950751,2,21827,0,48310,52046,48296.51,52064.61,13.49,-18.61,0.348821,100,1
2950791,2,21867,0,48329,52083,48296.57,52064.65,32.43,18.35,0.348766,100,1
2950831,2,21907,0,48350,52121,48296.68,52064.76,53.32,56.24,0.348712,100,1
2950871,2,21947,0,48368,52153,48296.83,52064.94,71.17,88.06,0.34866,100,1
2950911,2,21987,0,48385,52200,48297,52065.21,88,134.79,0.348609,100,1
2950951,2,22027,0,48399,52237,48297.21,52065.55,101.79,171.45,0.348561,100,1
2950991,2,22067,0,48393,52108,48297.4,52065.64,95.6,42.36,0.348516,100,1
2951031,2,22107,0,48300,51805,48297.41,52065.12,2.59,-260.12,0.348469,100,1
2951071,2,22147,0,48183,51561,48297.18,52064.11,-114.18,-503.11,0.348419,100,1
2951111,2,22187,0,48119,51475,48296.83,52062.94,-177.83,-587.94,0.348368,100,1
2951151,2,22227,0,48102,51476,48296.44,52061.77,-194.44,-585.77,0.34832,100,1
2951191,2,22267,0,48108,51488,48296.07,52060.62,-188.07,-572.62,0.348272,100,1
2951232,2,22308,0,48115,51506,48295.71,52059.51,-180.71,-553.51,0.348226,100,1
2951272,2,22348,0,48127,51552,48295.37,52058.5,-168.37,-506.5,0.348181,100,1
2951312,2,22388,0,48141,51567,48295.06,52057.52,-154.06,-490.52,0.348137,100,1
2951352,2,22428,0,48140,51564,48294.75,52056.53,-154.75,-492.53,0.348092,100,1
2951392,2,22468,0,48144,51568,48294.45,52055.55,-150.45,-487.55,0.348048,100,1
2951432,2,22508,0,48153,51600,48294.17,52054.64,-141.17,-454.64,0.348004,100,1
2951472,2,22548,0,48175,51659,48293.93,52053.86,-118.93,-394.86,0.34796,100,1
2951512,2,22588,0,48198,51728,48293.74,52053.21,-95.74,-325.21,0.347916,100,1
2951552,2,22628,0,48229,51788,48293.61,52052.68,-64.61,-264.68,0.347871,100,1
2951592,2,22668,0,48253,51835,48293.54,52052.25,-40.54,-217.25,0.347825,100,1
2951632,2,22708,0,48275,51867,48293.5,52051.87,-18.5,-184.87,0.347779,100,1
2951672,2,22748,0,48293,51900,48293.5,52051.57,-0.5,-151.57,0.347732,100,1
2951712,2,22788,0,48307,51937,48293.53,52051.35,13.47,-114.35,0.347685,100,1
2951752,2,22828,0,48325,51974,48293.59,52051.2,31.41,-77.2,0.347639,100,1
2951792,2,22868,0,48339,52013,48293.68,52051.12,45.32,-38.12,0.347593,100,1
2951832,2,22908,0,48359,52047,48293.82,52051.11,65.18,-4.11,0.347548,100,1
2951872,2,22948,0,48373,52083,48293.98,52051.18,79.02,31.82,0.347506,100,1
2951912,2,22988,0,48390,52126,48294.17,52051.33,95.83,74.67,0.347466,100,1
2951952,2,23028,0,48406,52169,48294.39,52051.57,111.61,117.43,0.34743,100,1
2951992,2,23068,0,48413,52110,48294.63,52051.69,118.37,58.31,0.347398,100,1
2952033,2,23109,0,48346,51832,48294.74,52051.25,51.26,-219.25,0.347366,100,1
2952073,2,23149,0,48213,51538,48294.57,52050.23,-81.57,-512.23,0.347328,100,1
2952113,2,23189,0,48130,51412,48294.25,52048.95,-164.25,-636.95,0.347286,100,1
2952153,2,23229,0,48102,51416,48293.86,52047.69,-191.86,-631.69,0.347244,100,1
2952193,2,23269,0,48116,51443,48293.51,52046.48,-177.51,-603.48,0.347201,100,1
2952233,2,23309,0,48126,51468,48293.18,52045.32,-167.18,-577.32,0.347157,100,1
2952273,2,23349,0,48144,51524,48292.88,52044.28,-148.88,-520.28,0.347112,100,1
2952313,2,23389,0,48164,51551,48292.62,52043.3,-128.62,-492.3,0.347065,100,1
2952353,2,23429,0,48166,51538,48292.37,52042.29,-126.37,-504.29,0.347016,100,1
2952393,2,23469,0,48164,51527,48292.11,52041.26,-128.11,-514.26,0.346964,100,1
2952433,2,23509,0,48167,51553,48291.86,52040.29,-124.86,-487.29,0.34691,100,1
2952473,2,23549,0,48188,51610,48291.66,52039.43,-103.66,-429.43,0.346855,100,1
2952513,2,23589,0,48215,51671,48291.5,52038.69,-76.5,-367.69,0.346798,100,1
2952553,2,23629,0,48239,51729,48291.4,52038.07,-52.4,-309.07,0.346739,100,1
2952593,2,23669,0,48262,51778,48291.34,52037.55,-29.34,-259.55,0.346678,100,1
2952633,2,23709,0,48276,51810,48291.31,52037.1,-15.31,-227.1,0.346616,100,1
2952673,2,23749,0,48294,51844,48291.32,52036.71,2.68,-192.71,0.346554,100,1
2952713,2,23789,0,48309,51874,48291.35,52036.39,17.65,-162.39,0.346491,100,1
2952753,2,23829,0,48317,51902,48291.4,52036.12,25.6,-134.12,0.346428,100,1
2952793,2,23869,0,48327,51930,48291.48,52035.91,35.52,-105.91,0.346365,100,1
2952833,2,23909,0,48341,51964,48291.58,52035.77,49.42,-71.77,0.346303,100,1
2952874,2,23950,0,48357,52006,48291.71,52035.71,65.29,-29.71,0.346242,100,1
2952914,2,23990,0,48374,52057,48291.87,52035.76,82.12,21.24,0.346184,100,1
2952954,2,24030,0,48396,52066,48292.09,52035.82,103.91,30.18,0.346129,100,1
2952994,2,24070,0,48357,51859,48292.22,52035.47,64.78,-176.47,0.346076,100,1
2953034,2,24110,0,48247,51571,48292.13,52034.54,-45.13,-463.54,0.346016,100,1
2953074,2,24150,0,48155,51419,48291.86,52033.31,-136.86,-614.31,0.345951,100,1
2953114,2,24190,0,48124,51415,48291.52,52032.08,-167.52,-617.08,0.345884,100,1
2953154,2,24230,0,48141,51471,48291.22,52030.96,-150.22,-559.96,0.345816,100,1
2953194,2,24270,0,48164,51534,48290.96,52029.96,-126.96,-495.96,0.345746,100,1
2953234,2,24310,0,48195,51603,48290.77,52029.11,-95.77,-426.11,0.345673,100,1
2953274,2,24350,0,48215,51614,48290.62,52028.29,-75.62,-414.29,0.345598,100,1
2953314,2,24390,0,48216,51594,48290.48,52027.42,-74.48,-433.42,0.345519,100,1
2953354,2,24430,0,48208,51575,48290.31,52026.52,-82.31,-451.52,0.345437,100,1
2953394,2,24470,0,48209,51601,48290.15,52025.66,-81.15,-424.66,0.345352,100,1
2953434,2,24510,0,48222,51649,48290.02,52024.91,-68.02,-375.91,0.345265,100,1
2953474,2,24550,0,48249,51713,48289.93,52024.29,-40.93,-311.29,0.345176,100,1
2953514,2,24590,0,48274,51772,48289.9,52023.79,-15.9,-251.79,0.345085,100,1
2953554,2,24630,0,48297,51824,48289.92,52023.39,7.08,-199.39,0.344994,100,1
2953594,2,24670,0,48309,51866,48289.96,52023.07,19.04,-157.07,0.344902,100,1
2953634,2,24710,0,48327,51893,48290.03,52022.82,36.97,-129.82,0.34481,100,1
2953675,2,24751,0,48339,51924,48290.13,52022.62,48.87,-98.62,0.344719,100,1
2953715,2,24791,0,48352,51954,48290.25,52022.48,61.75,-68.48,0.34463,100,1
2953755,2,24831,0,48365,51985,48290.41,52022.41,74.59,-37.41,0.344543,100,1
2953795,2,24871,0,48374,52028,48290.57,52022.42,83.43,5.58,0.344458,100,1
2953835,2,24911,0,48394,52063,48290.78,52022.5,103.22,40.5,0.344378,100,1
2953875,2,24951,0,48410,52110,48291.02,52022.68,118.98,87.32,0.344303,100,1
2953915,2,24991,0,48430,52143,48291.3,52022.92,138.7,120.08,0.344234,100,1
2953955,2,25031,0,48417,51989,48291.55,52022.86,125.45,-33.86,0.344172,100,1
2953995,2,25071,0,48313,51659,48291.59,52022.13,21.41,-363.13,0.344105,100,1
2954035,2,25111,0,48188,51417,48291.39,52020.92,-103.39,-603.92,0.344031,100,1
2954075,2,25151,0,48131,51340,48291.07,52019.56,-160.07,-679.56,0.343951,100,1
2954115,2,25191,0,48129,51356,48290.74,52018.24,-161.74,-662.24,0.343868,100,1
2954155,2,25231,0,48133,51369,48290.43,52016.94,-157.43,-647.94,0.343781,100,1
2954195,2,25271,0,48141,51405,48290.13,52015.72,-149.13,-610.72,0.343691,100,1
2954235,2,25311,0,48158,51440,48289.87,52014.57,-131.87,-574.57,0.343597,100,1
2954275,2,25351,0,48168,51455,48289.63,52013.45,-121.63,-558.45,0.3435,100,1
2954315,2,25391,0,48172,51437,48289.39,52012.3,-117.39,-575.3,0.343398,100,1
2954355,2,25431,0,48162,51440,48289.14,52011.16,-127.14,-571.16,0.343293,100,1
2954395,2,25471,0,48165,51470,48288.89,52010.07,-123.89,-540.07,0.343186,100,1
2954435,2,25511,0,48188,51528,48288.7,52009.11,-100.7,-481.11,0.343076,100,1
2954476,2,25552,0,48215,51588,48288.55,52008.27,-73.55,-420.27,0.342963,100,1
2954516,2,25592,0,48237,51642,48288.45,52007.54,-51.45,-365.54,0.342848,100,1
2954556,2,25632,0,48254,51692,48288.38,52006.91,-34.38,-314.91,0.34273,100,1
2954596,2,25672,0,48272,51731,48288.35,52006.36,-16.35,-275.36,0.342612,100,1
2954636,2,25712,0,48292,51759,48288.36,52005.87,3.64,-246.87,0.342491,100,1
2954676,2,25752,0,48306,51793,48288.39,52005.45,17.61,-212.45,0.34237,100,1
2954716,2,25792,0,48320,51834,48288.46,52005.11,31.54,-171.11,0.342249,100,1
2954756,2,25832,0,48334,51868,48288.55,52004.83,45.45,-136.83,0.342129,100,1
2954796,2,25872,0,48351,51906,48288.68,52004.64,62.32,-98.64,0.34201,100,1
2954836,2,25912,0,48374,51949,48288.85,52004.53,85.15,-55.53,0.341894,100,1
2954876,2,25952,0,48392,51990,48289.06,52004.5,102.94,-14.5,0.341782,100,1
2954916,2,25992,0,48412,52017,48289.3,52004.53,122.7,12.47,0.341676,100,1
2954956,2,26032,0,48394,51852,48289.52,52004.22,104.48,-152.22,0.341573,100,1
2954996,2,26072,0,48281,51521,48289.5,52003.26,-8.5,-482.26,0.341464,100,1
2955036,2,26112,0,48162,51275,48289.25,52001.8,-127.25,-726.8,0.341346,100,1
2955076,2,26152,0,48100,51209,48288.87,52000.21,-188.87,-791.21,0.341223,100,1
2955116,2,26192,0,48093,51229,48288.48,51998.67,-195.48,-769.67,0.341098,100,1
2955156,2,26232,0,48101,51248,48288.1,51997.17,-187.1,-749.17,0.340971,100,1
2955196,2,26272,0,48110,51283,48287.75,51995.75,-177.75,-712.75,0.340841,100,1
2955237,2,26313,0,48130,51328,48287.43,51994.41,-157.43,-666.41,0.340709,100,1
2955277,2,26353,0,48140,51332,48287.14,51993.09,-147.14,-661.09,0.340573,100,1
2955317,2,26393,0,48136,51315,48286.84,51991.73,-150.84,-676.73,0.340434,100,1
2955357,2,26433,0,48129,51317,48286.53,51990.38,-157.53,-673.38,0.340293,100,1
2955397,2,26473,0,48138,51355,48286.23,51989.11,-148.23,-634.11,0.340149,100,1
2955437,2,26513,0,48159,51421,48285.98,51987.98,-126.98,-566.98,0.340003,100,1
2955477,2,26553,0,48190,51487,48285.79,51986.98,-95.79,-499.98,0.339855,100,1
2955517,2,26593,0,48216,51547,48285.65,51986.1,-69.65,-439.1,0.339705,100,1
2955557,2,26633,0,48239,51592,48285.55,51985.31,-46.55,-393.31,0.339552,100,1
2955597,2,26673,0,48254,51628,48285.49,51984.6,-31.49,-356.6,0.339397,100,1
2955637,2,26713,0,48280,51664,48285.48,51983.96,-5.48,-319.96,0.33924,100,1
2955677,2,26753,0,48285,51684,48285.48,51983.36,-0.48,-299.36,0.339081,100,1
2955717,2,26793,0,48303,51714,48285.52,51982.82,17.48,-268.82,0.338922,100,1
2955757,2,26833,0,48313,51751,48285.57,51982.36,27.43,-231.36,0.338762,100,1
2955797,2,26873,0,48328,51789,48285.66,51981.97,42.34,-192.97,0.338602,100,1
2955837,2,26913,0,48345,51838,48285.78,51981.69,59.22,-143.69,0.338443,100,1
2955877,2,26953,0,48367,51853,48285.95,51981.43,81.05,-128.43,0.338286,100,1
2955917,2,26993,0,48337,51663,48286.05,51980.79,50.95,-317.79,0.338129,100,1
2955957,2,27033,0,48221,51352,48285.92,51979.54,-64.92,-627.54,0.337964,100,1
2955997,2,27073,0,48114,51163,48285.57,51977.9,-171.57,-814.9,0.337793,100,1
2956037,2,27113,0,48073,51138,48285.15,51976.22,-212.15,-838.22,0.337623,100,1
2956078,2,27154,0,48082,51185,48284.74,51974.64,-202.74,-789.64,0.337452,100,1
2956118,2,27194,0,48100,51225,48284.37,51973.14,-184.37,-748.14,0.337281,100,1
2956158,2,27234,0,48118,51293,48284.04,51971.79,-166.04,-678.79,0.337109,100,1
2956198,2,27274,0,48141,51324,48283.76,51970.49,-142.76,-646.49,0.336936,100,1
2956238,2,27314,0,48143,51309,48283.48,51969.17,-140.48,-660.17,0.336759,100,1
2956278,2,27354,0,48137,51284,48283.18,51967.8,-146.18,-683.8,0.336581,100,1
2956318,2,27394,0,48132,51303,48282.88,51966.48,-150.88,-663.48,0.336401,100,1
2956358,2,27434,0,48147,51355,48282.61,51965.25,-135.61,-610.25,0.336219,100,1
2956398,2,27474,0,48172,51421,48282.39,51964.17,-110.39,-543.17,0.336037,100,1
2956438,2,27514,0,48209,51488,48282.25,51963.22,-73.25,-475.22,0.335851,100,1
2956478,2,27554,0,48233,51533,48282.15,51962.36,-49.15,-429.36,0.335664,100,1
2956518,2,27594,0,48252,51580,48282.09,51961.6,-30.09,-381.6,0.335475,100,1
2956558,2,27634,0,48268,51611,48282.07,51960.9,-14.07,-349.9,0.335283,100,1
2956598,2,27674,0,48275,51638,48282.05,51960.25,-7.05,-322.25,0.335091,100,1
2956638,2,27714,0,48289,51664,48282.07,51959.66,6.93,-295.66,0.334897,100,1
2956678,2,27754,0,48302,51690,48282.11,51959.12,19.89,-269.12,0.334703,100,1
2956718,2,27794,0,48316,51730,48282.18,51958.67,33.82,-228.67,0.334508,100,1
2956758,2,27834,0,48331,51769,48282.28,51958.29,48.72,-189.29,0.334314,100,1
2956798,2,27874,0,48342,51726,48282.4,51957.82,59.6,-231.82,0.334121,100,1
2956838,2,27914,0,48276,51446,48282.39,51956.8,-6.39,-510.8,0.333923,100,1
2956879,2,27955,0,48139,51135,48282.11,51955.16,-143.11,-820.16,0.333719,100,1
2956919,2,27995,0,48042,50989,48281.62,51953.23,-239.62,-964.23,0.333516,100,1
2956959,2,28035,0,48012,50987,48281.09,51951.3,-269.09,-964.3,0.333318,100,1
2956999,2,28075,0,48019,51005,48280.56,51949.41,-261.56,-944.41,0.333124,100,1
2957039,2,28115,0,48028,51021,48280.06,51947.55,-252.06,-926.55,0.332934,100,1
2957079,2,28155,0,48040,51070,48279.58,51945.8,-239.58,-875.8,0.332746,100,1
2957119,2,28195,0,48063,51109,48279.14,51944.13,-216.14,-835.13,0.33256,100,1
2957159,2,28235,0,48068,51108,48278.72,51942.46,-210.72,-834.46,0.332375,100,1
2957199,2,28275,0,48065,51101,48278.3,51940.78,-213.3,-839.78,0.33219,100,1
2957239,2,28315,0,48069,51126,48277.88,51939.15,-208.88,-813.15,0.332006,100,1
2957279,2,28355,0,48095,51185,48277.52,51937.64,-182.52,-752.64,0.331822,100,1
2957319,2,28395,0,48119,51245,48277.2,51936.26,-158.2,-691.26,0.331637,100,1
2957359,2,28435,0,48145,51302,48276.94,51934.99,-131.94,-632.99,0.331451,100,1
2957399,2,28475,0,48165,51348,48276.71,51933.82,-111.71,-585.82,0.331264,100,1
2957439,2,28515,0,48183,51382,48276.53,51932.72,-93.53,-550.72,0.331074,100,1
2957479,2,28555,0,48200,51417,48276.37,51931.69,-76.37,-514.69,0.330882,100,1
2957519,2,28595,0,48210,51449,48276.24,51930.72,-66.24,-481.72,0.330689,100,1
2957559,2,28635,0,48225,51474,48276.14,51929.81,-51.14,-455.81,0.330493,100,1
2957599,2,28675,0,48231,51505,48276.05,51928.96,-45.05,-423.96,0.330296,100,1
2957639,2,28715,0,48241,51539,48275.98,51928.19,-34.98,-389.19,0.330098,100,1
2957680,2,28756,0,48258,51581,48275.95,51927.5,-17.95,-346.5,0.329898,100,1
2957720,2,28796,0,48276,51624,48275.95,51926.89,0.05,-302.89,0.329698,100,1
2957760,2,28836,0,48282,51554,48275.96,51926.14,6.04,-372.14,0.329496,100,1
2957800,2,28876,0,48199,51253,48275.8,51924.8,-76.8,-671.8,0.329289,100,1
2957840,2,28916,0,48066,50956,48275.39,51922.86,-209.39,-966.86,0.329081,100,1
2957880,2,28956,0,47978,50837,48274.79,51920.69,-296.79,-1083.69,0.328877,100,1
2957920,2,28996,0,47958,50840,48274.16,51918.53,-316.16,-1078.53,0.328681,100,1
2957960,2,29036,0,47967,50862,48273.55,51916.42,-306.55,-1054.42,0.328492,100,1
2958000,2,29076,0,47969,50878,48272.94,51914.34,-303.94,-1036.34,0.32831,100,1
2958040,2,29116,0,47989,50933,48272.37,51912.38,-283.37,-979.38,0.328132,100,1
2958080,2,29156,0,48016,50969,48271.86,51910.5,-255.86,-941.5,0.327957,100,1
2958120,2,29196,0,48024,50966,48271.36,51908.61,-247.36,-942.61,0.327783,100,1
2958160,2,29236,0,48018,50963,48270.86,51906.72,-252.86,-943.72,0.327611,100,1
2958200,2,29276,0,48022,51001,48270.36,51904.91,-248.36,-903.91,0.327442,100,1
2958240,2,29316,0,48046,51056,48269.91,51903.21,-223.91,-847.21,0.327274,100,1
2958280,2,29356,0,48071,51115,48269.52,51901.64,-198.52,-786.64,0.327107,100,1
2958320,2,29396,0,48097,51172,48269.17,51900.18,-172.17,-728.18,0.326939,100,1
2958360,2,29436,0,48116,51222,48268.87,51898.83,-152.87,-676.83,0.326771,100,1
2958400,2,29476,0,48130,51262,48268.59,51897.55,-138.59,-635.55,0.326602,100,1
2958440,2,29516,0,48152,51295,48268.36,51896.35,-116.36,-601.35,0.326431,100,1
2958481,2,29557,0,48161,51325,48268.14,51895.21,-107.14,-570.21,0.32626,100,1
2958521,2,29597,0,48173,51356,48267.96,51894.13,-94.96,-538.13,0.326087,100,1
2958561,2,29637,0,48182,51390,48267.79,51893.12,-85.79,-503.12,0.325913,100,1
2958601,2,29677,0,48196,51435,48267.64,51892.21,-71.64,-457.21,0.325739,100,1
2958641,2,29717,0,48216,51491,48267.54,51891.41,-51.54,-400.41,0.325563,100,1
2958681,2,29757,0,48243,51508,48267.5,51890.64,-24.5,-382.64,0.325386,100,1
2958721,2,29797,0,48216,51310,48267.39,51889.48,-51.39,-579.48,0.325206,100,1
2958761,2,29837,0,48096,51006,48267.05,51887.72,-171.05,-881.72,0.325023,100,1
2958801,2,29877,0,47986,50823,48266.49,51885.59,-280.49,-1062.59,0.324843,100,1
2958841,2,29917,0,47948,50795,48265.86,51883.41,-317.86,-1088.41,0.324669,100,1
2958881,2,29957,0,47954,50821,48265.23,51881.29,-311.23,-1060.29,0.3245,100,1
2958921,2,29997,1,47966,50835,48264.64,51879.2,-298.64,-1044.2,0.324335,100,1
2958961,2,30037,1,47976,50894,48264.06,51877.23,-288.06,-983.23,0.324174,100,1
2959001,2,30077,1,48003,50948,48263.54,51875.37,-260.54,-927.37,0.324016,100,1
2959041,2,30117,1,48015,50948,48263.05,51873.52,-248.05,-925.52,0.32386,100,1
2959081,2,30157,1,48010,50934,48262.54,51871.64,-252.54,-937.64,0.323705,100,1
2959121,2,30197,1,48011,50952,48262.04,51869.8,-251.04,-917.8,0.323553,100,1
2959161,2,30237,1,48022,51004,48261.56,51868.07,-239.56,-864.07,0.323402,100,1
2959201,2,30277,1,48045,51069,48261.13,51866.47,-216.13,-797.47,0.323252,100,1
2959241,2,30317,1,48071,51121,48260.75,51864.98,-189.75,-743.98,0.323103,100,1
2959282,2,30358,1,48091,51169,48260.41,51863.59,-169.41,-694.59,0.322954,100,1
2959322,2,30398,1,48107,51208,48260.11,51862.29,-153.11,-654.29,0.322805,100,1
2959362,2,30438,1,48127,51236,48259.84,51861.04,-132.84,-625.04,0.322655,100,1
2959402,2,30478,1,48133,51269,48259.59,51859.85,-126.59,-590.85,0.322504,100,1
2959442,2,30518,1,48144,51296,48259.36,51858.73,-115.36,-562.73,0.322353,100,1
2959482,2,30558,1,48161,51343,48259.16,51857.7,-98.16,-514.7,0.322201,100,1
2959522,2,30598,1,48180,51393,48259,51856.77,-79,-463.77,0.322048,100,1
2959562,2,30638,1,48201,51424,48258.89,51855.9,-57.89,-431.9,0.321894,100,1
2959602,2,30678,1,48185,51276,48258.74,51854.74,-73.74,-578.74,0.321739,100,1
2959642,2,30718,1,48087,51005,48258.4,51853.04,-171.4,-848.04,0.321581,100,1
2959682,2,30758,1,47994,50837,48257.87,51851.01,-263.87,-1014.01,0.321424,100,1
2959722,2,30798,1,47957,50821,48257.27,51848.95,-300.27,-1027.95,0.321271,100,1
2959762,2,30838,1,47966,50862,48256.69,51846.98,-290.69,-984.98,0.321123,100,1
2959802,2,30878,1,47983,50920,48256.14,51845.13,-273.14,-925.13,0.320978,100,1
2959842,2,30918,1,48012,50989,48255.65,51843.42,-243.65,-854.42,0.320835,100,1
2959882,2,30958,1,48036,51019,48255.21,51841.77,-219.21,-822.77,0.320693,100,1
2959922,2,30998,1,48037,50998,48254.78,51840.08,-217.78,-842.08,0.320552,100,1
2959962,2,31038,1,48031,50985,48254.34,51838.37,-223.34,-853.37,0.320411,100,1
2960002,2,31078,1,48024,51011,48253.87,51836.72,-229.87,-825.72,0.320272,100,1
2960042,2,31118,1,48043,51063,48253.45,51835.18,-210.45,-772.18,0.320135,100,1
2960083,2,31159,1,48063,51122,48253.07,51833.75,-190.07,-711.75,0.319998,100,1
2960123,2,31199,1,48089,51176,48252.75,51832.44,-163.75,-656.44,0.319861,100,1
2960163,2,31239,1,48104,51221,48252.45,51831.21,-148.45,-610.21,0.319725,100,1
2960203,2,31279,1,48122,51260,48252.19,51830.07,-130.19,-570.07,0.319588,100,1
2960243,2,31319,1,48135,51293,48251.96,51829,-116.96,-536,0.319451,100,1
2960283,2,31359,1,48148,51314,48251.75,51827.97,-103.75,-513.97,0.319313,100,1
2960323,2,31399,1,48162,51345,48251.57,51827.01,-89.57,-482.01,0.319175,100,1
2960363,2,31439,1,48174,51378,48251.42,51826.11,-77.42,-448.11,0.319036,100,1
2960403,2,31479,1,48189,51423,48251.29,51825.3,-62.29,-402.3,0.318896,100,1
2960443,2,31519,1,48207,51467,48251.21,51824.59,-44.21,-357.59,0.318756,100,1
2960483,2,31559,1,48226,51481,48251.16,51823.9,-25.16,-342.9,0.318616,100,1
2960523,2,31599,1,48201,51283,48251.06,51822.82,-50.06,-539.82,0.318473,100,1
2960563,2,31639,1,48082,50970,48250.72,51821.12,-168.72,-851.12,0.318328,100,1
2960603,2,31679,1,47969,50793,48250.16,51819.06,-281.16,-1026.06,0.318185,100,1
2960643,2,31719,1,47925,50764,48249.51,51816.95,-324.51,-1052.95,0.318048,100,1
2960683,2,31759,1,47924,50768,48248.86,51814.86,-324.86,-1046.86,0.317916,100,1
2960723,2,31799,1,47924,50757,48248.21,51812.74,-324.21,-1055.74,0.31779,100,1
2960763,2,31839,1,47923,50796,48247.57,51810.71,-324.57,-1014.71,0.317668,100,1
2960803,2,31879,1,47942,50852,48246.96,51808.79,-304.96,-956.79,0.317552,100,1
2960843,2,31919,1,47959,50871,48246.38,51806.92,-287.38,-935.92,0.317438,100,1
2960883,2,31959,1,47957,50864,48245.8,51805.04,-288.8,-941.04,0.317329,100,1
2960924,2,32000,1,47959,50880,48245.23,51803.19,-286.23,-923.19,0.317222,100,1
2960964,2,32040,1,47973,50932,48244.69,51801.45,-271.69,-869.45,0.317119,100,1
2961004,2,32080,1,47996,50998,48244.19,51799.84,-248.19,-801.84,0.317018,100,1
2961044,2,32120,1,48017,51062,48243.74,51798.37,-226.74,-736.37,0.316919,100,1
2961084,2,32160,1,48047,51118,48243.35,51797.01,-196.35,-679.01,0.316822,100,1
2961124,2,32200,1,48065,51159,48242.99,51795.73,-177.99,-636.73,0.316725,100,1
2961164,2,32240,1,48090,51205,48242.69,51794.55,-152.69,-589.55,0.316628,100,1
2961204,2,32280,1,48103,51248,48242.41,51793.46,-139.41,-545.46,0.316531,100,1
2961244,2,32320,1,48123,51286,48242.17,51792.45,-119.17,-506.45,0.316434,100,1
2961284,2,32360,1,48138,51332,48241.96,51791.54,-103.96,-459.54,0.316337,100,1
2961324,2,32400,1,48165,51382,48241.81,51790.72,-76.81,-408.72,0.316239,100,1
2961364,2,32440,1,48187,51437,48241.7,51790.01,-54.7,-353.01,0.316141,100,1
2961404,2,32480,1,48210,51478,48241.64,51789.39,-31.64,-311.39,0.316042,100,1
2961444,2,32520,1,48206,51374,48241.57,51788.56,-35.57,-414.56,0.315942,100,1
2961484,2,32560,1,48117,51101,48241.32,51787.19,-124.32,-686.19,0.31584,100,1
2961524,2,32600,1,48004,50903,48240.85,51785.42,-236.85,-882.42,0.315739,100,1
2961564,2,32640,1,47957,50858,48240.29,51783.57,-283.29,-925.57,0.315641,100,1
2961604,2,32680,1,47954,50882,48239.71,51781.77,-285.71,-899.77,0.315546,100,1
2961644,2,32720,1,47961,50907,48239.16,51780.02,-278.16,-873.02,0.315455,100,1
2961684,2,32760,1,47967,50945,48238.62,51778.35,-271.62,-833.35,0.315367,100,1
2961725,2,32801,1,47990,51002,48238.12,51776.8,-248.12,-774.8,0.315282,100,1
2961765,2,32841,1,48009,51025,48237.66,51775.3,-228.66,-750.3,0.315199,100,1
2961805,2,32881,1,48011,51031,48237.21,51773.81,-226.21,-742.81,0.315117,100,1
2961845,2,32921,1,48010,51052,48236.76,51772.37,-226.76,-720.37,0.315037,100,1
2961885,2,32961,1,48025,51102,48236.34,51771.03,-211.34,-669.03,0.31496,100,1
2961925,2,33001,1,48055,51174,48235.97,51769.84,-180.97,-595.84,0.314883,100,1
2961965,2,33041,1,48085,51249,48235.67,51768.8,-150.67,-519.8,0.314807,100,1
2962005,2,33081,1,48115,51315,48235.43,51767.89,-120.43,-452.89,0.314731,100,1
2962045,2,33121,1,48139,51368,48235.24,51767.09,-96.24,-399.09,0.314655,100,1
2962085,2,33161,1,48161,51422,48235.09,51766.41,-74.09,-344.41,0.314578,100,1
2962125,2,33201,1,48186,51464,48235,51765.8,-49,-301.8,0.314502,100,1
2962165,2,33241,1,48206,51502,48234.94,51765.28,-28.94,-263.28,0.314425,100,1
2962205,2,33281,1,48222,51544,48234.91,51764.84,-12.91,-220.84,0.314348,100,1
2962245,2,33321,1,48236,51596,48234.92,51764.5,1.08,-168.5,0.31427,100,1
2962285,2,33361,1,48260,51655,48234.97,51764.28,25.03,-109.28,0.314193,100,1
2962325,2,33401,1,48290,51709,48235.08,51764.17,54.92,-55.17,0.314117,100,1
2962365,2,33441,1,48295,51651,48235.2,51763.95,59.8,-112.95,0.314041,100,1
2962405,2,33481,1,48227,51420,48235.18,51763.26,-8.18,-343.26,0.313964,100,1
2962445,2,33521,1,48121,51227,48234.96,51762.19,-113.96,-535.19,0.313887,100,1
2962485,2,33561,1,48068,51172,48234.62,51761.01,-166.62,-589.01,0.31381,100,1
2962526,2,33602,1,48063,51196,48234.28,51759.88,-171.28,-563.88,0.313734,100,1
2962566,2,33642,1,48073,51220,48233.96,51758.8,-160.96,-538.8,0.313659,100,1
2962606,2,33682,1,48083,51259,48233.66,51757.8,-150.66,-498.8,0.313585,100,1
2962646,2,33722,1,48103,51324,48233.4,51756.93,-130.4,-432.93,0.313511,100,1
2962686,2,33762,1,48123,51356,48233.18,51756.13,-110.18,-400.13,0.313438,100,1
2962726,2,33802,1,48135,51368,48232.98,51755.36,-97.98,-387.36,0.313365,100,1
2962766,2,33842,1,48138,51392,48232.8,51754.63,-94.8,-362.63,0.313292,100,1
2962806,2,33882,1,48149,51444,48232.63,51754.01,-83.63,-310.01,0.313219,100,1
2962846,2,33922,1,48176,51520,48232.52,51753.55,-56.52,-233.55,0.313147,100,1
2962886,2,33962,1,48209,51591,48232.47,51753.22,-23.47,-162.22,0.313074,100,1
2962926,2,34002,1,48241,51653,48232.49,51753.02,8.51,-100.02,0.313001,100,1
2962966,2,34042,1,48263,51708,48232.55,51752.93,30.45,-44.93,0.312929,100,1
2963006,2,34082,1,48290,51763,48232.67,51752.95,57.33,10.05,0.312858,100,1
2963046,2,34122,1,48305,51811,48232.81,51753.07,72.19,57.93,0.312787,100,1
2963086,2,34162,1,48326,51855,48233,51753.28,93,101.72,0.312718,100,1
2963126,2,34202,1,48344,51896,48233.22,51753.56,110.78,142.44,0.312651,100,1
2963166,2,34242,1,48363,51951,48233.48,51753.96,129.52,197.04,0.312586,100,1
2963206,2,34282,1,48387,52008,48233.79,51754.46,153.21,253.54,0.312525,100,1
2963246,2,34322,1,48407,52047,48234.14,51755.05,172.86,291.95,0.312467,100,1
2963286,2,34362,1,48397,51936,48234.47,51755.41,162.53,180.59,0.312413,100,1
2963327,2,34403,1,48314,51726,48234.63,51755.36,79.37,-29.36,0.312361,100,1
2963367,2,34443,1,48232,51602,48234.62,51755.05,-2.62,-153.05,0.312308,100,1
2963407,2,34483,1,48208,51589,48234.57,51754.72,-26.57,-165.72,0.312256,100,1
2963447,2,34523,1,48211,51620,48234.53,51754.45,-23.53,-134.45,0.312203,100,1
2963487,2,34563,1,48220,51642,48234.5,51754.23,-14.5,-112.23,0.31215,100,1
2963527,2,34603,1,48229,51686,48234.49,51754.09,-5.49,-68.09,0.312098,100,1
2963567,2,34643,1,48252,51735,48234.53,51754.05,17.47,-19.05,0.312046,100,1
2963607,2,34683,1,48266,51756,48234.59,51754.06,31.41,1.94,0.311994,100,1
2963647,2,34723,1,48264,51767,48234.65,51754.09,29.35,12.91,0.311942,100,1
2963687,2,34763,1,48274,51801,48234.73,51754.18,39.27,46.82,0.311891,100,1
2963727,2,34803,1,48298,51853,48234.86,51754.38,63.14,98.62,0.31184,100,1
2963767,2,34843,1,48323,51916,48235.03,51754.7,87.97,161.3,0.311791,100,1
2963807,2,34883,1,48350,51979,48235.26,51755.15,114.74,223.85,0.311743,100,1
2963847,2,34923,1,48373,52036,48235.54,51755.71,137.46,280.29,0.311698,100,1
2963887,2,34963,1,48393,52090,48235.86,51756.38,157.14,333.62,0.311656,100,1
2963927,2,35003,1,48412,52135,48236.21,51757.14,175.79,377.86,0.311618,100,1
2963967,2,35043,1,48433,52180,48236.61,51757.99,196.39,422.01,0.311585,100,1
2964007,2,35083,1,48447,52218,48237.03,51758.91,209.97,459.09,0.311556,100,1
2964047,2,35123,1,48455,52259,48237.46,51759.91,217.54,499.09,0.311533,100,1
2964087,2,35163,1,48475,52309,48237.94,51761.01,237.06,547.99,0.311515,100,1
2964127,2,35203,1,48494,52364,48238.45,51762.21,255.55,601.79,0.311505,100,1
2964168,2,35244,1,48513,52392,48239,51763.48,274,628.52,0.311501,100,1
2964208,2,35284,1,48495,52275,48239.52,51764.5,255.48,510.5,0.311506,100,1
2964248,2,35324,1,48418,52107,48239.87,51765.19,178.12,341.81,0.311514,100,1
2964288,2,35364,1,48352,52012,48240.1,51765.68,111.9,246.32,0.311523,100,1
2964328,2,35404,1,48336,52000,48240.29,51766.15,95.71,233.85,0.311534,100,1
2964368,2,35444,1,48343,52023,48240.5,51766.67,102.5,256.33,0.311545,100,1
2964408,2,35484,1,48348,52046,48240.71,51767.23,107.29,278.77,0.311557,100,1
2964448,2,35524,1,48357,52082,48240.95,51767.86,116.05,314.14,0.311569,100,1
2964488,2,35564,1,48381,52116,48241.23,51768.56,139.77,347.44,0.311584,100,1
2964528,2,35604,1,48387,52122,48241.52,51769.27,145.48,352.73,0.3116,100,1
2964568,2,35644,1,48384,52120,48241.81,51769.97,142.19,350.03,0.311618,100,1
2964608,2,35684,1,48389,52147,48242.11,51770.72,146.89,376.28,0.311638,100,1
2964648,2,35724,1,48399,52186,48242.42,51771.55,156.58,414.45,0.311659,100,1
2964688,2,35764,1,48418,52237,48242.77,51772.49,175.23,464.51,0.311682,100,1
2964728,2,35804,1,48441,52288,48243.17,51773.52,197.83,514.48,0.311709,100,1
2964768,2,35844,1,48458,52335,48243.6,51774.64,214.4,560.36,0.311738,100,1
2964808,2,35884,1,48473,52379,48244.06,51775.86,228.94,603.14,0.311771,100,1
2964848,2,35924,1,48489,52419,48244.55,51777.14,244.45,641.86,0.311809,100,1
2964888,2,35964,1,48503,52455,48245.07,51778.5,257.93,676.5,0.31185,100,1
2964929,2,36005,1,48516,52490,48245.62,51779.93,270.38,710.07,0.311896,100,1
2964969,2,36045,1,48533,52531,48246.19,51781.43,286.81,749.57,0.311947,100,1
2965009,2,36085,1,48546,52582,48246.79,51783.03,299.21,798.97,0.312004,100,1
2965049,2,36125,1,48563,52635,48247.43,51784.74,315.57,850.26,0.312065,100,1
2965089,2,36165,1,48584,52662,48248.1,51786.5,335.9,875.5,0.312133,100,1
2965129,2,36205,1,48576,52567,48248.76,51788.06,327.24,778.94,0.312208,100,1
2965169,2,36245,1,48512,52417,48249.29,51789.32,262.71,627.68,0.312288,100,1
2965209,2,36285,1,48459,52336,48249.71,51790.41,209.29,545.59,0.31237,100,1
2965249,2,36325,1,48441,52323,48250.09,51791.48,190.91,531.52,0.312453,100,1
2965289,2,36365,1,48450,52334,48250.49,51792.56,199.51,541.44,0.312538,100,1
2965329,2,36405,1,48453,52340,48250.9,51793.66,202.1,546.34,0.312624,100,1
2965369,2,36445,1,48455,52365,48251.31,51794.8,203.69,570.2,0.312711,100,1
2965409,2,36485,1,48464,52386,48251.73,51795.99,212.27,590.01,0.312799,100,1
2965449,2,36525,1,48466,52379,48252.16,51797.16,213.84,581.84,0.31289,100,1
2965489,2,36565,1,48464,52372,48252.59,51798.31,211.41,573.69,0.312981,100,1
2965529,2,36605,1,48463,52389,48253.01,51799.49,209.99,589.51,0.313074,100,1
2965569,2,36645,1,48473,52425,48253.45,51800.75,219.55,624.25,0.313168,100,1
2965609,2,36685,1,48484,52460,48253.91,51802.07,230.09,657.93,0.313262,100,1
2965649,2,36725,1,48500,52507,48254.41,51803.48,245.59,703.52,0.313358,100,1
2965690,2,36766,1,48521,52547,48254.94,51804.96,266.06,742.04,0.313456,100,1
2965730,2,36806,1,48536,52581,48255.5,51806.52,280.5,774.48,0.313556,100,1
2965770,2,36846,1,48542,52620,48256.08,51808.15,285.92,811.85,0.313658,100,1
2965810,2,36886,1,48555,52650,48256.68,51809.83,298.32,840.17,0.313762,100,1
2965850,2,36926,1,48570,52679,48257.3,51811.57,312.7,867.43,0.313868,100,1
2965890,2,36966,1,48582,52713,48257.96,51813.37,324.04,899.62,0.313977,100,1
2965930,2,37006,1,48597,52755,48258.64,51815.26,338.36,939.74,0.314088,100,1
2965970,2,37046,1,48614,52799,48259.35,51817.23,354.65,981.77,0.314202,100,1
2966010,2,37086,1,48633,52819,48260.1,51819.23,372.9,999.77,0.31432,100,1
2966050,2,37126,1,48612,52708,48260.8,51821.01,351.2,886.99,0.314443,100,1
2966090,2,37166,1,48549,52555,48261.38,51822.48,287.62,732.52,0.314569,100,1
2966130,2,37206,1,48500,52476,48261.86,51823.79,238.14,652.21,0.314696,100,1
2966170,2,37246,1,48485,52465,48262.3,51825.07,222.7,639.93,0.314823,100,1
2966210,2,37286,1,48486,52469,48262.75,51826.36,223.25,642.64,0.31495,100,1
2966250,2,37326,1,48485,52463,48263.2,51827.63,221.8,635.37,0.315078,100,1
2966290,2,37366,1,48485,52478,48263.64,51828.93,221.36,649.07,0.315205,100,1
2966330,2,37406,1,48493,52486,48264.11,51830.25,228.89,655.75,0.315332,100,1
2966370,2,37446,1,48488,52474,48264.55,51831.54,223.45,642.46,0.31546,100,1
2966410,2,37486,1,48479,52460,48264.98,51832.8,214.02,627.2,0.315588,100,1
2966450,2,37526,1,48476,52468,48265.41,51834.07,210.59,633.93,0.315715,100,1
2966491,2,37567,1,48487,52498,48265.85,51835.4,221.15,662.6,0.315842,100,1
2966531,2,37607,1,48496,52527,48266.31,51836.78,229.69,690.22,0.315969,100,1
2966571,2,37647,1,48511,52567,48266.8,51838.24,244.2,728.76,0.316095,100,1
2966611,2,37687,1,48526,52606,48267.32,51839.78,258.68,766.22,0.316221,100,1
2966651,2,37727,1,48542,52635,48267.87,51841.37,274.12,793.63,0.316347,100,1
2966691,2,37767,1,48551,52662,48268.44,51843.01,282.56,818.99,0.316474,100,1
2966731,2,37807,1,48567,52687,48269.04,51844.7,297.96,842.3,0.316602,100,1
2966771,2,37847,1,48575,52721,48269.65,51846.45,305.35,874.55,0.31673,100,1
2966811,2,37887,1,48587,52756,48270.29,51848.27,316.71,907.73,0.316859,100,1
2966851,2,37927,1,48603,52789,48270.96,51850.16,332.04,938.84,0.316988,100,1
2966891,2,37967,1,48622,52822,48271.66,51852.1,350.34,969.9,0.31712,100,1
2966931,2,38007,1,48629,52778,48272.37,51853.95,356.62,924.05,0.317255,100,1
2966971,2,38047,1,48579,52625,48272.99,51855.5,306.01,769.5,0.317392,100,1
2967011,2,38087,1,48510,52495,48273.46,51856.78,236.54,638.22,0.31753,100,1
2967051,2,38127,1,48472,52447,48273.86,51857.96,198.14,589.04,0.317668,100,1
2967091,2,38167,1,48464,52433,48274.25,51859.11,189.75,573.89,0.317805,100,1
2967131,2,38207,1,48463,52427,48274.62,51860.25,188.37,566.75,0.317942,100,1
2967171,2,38247,1,48462,52425,48275,51861.38,187,563.62,0.318078,100,1
2967211,2,38287,1,48461,52439,48275.37,51862.54,185.62,576.46,0.318213,100,1
2967251,2,38327,1,48462,52432,48275.75,51863.68,186.25,568.32,0.318347,100,1
2967292,2,38368,1,48457,52415,48276.11,51864.78,180.89,550.22,0.318481,100,1
2967332,2,38408,1,48449,52407,48276.46,51865.87,172.54,541.13,0.318614,100,1
2967372,2,38448,1,48451,52429,48276.81,51867,174.19,562,0.318747,100,1
2967412,2,38488,1,48460,52461,48277.18,51868.18,182.82,592.82,0.318877,100,1
2967452,2,38528,1,48477,52495,48277.58,51869.44,199.42,625.56,0.319007,100,1
2967492,2,38568,1,48497,52532,48278.02,51870.77,218.98,661.23,0.319137,100,1
2967532,2,38608,1,48511,52568,48278.49,51872.16,232.51,695.84,0.319266,100,1
2967572,2,38648,1,48523,52597,48278.98,51873.61,244.02,723.39,0.319394,100,1
2967612,2,38688,1,48531,52624,48279.49,51875.11,251.51,748.89,0.319522,100,1
2967652,2,38728,1,48545,52650,48280.02,51876.66,264.98,773.34,0.31965,100,1
2967692,2,38768,1,48556,52669,48280.57,51878.25,275.43,790.75,0.319779,100,1
2967732,2,38808,1,48571,52695,48281.16,51879.89,289.84,815.11,0.319907,100,1
2967772,2,38848,1,48584,52731,48281.76,51881.59,302.24,849.41,0.320037,100,1
2967812,2,38888,1,48600,52763,48282.4,51883.36,317.6,879.64,0.320167,100,1
2967852,2,38928,1,48594,52686,48283.02,51884.96,310.98,801.04,0.3203,100,1
2967892,2,38968,1,48539,52509,48283.54,51886.21,255.46,622.79,0.320435,100,1
2967932,2,39008,1,48464,52378,48283.9,51887.2,180.1,490.8,0.32057,100,1
2967972,2,39048,1,48426,52327,48284.18,51888.08,141.82,438.92,0.320704,100,1
2968012,2,39088,1,48416,52313,48284.45,51888.93,131.55,424.07,0.320838,100,1
2968052,2,39128,1,48409,52296,48284.7,51889.75,124.3,406.25,0.320971,100,1
2968093,2,39169,1,48404,52300,48284.94,51890.57,119.06,409.43,0.321102,100,1
2968133,2,39209,1,48408,52306,48285.18,51891.4,122.82,414.6,0.321233,100,1
2968173,2,39249,1,48403,52296,48285.42,51892.21,117.58,403.79,0.321363,100,1
2968213,2,39289,1,48395,52285,48285.64,51892.99,109.36,392.01,0.321492,100,1
2968253,2,39329,1,48390,52282,48285.85,51893.77,104.15,388.23,0.321619,100,1
2968293,2,39369,1,48400,52304,48286.08,51894.59,113.92,409.41,0.321746,100,1
2968333,2,39409,1,48414,52341,48286.34,51895.49,127.66,445.51,0.321871,100,1
2968373,2,39449,1,48429,52382,48286.62,51896.46,142.37,485.54,0.321995,100,1
2968413,2,39489,1,48445,52418,48286.94,51897.5,158.06,520.5,0.322118,100,1
2968453,2,39529,1,48464,52449,48287.3,51898.61,176.7,550.39,0.322241,100,1
2968493,2,39569,1,48478,52472,48287.68,51899.76,190.32,572.24,0.322362,100,1
2968533,2,39609,1,48491,52495,48288.09,51900.95,202.91,594.05,0.322484,100,1
2968573,2,39649,1,48500,52522,48288.51,51902.19,211.49,619.81,0.322605,100,1
2968613,2,39689,1,48510,52546,48288.96,51903.48,221.04,642.52,0.322727,100,1
2968653,2,39729,1,48521,52575,48289.42,51904.82,231.58,670.18,0.322848,100,1
2968693,2,39769,1,48536,52609,48289.92,51906.23,246.08,702.77,0.322969,100,1
2968733,2,39809,1,48550,52640,48290.44,51907.7,259.56,732.3,0.323091,100,1
2968773,2,39849,1,48543,52571,48290.95,51909.03,252.05,661.97,0.323214,100,1
2968813,2,39889,1,48488,52390,48291.34,51910,196.66,480,0.323338,100,1
2968853,2,39929,1,48410,52232,48291.58,51910.64,118.42,321.36,0.323462,100,1
2968894,2,39970,1,48365,52161,48291.73,51911.14,73.27,249.86,0.323586,100,1
2968934,2,40010,1,48350,52148,48291.84,51911.62,58.16,236.38,0.323708,100,1
2968974,2,40050,1,48341,52136,48291.94,51912.07,49.06,223.93,0.32383,100,1
2969014,2,40090,1,48334,52140,48292.03,51912.53,41.97,227.47,0.323951,100,1
2969054,2,40130,1,48347,52153,48292.14,51913.01,54.86,239.99,0.324072,100,1
2969094,2,40170,1,48350,52149,48292.25,51913.48,57.75,235.52,0.324191,100,1
2969134,2,40210,1,48345,52134,48292.36,51913.92,52.64,220.08,0.32431,100,1
2969174,2,40250,1,48337,52137,48292.45,51914.37,44.55,222.63,0.324428,100,1
2969214,2,40290,1,48346,52159,48292.56,51914.86,53.44,244.14,0.324545,100,1
2969254,2,40330,1,48367,52192,48292.71,51915.42,74.29,276.58,0.324661,100,1
2969294,2,40370,1,48390,52236,48292.9,51916.06,97.1,319.94,0.324777,100,1
2969334,2,40410,1,48405,52264,48293.13,51916.75,111.87,347.25,0.324892,100,1
2969374,2,40450,1,48417,52301,48293.38,51917.52,123.62,383.48,0.325006,100,1
2969414,2,40490,1,48429,52327,48293.65,51918.34,135.35,408.66,0.325121,100,1
2969454,2,40530,1,48443,52353,48293.95,51919.21,149.05,433.79,0.325235,100,1
2969494,2,40570,1,48454,52373,48294.27,51920.12,159.73,452.87,0.325348,100,1
2969534,2,40610,1,48466,52404,48294.62,51921.09,171.38,482.91,0.325462,100,1
2969574,2,40650,1,48472,52428,48294.97,51922.11,177.03,505.89,0.325576,100,1
2969614,2,40690,1,48485,52462,48295.36,51923.19,189.64,538.81,0.32569,100,1
2969655,2,40731,1,48499,52494,48295.77,51924.34,203.23,569.66,0.325805,100,1
2969695,2,40771,1,48515,52526,48296.21,51925.54,218.79,600.46,0.325919,100,1
2969735,2,40811,1,48510,52449,48296.64,51926.59,213.36,522.41,0.326036,100,1
2969775,2,40851,1,48444,52258,48296.93,51927.25,147.07,330.75,0.326153,100,1
2969815,2,40891,1,48362,52087,48297.07,51927.57,64.93,159.43,0.326271,100,1
2969855,2,40931,1,48320,52016,48297.11,51927.75,22.89,88.25,0.326387,100,1
2969895,2,40971,1,48312,52009,48297.14,51927.91,14.86,81.09,0.326504,100,1
2969935,2,41011,1,48307,51999,48297.16,51928.06,9.84,70.94,0.32662,100,1
2969975,2,41051,1,48305,52007,48297.18,51928.22,7.82,78.78,0.326735,100,1
2970015,2,41091,1,48316,52022,48297.22,51928.41,18.78,93.59,0.32685,100,1
2970055,2,41131,1,48324,52016,48297.27,51928.58,26.73,87.42,0.326965,100,1
2970095,2,41171,1,48318,51997,48297.32,51928.72,20.68,68.28,0.32708,100,1
2970135,2,41211,1,48315,51994,48297.35,51928.85,17.65,65.15,0.327194,100,1
2970175,2,41251,1,48319,52018,48297.39,51929.03,21.61,88.97,0.327307,100,1
2970215,2,41291,1,48333,52059,48297.47,51929.29,35.53,129.71,0.32742,100,1
2970255,2,41331,1,48355,52097,48297.59,51929.63,57.41,167.37,0.327533,100,1
2970295,2,41371,1,48367,52137,48297.73,51930.05,69.27,206.95,0.327646,100,1
2970335,2,41411,1,48382,52168,48297.89,51930.52,84.11,237.48,0.327758,100,1
2970375,2,41451,1,48391,52193,48298.08,51931.05,92.92,261.95,0.32787,100,1
2970415,2,41491,1,48402,52219,48298.29,51931.63,103.71,287.37,0.327982,100,1
2970456,2,41532,1,48419,52249,48298.54,51932.27,120.46,316.73,0.328094,100,1
2970496,2,41572,1,48424,52279,48298.79,51932.96,125.21,346.04,0.328206,100,1
2970536,2,41612,1,48434,52313,48299.06,51933.72,134.94,379.28,0.328318,100,1
2970576,2,41652,1,48446,52345,48299.36,51934.55,146.64,410.45,0.32843,100,1
2970616,2,41692,1,48464,52381,48299.69,51935.44,164.31,445.56,0.328542,100,1
2970656,2,41732,1,48482,52424,48300.06,51936.42,181.94,487.58,0.328655,100,1
2970696,2,41772,1,48494,52409,48300.45,51937.36,193.55,471.64,0.32877,100,1
2970736,2,41812,1,48454,52233,48300.76,51937.96,153.24,295.04,0.328886,100,1
2970776,2,41852,1,48365,52020,48300.89,51938.12,64.11,81.88,0.329003,100,1
2970816,2,41892,1,48302,51907,48300.89,51938.06,1.11,-31.06,0.329119,100,1
2970856,2,41932,1,48284,51885,48300.86,51937.95,-16.86,-52.95,0.329235,100,1
2970896,2,41972,1,48281,51875,48300.82,51937.83,-19.82,-62.83,0.32935,100,1
2970936,2,42012,1,48273,51875,48300.77,51937.7,-27.77,-62.7,0.329466,100,1
2970976,2,42052,1,48280,51898,48300.73,51937.62,-20.73,-39.63,0.329581,100,1
2971016,2,42092,1,48289,51909,48300.7,51937.57,-11.7,-28.57,0.329695,100,1
2971056,2,42132,1,48291,51892,48300.68,51937.48,-9.68,-45.48,0.32981,100,1
2971096,2,42172,1,48280,51878,48300.64,51937.36,-20.64,-59.36,0.329923,100,1
2971136,2,42212,1,48278,51898,48300.6,51937.29,-22.6,-39.29,0.330037,100,1
2971176,2,42252,1,48293,51936,48300.59,51937.29,-7.59,-1.29,0.33015,100,1
2971217,2,42293,1,48312,51981,48300.61,51937.37,11.39,43.63,0.330263,100,1
2971257,2,42333,1,48333,52022,48300.68,51937.55,32.32,84.45,0.330376,100,1
2971297,2,42373,1,48346,52069,48300.77,51937.81,45.23,131.19,0.330488,100,1
2971337,2,42413,1,48359,52103,48300.89,51938.14,58.11,164.86,0.3306,100,1
2971377,2,42453,1,48375,52134,48301.04,51938.54,73.96,195.46,0.330712,100,1
2971417,2,42493,1,48391,52165,48301.21,51938.99,89.79,226.01,0.330824,100,1
2971457,2,42533,1,48401,52198,48301.41,51939.51,99.59,258.49,0.330936,100,1
2971497,2,42573,1,48417,52236,48301.65,51940.11,115.35,295.89,0.331049,100,1
2971537,2,42613,1,48431,52271,48301.91,51940.77,129.09,330.23,0.331161,100,1
2971577,2,42653,1,48450,52305,48302.21,51941.5,147.79,363.5,0.331275,100,1
2971617,2,42693,1,48472,52346,48302.55,51942.31,169.45,403.69,0.33139,100,1
2971657,2,42733,1,48488,52369,48302.92,51943.16,185.08,425.84,0.331508,100,1
2971697,2,42773,1,48469,52246,48303.25,51943.77,165.75,302.23,0.331628,100,1
2971737,2,42813,1,48385,52008,48303.41,51943.9,81.59,64.1,0.33175,100,1
2971777,2,42853,1,48302,51840,48303.41,51943.69,-1.41,-103.69,0.331871,100,1
2971817,2,42893,1,48261,51784,48303.33,51943.37,-42.33,-159.37,0.331991,100,1
2971857,2,42933,1,48250,51777,48303.23,51943.04,-53.23,-166.04,0.332111,100,1
2971897,2,42973,1,48245,51773,48303.11,51942.7,-58.11,-169.7,0.33223,100,1
2971937,2,43013,1,48243,51787,48303,51942.39,-60,-155.39,0.332349,100,1
2971977,2,43053,1,48256,51803,48302.9,51942.12,-46.9,-139.12,0.332468,100,1
2972018,2,43094,1,48258,51798,48302.81,51941.83,-44.81,-143.83,0.332586,100,1
2972058,2,43134,1,48254,51790,48302.71,51941.53,-48.71,-151.53,0.332704,100,1
2972098,2,43174,1,48249,51800,48302.61,51941.25,-53.61,-141.25,0.332821,100,1
2972138,2,43214,1,48257,51834,48302.52,51941.04,-45.52,-107.04,0.332939,100,1
2972178,2,43254,1,48274,51882,48302.46,51940.92,-28.46,-58.92,0.333056,100,1
2972218,2,43294,1,48301,51938,48302.46,51940.91,-1.46,-2.91,0.333173,100,1
2972258,2,43334,1,48322,51987,48302.5,51941.01,19.5,45.99,0.333289,100,1
2972298,2,43374,1,48341,52025,48302.58,51941.18,38.42,83.82,0.333405,100,1
2972338,2,43414,1,48356,52059,48302.69,51941.41,53.31,117.59,0.333522,100,1
2972378,2,43454,1,48374,52085,48302.84,51941.7,71.16,143.3,0.333638,100,1
2972418,2,43494,1,48388,52113,48303.01,51942.05,84.99,170.95,0.333755,100,1
2972458,2,43534,1,48403,52141,48303.21,51942.45,99.79,198.55,0.333873,100,1
2972498,2,43574,1,48413,52178,48303.43,51942.92,109.57,235.08,0.333992,100,1
2972538,2,43614,1,48425,52209,48303.68,51943.45,121.32,265.55,0.334112,100,1
2972578,2,43654,1,48445,52244,48303.96,51944.05,141.04,299.95,0.334233,100,1
2972618,2,43694,1,48458,52279,48304.27,51944.73,153.73,334.27,0.334357,100,1
2972658,2,43734,1,48457,52211,48304.58,51945.26,152.42,265.74,0.334484,100,1
2972698,2,43774,1,48391,51981,48304.76,51945.34,86.24,35.66,0.334613,100,1
2972738,2,43814,1,48289,51764,48304.73,51944.98,-15.73,-180.98,0.33474,100,1
2972779,2,43855,1,48227,51675,48304.57,51944.44,-77.57,-269.44,0.334866,100,1
2972819,2,43895,1,48212,51674,48304.39,51943.9,-92.39,-269.9,0.334992,100,1
2972859,2,43935,1,48211,51673,48304.21,51943.36,-93.21,-270.36,0.335117,100,1
2972899,2,43975,1,48211,51684,48304.02,51942.84,-93.02,-258.84,0.335242,100,1
2972939,2,44015,1,48221,51711,48303.86,51942.38,-82.86,-231.38,0.335366,100,1
2972979,2,44055,1,48236,51721,48303.73,51941.94,-67.73,-220.94,0.33549,100,1
2973019,2,44095,1,48229,51708,48303.58,51941.48,-74.58,-233.48,0.335613,100,1
2973059,2,44135,1,48227,51715,48303.43,51941.02,-76.43,-226.02,0.335736,100,1
2973099,2,44175,1,48233,51747,48303.29,51940.64,-70.29,-193.64,0.335858,100,1
2973139,2,44215,1,48257,51792,48303.2,51940.34,-46.2,-148.34,0.33598,100,1
2973179,2,44255,1,48280,51845,48303.15,51940.15,-23.15,-95.15,0.336102,100,1
2973219,2,44295,1,48306,51895,48303.16,51940.06,2.84,-45.06,0.336222,100,1
2973259,2,44335,1,48324,51934,48303.2,51940.05,20.8,-6.05,0.336343,100,1
2973299,2,44375,1,48334,51966,48303.26,51940.11,30.74,25.89,0.336464,100,1
2973339,2,44415,1,48349,51990,48303.36,51940.21,45.64,49.79,0.336584,100,1
2973379,2,44455,1,48361,52017,48303.47,51940.36,57.53,76.64,0.336705,100,1
2973419,2,44495,1,48372,52044,48303.61,51940.57,68.39,103.43,0.336827,100,1
2973459,2,44535,1,48382,52075,48303.77,51940.84,78.23,134.16,0.336949,100,1
2973499,2,44575,1,48397,52111,48303.95,51941.18,93.05,169.82,0.337073,100,1
2973539,2,44615,1,48409,52143,48304.16,51941.59,104.84,201.41,0.337198,100,1
2973580,2,44656,1,48427,52185,48304.41,51942.07,122.59,242.93,0.337324,100,1
2973620,2,44696,1,48437,52190,48304.68,51942.57,132.32,247.43,0.337454,100,1
2973660,2,44736,1,48408,52022,48304.88,51942.73,103.12,79.27,0.337586,100,1
2973700,2,44776,1,48313,51763,48304.9,51942.37,8.1,-179.37,0.337716,100,1
2973740,2,44816,1,48222,51611,48304.73,51941.71,-82.73,-330.71,0.337844,100,1
2973780,2,44856,1,48194,51589,48304.52,51941.01,-110.52,-352.01,0.33797,100,1
2973820,2,44896,1,48190,51600,48304.29,51940.33,-114.29,-340.33,0.338095,100,1
2973860,2,44936,1,48195,51606,48304.07,51939.66,-109.07,-333.66,0.33822,100,1
2973900,2,44976,1,48205,51639,48303.87,51939.06,-98.87,-300.06,0.338344,100,1
2973940,2,45016,1,48224,51665,48303.71,51938.51,-79.71,-273.51,0.338466,100,1
2973980,2,45056,1,48229,51654,48303.57,51937.95,-74.57,-283.95,0.338587,100,1
2974020,2,45096,1,48222,51646,48303.41,51937.36,-81.41,-291.36,0.338706,100,1
2974060,2,45136,1,48225,51662,48303.25,51936.81,-78.25,-274.81,0.338824,100,1
2974100,2,45176,1,48235,51706,48303.11,51936.35,-68.11,-230.35,0.338941,100,1
2974140,2,45216,1,48261,51759,48303.03,51936,-42.03,-177,0.339056,100,1
2974180,2,45256,1,48281,51816,48302.99,51935.76,-21.99,-119.76,0.339172,100,1
2974220,2,45296,1,48299,51852,48302.98,51935.59,-3.98,-83.59,0.339286,100,1
2974260,2,45336,1,48312,51888,48303,51935.5,9,-47.5,0.3394,100,1
2974300,2,45376,1,48325,51921,48303.05,51935.47,21.95,-14.47,0.339514,100,1
2974341,2,45417,1,48340,51942,48303.12,51935.49,36.88,6.51,0.339628,100,1
2974381,2,45457,1,48348,51977,48303.21,51935.57,44.79,41.43,0.339742,100,1
2974421,2,45497,1,48363,52010,48303.33,51935.72,59.67,74.28,0.339857,100,1
2974461,2,45537,1,48373,52045,48303.47,51935.94,69.53,109.06,0.339972,100,1
2974501,2,45577,1,48390,52080,48303.65,51936.23,86.35,143.77,0.340089,100,1
2974541,2,45617,1,48407,52122,48303.86,51936.6,103.14,185.4,0.340208,100,1
2974581,2,45657,1,48422,52164,48304.09,51937.06,117.91,226.94,0.340329,100,1
2974621,2,45697,1,48430,52128,48304.35,51937.44,125.65,190.56,0.340454,100,1
2974661,2,45737,1,48380,51904,48304.5,51937.37,75.5,-33.38,0.34058,100,1
2974701,2,45777,1,48276,51651,48304.45,51936.8,-28.45,-285.8,0.340702,100,1
2974741,2,45817,1,48201,51537,48304.24,51936.01,-103.24,-399.01,0.340821,100,1
2974781,2,45857,1,48182,51538,48304,51935.21,-122,-397.21,0.340938,100,1
2974821,2,45897,1,48187,51548,48303.76,51934.44,-116.76,-386.44,0.341052,100,1
2974861,2,45937,1,48189,51553,48303.54,51933.68,-114.54,-380.68,0.341165,100,1
2974901,2,45977,1,48197,51589,48303.32,51932.99,-106.32,-343.99,0.341275,100,1
2974941,2,46017,1,48215,51607,48303.15,51932.34,-88.15,-325.34,0.341384,100,1
2974981,2,46057,1,48212,51591,48302.97,51931.66,-90.97,-340.66,0.34149,100,1
2975021,2,46097,1,48204,51588,48302.77,51930.97,-98.77,-342.97,0.341595,100,1
2975061,2,46137,1,48203,51614,48302.57,51930.34,-99.57,-316.34,0.341698,100,1
2975102,2,46178,1,48221,51664,48302.41,51929.81,-81.41,-265.81,0.3418,100,1
2975142,2,46218,1,48249,51716,48302.31,51929.38,-53.31,-213.38,0.3419,100,1
2975182,2,46258,1,48265,51769,48302.23,51929.06,-37.23,-160.06,0.342,100,1
2975222,2,46298,1,48282,51818,48302.2,51928.84,-20.2,-110.84,0.342099,100,1
2975262,2,46338,1,48304,51852,48302.2,51928.69,1.8,-76.69,0.342198,100,1
2975302,2,46378,1,48315,51877,48302.23,51928.59,12.77,-51.59,0.342296,100,1
2975342,2,46418,1,48329,51913,48302.28,51928.55,26.72,-15.55,0.342394,100,1
2975382,2,46458,1,48340,51951,48302.36,51928.6,37.64,22.4,0.342493,100,1
2975422,2,46498,1,48360,51985,48302.48,51928.71,57.52,56.29,0.342592,100,1
2975462,2,46538,1,48378,52021,48302.63,51928.9,75.37,92.1,0.342692,100,1
2975502,2,46578,1,48397,52056,48302.82,51929.16,94.18,126.84,0.342795,100,1
2975542,2,46618,1,48414,52096,48303.04,51929.49,110.96,166.51,0.342902,100,1
2975582,2,46658,1,48426,52113,48303.29,51929.86,122.71,183.14,0.343012,100,1
2975622,2,46698,1,48406,51964,48303.5,51929.93,102.5,34.07,0.343126,100,1
2975662,2,46738,1,48307,51673,48303.5,51929.42,3.5,-256.42,0.343237,100,1
2975702,2,46778,1,48207,51483,48303.31,51928.53,-96.31,-445.53,0.343341,100,1
2975742,2,46818,1,48156,51439,48303.02,51927.55,-147.02,-488.55,0.343441,100,1
2975782,2,46858,1,48152,51451,48302.72,51926.6,-150.72,-475.6,0.343539,100,1
2975822,2,46898,1,48158,51458,48302.43,51925.66,-144.43,-467.66,0.343635,100,1
2975863,2,46939,1,48159,51481,48302.14,51924.77,-143.14,-443.77,0.343729,100,1
2975903,2,46979,1,48173,51512,48301.89,51923.95,-128.89,-411.95,0.343821,100,1
2975943,2,47019,1,48180,51514,48301.64,51923.13,-121.64,-409.13,0.34391,100,1
2975983,2,47059,1,48174,51504,48301.39,51922.29,-127.39,-418.29,0.343998,100,1
2976023,2,47099,1,48174,51517,48301.14,51921.48,-127.14,-404.48,0.344083,100,1
2976063,2,47139,1,48191,51564,48300.92,51920.77,-109.92,-356.77,0.344168,100,1
2976103,2,47179,1,48215,51627,48300.75,51920.18,-85.75,-293.18,0.344251,100,1
2976143,2,47219,1,48238,51691,48300.62,51919.73,-62.62,-228.73,0.344332,100,1
2976183,2,47259,1,48261,51739,48300.54,51919.37,-39.54,-180.37,0.344413,100,1
2976223,2,47299,1,48284,51775,48300.51,51919.08,-16.51,-144.08,0.344492,100,1
2976263,2,47339,1,48302,51808,48300.52,51918.86,1.48,-110.86,0.344571,100,1
2976303,2,47379,1,48316,51834,48300.55,51918.69,15.45,-84.69,0.344649,100,1
2976343,2,47419,1,48327,51865,48300.6,51918.58,26.4,-53.58,0.344727,100,1
2976383,2,47459,1,48338,51900,48300.68,51918.55,37.32,-18.55,0.344806,100,1
2976423,2,47499,1,48353,51927,48300.78,51918.57,52.22,8.43,0.344885,100,1
2976463,2,47539,1,48371,51962,48300.92,51918.66,70.08,43.34,0.344966,100,1
2976503,2,47579,1,48383,52000,48301.09,51918.82,81.91,81.18,0.345049,100,1
2976543,2,47619,1,48398,52042,48301.28,51919.07,96.72,122.93,0.345135,100,1
2976583,2,47659,1,48406,51996,48301.49,51919.22,104.51,76.78,0.345226,100,1
2976623,2,47699,1,48343,51742,48301.58,51918.87,41.42,-176.87,0.345315,100,1
2976664,2,47740,1,48223,51465,48301.42,51917.96,-78.42,-452.96,0.345396,100,1
2976704,2,47780,1,48138,51352,48301.1,51916.84,-163.1,-564.84,0.345471,100,1
2976744,2,47820,1,48118,51357,48300.73,51915.72,-182.73,-558.72,0.345545,100,1
2976784,2,47860,1,48125,51370,48300.38,51914.63,-175.38,-544.63,0.345617,100,1
2976824,2,47900,1,48128,51377,48300.04,51913.55,-172.04,-536.55,0.345687,100,1
2976864,2,47940,1,48138,51421,48299.71,51912.57,-161.71,-491.57,0.345755,100,1
2976904,2,47980,1,48154,51444,48299.43,51911.63,-145.43,-467.63,0.345822,100,1
2976944,2,48020,1,48152,51436,48299.13,51910.68,-147.13,-474.68,0.345886,100,1
2976984,2,48060,1,48155,51434,48298.85,51909.73,-143.85,-475.73,0.345949,100,1
2977024,2,48100,1,48164,51463,48298.58,51908.84,-134.58,-445.84,0.346008,100,1
2977064,2,48140,1,48185,51511,48298.35,51908.05,-113.35,-397.05,0.346066,100,1
2977104,2,48180,1,48209,51577,48298.18,51907.39,-89.18,-330.39,0.346122,100,1
2977144,2,48220,1,48232,51626,48298.04,51906.82,-66.04,-280.82,0.346175,100,1
2977184,2,48260,1,48248,51663,48297.95,51906.34,-49.95,-243.34,0.346227,100,1
2977224,2,48300,1,48264,51696,48297.88,51905.92,-33.88,-209.92,0.346277,100,1
2977264,2,48340,1,48280,51721,48297.84,51905.55,-17.84,-184.55,0.346326,100,1
2977304,2,48380,1,48286,51752,48297.82,51905.25,-11.82,-153.25,0.346373,100,1
2977344,2,48420,1,48300,51785,48297.82,51905.01,2.18,-120.01,0.346419,100,1
2977384,2,48460,1,48308,51807,48297.85,51904.82,10.15,-97.82,0.346465,100,1
2977425,2,48501,1,48323,51843,48297.9,51904.7,25.1,-61.7,0.346511,100,1
2977465,2,48541,1,48334,51879,48297.97,51904.64,36.03,-25.64,0.346557,100,1
2977505,2,48581,1,48350,51924,48298.08,51904.68,51.92,19.32,0.346604,100,1
2977545,2,48621,1,48367,51952,48298.22,51904.78,68.78,47.22,0.346653,100,1
2977585,2,48661,1,48354,51816,48298.33,51904.61,55.67,-88.61,0.346703,100,1
2977625,2,48701,1,48260,51518,48298.26,51903.83,-38.26,-385.83,0.346746,100,1
2977665,2,48741,1,48136,51299,48297.93,51902.62,-161.93,-603.62,0.346783,100,1
2977705,2,48781,1,48085,51248,48297.51,51901.32,-212.51,-653.32,0.346818,100,1
2977745,2,48821,1,48084,51274,48297.08,51900.06,-213.08,-626.06,0.346854,100,1
2977785,2,48861,1,48097,51281,48296.68,51898.82,-199.68,-617.82,0.346889,100,1
2977825,2,48901,1,48099,51299,48296.29,51897.62,-197.29,-598.62,0.346923,100,1
2977865,2,48941,1,48114,51340,48295.93,51896.51,-181.93,-556.51,0.346956,100,1
2977905,2,48981,1,48126,51350,48295.59,51895.42,-169.59,-545.42,0.346988,100,1
2977945,2,49021,1,48121,51331,48295.24,51894.29,-174.24,-563.29,0.347018,100,1
2977985,2,49061,1,48117,51344,48294.88,51893.2,-177.88,-549.2,0.347048,100,1
2978025,2,49101,1,48127,51384,48294.55,51892.18,-167.55,-508.18,0.347077,100,1
2978065,2,49141,1,48147,51441,48294.25,51891.28,-147.25,-450.28,0.347105,100,1
2978105,2,49181,1,48171,51495,48294.01,51890.48,-123.01,-395.48,0.347133,100,1
2978145,2,49221,1,48188,51544,48293.8,51889.79,-105.8,-345.79,0.34716,100,1
2978186,2,49262,1,48205,51575,48293.62,51889.16,-88.62,-314.16,0.347186,100,1
2978226,2,49302,1,48216,51604,48293.47,51888.59,-77.47,-284.59,0.34721,100,1
2978266,2,49342,1,48230,51635,48293.34,51888.09,-63.34,-253.09,0.347234,100,1
2978306,2,49382,1,48243,51664,48293.25,51887.64,-50.25,-223.64,0.347256,100,1
2978346,2,49422,1,48248,51694,48293.16,51887.26,-45.16,-193.26,0.347278,100,1
2978386,2,49462,1,48262,51724,48293.09,51886.93,-31.09,-162.93,0.347298,100,1
2978426,2,49502,1,48280,51769,48293.07,51886.7,-13.07,-117.7,0.347319,100,1
2978466,2,49542,1,48292,51807,48293.07,51886.54,-1.07,-79.54,0.347338,100,1
2978506,2,49582,1,48311,51848,48293.11,51886.47,17.89,-38.47,0.347358,100,1
2978546,2,49622,1,48331,51878,48293.18,51886.45,37.82,-8.45,0.347378,100,1
2978586,2,49662,1,48322,51739,48293.24,51886.16,28.76,-147.16,0.347398,100,1
2978626,2,49702,1,48220,51426,48293.1,51885.24,-73.1,-459.24,0.347411,100,1
2978666,2,49742,1,48089,51194,48292.69,51883.86,-203.69,-689.86,0.34742,100,1
2978706,2,49782,1,48031,51134,48292.17,51882.36,-261.17,-748.36,0.347432,100,1
2978746,2,49822,1,48024,51145,48291.63,51880.89,-267.63,-735.89,0.347449,100,1
2978786,2,49862,1,48030,51146,48291.11,51879.42,-261.11,-733.42,0.347469,100,1
2978826,2,49902,1,48028,51160,48290.59,51877.98,-262.59,-717.98,0.347494,100,1
2978866,2,49942,1,48036,51201,48290.08,51876.63,-254.08,-675.63,0.347523,100,1
2978906,2,49982,1,48047,51203,48289.59,51875.28,-242.59,-672.28,0.347555,100,1
2978946,2,50022,1,48042,51188,48289.1,51873.91,-247.1,-685.91,0.34759,100,1
2978987,2,50063,1,48041,51197,48288.61,51872.55,-247.61,-675.55,0.347628,100,1
2979027,2,50103,1,48048,51238,48288.12,51871.29,-240.12,-633.29,0.347669,100,1
2979067,2,50143,1,48069,51301,48287.69,51870.14,-218.69,-569.14,0.347714,100,1
2979107,2,50183,1,48092,51359,48287.3,51869.12,-195.3,-510.12,0.347761,100,1
2979147,2,50223,1,48115,51405,48286.95,51868.2,-171.95,-463.2,0.347809,100,1
2979187,2,50263,1,48136,51439,48286.65,51867.34,-150.65,-428.34,0.347858,100,1
2979227,2,50303,1,48148,51473,48286.37,51866.55,-138.37,-393.55,0.347907,100,1
2979267,2,50343,1,48157,51503,48286.12,51865.83,-129.12,-362.83,0.347956,100,1
2979307,2,50383,1,48172,51533,48285.89,51865.16,-113.89,-332.16,0.348005,100,1
2979347,2,50423,1,48189,51563,48285.7,51864.56,-96.7,-301.56,0.348054,100,1
2979387,2,50463,1,48203,51593,48285.54,51864.02,-82.54,-271.02,0.348102,100,1
2979427,2,50503,1,48215,51627,48285.39,51863.55,-70.39,-236.55,0.34815,100,1
2979467,2,50543,1,48230,51664,48285.29,51863.15,-55.29,-199.15,0.348196,100,1
2979507,2,50583,1,48246,51706,48285.21,51862.84,-39.21,-156.84,0.348243,100,1
2979547,2,50623,1,48257,51719,48285.15,51862.55,-28.15,-143.55,0.348288,100,1
2979587,2,50663,1,48238,51557,48285.06,51861.94,-47.06,-304.94,0.348331,100,1
2979627,2,50703,1,48122,51235,48284.73,51860.69,-162.73,-625.69,0.348369,100,1
2979667,2,50743,1,48000,51023,48284.17,51859.01,-284.17,-836.01,0.348406,100,1
2979707,2,50783,1,47945,50977,48283.49,51857.25,-338.49,-880.25,0.348451,100,1
2979748,2,50824,1,47938,50991,48282.8,51855.52,-344.8,-864.52,0.348506,100,1
2979788,2,50864,1,47943,50990,48282.12,51853.79,-339.12,-863.79,0.348567,100,1
2979828,2,50904,1,47941,51021,48281.44,51852.12,-340.44,-831.12,0.348637,100,1
2979868,2,50944,1,47958,51073,48280.8,51850.57,-322.8,-777.57,0.348714,100,1
2979908,2,50984,1,47966,51078,48280.17,51849.02,-314.17,-771.02,0.348798,100,1
2979948,2,51024,1,47964,51068,48279.54,51847.46,-315.54,-779.46,0.348886,100,1
2979988,2,51064,1,47965,51089,48278.91,51845.95,-313.91,-756.95,0.348981,100,1
2980028,2,51104,1,47981,51141,48278.31,51844.54,-297.31,-703.54,0.349082,100,1
2980068,2,51144,1,48004,51204,48277.77,51843.25,-273.77,-639.25,0.349187,100,1
2980108,2,51184,1,48033,51261,48277.28,51842.09,-244.28,-581.09,0.349295,100,1
2980148,2,51224,1,48057,51304,48276.84,51841.02,-219.84,-537.02,0.349406,100,1
2980188,2,51264,1,48077,51334,48276.44,51840,-199.44,-506,0.349517,100,1
2980228,2,51304,1,48086,51374,48276.06,51839.07,-190.06,-465.07,0.34963,100,1
2980268,2,51344,1,48099,51405,48275.71,51838.21,-176.71,-433.21,0.349744,100,1
2980308,2,51384,1,48110,51433,48275.38,51837.4,-165.38,-404.4,0.349859,100,1
2980348,2,51424,1,48131,51469,48275.09,51836.66,-144.09,-367.66,0.349975,100,1
2980388,2,51464,1,48140,51504,48274.82,51836,-134.82,-332,0.350091,100,1
2980428,2,51504,1,48154,51538,48274.58,51835.41,-120.58,-297.41,0.350207,100,1
2980468,2,51544,1,48166,51579,48274.36,51834.89,-108.36,-255.89,0.350323,100,1
2980508,2,51584,1,48185,51623,48274.19,51834.47,-89.19,-211.47,0.35044,100,1
2980549,2,51625,1,48195,51618,48274.03,51834.04,-79.03,-216.04,0.350556,100,1
2980589,2,51665,1,48159,51412,48273.8,51833.2,-114.8,-421.2,0.350669,100,1
2980629,2,51705,1,48029,51113,48273.31,51831.76,-244.31,-718.76,0.350781,100,1
2980669,2,51745,1,47916,50960,48272.6,51830.02,-356.6,-870.02,0.350898,100,1
2980709,2,51785,1,47881,50950,48271.82,51828.26,-390.82,-878.26,0.351025,100,1
2980749,2,51825,1,47890,50970,48271.05,51826.55,-381.05,-856.55,0.351161,100,1
2980789,2,51865,1,47886,50975,48270.29,51824.84,-384.29,-849.84,0.351307,100,1
2980829,2,51905,1,47893,51024,48269.53,51823.24,-376.53,-799.24,0.351462,100,1
2980869,2,51945,1,47921,51077,48268.84,51821.75,-347.84,-744.75,0.351624,100,1
2980909,2,51985,1,47935,51081,48268.17,51820.27,-333.17,-739.27,0.351792,100,1
2980949,2,52025,1,47935,51080,48267.5,51818.79,-332.5,-738.79,0.351964,100,1
2980989,2,52065,1,47944,51113,48266.86,51817.38,-322.86,-704.38,0.352142,100,1
2981029,2,52105,1,47959,51169,48266.25,51816.08,-307.25,-647.08,0.352325,100,1
2981069,2,52145,1,47983,51236,48265.68,51814.92,-282.68,-578.92,0.352513,100,1
2981109,2,52185,1,48010,51295,48265.17,51813.88,-255.17,-518.88,0.352705,100,1
2981149,2,52225,1,48034,51336,48264.71,51812.93,-230.71,-476.93,0.352899,100,1
2981189,2,52265,1,48046,51377,48264.27,51812.06,-218.27,-435.06,0.353095,100,1
2981229,2,52305,1,48060,51414,48263.86,51811.27,-203.86,-397.27,0.353294,100,1
2981269,2,52345,1,48074,51452,48263.48,51810.55,-189.48,-358.55,0.353496,100,1
2981309,2,52385,1,48086,51488,48263.13,51809.9,-177.13,-321.9,0.353699,100,1
2981350,2,52426,1,48104,51529,48262.81,51809.34,-158.81,-280.34,0.353904,100,1
2981390,2,52466,1,48121,51572,48262.53,51808.87,-141.53,-236.87,0.35411,100,1
2981430,2,52506,1,48136,51618,48262.28,51808.49,-126.28,-190.49,0.354318,100,1
2981470,2,52546,1,48151,51667,48262.06,51808.21,-111.06,-141.21,0.354526,100,1
2981510,2,52586,1,48171,51722,48261.88,51808.04,-90.88,-86.04,0.354735,100,1
2981550,2,52626,1,48196,51749,48261.75,51807.92,-65.75,-58.92,0.354944,100,1
2981590,2,52666,1,48184,51640,48261.6,51807.59,-77.6,-167.59,0.355153,100,1
2981630,2,52706,1,48090,51375,48261.25,51806.72,-171.25,-431.72,0.355361,100,1
2981670,2,52746,1,47975,51188,48260.68,51805.49,-285.68,-617.49,0.355573,100,1
2981710,2,52786,1,47924,51149,48260.01,51804.18,-336.01,-655.18,0.355792,100,1
2981750,2,52826,1,47922,51158,48259.34,51802.88,-337.34,-644.88,0.356018,100,1
2981790,2,52866,1,47923,51150,48258.66,51801.58,-335.66,-651.58,0.356252,100,1
2981830,2,52906,1,47922,51175,48257.99,51800.33,-335.99,-625.33,0.356492,100,1
2981870,2,52946,1,47936,51224,48257.35,51799.18,-321.35,-575.18,0.356741,100,1
2981910,2,52986,1,47951,51244,48256.73,51798.07,-305.73,-554.07,0.356995,100,1
2981950,2,53026,1,47951,51237,48256.12,51796.95,-305.12,-559.95,0.357256,100,1
2981990,2,53066,1,47946,51262,48255.51,51795.87,-309.51,-533.87,0.357523,100,1
2982030,2,53106,1,47960,51310,48254.92,51794.91,-294.92,-484.91,0.357797,100,1
2982070,2,53146,1,47982,51373,48254.37,51794.06,-272.37,-421.06,0.358077,100,1
2982110,2,53186,1,48006,51426,48253.88,51793.33,-247.88,-367.33,0.358363,100,1
2982151,2,53227,1,48029,51475,48253.43,51792.69,-224.43,-317.69,0.358653,100,1
2982191,2,53267,1,48045,51520,48253.02,51792.15,-208.02,-272.15,0.358947,100,1
2982231,2,53307,1,48060,51561,48252.63,51791.69,-192.63,-230.69,0.359244,100,1
2982271,2,53347,1,48071,51598,48252.27,51791.3,-181.27,-193.3,0.359545,100,1
2982311,2,53387,1,48085,51639,48251.93,51791,-166.93,-152,0.359849,100,1
2982351,2,53427,1,48106,51679,48251.64,51790.77,-145.64,-111.77,0.360155,100,1
2982391,2,53467,1,48123,51729,48251.39,51790.65,-128.39,-61.65,0.360463,100,1
2982431,2,53507,1,48140,51781,48251.16,51790.63,-111.16,-9.63,0.360772,100,1
2982471,2,53547,1,48164,51830,48250.99,51790.71,-86.99,39.29,0.361081,100,1
2982511,2,53587,1,48188,51878,48250.87,51790.89,-62.87,87.11,0.36139,100,1
2982551,2,53627,1,48204,51857,48250.77,51791.02,-46.77,65.98,0.361698,100,1
2982591,2,53667,1,48154,51657,48250.58,51790.75,-96.58,-133.75,0.362006,100,1
2982631,2,53707,1,48039,51434,48250.16,51790.04,-211.16,-356.04,0.362318,100,1
2982671,2,53747,1,47967,51345,48249.59,51789.15,-282.59,-444.15,0.362635,100,1
2982711,2,53787,1,47947,51340,48248.99,51788.25,-301.99,-448.25,0.362961,100,1
2982751,2,53827,1,47948,51335,48248.39,51787.35,-300.39,-452.35,0.363295,100,1
2982791,2,53867,1,47937,51334,48247.77,51786.44,-310.77,-452.44,0.363637,100,1
2982831,2,53907,1,47947,51385,48247.16,51785.64,-300.16,-400.64,0.363989,100,1
2982871,2,53947,1,47968,51421,48246.61,51784.91,-278.61,-363.91,0.364348,100,1
2982912,2,53988,1,47974,51426,48246.06,51784.2,-272.06,-358.2,0.364714,100,1
2982952,2,54028,1,47971,51435,48245.51,51783.5,-274.51,-348.5,0.365088,100,1
2982992,2,54068,1,47975,51484,48244.97,51782.91,-269.97,-298.91,0.36547,100,1
2983032,2,54108,1,47999,51550,48244.48,51782.44,-245.48,-232.44,0.365859,100,1
2983072,2,54148,1,48028,51610,48244.05,51782.1,-216.05,-172.1,0.366253,100,1
2983112,2,54188,1,48054,51661,48243.67,51781.86,-189.67,-120.86,0.366653,100,1
2983152,2,54228,1,48076,51714,48243.33,51781.72,-167.33,-67.72,0.367055,100,1
2983192,2,54268,1,48095,51766,48243.04,51781.69,-148.04,-15.69,0.367461,100,1
2983232,2,54308,1,48111,51816,48242.77,51781.76,-131.77,34.24,0.367868,100,1
2983272,2,54348,1,48131,51860,48242.55,51781.92,-111.55,78.08,0.368276,100,1
2983312,2,54388,1,48152,51901,48242.37,51782.16,-90.37,118.84,0.368683,100,1
2983352,2,54428,1,48170,51945,48242.23,51782.48,-72.23,162.52,0.36909,100,1
2983392,2,54468,1,48191,51998,48242.12,51782.92,-51.13,215.08,0.369493,100,1
2983432,2,54508,1,48218,52055,48242.08,51783.46,-24.08,271.54,0.369893,100,1
2983472,2,54548,1,48236,52105,48242.07,51784.11,-6.07,320.89,0.370287,100,1
2983512,2,54588,1,48252,52102,48242.09,51784.75,9.91,317.25,0.370677,100,1
2983552,2,54628,1,48216,51939,48242.04,51785.05,-26.04,153.95,0.371064,100,1
2983592,2,54668,1,48117,51760,48241.79,51785.01,-124.79,-25.01,0.371453,100,1
2983632,2,54708,1,48055,51691,48241.41,51784.82,-186.41,-93.82,0.371846,100,1
2983672,2,54748,1,48033,51690,48241,51784.63,-208,-94.63,0.372247,100,1
2983713,2,54789,1,48034,51684,48240.59,51784.43,-206.59,-100.43,0.372655,100,1
2983753,2,54829,1,48033,51680,48240.17,51784.23,-207.17,-104.23,0.373068,100,1
2983793,2,54869,1,48037,51733,48239.77,51784.12,-202.77,-51.13,0.373489,100,1
2983833,2,54909,1,48060,51769,48239.41,51784.1,-179.41,-15.1,0.373915,100,1
2983873,2,54949,1,48065,51786,48239.06,51784.1,-174.06,1.9,0.374345,100,1
2983913,2,54989,1,48068,51797,48238.72,51784.13,-170.72,12.87,0.37478,100,1
2983953,2,55029,1,48078,51842,48238.4,51784.25,-160.4,57.75,0.375218,100,1
2983993,2,55069,1,48104,51900,48238.13,51784.48,-134.13,115.52,0.375658,100,1
2984033,2,55109,1,48126,51963,48237.91,51784.84,-111.91,178.16,0.376098,100,1
2984073,2,55149,1,48152,52015,48237.74,51785.3,-85.74,229.7,0.376535,100,1
2984113,2,55189,1,48177,52066,48237.62,51785.86,-60.62,280.14,0.376968,100,1
2984153,2,55229,1,48197,52111,48237.54,51786.52,-40.54,324.48,0.377395,100,1
2984193,2,55269,1,48215,52151,48237.5,51787.25,-22.5,363.75,0.377815,100,1
2984233,2,55309,1,48231,52195,48237.48,51788.06,-6.48,406.94,0.378225,100,1
2984273,2,55349,1,48245,52233,48237.5,51788.95,7.5,444.05,0.378625,100,1
2984313,2,55389,1,48265,52280,48237.55,51789.94,27.45,490.06,0.379012,100,1
2984353,2,55429,1,48284,52329,48237.65,51791.02,46.35,537.98,0.379385,100,1
2984393,2,55469,1,48301,52378,48237.78,51792.19,63.22,585.81,0.379742,100,1
2984433,2,55509,1,48320,52422,48237.94,51793.45,82.06,628.55,0.380082,100,1
2984473,2,55549,1,48336,52432,48238.14,51794.73,97.86,637.27,0.380405,100,1
2984514,2,55590,1,48303,52299,48238.27,51795.74,64.73,503.26,0.380717,100,1
2984554,2,55630,1,48227,52158,48238.25,51796.47,-11.25,361.53,0.381023,100,1
2984594,2,55670,1,48177,52111,48238.13,51797.1,-61.13,313.9,0.381324,100,1
2984634,2,55710,1,48164,52112,48237.98,51797.73,-73.98,314.27,0.381622,100,1
2984674,2,55750,1,48171,52116,48237.85,51798.37,-66.85,317.63,0.381915,100,1
2984714,2,55790,1,48167,52109,48237.71,51798.99,-70.71,310.01,0.382204,100,1
2984754,2,55830,1,48174,52151,48237.59,51799.7,-63.59,351.3,0.382488,100,1
2984794,2,55870,1,48191,52188,48237.49,51800.47,-46.49,387.53,0.382765,100,1
2984834,2,55910,1,48202,52207,48237.42,51801.29,-35.42,405.71,0.383035,100,1
2984874,2,55950,1,48214,52224,48237.37,51802.13,-23.37,421.87,0.383296,100,1
2984914,2,55990,1,48224,52261,48237.35,51803.05,-13.35,457.95,0.383548,100,1
2984954,2,56030,1,48245,52305,48237.36,51804.05,7.64,500.95,0.383789,100,1
2984994,2,56070,1,48265,52357,48237.42,51805.16,27.58,551.84,0.384017,100,1
2985034,2,56110,1,48285,52408,48237.52,51806.37,47.48,601.63,0.38423,100,1
2985074,2,56150,1,48302,52453,48237.64,51807.66,64.36,645.34,0.384426,100,1
2985114,2,56190,1,48321,52491,48237.81,51809.03,83.19,681.97,0.384606,100,1
2985154,2,56230,1,48340,52532,48238.02,51810.48,101.98,721.52,0.384769,100,1
2985194,2,56270,1,48353,52575,48238.25,51812.01,114.75,762.99,0.384912,100,1
2985234,2,56310,1,48368,52619,48238.51,51813.62,129.49,805.37,0.385037,100,1
2985274,2,56350,1,48385,52661,48238.8,51815.32,146.2,845.68,0.385142,100,1
2985315,2,56391,1,48404,52701,48239.14,51817.09,164.86,883.91,0.385228,100,1
2985355,2,56431,1,48420,52754,48239.5,51818.97,180.5,935.03,0.385293,100,1
2985395,2,56471,1,48441,52806,48239.9,51820.95,201.1,985.05,0.385339,100,1
2985435,2,56511,1,48453,52803,48240.33,51822.91,212.67,980.09,0.385367,100,1
2985475,2,56551,1,48417,52692,48240.68,51824.65,176.32,867.35,0.385382,100,1
2985515,2,56591,1,48366,52601,48240.93,51826.2,125.07,774.8,0.385384,100,1
2985555,2,56631,1,48338,52585,48241.13,51827.72,96.87,757.28,0.385374,100,1
2985595,2,56671,1,48338,52592,48241.32,51829.25,96.68,762.75,0.385352,100,1
2985635,2,56711,1,48340,52590,48241.52,51830.78,98.48,759.22,0.385318,100,1
2985675,2,56751,1,48340,52592,48241.72,51832.3,98.28,759.7,0.385273,100,1
2985715,2,56791,1,48348,52621,48241.94,51833.88,106.06,787.12,0.385216,100,1
2985755,2,56831,1,48362,52644,48242.18,51835.5,119.82,808.5,0.385148,100,1
2985795,2,56871,1,48360,52652,48242.42,51837.13,117.58,814.87,0.385068,100,1
2985835,2,56911,1,48361,52667,48242.66,51838.79,118.34,828.21,0.384977,100,1
2985875,2,56951,1,48371,52696,48242.91,51840.51,128.09,855.49,0.384875,100,1
2985915,2,56991,1,48391,52731,48243.21,51842.29,147.79,888.71,0.384762,100,1
2985955,2,57031,1,48404,52775,48243.54,51844.16,160.46,930.84,0.384637,100,1
2985995,2,57071,1,48421,52811,48243.89,51846.09,177.11,964.91,0.384501,100,1
2986035,2,57111,1,48434,52852,48244.27,51848.1,189.73,1003.9,0.384355,100,1
2986076,2,57152,1,48447,52880,48244.68,51850.17,202.32,1029.83,0.384198,100,1
2986116,2,57192,1,48463,52917,48245.12,51852.3,217.88,1064.7,0.384031,100,1
2986156,2,57232,1,48477,52959,48245.58,51854.52,231.42,1104.48,0.383854,100,1
2986196,2,57272,1,48487,52994,48246.07,51856.8,240.93,1137.2,0.383668,100,1
2986236,2,57312,1,48509,53033,48246.59,51859.16,262.41,1173.84,0.383474,100,1
2986276,2,57352,1,48522,53079,48247.14,51861.6,274.86,1217.4,0.383272,100,1
2986316,2,57392,1,48541,53124,48247.73,51864.12,293.27,1259.88,0.383063,100,1
2986356,2,57432,1,48561,53153,48248.36,51866.7,312.64,1286.3,0.382848,100,1
2986396,2,57472,1,48555,53085,48248.98,51869.14,306.02,1215.86,0.382629,100,1
2986436,2,57512,1,48505,52976,48249.49,51871.36,255.51,1104.64,0.382406,100,1
2986476,2,57552,1,48470,52939,48249.93,51873.49,220.07,1065.51,0.382177,100,1
2986516,2,57592,1,48462,52944,48250.36,51875.63,211.64,1068.37,0.381942,100,1
2986556,2,57632,1,48459,52942,48250.77,51877.77,208.23,1064.23,0.381701,100,1
2986596,2,57672,1,48451,52933,48251.18,51879.88,199.82,1053.12,0.381455,100,1
2986636,2,57712,1,48450,52945,48251.57,51882.01,198.43,1062.99,0.381203,100,1
2986676,2,57752,1,48459,52962,48251.99,51884.17,207.01,1077.83,0.380945,100,1
2986716,2,57792,1,48460,52964,48252.41,51886.33,207.59,1077.67,0.380683,100,1
2986756,2,57832,1,48456,52965,48252.82,51888.49,203.18,1076.51,0.380415,100,1
2986797,2,57873,1,48465,52983,48253.25,51890.68,211.75,1092.32,0.380143,100,1
2986837,2,57913,1,48467,53005,48253.68,51892.91,213.32,1112.09,0.379865,100,1
2986877,2,57953,1,48484,53044,48254.14,51895.22,229.86,1148.78,0.379583,100,1
2986917,2,57993,1,48496,53076,48254.62,51897.58,241.38,1178.42,0.379297,100,1
2986957,2,58033,1,48503,53106,48255.12,51900,247.88,1206,0.379007,100,1
2986997,2,58073,1,48519,53136,48255.64,51902.47,263.36,1233.53,0.378714,100,1
2987037,2,58113,1,48532,53162,48256.2,51904.99,275.8,1257.01,0.378417,100,1
2987077,2,58153,1,48542,53199,48256.77,51907.58,285.23,1291.42,0.378118,100,1
2987117,2,58193,1,48555,53232,48257.37,51910.23,297.63,1321.77,0.377816,100,1
2987157,2,58233,1,48572,53266,48258,51912.94,314,1353.06,0.377513,100,1
2987197,2,58273,1,48590,53291,48258.66,51915.7,331.34,1375.3,0.377209,100,1
2987237,2,58313,1,48606,53327,48259.36,51918.52,346.64,1408.48,0.376905,100,1
2987277,2,58353,1,48620,53365,48260.08,51921.42,359.92,1443.58,0.376601,100,1
2987317,2,58393,1,48625,53342,48260.81,51924.26,364.19,1417.74,0.376297,100,1
2987357,2,58433,1,48590,53235,48261.47,51926.88,328.53,1308.12,0.375995,100,1
2987397,2,58473,1,48536,53160,48262.02,51929.35,273.98,1230.65,0.375691,100,1
2987437,2,58513,1,48520,53148,48262.54,51931.79,257.46,1216.21,0.375384,100,1
2987477,2,58553,1,48519,53148,48263.05,51934.22,255.95,1213.78,0.375076,100,1
2987517,2,58593,1,48513,53137,48263.55,51936.63,249.45,1200.37,0.374766,100,1
2987557,2,58633,1,48502,53132,48264.03,51939.02,237.97,1192.98,0.374453,100,1
2987598,2,58674,1,48505,53144,48264.52,51941.43,240.48,1202.57,0.374139,100,1
2987638,2,58714,1,48505,53151,48265,51943.85,240,1207.15,0.373822,100,1
2987678,2,58754,1,48504,53146,48265.48,51946.26,238.52,1199.74,0.373502,100,1
2987718,2,58794,1,48498,53155,48265.94,51948.68,232.06,1206.32,0.373181,100,1
2987758,2,58834,1,48505,53175,48266.42,51951.13,238.58,1223.87,0.372857,100,1
2987798,2,58874,1,48519,53203,48266.93,51953.63,252.07,1249.37,0.372531,100,1
2987838,2,58914,1,48526,53230,48267.45,51956.19,258.55,1273.81,0.372204,100,1
2987878,2,58954,1,48536,53261,48267.99,51958.8,268.01,1302.2,0.371874,100,1
2987918,2,58994,1,48555,53288,48268.56,51961.46,286.44,1326.54,0.371544,100,1
2987958,2,59034,1,48567,53312,48269.16,51964.16,297.84,1347.84,0.371213,100,1
2987998,2,59074,1,48582,53334,48269.79,51966.9,312.21,1367.1,0.370882,100,1
2988038,2,59114,1,48593,53357,48270.43,51969.68,322.57,1387.32,0.370552,100,1
2988078,2,59154,1,48600,53383,48271.09,51972.51,328.91,1410.49,0.370221,100,1
2988118,2,59194,1,48609,53412,48271.77,51975.39,337.23,1436.61,0.369891,100,1
2988158,2,59234,1,48625,53442,48272.48,51978.32,352.52,1463.68,0.369562,100,1
2988198,2,59274,1,48634,53467,48273.2,51981.3,360.8,1485.7,0.369234,100,1
2988238,2,59314,1,48639,53464,48273.93,51984.27,365.07,1479.73,0.368908,100,1
2988278,2,59354,1,48610,53362,48274.61,51987.03,335.39,1374.97,0.368582,100,1
2988318,2,59394,1,48552,53270,48275.16,51989.59,276.84,1280.41,0.368257,100,1
2988359,2,59435,1,48526,53242,48275.66,51992.1,250.34,1249.9,0.36793,100,1
2988399,2,59475,1,48518,53236,48276.15,51994.59,241.85,1241.41,0.367601,100,1
2988439,2,59515,1,48511,53227,48276.62,51997.05,234.38,1229.95,0.367271,100,1
2988479,2,59555,1,48499,53212,48277.07,51999.48,221.93,1212.52,0.36694,100,1
2988519,2,59595,1,48502,53230,48277.52,52001.95,224.48,1228.05,0.366607,100,1
2988559,2,59635,1,48510,53231,48277.98,52004.41,232.02,1226.59,0.366272,100,1
2988599,2,59675,1,48511,53224,48278.45,52006.85,232.55,1217.15,0.365936,100,1
2988639,2,59715,1,48503,53231,48278.9,52009.3,224.1,1221.7,0.365599,100,1
2988679,2,59755,1,48507,53247,48279.36,52011.77,227.64,1235.23,0.365261,100,1
2988719,2,59795,1,48520,53274,48279.84,52014.3,240.16,1259.7,0.364921,100,1
2988759,2,59835,1,48537,53298,48280.36,52016.87,256.64,1281.13,0.36458,100,1
2988799,2,59875,1,48551,53324,48280.9,52019.49,270.1,1304.51,0.364239,100,1
2988839,2,59915,1,48556,53344,48281.45,52022.14,274.55,1321.86,0.363898,100,1
2988879,2,59955,1,48564,53365,48282.02,52024.82,281.98,1340.18,0.363557,100,1
2988919,2,59995,1,48574,53383,48282.6,52027.54,291.4,1355.46,0.363215,100,1
2988959,2,60035,2,48583,53400,48283.2,52030.29,299.8,1369.71,0.362874,100,1
2988999,2,60075,2,48589,53420,48283.82,52033.07,305.18,1386.93,0.362533,100,1
2989039,2,60115,2,48597,53449,48284.45,52035.9,312.55,1413.1,0.362193,100,1
2989079,2,60155,2,48604,53471,48285.09,52038.77,318.91,1432.23,0.361853,100,1
2989119,2,60195,2,48622,53499,48285.76,52041.7,336.24,1457.3,0.361514,100,1
2989160,2,60236,2,48631,53497,48286.45,52044.61,344.55,1452.39,0.361176,100,1
2989200,2,60276,2,48597,53382,48287.07,52047.28,309.93,1334.72,0.36084,100,1
2989240,2,60316,2,48537,53288,48287.57,52049.77,249.43,1238.23,0.360503,100,1
2989280,2,60356,2,48499,53250,48288,52052.17,211,1197.83,0.360165,100,1
2989320,2,60396,2,48496,53241,48288.42,52054.55,207.58,1186.45,0.359827,100,1
2989360,2,60436,2,48488,53225,48288.82,52056.89,199.18,1168.11,0.359487,100,1
2989400,2,60476,2,48477,53212,48289.2,52059.2,187.8,1152.8,0.359145,100,1
2989440,2,60516,2,48473,53224,48289.57,52061.54,183.43,1162.46,0.358803,100,1
2989480,2,60556,2,48484,53222,48289.96,52063.86,194.04,1158.14,0.358459,100,1
2989520,2,60596,2,48479,53209,48290.34,52066.15,188.66,1142.85,0.358114,100,1
2989560,2,60636,2,48477,53202,48290.71,52068.43,186.29,1133.57,0.357768,100,1
2989600,2,60676,2,48477,53212,48291.09,52070.71,185.91,1141.29,0.357422,100,1
2989640,2,60716,2,48485,53232,48291.48,52073.04,193.52,1158.96,0.357074,100,1
2989680,2,60756,2,48491,53255,48291.87,52075.41,199.12,1179.59,0.356725,100,1
2989720,2,60796,2,48506,53278,48292.3,52077.81,213.7,1200.19,0.356375,100,1
2989760,2,60836,2,48514,53291,48292.75,52080.24,221.25,1210.76,0.356025,100,1
2989800,2,60876,2,48518,53313,48293.2,52082.71,224.8,1230.29,0.355674,100,1
2989840,2,60916,2,48521,53329,48293.66,52085.2,227.34,1243.8,0.355323,100,1
2989880,2,60956,2,48528,53348,48294.13,52087.73,233.87,1260.27,0.354972,100,1
2989921,2,60997,2,48534,53364,48294.61,52090.28,239.39,1273.72,0.35462,100,1
2989961,2,61037,2,48551,53390,48295.12,52092.88,255.87,1297.12,0.354267,100,1
2990001,2,61077,2,48559,53421,48295.65,52095.54,263.35,1325.46,0.353915,100,1
2990041,2,61117,2,48566,53436,48296.2,52098.22,269.8,1337.78,0.353564,100,1
2990081,2,61157,2,48551,53344,48296.71,52100.71,254.29,1243.29,0.353212,100,1
2990121,2,61197,2,48495,53231,48297.11,52102.98,197.89,1128.02,0.35286,100,1
2990161,2,61237,2,48455,53183,48297.42,52105.14,157.58,1077.86,0.352508,100,1
2990201,2,61277,2,48443,53173,48297.71,52107.27,145.29,1065.73,0.352154,100,1
2990241,2,61317,2,48435,53150,48297.99,52109.36,137.01,1040.64,0.351799,100,1
2990281,2,61357,2,48425,53128,48298.25,52111.4,126.75,1016.6,0.351443,100,1
2990321,2,61397,2,48424,53140,48298.5,52113.46,125.5,1026.54,0.351086,100,1
2990361,2,61437,2,48431,53140,48298.77,52115.51,132.23,1024.49,0.350728,100,1
2990401,2,61477,2,48423,53133,48299.02,52117.55,123.98,1015.45,0.350369,100,1
2990441,2,61517,2,48415,53129,48299.25,52119.57,115.75,1009.43,0.350008,100,1
2990481,2,61557,2,48421,53139,48299.5,52121.61,121.5,1017.39,0.349647,100,1
2990521,2,61597,2,48425,53161,48299.75,52123.69,125.25,1037.31,0.349284,100,1
2990561,2,61637,2,48444,53189,48300.04,52125.82,143.96,1063.18,0.348921,100,1
2990601,2,61677,2,48452,53219,48300.34,52128.01,151.66,1090.99,0.348556,100,1
2990641,2,61717,2,48461,53245,48300.67,52130.25,160.33,1114.75,0.348191,100,1
2990681,2,61757,2,48470,53271,48301.01,52132.53,168.99,1138.47,0.347824,100,1
2990722,2,61798,2,48485,53294,48301.38,52134.85,183.62,1159.15,0.347457,100,1
2990762,2,61838,2,48496,53325,48301.77,52137.23,194.23,1187.77,0.34709,100,1
2990802,2,61878,2,48504,53364,48302.18,52139.69,201.82,1224.31,0.346722,100,1
2990842,2,61918,2,48519,53399,48302.61,52142.21,216.39,1256.79,0.346354,100,1
2990882,2,61958,2,48536,53430,48303.08,52144.79,232.92,1285.21,0.345985,100,1
2990922,2,61998,2,48546,53433,48303.57,52147.36,242.43,1285.64,0.345617,100,1
2990962,2,62038,2,48521,53338,48304,52149.75,217,1188.25,0.345249,100,1
2991002,2,62078,2,48470,53254,48304.34,52151.96,165.66,1102.04,0.344881,100,1
2991042,2,62118,2,48447,53233,48304.62,52154.12,142.38,1078.88,0.344512,100,1
2991082,2,62158,2,48447,53228,48304.91,52156.27,142.09,1071.73,0.344141,100,1
2991122,2,62198,2,48448,53218,48305.2,52158.39,142.8,1059.61,0.343771,100,1
2991162,2,62238,2,48437,53218,48305.46,52160.52,131.54,1057.48,0.343399,100,1
