t_ms,phase,red_raw,ir_raw,red_dc,ir_dc,red_ac,ir_ac,OD_red,OD_ir,R,spo2,spo2_valid
17,0,49486,53167,49408.11,52632.13,77.89,534.87,-0.249707,-0.264973,0.200113,100.00,0
22,0,49484,53151,49408.27,52633.17,75.73,517.83,-0.249710,-0.264992,0.200113,100.00,0
32,0,49478,53142,49408.41,52634.19,69.59,507.81,-0.249713,-0.265012,0.200113,100.00,0
43,0,49478,53137,49408.55,52635.20,69.45,501.80,-0.249716,-0.265031,0.200113,100.00,0
52,0,49478,53137,49408.69,52636.20,69.31,500.80,-0.249719,-0.265050,0.200113,100.00,0
63,0,49477,53131,49408.82,52637.19,68.18,493.81,-0.249722,-0.265069,0.200113,100.00,0
73,0,49474,53141,49408.96,52638.20,65.04,502.80,-0.249724,-0.265088,0.200113,100.00,0
82,0,49471,53145,49409.08,52639.21,61.92,505.79,-0.249727,-0.265107,0.200113,100.00,0
93,0,49480,53148,49409.23,52640.23,70.77,507.77,-0.249730,-0.265127,0.200113,100.00,0
103,0,49482,53157,49409.37,52641.27,72.62,515.73,-0.249733,-0.265146,0.200113,100.00,0
113,0,49480,53156,49409.52,52642.30,70.48,513.70,-0.249736,-0.265166,0.200113,100.00,0
123,0,49485,53165,49409.67,52643.35,75.33,521.65,-0.249739,-0.265186,0.200113,100.00,0
133,0,49484,53178,49409.82,52644.42,74.18,533.58,-0.249742,-0.265206,0.200113,100.00,0
143,0,49496,53180,49409.99,52645.49,86.01,534.51,-0.249745,-0.265227,0.200113,100.00,0
153,0,49497,53174,49410.16,52646.55,86.84,527.45,-0.249749,-0.265247,0.200113,100.00,0
164,0,49491,53183,49410.33,52647.62,80.67,535.37,-0.249752,-0.265267,0.200113,100.00,0
173,0,49496,53186,49410.50,52648.70,85.50,537.30,-0.249756,-0.265288,0.200113,100.00,0
183,0,49495,53189,49410.67,52649.79,84.33,539.21,-0.249759,-0.265308,0.200113,100.00,0
193,0,49491,53196,49410.83,52650.88,80.17,545.12,-0.249762,-0.265329,0.200113,100.00,0
204,0,49496,53191,49411.00,52651.96,85.00,539.04,-0.249766,-0.265349,0.200113,100.00,0
213,0,49499,53200,49411.18,52653.06,87.82,546.94,-0.249769,-0.265370,0.200113,100.00,0
223,0,49507,53202,49411.37,52654.16,95.63,547.84,-0.249773,-0.265391,0.200113,100.00,0
234,0,49498,53197,49411.55,52655.24,86.45,541.76,-0.249777,-0.265412,0.200113,100.00,0
243,0,49497,53196,49411.72,52656.32,85.28,539.68,-0.249780,-0.265432,0.200113,100.00,0
253,0,49493,53197,49411.88,52657.41,81.12,539.59,-0.249784,-0.265453,0.200113,100.00,0
263,0,49495,53197,49412.05,52658.49,82.95,538.51,-0.249787,-0.265473,0.200113,100.00,0
273,0,49494,53194,49412.21,52659.56,81.79,534.44,-0.249790,-0.265494,0.200113,100.00,0
284,0,49493,53204,49412.38,52660.65,80.62,543.35,-0.249794,-0.265514,0.200113,100.00,0
293,0,49491,53197,49412.54,52661.73,78.46,535.27,-0.249797,-0.265535,0.200113,100.00,0
303,0,49494,53207,49412.70,52662.82,81.30,544.18,-0.249800,-0.265556,0.200113,100.00,0
316,0,49492,53211,49412.86,52663.92,79.14,547.08,-0.249803,-0.265577,0.200113,100.00,0
322,0,49497,53219,49413.03,52665.03,83.97,553.97,-0.249807,-0.265598,0.200113,100.00,0
333,0,49493,53223,49413.19,52666.15,79.81,556.85,-0.249810,-0.265619,0.200113,100.00,0
343,0,49493,53229,49413.35,52667.28,79.65,561.72,-0.249813,-0.265640,0.200113,100.00,0
353,0,49493,53232,49413.51,52668.41,79.49,563.59,-0.249817,-0.265662,0.200113,100.00,0
362,0,49506,53240,49413.70,52669.55,92.30,570.45,-0.249820,-0.265683,0.200113,100.00,0
372,0,49501,53243,49413.87,52670.70,87.12,572.30,-0.249824,-0.265705,0.200113,100.00,0
383,0,49503,53242,49414.05,52671.84,88.95,570.16,-0.249828,-0.265727,0.200113,100.00,0
393,0,49501,53240,49414.23,52672.98,86.77,567.02,-0.249831,-0.265749,0.200113,100.00,0
402,0,49509,53251,49414.42,52674.14,94.58,576.86,-0.249835,-0.265771,0.200113,100.00,0
413,0,49506,53259,49414.61,52675.31,91.39,583.69,-0.249839,-0.265793,0.200113,100.00,0
422,0,49512,53256,49414.80,52676.47,97.20,579.53,-0.249843,-0.265815,0.200113,100.00,0
432,0,49513,53266,49415.00,52677.65,98.00,588.35,-0.249847,-0.265837,0.200113,100.00,0
443,0,49514,53278,49415.20,52678.86,98.80,599.14,-0.249851,-0.265860,0.200113,100.00,0
460,0,49522,53282,49415.41,52680.06,106.59,601.94,-0.249855,-0.265883,0.200113,100.00,0
467,0,49521,53286,49415.62,52681.28,105.37,604.72,-0.249859,-0.265906,0.200113,100.00,0
472,0,49526,53289,49415.85,52682.50,110.15,606.50,-0.249864,-0.265929,0.200113,100.00,0
482,0,49518,53294,49416.05,52683.72,101.95,610.28,-0.249868,-0.265952,0.200113,100.00,0
494,0,49524,53293,49416.27,52684.94,107.73,608.06,-0.249872,-0.265976,0.200113,100.00,0
503,0,49539,53304,49416.52,52686.18,122.48,617.82,-0.249877,-0.265999,0.200113,100.00,0
514,0,49535,53308,49416.76,52687.42,118.24,620.58,-0.249882,-0.266023,0.200113,100.00,0
525,0,49536,53313,49417.00,52688.68,119.00,624.32,-0.249887,-0.266047,0.200113,100.00,0
533,0,49534,53318,49417.23,52689.94,116.77,628.06,-0.249892,-0.266070,0.200113,100.00,0
543,0,49538,53326,49417.47,52691.21,120.53,634.79,-0.249897,-0.266095,0.200113,100.00,0
554,0,49540,53324,49417.72,52692.48,122.28,631.52,-0.249902,-0.266119,0.200113,100.00,0
564,0,49541,53333,49417.96,52693.76,123.04,639.24,-0.249907,-0.266143,0.200113,100.00,0
573,0,49537,53314,49418.20,52695.00,118.80,619.00,-0.249911,-0.266167,0.200113,100.00,0
583,0,49540,53305,49418.45,52696.22,121.55,608.78,-0.249916,-0.266190,0.200113,100.00,0
593,0,49525,53287,49418.66,52697.41,106.34,589.59,-0.249921,-0.266212,0.200113,100.00,0
603,0,49522,53278,49418.87,52698.57,103.13,579.43,-0.249925,-0.266234,0.200113,100.00,0
614,0,49520,53259,49419.07,52699.69,100.93,559.31,-0.249929,-0.266256,0.200113,100.00,0
623,0,49508,53257,49419.25,52700.81,88.75,556.19,-0.249933,-0.266277,0.200113,100.00,0
632,0,49516,53246,49419.45,52701.90,96.55,544.10,-0.249937,-0.266297,0.200113,100.00,0
643,0,49506,53248,49419.62,52702.99,86.37,545.01,-0.249940,-0.266318,0.200113,100.00,0
652,0,49509,53245,49419.80,52704.08,89.20,540.92,-0.249944,-0.266339,0.200113,100.00,0
662,0,49508,53245,49419.98,52705.16,88.02,539.84,-0.249947,-0.266359,0.200113,100.00,0
672,0,49499,53257,49420.14,52706.27,78.86,550.73,-0.249951,-0.266380,0.200113,100.00,0
682,0,49501,53255,49420.30,52707.36,80.70,547.64,-0.249954,-0.266401,0.200113,100.00,0
693,0,49502,53260,49420.47,52708.47,81.53,551.53,-0.249957,-0.266422,0.200113,100.00,0
703,0,49500,53259,49420.63,52709.57,79.37,549.43,-0.249961,-0.266443,0.200113,100.00,0
714,0,49505,53272,49420.80,52710.70,84.20,561.30,-0.249964,-0.266464,0.200113,100.00,0
723,0,49501,53275,49420.96,52711.82,80.04,563.18,-0.249967,-0.266486,0.200113,100.00,0
733,0,49510,53286,49421.14,52712.97,88.86,573.03,-0.249971,-0.266508,0.200113,100.00,0
745,0,49515,53292,49421.33,52714.13,93.67,577.87,-0.249975,-0.266530,0.200113,100.00,0
754,0,49507,53292,49421.50,52715.29,85.50,576.71,-0.249978,-0.266551,0.200113,100.00,0
764,0,49514,53283,49421.69,52716.43,92.31,566.57,-0.249982,-0.266573,0.200113,100.00,0
774,0,49512,53289,49421.87,52717.57,90.13,571.43,-0.249986,-0.266595,0.200113,100.00,0
783,0,49509,53293,49422.05,52718.73,86.95,574.27,-0.249989,-0.266617,0.200113,100.00,0
795,0,49504,53289,49422.21,52719.87,81.79,569.13,-0.249993,-0.266638,0.200113,100.00,0
804,0,49509,53297,49422.39,52721.02,86.61,575.98,-0.249996,-0.266660,0.200113,100.00,0
814,0,49508,53299,49422.56,52722.18,85.44,576.82,-0.250000,-0.266682,0.200113,100.00,0
824,0,49504,53300,49422.72,52723.34,81.28,576.66,-0.250003,-0.266704,0.200113,100.00,0
833,0,49507,53305,49422.89,52724.50,84.11,580.50,-0.250006,-0.266726,0.200113,100.00,0
844,0,49504,53300,49423.05,52725.65,80.95,574.35,-0.250010,-0.266748,0.200113,100.00,0
853,0,49509,53310,49423.23,52726.82,85.77,583.18,-0.250013,-0.266770,0.200113,100.00,0
864,0,49511,53307,49423.40,52727.98,87.60,579.02,-0.250017,-0.266792,0.200113,100.00,0
874,0,49508,53318,49423.57,52729.16,84.43,588.84,-0.250020,-0.266815,0.200113,100.00,0
883,0,49509,53310,49423.75,52730.33,85.25,579.67,-0.250024,-0.266837,0.200113,100.00,0
894,0,49503,53311,49423.91,52731.49,79.09,579.51,-0.250027,-0.266859,0.200113,100.00,0
904,0,49502,53316,49424.06,52732.66,77.94,583.34,-0.250030,-0.266881,0.200113,100.00,0
914,0,49502,53318,49424.22,52733.84,77.78,584.16,-0.250033,-0.266903,0.200113,100.00,0
925,0,49496,53310,49424.36,52734.99,71.64,575.01,-0.250036,-0.266925,0.200113,100.00,0
934,0,49499,53318,49424.52,52736.16,74.48,581.84,-0.250039,-0.266947,0.200113,100.00,0
945,0,49494,53327,49424.66,52737.34,69.34,589.66,-0.250042,-0.266970,0.200113,100.00,0
955,0,49497,53336,49424.80,52738.54,72.20,597.46,-0.250045,-0.266992,0.200113,100.00,0
964,0,49505,53332,49424.96,52739.73,80.04,592.27,-0.250048,-0.267015,0.200113,100.00,0
974,0,49500,53334,49425.11,52740.92,74.89,593.08,-0.250051,-0.267038,0.200113,100.00,0
983,0,49493,53333,49425.25,52742.10,67.75,590.90,-0.250054,-0.267060,0.200113,100.00,0
994,0,49491,53331,49425.38,52743.28,65.62,587.72,-0.250057,-0.267082,0.200113,100.00,0
1004,0,49493,53341,49425.52,52744.48,67.48,596.52,-0.250060,-0.267105,0.200113,100.00,0
1014,0,49499,53343,49425.67,52745.68,73.33,597.32,-0.250062,-0.267128,0.200113,100.00,0
1024,0,49500,53349,49425.82,52746.88,74.18,602.12,-0.250065,-0.267151,0.200113,100.00,0
1034,0,49497,53348,49425.96,52748.09,71.04,599.91,-0.250068,-0.267173,0.200113,100.00,0
1044,0,49496,53357,49426.10,52749.30,69.90,607.70,-0.250071,-0.267197,0.200113,100.00,0
1054,0,49503,53354,49426.26,52750.52,76.74,603.48,-0.250074,-0.267219,0.200113,100.00,0
1062,0,49501,53363,49426.41,52751.74,74.59,611.26,-0.250078,-0.267243,0.200113,100.00,0
1074,0,49501,53368,49426.56,52752.98,74.44,615.02,-0.250081,-0.267266,0.200113,100.00,0
1084,0,49506,53375,49426.72,52754.22,79.28,620.78,-0.250084,-0.267290,0.200113,100.00,0
1094,0,49507,53382,49426.88,52755.48,80.12,626.52,-0.250087,-0.267314,0.200113,100.00,0
1104,0,49503,53390,49427.04,52756.75,75.96,633.25,-0.250090,-0.267338,0.200113,100.00,0
1114,0,49516,53397,49427.21,52758.03,88.79,638.97,-0.250094,-0.267362,0.200113,100.00,0
1124,0,49521,53404,49427.40,52759.32,93.60,644.68,-0.250098,-0.267386,0.200113,100.00,0
1134,0,49526,53403,49427.60,52760.61,98.40,642.39,-0.250102,-0.267411,0.200113,100.00,0
1144,0,49527,53404,49427.80,52761.90,99.20,642.10,-0.250106,-0.267435,0.200113,100.00,0
1154,0,49521,53398,49427.99,52763.18,93.01,634.82,-0.250109,-0.267459,0.200113,100.00,0
1178,0,49519,53380,49428.17,52764.41,90.83,615.59,-0.250113,-0.267483,0.200113,100.00,0
1198,0,49522,53367,49428.36,52765.62,93.64,601.38,-0.250117,-0.267506,0.200113,100.00,0
1212,0,49517,53358,49428.54,52766.80,88.46,591.20,-0.250121,-0.267528,0.200113,100.00,0
1220,0,49513,53355,49428.71,52767.98,84.29,587.02,-0.250124,-0.267551,0.200113,100.00,0
1260,0,49515,53352,49428.89,52769.15,86.11,582.85,-0.250128,-0.267573,0.200113,100.00,0
1300,0,49513,53348,49429.05,52770.31,83.95,577.69,-0.250131,-0.267595,0.200113,100.00,0
1306,0,49516,53345,49429.23,52771.46,86.77,573.54,-0.250135,-0.267617,0.200113,100.00,0
1312,0,49507,53356,49429.39,52772.64,77.61,583.36,-0.250138,-0.267639,0.200113,100.00,0
1319,0,49505,53358,49429.54,52773.81,75.46,584.19,-0.250141,-0.267661,0.200113,100.00,0
1323,0,49513,53353,49429.71,52774.97,83.29,578.03,-0.250144,-0.267683,0.200113,100.00,0
1327,0,49506,53361,49429.86,52776.14,76.14,584.86,-0.250147,-0.267705,0.200113,100.00,0
1330,0,49501,53364,49430.00,52777.32,71.00,586.68,-0.250150,-0.267727,0.200113,100.00,0
1333,0,49510,53369,49430.16,52778.50,79.84,590.50,-0.250153,-0.267750,0.200113,100.00,0
1335,0,49504,53371,49430.31,52779.69,73.69,591.31,-0.250156,-0.267772,0.200113,100.00,0
1337,0,49509,53378,49430.47,52780.89,78.53,597.11,-0.250160,-0.267795,0.200113,100.00,0
1339,0,49513,53380,49430.64,52782.09,82.36,597.91,-0.250163,-0.267818,0.200113,100.00,0
1340,0,49509,53372,49430.80,52783.27,78.20,588.73,-0.250166,-0.267840,0.200113,100.00,0
1342,0,49510,53379,49430.96,52784.46,79.04,594.54,-0.250170,-0.267863,0.200113,100.00,0
1343,0,49506,53385,49431.11,52785.66,74.89,599.34,-0.250173,-0.267886,0.200113,100.00,0
1352,0,49509,53392,49431.27,52786.87,77.73,605.12,-0.250176,-0.267909,0.200113,100.00,0
1362,0,49510,53390,49431.43,52788.08,78.57,601.92,-0.250179,-0.267931,0.200113,100.00,0
1374,0,49513,53394,49431.59,52789.30,81.41,604.70,-0.250182,-0.267954,0.200113,100.00,0
1384,0,49511,53395,49431.75,52790.51,79.25,604.49,-0.250185,-0.267977,0.200113,100.00,0
1395,0,49508,53396,49431.90,52791.72,76.10,604.28,-0.250189,-0.268000,0.200113,100.00,0
1404,0,49510,53394,49432.06,52792.93,77.94,601.07,-0.250192,-0.268023,0.200113,100.00,0
1414,0,49504,53392,49432.20,52794.12,71.80,597.87,-0.250195,-0.268046,0.200113,100.00,0
1424,0,49501,53396,49432.34,52795.33,68.66,600.67,-0.250198,-0.268069,0.200113,100.00,0
1434,0,49505,53393,49432.49,52796.53,72.51,596.47,-0.250201,-0.268091,0.200113,100.00,0
1444,0,49507,53399,49432.64,52797.73,74.36,601.27,-0.250204,-0.268114,0.200113,100.00,0
1456,0,49501,53399,49432.78,52798.94,68.22,600.06,-0.250206,-0.268137,0.200113,100.00,0
1463,0,49509,53390,49432.93,52800.12,76.07,589.88,-0.250209,-0.268159,0.200113,100.00,0
1474,0,49502,53398,49433.07,52801.32,68.93,596.68,-0.250212,-0.268182,0.200113,100.00,0
1484,0,49493,53402,49433.19,52802.52,59.81,599.48,-0.250215,-0.268205,0.200113,100.00,0
1494,0,49496,53402,49433.32,52803.72,62.68,598.28,-0.250217,-0.268228,0.200113,100.00,0
1504,0,49498,53397,49433.45,52804.91,64.55,592.09,-0.250220,-0.268250,0.200113,100.00,0
1514,0,49503,53396,49433.59,52806.09,69.41,589.91,-0.250223,-0.268272,0.200113,100.00,0
1524,0,49498,53401,49433.71,52807.28,64.29,593.72,-0.250225,-0.268295,0.200113,100.00,0
1534,0,49493,53391,49433.84,52808.45,59.16,582.55,-0.250228,-0.268317,0.200113,100.00,0
1544,0,49490,53399,49433.95,52809.63,56.05,589.37,-0.250230,-0.268340,0.200113,100.00,0
1554,0,49493,53405,49434.07,52810.82,58.93,594.18,-0.250232,-0.268362,0.200113,100.00,0
1564,0,49496,53409,49434.20,52812.02,61.80,596.98,-0.250235,-0.268385,0.200113,100.00,0
1575,0,49495,53394,49434.32,52813.19,60.68,580.81,-0.250237,-0.268407,0.200113,100.00,0
1584,0,49494,53400,49434.44,52814.36,59.56,585.64,-0.250240,-0.268429,0.200113,100.00,0
1593,0,49487,53398,49434.54,52815.53,52.46,582.47,-0.250242,-0.268451,0.200113,100.00,0
1604,0,49494,53405,49434.66,52816.71,59.34,588.29,-0.250245,-0.268474,0.200113,100.00,0
1613,0,49494,53405,49434.79,52817.89,59.21,587.11,-0.250247,-0.268496,0.200113,100.00,0
1623,0,49488,53402,49434.89,52819.06,53.11,582.94,-0.250249,-0.268518,0.200113,100.00,0
1634,0,49491,53410,49435.01,52820.24,55.99,589.76,-0.250251,-0.268540,0.200113,100.00,0
1643,0,49495,53411,49435.13,52821.43,59.87,589.57,-0.250254,-0.268563,0.200113,100.00,0
1654,0,49490,53422,49435.24,52822.63,54.76,599.37,-0.250256,-0.268586,0.200113,100.00,0
1664,0,49497,53430,49435.36,52823.84,61.64,606.16,-0.250259,-0.268609,0.200113,100.00,0
1674,0,49495,53425,49435.48,52825.05,59.52,599.95,-0.250261,-0.268631,0.200113,100.00,0
1684,0,49496,53432,49435.61,52826.26,60.39,605.74,-0.250264,-0.268654,0.200113,100.00,0
1695,0,49495,53443,49435.73,52827.50,59.27,615.50,-0.250266,-0.268678,0.200113,100.00,0
1704,0,49500,53443,49435.86,52828.73,64.14,614.27,-0.250269,-0.268701,0.200113,100.00,0
1714,0,49503,53449,49435.99,52829.97,67.01,619.03,-0.250271,-0.268725,0.200113,100.00,0
1725,0,49508,53439,49436.14,52831.19,71.86,607.81,-0.250274,-0.268748,0.200113,100.00,0
1734,0,49502,53427,49436.27,52832.38,65.73,594.62,-0.250277,-0.268770,0.200113,100.00,0
1746,0,49506,53417,49436.41,52833.55,69.59,583.45,-0.250280,-0.268792,0.200113,100.00,0
1755,0,49503,53405,49436.54,52834.70,66.46,570.30,-0.250282,-0.268814,0.200113,100.00,0
1765,0,49498,53396,49436.67,52835.82,61.33,560.18,-0.250285,-0.268835,0.200113,100.00,0
1774,0,49502,53396,49436.80,52836.94,65.20,559.06,-0.250288,-0.268857,0.200113,100.00,0
1784,0,49501,53388,49436.93,52838.04,64.07,549.96,-0.250290,-0.268877,0.200113,100.00,0
1794,0,49497,53388,49437.05,52839.14,59.95,548.86,-0.250293,-0.268898,0.200113,100.00,0
1804,0,49503,53393,49437.18,52840.25,65.82,552.75,-0.250295,-0.268919,0.200113,100.00,0
1815,0,49495,53389,49437.30,52841.35,57.70,547.65,-0.250298,-0.268940,0.200113,100.00,0
1824,0,49494,53386,49437.41,52842.44,56.59,543.56,-0.250300,-0.268961,0.200113,100.00,0
1835,0,49488,53389,49437.52,52843.54,50.48,545.46,-0.250302,-0.268981,0.200113,100.00,0
1846,0,49490,53396,49437.62,52844.64,52.38,551.36,-0.250304,-0.269002,0.200113,100.00,0
1854,0,49494,53402,49437.73,52845.76,56.27,556.24,-0.250307,-0.269023,0.200113,100.00,0
1864,0,49499,53407,49437.86,52846.88,61.14,560.12,-0.250309,-0.269045,0.200113,100.00,0
1875,0,49497,53412,49437.98,52848.02,59.02,563.98,-0.250312,-0.269066,0.200113,100.00,0
1885,0,49502,53409,49438.11,52849.14,63.89,559.86,-0.250314,-0.269087,0.200113,100.00,0
1895,0,49498,53412,49438.23,52850.27,59.77,561.73,-0.250317,-0.269109,0.200113,100.00,0
1904,0,49490,53410,49438.34,52851.39,51.66,558.61,-0.250319,-0.269130,0.200113,100.00,0
1914,0,49493,53408,49438.45,52852.50,54.55,555.50,-0.250321,-0.269151,0.200113,100.00,0
1925,0,49485,53401,49438.54,52853.60,46.46,547.40,-0.250323,-0.269172,0.200113,100.00,0
1934,0,49489,53408,49438.64,52854.71,50.36,553.29,-0.250325,-0.269193,0.200113,100.00,0
1945,0,49485,53398,49438.73,52855.80,46.27,542.20,-0.250327,-0.269213,0.200113,100.00,0
1954,0,49481,53402,49438.82,52856.89,42.18,545.11,-0.250329,-0.269234,0.200113,100.00,0
1964,0,49476,53395,49438.89,52857.97,37.11,537.03,-0.250330,-0.269254,0.200113,100.00,0
1975,0,49481,53393,49438.98,52859.04,42.02,533.96,-0.250332,-0.269275,0.200113,100.00,0
1984,0,49481,53401,49439.07,52860.13,41.93,540.87,-0.250334,-0.269295,0.200113,100.00,0
1995,0,49468,53393,49439.12,52861.20,28.87,531.80,-0.250335,-0.269316,0.200113,100.00,0
2004,0,49472,53397,49439.19,52862.27,32.81,534.73,-0.250336,-0.269336,0.200113,100.00,0
2015,0,49465,53396,49439.25,52863.34,25.75,532.66,-0.250337,-0.269356,0.200113,100.00,0
2024,0,49467,53393,49439.30,52864.40,27.70,528.60,-0.250338,-0.269376,0.200113,100.00,0
2034,0,49468,53390,49439.36,52865.45,28.64,524.55,-0.250340,-0.269396,0.200113,100.00,0
2044,0,49465,53394,49439.41,52866.51,25.59,527.49,-0.250341,-0.269416,0.200113,100.00,0
2054,0,49462,53398,49439.46,52867.57,22.54,530.43,-0.250342,-0.269436,0.200113,100.00,0
2064,0,49464,53400,49439.51,52868.64,24.49,531.36,-0.250343,-0.269456,0.200113,100.00,0
2074,0,49470,53408,49439.57,52869.72,30.43,538.28,-0.250344,-0.269477,0.200113,100.00,0
2084,0,49465,53408,49439.62,52870.80,25.37,537.20,-0.250345,-0.269497,0.200113,100.00,0
2095,0,49472,53417,49439.69,52871.89,32.31,545.11,-0.250346,-0.269518,0.200113,100.00,0
2105,0,49472,53408,49439.76,52872.97,32.24,535.03,-0.250348,-0.269538,0.200113,100.00,0
2115,0,49470,53417,49439.82,52874.06,30.18,542.94,-0.250349,-0.269559,0.200113,100.00,0
2126,0,49475,53415,49439.89,52875.14,35.11,539.86,-0.250350,-0.269579,0.200113,100.00,0
2135,0,49462,53416,49439.94,52876.22,22.06,539.78,-0.250351,-0.269600,0.200113,100.00,0
2147,0,49466,53413,49439.99,52877.30,26.01,535.70,-0.250352,-0.269620,0.200113,100.00,0
2155,0,49470,53422,49440.05,52878.39,29.95,543.61,-0.250353,-0.269641,0.200113,100.00,0
2166,0,49470,53424,49440.12,52879.48,29.88,544.52,-0.250355,-0.269661,0.200113,100.00,0
2175,0,49472,53431,49440.18,52880.59,31.82,550.41,-0.250356,-0.269682,0.200113,100.00,0
2185,0,49471,53426,49440.25,52881.68,30.75,544.32,-0.250357,-0.269703,0.200113,100.00,0
2195,0,49477,53431,49440.32,52882.78,36.68,548.22,-0.250359,-0.269724,0.200113,100.00,0
2206,0,49474,53425,49440.39,52883.87,33.61,541.13,-0.250360,-0.269744,0.200113,100.00,0
2215,0,49464,53424,49440.44,52884.95,23.56,539.05,-0.250361,-0.269765,0.200113,100.00,0
2224,0,49467,53419,49440.49,52886.02,26.51,532.98,-0.250362,-0.269785,0.200113,100.00,0
2235,0,49460,53420,49440.53,52887.09,19.47,532.91,-0.250363,-0.269805,0.200113,100.00,0
2246,0,49462,53408,49440.57,52888.13,21.43,519.87,-0.250364,-0.269825,0.200113,100.00,0
2256,0,49460,53425,49440.61,52889.21,19.39,535.79,-0.250365,-0.269845,0.200113,100.00,0
2265,0,49460,53422,49440.65,52890.27,19.35,531.73,-0.250366,-0.269865,0.200113,100.00,0
2275,0,49457,53423,49440.69,52891.34,16.31,531.66,-0.250366,-0.269886,0.200113,100.00,0
2286,0,49454,53417,49440.71,52892.39,13.29,524.61,-0.250367,-0.269905,0.200113,100.00,0
2295,0,49452,53403,49440.74,52893.41,11.26,509.59,-0.250367,-0.269925,0.200113,100.00,0
2306,0,49447,53387,49440.75,52894.40,6.25,492.60,-0.250368,-0.269943,0.200113,100.00,0
2316,0,49438,53360,49440.75,52895.34,-2.75,464.66,-0.250368,-0.269961,0.200113,100.00,0
2326,0,49432,53349,49440.73,52896.25,-8.73,452.75,-0.250367,-0.269978,0.200113,100.00,0
2335,0,49426,53342,49440.71,52897.14,-14.71,444.86,-0.250367,-0.269995,0.200113,100.00,0
2346,0,49426,53322,49440.68,52897.99,-14.68,424.01,-0.250366,-0.270011,0.200113,100.00,0
2357,0,49414,53319,49440.63,52898.84,-26.63,420.16,-0.250365,-0.270027,0.200113,100.00,0
2365,0,49413,53314,49440.57,52899.67,-27.57,414.33,-0.250364,-0.270043,0.200113,100.00,0
2376,0,49413,53316,49440.52,52900.50,-27.52,415.50,-0.250363,-0.270059,0.200113,100.00,0
2385,0,49403,53307,49440.45,52901.32,-37.45,405.68,-0.250361,-0.270074,0.200113,100.00,0
2395,0,49402,53312,49440.37,52902.14,-38.37,409.86,-0.250360,-0.270090,0.200113,100.00,0
2406,0,49408,53310,49440.31,52902.96,-32.31,407.04,-0.250359,-0.270105,0.200113,100.00,0
2415,0,49406,53307,49440.24,52903.77,-34.24,403.23,-0.250357,-0.270120,0.200113,100.00,0
2425,0,49406,53314,49440.18,52904.59,-34.18,409.41,-0.250356,-0.270136,0.200113,100.00,0
2435,0,49402,53308,49440.10,52905.39,-38.10,402.61,-0.250354,-0.270151,0.200113,100.00,0
2446,0,49398,53308,49440.02,52906.20,-42.02,401.80,-0.250353,-0.270166,0.200113,100.00,0
2456,0,49403,53313,49439.95,52907.02,-36.95,405.98,-0.250351,-0.270182,0.200113,100.00,0
2466,0,49399,53308,49439.86,52907.82,-40.86,400.18,-0.250350,-0.270197,0.200113,100.00,0
2475,0,49405,53309,49439.79,52908.62,-34.79,400.37,-0.250348,-0.270212,0.200113,100.00,0
2485,0,49402,53312,49439.72,52909.43,-37.72,402.57,-0.250347,-0.270228,0.200113,100.00,0
2496,0,49400,53313,49439.64,52910.24,-39.64,402.76,-0.250345,-0.270243,0.200113,100.00,0
2505,0,49396,53308,49439.55,52911.04,-43.55,396.96,-0.250343,-0.270258,0.200113,100.00,0
2517,0,49403,53316,49439.48,52911.85,-36.48,404.15,-0.250342,-0.270273,0.200113,100.00,0
2525,0,49403,53307,49439.41,52912.64,-36.41,394.36,-0.250341,-0.270288,0.200113,100.00,0
2536,0,49395,53307,49439.33,52913.43,-44.33,393.57,-0.250339,-0.270303,0.200113,100.00,0
2546,0,49396,53305,49439.24,52914.22,-43.24,390.78,-0.250337,-0.270318,0.200113,100.00,0
2555,0,49391,53304,49439.15,52915.00,-48.15,389.00,-0.250335,-0.270333,0.200113,100.00,0
2566,0,49392,53303,49439.05,52915.78,-47.05,387.22,-0.250333,-0.270347,0.200113,100.00,0
2576,0,49383,53296,49438.95,52916.54,-55.95,379.46,-0.250331,-0.270362,0.200113,100.00,0
2584,0,49383,53299,49438.84,52917.30,-55.84,381.70,-0.250329,-0.270376,0.200113,100.00,0
2597,0,49384,53298,49438.73,52918.07,-54.73,379.93,-0.250327,-0.270391,0.200113,100.00,0
2605,0,49390,53302,49438.63,52918.84,-48.63,383.16,-0.250325,-0.270405,0.200113,100.00,0
2615,0,49382,53303,49438.52,52919.61,-56.52,383.39,-0.250322,-0.270420,0.200113,100.00,0
2626,0,49379,53311,49438.40,52920.39,-59.40,390.61,-0.250320,-0.270435,0.200113,100.00,0
2635,0,49385,53310,49438.29,52921.17,-53.29,388.83,-0.250318,-0.270449,0.200113,100.00,0
2646,0,49381,53311,49438.18,52921.95,-57.18,389.05,-0.250316,-0.270464,0.200113,100.00,0
2655,0,49376,53310,49438.05,52922.73,-62.05,387.27,-0.250313,-0.270479,0.200113,100.00,0
2665,0,49377,53309,49437.93,52923.50,-60.93,385.50,-0.250311,-0.270493,0.200113,100.00,0
2675,0,49375,53300,49437.81,52924.26,-62.81,375.74,-0.250308,-0.270508,0.200113,100.00,0
2685,0,49369,53302,49437.67,52925.02,-68.67,376.98,-0.250305,-0.270522,0.200113,100.00,0
2695,0,49370,53301,49437.54,52925.77,-67.54,375.23,-0.250303,-0.270536,0.200113,100.00,0
2706,0,49364,53300,49437.39,52926.52,-73.39,373.48,-0.250300,-0.270550,0.200113,100.00,0
2716,0,49370,53305,49437.26,52927.28,-67.26,377.72,-0.250297,-0.270565,0.200113,100.00,0
2727,0,49358,53296,49437.11,52928.02,-79.11,367.98,-0.250294,-0.270579,0.200113,100.00,0
2735,0,49359,53292,49436.95,52928.75,-77.95,363.25,-0.250291,-0.270593,0.200113,100.00,0
2746,0,49359,53291,49436.79,52929.47,-77.79,361.53,-0.250288,-0.270606,0.200113,100.00,0
2756,0,49360,53293,49436.64,52930.20,-76.64,362.80,-0.250284,-0.270620,0.200113,100.00,0
2766,0,49354,53297,49436.48,52930.93,-82.48,366.07,-0.250281,-0.270634,0.200113,100.00,0
2776,0,49351,53295,49436.31,52931.66,-85.31,363.34,-0.250278,-0.270648,0.200113,100.00,0
2785,0,49352,53293,49436.14,52932.39,-84.14,360.61,-0.250274,-0.270661,0.200113,100.00,0
2795,0,49359,53292,49435.99,52933.11,-76.99,358.89,-0.250271,-0.270675,0.200113,100.00,0
2806,0,49354,53294,49435.82,52933.83,-81.82,360.17,-0.250268,-0.270689,0.200113,100.00,0
2814,0,49353,53293,49435.66,52934.55,-82.66,358.45,-0.250265,-0.270702,0.200113,100.00,0
2825,0,49356,53296,49435.50,52935.27,-79.50,360.73,-0.250262,-0.270716,0.200113,100.00,0
2835,0,49361,53303,49435.36,52936.01,-74.36,366.99,-0.250258,-0.270730,0.200113,100.00,0
2844,0,49361,53305,49435.21,52936.75,-74.21,368.25,-0.250255,-0.270744,0.200113,100.00,0
2855,0,49367,53310,49435.07,52937.49,-68.07,372.51,-0.250253,-0.270758,0.200113,100.00,0
2865,0,49361,53292,49434.92,52938.20,-73.92,353.80,-0.250250,-0.270771,0.200113,100.00,0
2875,0,49357,53283,49434.77,52938.89,-77.77,344.11,-0.250247,-0.270784,0.200113,100.00,0
2885,0,49354,53263,49434.61,52939.54,-80.61,323.46,-0.250243,-0.270796,0.200113,100.00,0
2895,0,49346,53245,49434.43,52940.16,-88.43,304.84,-0.250240,-0.270808,0.200113,100.00,0
2905,0,49332,53224,49434.23,52940.73,-102.23,283.27,-0.250236,-0.270819,0.200113,100.00,0
2916,0,49331,53205,49434.02,52941.26,-103.02,263.74,-0.250231,-0.270829,0.200113,100.00,0
2926,0,49320,53189,49433.79,52941.75,-113.79,247.25,-0.250227,-0.270838,0.200113,100.00,0
2935,0,49306,53182,49433.54,52942.23,-127.54,239.77,-0.250222,-0.270847,0.200113,100.00,0
2945,0,49306,53173,49433.29,52942.70,-127.29,230.30,-0.250217,-0.270856,0.200113,100.00,0
2955,0,49304,53170,49433.03,52943.16,-129.03,226.84,-0.250211,-0.270865,0.200113,100.00,0
2966,0,49307,53168,49432.78,52943.61,-125.78,224.39,-0.250206,-0.270873,0.200113,100.00,0
2975,0,49302,53173,49432.52,52944.07,-130.52,228.93,-0.250201,-0.270882,0.200113,100.00,0
2986,0,49291,53178,49432.23,52944.54,-141.23,233.46,-0.250195,-0.270891,0.200113,100.00,0
2996,0,49296,53170,49431.96,52944.99,-135.96,225.01,-0.250190,-0.270899,0.200113,100.00,0
3006,0,49292,53175,49431.69,52945.45,-139.69,229.55,-0.250184,-0.270908,0.200113,100.00,0
3015,0,49288,53176,49431.40,52945.91,-143.40,230.09,-0.250179,-0.270917,0.200113,100.00,0
3025,0,49297,53173,49431.14,52946.37,-134.14,226.63,-0.250173,-0.270925,0.200113,100.00,0
3035,0,49292,53171,49430.86,52946.82,-138.86,224.18,-0.250167,-0.270934,0.200113,100.00,0
3045,0,49289,53174,49430.58,52947.27,-141.58,226.73,-0.250162,-0.270942,0.200113,100.00,0
3056,0,49287,53170,49430.29,52947.72,-143.29,222.28,-0.250156,-0.270951,0.200113,100.00,0
3066,0,49294,53181,49430.02,52948.19,-136.02,232.81,-0.250151,-0.270960,0.200113,100.00,0
3076,0,49291,53173,49429.75,52948.64,-138.75,224.36,-0.250145,-0.270968,0.200113,100.00,0
3085,0,49292,53180,49429.47,52949.10,-137.47,230.90,-0.250139,-0.270977,0.200113,100.00,0
3096,0,49293,53182,49429.20,52949.57,-136.20,232.43,-0.250134,-0.270986,0.200113,100.00,0
3105,0,49292,53182,49428.93,52950.04,-136.93,231.96,-0.250128,-0.270995,0.200113,100.00,0
3115,0,49293,53184,49428.66,52950.50,-135.66,233.50,-0.250123,-0.271003,0.200113,100.00,0
3124,0,49290,53178,49428.38,52950.96,-138.38,227.04,-0.250117,-0.271012,0.200113,100.00,0
3135,0,49295,53171,49428.11,52951.40,-133.11,219.60,-0.250112,-0.271021,0.200113,100.00,0
3145,0,49289,53184,49427.84,52951.87,-138.84,232.13,-0.250106,-0.271029,0.202301,100.00,1
3155,0,49291,53178,49427.56,52952.32,-136.56,225.68,-0.250101,-0.271038,0.204715,100.00,1
3166,0,49286,53177,49427.28,52952.77,-141.28,224.23,-0.250095,-0.271046,0.207302,100.00,1
3176,0,49288,53169,49427.00,52953.20,-139.00,215.80,-0.250089,-0.271055,0.209800,100.00,1
3185,0,49286,53174,49426.72,52953.64,-140.72,220.36,-0.250084,-0.271063,0.212337,100.00,1
3196,0,49286,53171,49426.44,52954.08,-140.44,216.92,-0.250078,-0.271071,0.214855,100.00,1
3205,0,49276,53161,49426.14,52954.50,-150.14,206.50,-0.250072,-0.271079,0.217774,100.00,1
3216,0,49277,53166,49425.84,52954.92,-148.84,211.08,-0.250066,-0.271087,0.220605,100.00,1
3225,0,49274,53161,49425.54,52955.34,-151.54,205.66,-0.250060,-0.271095,0.223541,100.00,1
3235,0,49268,53168,49425.23,52955.76,-157.23,212.24,-0.250054,-0.271103,0.226677,100.00,1
3245,0,49265,53157,49424.91,52956.16,-159.91,200.84,-0.250047,-0.271110,0.229933,100.00,1
3256,0,49265,53157,49424.59,52956.57,-159.59,200.43,-0.250041,-0.271118,0.233148,100.00,1
3264,0,49261,53164,49424.27,52956.98,-163.27,207.02,-0.250034,-0.271126,0.236479,100.00,1
3275,0,49262,53154,49423.94,52957.38,-161.94,196.62,-0.250028,-0.271133,0.239751,100.00,1
3286,0,49255,53159,49423.61,52957.79,-168.61,201.21,-0.250021,-0.271141,0.243278,100.00,1
3296,0,49254,53158,49423.27,52958.19,-169.27,199.81,-0.250014,-0.271149,0.246807,100.00,1
3307,0,49248,53152,49422.92,52958.58,-174.92,193.42,-0.250007,-0.271156,0.250578,100.00,1
3316,0,49250,53159,49422.57,52958.98,-172.57,200.02,-0.250000,-0.271164,0.254189,100.00,1
3328,0,49245,53158,49422.22,52959.38,-177.22,198.62,-0.249993,-0.271171,0.257984,100.00,1
3340,0,49248,53161,49421.87,52959.79,-173.87,201.21,-0.249986,-0.271179,0.261585,100.00,1
3351,0,49253,53166,49421.54,52960.20,-168.54,205.80,-0.249979,-0.271187,0.264909,100.00,1
3365,0,49253,53168,49421.20,52960.62,-168.20,207.38,-0.249972,-0.271194,0.268189,100.00,1
3374,0,49246,53175,49420.85,52961.05,-174.85,213.95,-0.249965,-0.271203,0.271711,100.00,1
3386,0,49242,53166,49420.50,52961.46,-178.50,204.54,-0.249958,-0.271210,0.275398,100.00,1
3394,0,49250,53177,49420.16,52961.89,-170.16,215.11,-0.249951,-0.271219,0.278654,100.00,1
3399,0,49247,53175,49419.81,52962.32,-172.81,212.68,-0.249944,-0.271227,0.282009,100.00,1
3404,0,49249,53180,49419.47,52962.75,-170.47,217.25,-0.249937,-0.271235,0.285223,100.00,1
3413,0,49254,53188,49419.14,52963.21,-165.14,224.79,-0.249930,-0.271243,0.288165,100.00,1
3424,0,49261,53189,49418.83,52963.66,-157.83,225.34,-0.249924,-0.271252,0.290795,100.00,1
3436,0,49257,53188,49418.50,52964.11,-161.50,223.89,-0.249918,-0.271260,0.293562,100.00,1
3448,0,49254,53189,49418.18,52964.56,-164.18,224.44,-0.249911,-0.271269,0.296417,100.00,1
3456,0,49248,53181,49417.84,52964.99,-169.84,216.01,-0.249904,-0.271277,0.299521,100.00,1
3466,0,49246,53164,49417.49,52965.39,-171.49,198.61,-0.249897,-0.271285,0.302745,100.00,1
3475,0,49239,53149,49417.14,52965.76,-178.14,183.24,-0.249890,-0.271292,0.306291,100.00,1
3486,0,49232,53131,49416.77,52966.09,-184.77,164.91,-0.249882,-0.271298,0.310170,100.00,1
3495,0,49233,53122,49416.40,52966.40,-183.40,155.60,-0.249875,-0.271304,0.313997,100.00,1
3506,0,49224,53110,49416.02,52966.69,-192.02,143.31,-0.249867,-0.271309,0.318230,100.00,1
3516,0,49227,53108,49415.64,52966.98,-188.64,141.02,-0.249860,-0.271315,0.322292,100.00,1
3526,0,49220,53101,49415.25,52967.25,-195.25,133.75,-0.249852,-0.271320,0.326656,100.00,1
3536,0,49212,53109,49414.85,52967.53,-202.85,141.47,-0.249844,-0.271325,0.331329,100.00,1
3546,0,49224,53115,49414.47,52967.83,-190.47,147.17,-0.249836,-0.271331,0.335379,100.00,1
3556,0,49222,53120,49414.09,52968.13,-192.09,151.87,-0.249828,-0.271336,0.339466,100.00,1
3567,0,49225,53129,49413.71,52968.46,-188.71,160.54,-0.249821,-0.271343,0.343349,100.00,1
3579,0,49229,53132,49413.34,52968.79,-184.34,163.21,-0.249813,-0.271349,0.347013,100.00,1
3586,0,49226,53139,49412.97,52969.13,-186.97,169.87,-0.249805,-0.271355,0.350748,100.00,1
3596,0,49229,53152,49412.60,52969.50,-183.60,182.50,-0.249798,-0.271362,0.354264,100.00,1
3606,0,49230,53155,49412.24,52969.87,-182.24,185.13,-0.249791,-0.271369,0.357695,100.00,1
3616,0,49237,53158,49411.89,52970.25,-174.89,187.75,-0.249784,-0.271376,0.360794,100.00,1
3626,0,49235,53165,49411.54,52970.64,-176.54,194.36,-0.249777,-0.271384,0.363915,100.00,1
3636,0,49232,53169,49411.18,52971.04,-179.18,197.96,-0.249769,-0.271391,0.367113,100.00,1
3647,0,49236,53168,49410.83,52971.43,-174.83,196.57,-0.249762,-0.271399,0.370128,100.00,1
3656,0,49235,53180,49410.48,52971.85,-175.48,208.15,-0.249755,-0.271407,0.373092,100.00,1
3666,0,49238,53178,49410.14,52972.26,-172.14,205.74,-0.249748,-0.271414,0.375924,100.00,1
3677,0,49235,53186,49409.79,52972.69,-174.79,213.31,-0.249741,-0.271423,0.378805,100.00,1
3685,0,49231,53190,49409.43,52973.13,-178.43,216.87,-0.249734,-0.271431,0.381799,100.00,1
3697,0,49233,53189,49409.08,52973.56,-176.08,215.44,-0.249727,-0.271439,0.384692,100.00,1
3706,0,49229,53185,49408.72,52973.99,-179.72,211.01,-0.249720,-0.271447,0.387749,100.00,1
3716,0,49230,53199,49408.37,52974.44,-178.37,224.56,-0.249712,-0.271455,0.390646,100.00,1
3727,0,49235,53194,49408.02,52974.88,-173.02,219.12,-0.249705,-0.271464,0.393351,100.00,1
3736,0,49225,53189,49407.66,52975.31,-182.66,213.69,-0.249698,-0.271472,0.396472,100.00,1
3747,0,49231,53191,49407.31,52975.75,-176.31,215.25,-0.249691,-0.271480,0.399308,100.00,1
3757,0,49228,53202,49406.95,52976.20,-178.95,225.80,-0.249684,-0.271489,0.402163,99.95,1
3766,0,49233,53201,49406.61,52976.65,-173.61,224.35,-0.249677,-0.271497,0.404800,99.88,1
3776,0,49226,53201,49406.25,52977.10,-180.25,223.90,-0.249669,-0.271506,0.407696,99.81,1
3786,0,49231,53205,49405.90,52977.55,-174.90,227.45,-0.249662,-0.271514,0.410335,99.74,1
3796,0,49228,53206,49405.54,52978.01,-177.54,227.99,-0.249655,-0.271523,0.413063,99.67,1
3806,0,49230,53207,49405.19,52978.47,-175.19,228.53,-0.249648,-0.271532,0.415679,99.61,1
3816,0,49230,53208,49404.84,52978.93,-174.84,229.07,-0.249641,-0.271540,0.418265,99.54,1
3827,0,49232,53217,49404.50,52979.41,-172.50,237.59,-0.249634,-0.271549,0.420676,99.48,1
3836,0,49229,53208,49404.15,52979.87,-175.15,228.13,-0.249627,-0.271558,0.423258,99.42,1
3846,0,49229,53221,49403.80,52980.35,-174.80,240.65,-0.249620,-0.271567,0.425709,99.36,1
3856,0,49233,53221,49403.46,52980.84,-170.46,240.16,-0.249613,-0.271576,0.427982,99.30,1
3866,0,49236,53230,49403.13,52981.34,-167.13,248.66,-0.249606,-0.271586,0.430041,99.25,1
3876,0,49231,53232,49402.79,52981.84,-171.79,250.16,-0.249599,-0.271595,0.432254,99.19,1
3888,0,49232,53238,49402.45,52982.36,-170.45,255.64,-0.249593,-0.271605,0.434351,99.14,1
3896,0,49227,53241,49402.09,52982.87,-175.09,258.12,-0.249585,-0.271615,0.436593,99.09,1
3907,0,49225,53240,49401.74,52983.39,-176.74,256.61,-0.249578,-0.271624,0.438902,99.03,1
3916,0,49222,53246,49401.38,52983.92,-179.38,262.08,-0.249571,-0.271634,0.441247,98.97,1
3927,0,49223,53249,49401.03,52984.45,-178.03,264.55,-0.249564,-0.271644,0.443496,98.91,1
3936,0,49225,53252,49400.68,52984.98,-175.68,267.02,-0.249557,-0.271654,0.445610,98.86,1
3948,0,49224,53258,49400.32,52985.53,-176.32,272.47,-0.249550,-0.271665,0.447677,98.81,1
3956,0,49228,53258,49399.98,52986.08,-171.98,271.92,-0.249543,-0.271675,0.449565,98.76,1
3966,0,49224,53259,49399.63,52986.62,-175.63,272.37,-0.249536,-0.271685,0.451577,98.71,1
3977,0,49221,53263,49399.27,52987.18,-178.27,275.82,-0.249528,-0.271696,0.453641,98.66,1
3986,0,49224,53267,49398.93,52987.74,-174.93,279.26,-0.249521,-0.271707,0.455517,98.61,1
3996,0,49229,53274,49398.59,52988.32,-169.59,285.68,-0.249514,-0.271717,0.457100,98.57,1
4006,0,49231,53277,49398.25,52988.89,-167.25,288.11,-0.249508,-0.271728,0.458553,98.54,1
4016,0,49229,53279,49397.92,52989.48,-168.92,289.52,-0.249501,-0.271739,0.460041,98.50,1
4027,0,49225,53277,49397.57,52990.05,-172.57,286.95,-0.249494,-0.271750,0.461687,98.46,1
4036,0,49222,53272,49397.22,52990.62,-175.22,281.38,-0.249487,-0.271761,0.463489,98.41,1
4048,0,49233,53257,49396.89,52991.16,-163.89,265.84,-0.249480,-0.271771,0.465025,98.37,1
4056,0,49221,53240,49396.54,52991.66,-175.54,248.34,-0.249473,-0.271780,0.467183,98.32,1
4066,0,49214,53223,49396.18,52992.12,-182.18,230.88,-0.249466,-0.271789,0.469773,98.26,1
4077,0,49201,53216,49395.79,52992.57,-194.79,223.43,-0.249458,-0.271798,0.472953,98.18,1
4086,0,49201,53210,49395.40,52993.01,-194.40,216.99,-0.249450,-0.271806,0.476160,98.10,1
4093,0,49203,53202,49395.02,52993.43,-192.02,208.57,-0.249442,-0.271814,0.479327,98.02,1
4106,0,49207,53206,49394.64,52993.85,-187.64,212.15,-0.249435,-0.271822,0.482260,97.94,1
4116,0,49210,53210,49394.28,52994.29,-184.28,215.71,-0.249427,-0.271830,0.485007,97.87,1
4125,0,49213,53218,49393.92,52994.73,-180.92,223.27,-0.249420,-0.271839,0.487530,97.81,1
4136,0,49209,53211,49393.55,52995.17,-184.55,215.83,-0.249412,-0.271847,0.490264,97.74,1
4145,0,49204,53224,49393.17,52995.63,-189.17,228.37,-0.249405,-0.271855,0.493049,97.67,1
4156,0,49214,53228,49392.82,52996.09,-178.82,231.91,-0.249398,-0.271864,0.495355,97.62,1
4167,0,49213,53235,49392.46,52996.57,-179.46,238.43,-0.249390,-0.271873,0.497603,97.56,1
4176,0,49214,53235,49392.10,52997.05,-178.10,237.95,-0.249383,-0.271882,0.499790,97.51,1
4186,0,49213,53231,49391.75,52997.52,-178.75,233.48,-0.249376,-0.271891,0.502043,97.45,1
4196,0,49207,53233,49391.38,52997.99,-184.38,235.01,-0.249368,-0.271900,0.504495,97.39,1
4206,0,49211,53231,49391.02,52998.46,-180.02,232.54,-0.249361,-0.271909,0.506785,97.33,1
4216,0,49204,53234,49390.65,52998.93,-186.65,235.07,-0.249354,-0.271918,0.509304,97.27,1
4226,0,49208,53234,49390.29,52999.41,-182.29,234.59,-0.249346,-0.271927,0.511635,97.21,1
4236,0,49205,53238,49389.91,52999.89,-184.91,238.11,-0.249339,-0.271936,0.514019,97.15,1
4245,0,49204,53246,49389.54,53000.38,-185.54,245.62,-0.249331,-0.271945,0.516322,97.09,1
4254,0,49203,53250,49389.17,53000.88,-186.17,249.12,-0.249324,-0.271954,0.518591,97.04,1
4266,0,49203,53249,49388.80,53001.37,-185.80,247.62,-0.249316,-0.271964,0.520849,96.98,1
4276,0,49200,53251,49388.43,53001.87,-188.43,249.12,-0.249309,-0.271973,0.523182,96.92,1
4286,0,49203,53251,49388.05,53002.37,-185.05,248.62,-0.249301,-0.271983,0.525365,96.87,1
4296,0,49203,53250,49387.69,53002.87,-184.69,247.13,-0.249294,-0.271992,0.527539,96.81,1
4306,0,49203,53252,49387.32,53003.37,-184.32,248.63,-0.249286,-0.272001,0.529664,96.76,1
4316,0,49198,53255,49386.94,53003.87,-188.94,251.12,-0.249279,-0.272011,0.531932,96.70,1
4326,0,49199,53255,49386.57,53004.38,-187.57,250.62,-0.249271,-0.272020,0.534134,96.65,1
4336,0,49198,53261,49386.19,53004.89,-188.19,256.11,-0.249263,-0.272030,0.536270,96.59,1
4346,0,49203,53265,49385.83,53005.42,-182.83,259.58,-0.249256,-0.272040,0.538120,96.55,1
4356,0,49196,53273,49385.45,53005.95,-189.45,267.05,-0.249248,-0.272050,0.540119,96.50,1
4366,0,49190,53270,49385.06,53006.48,-195.06,263.52,-0.249241,-0.272060,0.542393,96.44,1
4377,0,49202,53277,49384.70,53007.03,-182.70,269.97,-0.249233,-0.272070,0.544034,96.40,1
4386,0,49200,53279,49384.33,53007.57,-184.33,271.43,-0.249226,-0.272081,0.545706,96.36,1
4397,0,49196,53277,49383.95,53008.11,-187.95,268.89,-0.249218,-0.272091,0.547552,96.31,1
4406,0,49196,53274,49383.58,53008.64,-187.58,265.36,-0.249211,-0.272101,0.549421,96.26,1
4416,0,49196,53290,49383.20,53009.21,-187.20,280.79,-0.249203,-0.272112,0.551015,96.22,1
4427,0,49192,53287,49382.82,53009.77,-190.82,277.23,-0.249195,-0.272122,0.552803,96.18,1
4436,0,49192,53281,49382.44,53010.31,-190.44,270.69,-0.249188,-0.272132,0.554663,96.13,1
4446,0,49192,53290,49382.06,53010.87,-190.06,279.13,-0.249180,-0.272143,0.556355,96.09,1
4456,0,49193,53287,49381.69,53011.43,-188.69,275.57,-0.249172,-0.272153,0.558032,96.05,1
4466,0,49196,53291,49381.32,53011.98,-185.32,279.02,-0.249165,-0.272164,0.559499,96.01,1
4476,0,49200,53298,49380.95,53012.56,-180.95,285.44,-0.249157,-0.272175,0.560670,95.98,1
4486,0,49197,53306,49380.59,53013.15,-183.59,292.85,-0.249150,-0.272186,0.561807,95.95,1
4496,0,49205,53313,49380.23,53013.75,-175.23,299.25,-0.249143,-0.272197,0.562493,95.94,1
4506,0,49204,53314,49379.88,53014.35,-175.88,299.65,-0.249136,-0.272209,0.563189,95.92,1
4516,0,49201,53311,49379.53,53014.95,-178.53,296.05,-0.249129,-0.272220,0.564044,95.90,1
4526,0,49206,53322,49379.18,53015.56,-173.18,306.44,-0.249121,-0.272231,0.564498,95.89,1
4536,0,49205,53326,49378.83,53016.18,-173.83,309.82,-0.249114,-0.272243,0.564909,95.88,1
4547,0,49208,53322,49378.49,53016.80,-170.49,305.20,-0.249108,-0.272255,0.565276,95.87,1
4556,0,49199,53321,49378.13,53017.41,-179.13,303.59,-0.249100,-0.272266,0.565998,95.85,1
4566,0,49202,53323,49377.78,53018.02,-175.78,304.98,-0.249093,-0.272278,0.566556,95.84,1
4577,0,49193,53318,49377.41,53018.62,-184.41,299.38,-0.249086,-0.272289,0.567549,95.81,1
4587,0,49202,53322,49377.07,53019.23,-175.07,302.77,-0.249079,-0.272301,0.568105,95.80,1
4596,0,49190,53308,49376.70,53019.81,-186.70,288.19,-0.249071,-0.272312,0.569372,95.77,1
4608,0,49193,53295,49376.33,53020.36,-183.33,274.64,-0.249064,-0.272322,0.570724,95.73,1
4616,0,49185,53282,49375.95,53020.88,-190.95,261.12,-0.249056,-0.272332,0.572595,95.69,1
4626,0,49181,53269,49375.56,53021.38,-194.56,247.62,-0.249048,-0.272341,0.574815,95.63,1
4636,0,49168,53259,49375.14,53021.86,-207.14,237.14,-0.249040,-0.272350,0.577723,95.56,1
4649,0,49165,53253,49374.73,53022.32,-209.73,230.68,-0.249031,-0.272359,0.580821,95.48,1
4656,0,49171,53242,49374.32,53022.76,-203.32,219.24,-0.249023,-0.272367,0.583777,95.41,1
4665,0,49158,53236,49373.89,53023.19,-215.89,212.81,-0.249014,-0.272375,0.587374,95.32,1
4674,0,49166,53235,49373.48,53023.62,-207.48,211.38,-0.249006,-0.272383,0.590586,95.24,1
4686,0,49160,53233,49373.05,53024.04,-213.05,208.96,-0.248997,-0.272391,0.594067,95.15,1
4697,0,49162,53236,49372.63,53024.46,-210.63,211.54,-0.248989,-0.272399,0.597382,95.07,1
4706,0,49155,53243,49372.20,53024.90,-217.20,218.10,-0.248980,-0.272408,0.600887,94.98,1
4716,0,49158,53249,49371.77,53025.35,-213.77,223.65,-0.248971,-0.272416,0.604128,94.90,1
4726,0,49156,53242,49371.34,53025.79,-215.34,216.21,-0.248963,-0.272424,0.607532,94.81,1
4736,0,49156,53250,49370.91,53026.23,-214.91,223.77,-0.248954,-0.272433,0.610781,94.73,1
4748,0,49157,53252,49370.48,53026.69,-213.48,225.31,-0.248945,-0.272441,0.613919,94.65,1
4758,0,49155,53254,49370.05,53027.14,-215.05,226.86,-0.248937,-0.272450,0.617083,94.57,1
4768,0,49155,53252,49369.62,53027.59,-214.62,224.41,-0.248928,-0.272458,0.620246,94.49,1
4778,0,49158,53253,49369.20,53028.05,-211.20,224.95,-0.248919,-0.272467,0.623223,94.42,1
4787,0,49156,53254,49368.78,53028.50,-212.78,225.50,-0.248911,-0.272475,0.626244,94.34,1
4799,0,49154,53255,49368.35,53028.95,-214.35,226.05,-0.248902,-0.272484,0.629308,94.27,1
4805,0,49154,53259,49367.92,53029.41,-213.92,229.59,-0.248893,-0.272493,0.632273,94.19,1
4816,0,49143,53255,49367.47,53029.87,-224.47,225.13,-0.248884,-0.272501,0.635785,94.11,1
4827,0,49144,53258,49367.03,53030.32,-223.03,227.68,-0.248875,-0.272510,0.639159,94.02,1
4836,0,49149,53255,49366.59,53030.77,-217.59,224.23,-0.248867,-0.272518,0.642313,93.94,1
4846,0,49144,53250,49366.15,53031.21,-222.15,218.79,-0.248858,-0.272527,0.645751,93.86,1
4857,0,49144,53245,49365.71,53031.64,-221.71,213.36,-0.248849,-0.272535,0.649236,93.77,1
4867,0,49136,53251,49365.25,53032.09,-229.25,218.91,-0.248839,-0.272543,0.652966,93.68,1
4877,0,49137,53247,49364.79,53032.52,-227.79,214.48,-0.248830,-0.272551,0.656675,93.58,1
4887,0,49133,53255,49364.33,53032.96,-231.33,222.04,-0.248821,-0.272560,0.660400,93.49,1
4897,0,49135,53250,49363.87,53033.39,-228.87,216.61,-0.248812,-0.272568,0.664074,93.40,1
4907,0,49139,53252,49363.43,53033.83,-224.43,218.17,-0.248802,-0.272576,0.667483,93.31,1
4917,0,49137,53253,49362.97,53034.27,-225.97,218.73,-0.248793,-0.272584,0.670932,93.23,1
4927,0,49132,53255,49362.51,53034.71,-230.51,220.29,-0.248784,-0.272593,0.674548,93.14,1
4937,0,49128,53258,49362.04,53035.16,-234.04,222.84,-0.248774,-0.272601,0.678264,93.04,1
4947,0,49129,53254,49361.58,53035.60,-232.58,218.40,-0.248765,-0.272609,0.681961,92.95,1
4957,0,49126,53265,49361.11,53036.06,-235.11,228.94,-0.248755,-0.272618,0.685556,92.86,1
4968,0,49129,53266,49360.64,53036.52,-231.64,229.48,-0.248746,-0.272627,0.688942,92.78,1
4978,0,49124,53270,49360.17,53036.99,-236.17,233.01,-0.248736,-0.272636,0.692452,92.69,1
4987,0,49120,53267,49359.69,53037.45,-239.69,229.55,-0.248727,-0.272644,0.696175,92.60,1
4997,0,49120,53274,49359.21,53037.93,-239.21,236.07,-0.248717,-0.272653,0.699710,92.51,1
5007,0,49125,53274,49358.75,53038.40,-233.75,235.60,-0.248708,-0.272662,0.702955,92.43,1
5018,0,49124,53278,49358.28,53038.88,-234.28,239.12,-0.248698,-0.272671,0.706123,92.35,1
5028,0,49125,53280,49357.81,53039.36,-232.81,240.64,-0.248689,-0.272680,0.709160,92.27,1
5037,0,49118,53285,49357.34,53039.86,-239.34,245.14,-0.248679,-0.272690,0.712389,92.19,1
5048,0,49124,53281,49356.87,53040.34,-232.87,240.66,-0.248670,-0.272699,0.715372,92.12,1
5057,0,49122,53280,49356.40,53040.82,-234.40,239.18,-0.248660,-0.272708,0.718434,92.04,1
5066,0,49115,53282,49355.92,53041.30,-240.92,240.70,-0.248650,-0.272717,0.721754,91.96,1
5078,0,49118,53281,49355.45,53041.79,-237.45,239.21,-0.248641,-0.272726,0.724906,91.88,1
5088,0,49123,53281,49354.98,53042.27,-231.98,238.73,-0.248631,-0.272735,0.727778,91.81,1
5098,0,49123,53292,49354.52,53042.77,-231.52,249.23,-0.248622,-0.272744,0.730362,91.74,1
5107,0,49117,53289,49354.05,53043.26,-237.05,245.74,-0.248612,-0.272754,0.733268,91.67,1
5117,0,49118,53286,49353.58,53043.75,-235.58,242.25,-0.248603,-0.272763,0.736157,91.60,1
5128,0,49122,53292,49353.12,53044.24,-231.12,247.76,-0.248594,-0.272772,0.738678,91.53,1
5138,0,49114,53295,49352.64,53044.75,-238.64,250.25,-0.248584,-0.272782,0.741476,91.46,1
5149,0,49113,53296,49352.16,53045.25,-239.16,250.75,-0.248574,-0.272791,0.744258,91.39,1
5157,0,49123,53305,49351.71,53045.77,-228.71,259.23,-0.248565,-0.272801,0.746307,91.34,1
5167,0,49122,53298,49351.25,53046.27,-229.25,251.73,-0.248556,-0.272811,0.748548,91.29,1
5178,0,49119,53284,49350.79,53046.75,-231.79,237.25,-0.248546,-0.272820,0.751234,91.22,1
5187,0,49111,53278,49350.31,53047.21,-239.31,230.79,-0.248537,-0.272828,0.754405,91.14,1
5198,0,49107,53260,49349.82,53047.64,-242.82,212.36,-0.248527,-0.272836,0.758130,91.05,1
5207,0,49097,53243,49349.32,53048.03,-252.32,194.97,-0.248517,-0.272844,0.762662,90.93,1
5217,0,49092,53231,49348.81,53048.40,-256.81,182.60,-0.248506,-0.272851,0.767635,90.81,1
5227,0,49090,53230,49348.29,53048.76,-258.29,181.24,-0.248496,-0.272857,0.772685,90.68,1
5237,0,49089,53220,49347.78,53049.11,-258.78,170.89,-0.248485,-0.272864,0.777924,90.55,1
5248,0,49078,53221,49347.24,53049.45,-269.24,171.55,-0.248474,-0.272870,0.783682,90.41,1
5258,0,49086,53215,49346.72,53049.78,-260.72,165.22,-0.248464,-0.272877,0.789072,90.27,1
5267,0,49083,53217,49346.19,53050.12,-263.19,166.88,-0.248453,-0.272883,0.794540,90.14,1
5278,0,49079,53226,49345.66,53050.47,-266.66,175.53,-0.248442,-0.272890,0.800003,90.00,1
5287,0,49089,53224,49345.15,53050.82,-256.15,173.18,-0.248432,-0.272896,0.804933,89.88,1
5297,0,49081,53233,49344.62,53051.18,-263.62,181.82,-0.248421,-0.272903,0.810057,89.75,1
5308,0,49081,53229,49344.09,53051.54,-263.09,177.46,-0.248411,-0.272910,0.815214,89.62,1
5317,0,49084,53235,49343.57,53051.91,-259.57,183.09,-0.248400,-0.272917,0.820044,89.50,1
5327,0,49082,53232,49343.05,53052.27,-261.05,179.73,-0.248390,-0.272924,0.824996,89.38,1
5337,0,49082,53235,49342.53,53052.64,-260.53,182.36,-0.248379,-0.272931,0.829840,89.25,1
5348,0,49083,53237,49342.01,53053.01,-259.01,183.99,-0.248369,-0.272937,0.834544,89.14,1
5357,0,49084,53239,49341.50,53053.38,-257.50,185.62,-0.248358,-0.272945,0.839108,89.02,1
5367,0,49080,53233,49340.97,53053.74,-260.97,179.26,-0.248347,-0.272951,0.843970,88.90,1
5377,0,49077,53235,49340.45,53054.11,-263.45,180.89,-0.248337,-0.272958,0.848900,88.78,1
5387,0,49080,53235,49339.93,53054.47,-259.93,180.53,-0.248326,-0.272965,0.853630,88.66,1
5397,0,49083,53241,49339.41,53054.84,-256.41,186.16,-0.248316,-0.272972,0.858024,88.55,1
5407,0,49081,53245,49338.90,53055.23,-257.90,189.77,-0.248305,-0.272979,0.862384,88.44,1
5417,0,49090,53239,49338.40,53055.59,-248.40,183.41,-0.248295,-0.272986,0.866395,88.34,1
5427,0,49079,53240,49337.89,53055.96,-258.89,184.04,-0.248285,-0.272993,0.870901,88.23,1
5437,0,49083,53237,49337.38,53056.33,-254.38,180.67,-0.248275,-0.273000,0.875235,88.12,1
5448,0,49084,53234,49336.87,53056.68,-252.87,177.32,-0.248264,-0.273007,0.879552,88.01,1
5458,0,49075,53232,49336.35,53057.04,-261.35,174.96,-0.248254,-0.273013,0.884340,87.89,1
5467,0,49073,53228,49335.82,53057.38,-262.82,170.62,-0.248243,-0.273020,0.889285,87.77,1
5478,0,49076,53228,49335.30,53057.72,-259.30,170.28,-0.248233,-0.273026,0.894033,87.65,1
5487,0,49075,53231,49334.79,53058.07,-259.79,172.93,-0.248222,-0.273033,0.898723,87.53,1
5497,0,49075,53234,49334.27,53058.42,-259.27,175.58,-0.248212,-0.273040,0.903301,87.42,1
5506,0,49070,53229,49333.74,53058.77,-263.74,170.23,-0.248201,-0.273046,0.908223,87.29,1
5516,0,49071,53228,49333.21,53059.11,-262.21,168.89,-0.248190,-0.273052,0.913075,87.17,1
5526,0,49074,53233,49332.70,53059.45,-258.70,173.55,-0.248180,-0.273059,0.917609,87.06,1
5537,0,49073,53224,49332.18,53059.79,-259.18,164.21,-0.248169,-0.273065,0.922379,86.94,1
5548,0,49069,53232,49331.66,53060.13,-262.66,171.87,-0.248159,-0.273072,0.927121,86.82,1
5557,0,49078,53231,49331.15,53060.48,-253.15,170.52,-0.248148,-0.273078,0.931388,86.72,1
5567,0,49066,53230,49330.62,53060.82,-264.62,169.18,-0.248138,-0.273085,0.936266,86.59,1
5577,0,49063,53234,49330.09,53061.16,-267.09,172.84,-0.248127,-0.273091,0.941158,86.47,1
5587,0,49065,53229,49329.56,53061.50,-264.56,167.50,-0.248116,-0.273098,0.946033,86.35,1
5598,0,49059,53235,49329.02,53061.85,-270.02,173.15,-0.248105,-0.273104,0.951028,86.22,1
5608,0,49063,53236,49328.49,53062.20,-265.49,173.80,-0.248094,-0.273111,0.955739,86.11,1
5618,0,49059,53233,49327.95,53062.54,-268.95,170.46,-0.248083,-0.273117,0.960703,85.98,1
5627,0,49058,53233,49327.41,53062.89,-269.41,170.11,-0.248073,-0.273124,0.965678,85.86,1
5637,0,49063,53240,49326.88,53063.24,-263.88,176.76,-0.248062,-0.273130,0.970148,85.75,1
5653,0,49058,53246,49326.35,53063.61,-268.35,182.39,-0.248051,-0.273137,0.974667,85.63,1
5660,0,49059,53241,49325.81,53063.96,-266.81,177.04,-0.248040,-0.273144,0.979238,85.52,1
5667,0,49063,53250,49325.29,53064.34,-262.29,185.66,-0.248029,-0.273151,0.983284,85.42,1
5676,0,49055,53248,49324.75,53064.71,-269.75,183.29,-0.248019,-0.273158,0.987778,85.31,1
5687,0,49054,53243,49324.21,53065.07,-270.21,177.93,-0.248008,-0.273165,0.992434,85.19,1
5697,0,49051,53238,49323.66,53065.41,-272.66,172.59,-0.247997,-0.273171,0.997359,85.07,1
5707,0,49054,53247,49323.12,53065.78,-269.12,181.22,-0.247986,-0.273178,1.001803,84.95,1
5717,0,49050,53248,49322.58,53066.14,-272.58,181.86,-0.247975,-0.273185,1.006388,84.84,1
5728,0,49047,53253,49322.03,53066.52,-275.03,186.48,-0.247963,-0.273192,1.010930,84.73,1
5738,0,49047,53253,49321.48,53066.89,-274.48,186.11,-0.247952,-0.273199,1.015425,84.61,1
5748,0,49053,53247,49320.95,53067.26,-267.95,179.74,-0.247941,-0.273206,1.019745,84.51,1
5758,0,49048,53238,49320.40,53067.60,-272.40,170.40,-0.247930,-0.273213,1.024578,84.39,1
5767,0,49040,53223,49319.84,53067.91,-279.84,155.09,-0.247919,-0.273218,1.030253,84.24,1
5778,0,49040,53207,49319.29,53068.20,-279.29,138.80,-0.247908,-0.273224,1.036317,84.09,1
5787,0,49032,53194,49318.71,53068.45,-286.71,125.55,-0.247896,-0.273229,1.043114,83.92,1
5798,0,49029,53187,49318.13,53068.69,-289.13,118.31,-0.247884,-0.273233,1.050204,83.74,1
5808,0,49028,53174,49317.55,53068.90,-289.55,105.10,-0.247873,-0.273237,1.057591,83.56,1
5817,0,49022,53171,49316.96,53069.11,-294.96,101.89,-0.247861,-0.273241,1.065354,83.37,1
5827,0,49016,53168,49316.36,53069.30,-300.36,98.70,-0.247849,-0.273245,1.073495,83.16,1
5839,0,49019,53166,49315.77,53069.50,-296.77,96.50,-0.247837,-0.273248,1.081455,82.96,1
5847,0,49020,53162,49315.18,53069.69,-295.18,92.31,-0.247825,-0.273252,1.089395,82.77,1
5857,0,49018,53168,49314.59,53069.89,-296.59,98.11,-0.247813,-0.273256,1.097300,82.57,1
5869,0,49010,53178,49313.98,53070.11,-303.98,107.89,-0.247800,-0.273260,1.105433,82.36,1
5879,0,49015,53169,49313.38,53070.30,-298.38,98.70,-0.247788,-0.273264,1.113417,82.16,1
5888,0,49018,53172,49312.79,53070.51,-294.79,101.49,-0.247776,-0.273267,1.121117,81.97,1
5898,0,49009,53178,49312.18,53070.72,-303.18,107.28,-0.247764,-0.273271,1.129184,81.77,1
5907,0,49006,53172,49311.57,53070.93,-305.57,101.07,-0.247751,-0.273275,1.137531,81.56,1
5917,0,49014,53170,49310.98,53071.12,-296.98,98.87,-0.247739,-0.273279,1.145393,81.37,1
5928,0,49014,53171,49310.39,53071.32,-296.39,99.68,-0.247727,-0.273283,1.153196,81.17,1
5937,0,49013,53178,49309.79,53071.54,-296.79,106.46,-0.247715,-0.273287,1.160853,80.98,1
5949,0,49003,53171,49309.18,53071.74,-306.18,99.26,-0.247703,-0.273290,1.169254,80.77,1
5957,0,49010,53171,49308.58,53071.94,-298.58,99.06,-0.247691,-0.273294,1.177183,80.57,1
5967,0,49005,53168,49307.98,53072.13,-302.98,95.87,-0.247678,-0.273298,1.185452,80.36,1
5977,0,49001,53179,49307.36,53072.35,-306.36,106.65,-0.247666,-0.273302,1.193652,80.16,1
5988,0,48995,53166,49306.74,53072.54,-311.74,93.46,-0.247653,-0.273306,1.202513,79.94,1
5999,0,48996,53164,49306.12,53072.72,-310.12,91.28,-0.247641,-0.273309,1.211315,79.72,1
6007,0,48995,53158,49305.50,53072.89,-310.50,85.11,-0.247628,-0.273312,1.220276,79.49,1
6018,0,48997,53156,49304.88,53073.06,-307.88,82.94,-0.247616,-0.273315,1.229118,79.27,1
6027,0,48989,53154,49304.25,53073.22,-315.25,80.78,-0.247603,-0.273318,1.238477,79.04,1
6037,0,48986,53152,49303.61,53073.38,-317.61,78.62,-0.247590,-0.273321,1.248033,78.80,1
6048,0,48988,53149,49302.98,53073.54,-314.98,75.46,-0.247577,-0.273324,1.257484,78.56,1
6057,0,48990,53158,49302.36,53073.71,-312.36,84.29,-0.247565,-0.273328,1.266566,78.34,1
6067,0,48986,53154,49301.73,53073.87,-315.73,80.13,-0.247552,-0.273331,1.275961,78.10,1
6079,0,48987,53155,49301.10,53074.03,-314.10,80.97,-0.247539,-0.273334,1.285230,77.87,1
6087,0,48977,53152,49300.45,53074.19,-323.45,77.81,-0.247526,-0.273337,1.295187,77.62,1
6099,0,48988,53148,49299.82,53074.34,-311.82,73.66,-0.247513,-0.273339,1.304472,77.39,1
6108,0,48988,53156,49299.20,53074.50,-311.20,81.50,-0.247501,-0.273343,1.313534,77.16,1
6118,0,48984,53148,49298.57,53074.65,-314.57,73.35,-0.247488,-0.273345,1.323013,76.92,1
6129,0,48976,53159,49297.93,53074.82,-321.93,84.18,-0.247475,-0.273349,1.332710,76.68,1
6139,0,48974,53153,49297.28,53074.98,-323.28,78.02,-0.247462,-0.273351,1.342654,76.43,1
6149,0,48978,53154,49296.64,53075.14,-318.64,78.86,-0.247449,-0.273355,1.352264,76.19,1
6159,0,48977,53158,49296.01,53075.30,-319.01,82.70,-0.247436,-0.273358,1.361795,75.96,1
6168,0,48968,53163,49295.35,53075.48,-327.35,87.52,-0.247422,-0.273361,1.371747,75.71,1
6179,0,48985,53169,49294.73,53075.67,-309.73,93.33,-0.247410,-0.273365,1.380337,75.49,1
6188,0,48978,53181,49294.10,53075.88,-316.10,105.12,-0.247397,-0.273368,1.388933,75.28,1
6200,0,48992,53192,49293.50,53076.11,-301.50,115.89,-0.247385,-0.273373,1.396152,75.10,1
6208,0,49001,53208,49292.91,53076.38,-291.91,131.62,-0.247373,-0.273378,1.402069,74.95,1
6218,0,49005,53224,49292.34,53076.68,-287.34,147.32,-0.247361,-0.273384,1.406904,74.83,1
6230,0,49010,53230,49291.78,53076.98,-281.78,153.02,-0.247350,-0.273389,1.411078,74.72,1
6238,0,49018,53240,49291.23,53077.31,-273.23,162.69,-0.247339,-0.273395,1.414178,74.65,1
6249,0,49021,53245,49290.69,53077.65,-269.69,167.35,-0.247328,-0.273402,1.416777,74.58,1
6258,0,49021,53248,49290.15,53077.99,-269.15,170.01,-0.247317,-0.273408,1.419165,74.52,1
6269,0,49017,53239,49289.61,53078.32,-272.61,160.68,-0.247306,-0.273414,1.422303,74.44,1
6278,0,49012,53243,49289.05,53078.65,-277.05,164.35,-0.247295,-0.273421,1.425461,74.36,1
6288,0,49013,53232,49288.50,53078.96,-275.50,153.04,-0.247283,-0.273427,1.429177,74.27,1
6299,0,49012,53235,49287.95,53079.27,-275.95,155.73,-0.247272,-0.273432,1.432746,74.18,1
6308,0,48999,53240,49287.37,53079.59,-288.37,160.41,-0.247260,-0.273438,1.436761,74.08,1
6318,0,49008,53240,49286.81,53079.91,-278.81,160.09,-0.247249,-0.273445,1.440197,74.00,1
6329,0,49004,53245,49286.25,53080.25,-282.25,164.75,-0.247238,-0.273451,1.443528,73.91,1
6338,0,49003,53237,49285.68,53080.56,-282.68,156.44,-0.247226,-0.273457,1.447375,73.82,1
6348,0,48994,53227,49285.10,53080.86,-291.10,146.14,-0.247214,-0.273462,1.452316,73.69,1
6358,0,49004,53218,49284.54,53081.13,-280.54,136.87,-0.247203,-0.273468,1.457101,73.57,1
6368,0,48995,53209,49283.96,53081.39,-288.96,127.61,-0.247191,-0.273472,1.462864,73.43,1
6379,0,48998,53197,49283.39,53081.62,-285.39,115.37,-0.247180,-0.273477,1.468983,73.28,1
6388,0,49000,53189,49282.82,53081.84,-282.82,107.16,-0.247168,-0.273481,1.475304,73.12,1
6398,0,48991,53182,49282.24,53082.04,-291.24,99.96,-0.247156,-0.273485,1.482446,72.94,1
6409,0,48983,53173,49281.64,53082.23,-298.64,90.77,-0.247144,-0.273488,1.490417,72.74,1
6418,0,48976,53163,49281.04,53082.39,-305.04,80.61,-0.247132,-0.273491,1.499170,72.52,1
6429,0,48977,53158,49280.43,53082.54,-303.43,75.46,-0.247120,-0.273494,1.507993,72.30,1
6438,0,48972,53159,49279.81,53082.70,-307.81,76.30,-0.247107,-0.273497,1.517088,72.07,1
6448,0,48967,53154,49279.19,53082.84,-312.19,71.16,-0.247094,-0.273500,1.526651,71.83,1
6458,0,48967,53157,49278.56,53082.99,-311.56,74.01,-0.247082,-0.273502,1.536089,71.60,1
6468,0,48965,53154,49277.94,53083.13,-312.94,70.87,-0.247069,-0.273505,1.545730,71.36,1
6479,0,48960,53156,49277.30,53083.28,-317.30,72.72,-0.247056,-0.273508,1.555622,71.11,1
6488,0,48966,53160,49276.68,53083.44,-310.68,76.56,-0.247044,-0.273511,1.564929,70.88,1
6499,0,48962,53159,49276.05,53083.59,-314.05,75.41,-0.247031,-0.273514,1.574516,70.64,1
6509,0,48965,53153,49275.43,53083.73,-310.43,69.27,-0.247018,-0.273516,1.584071,70.40,1
6518,0,48957,53154,49274.80,53083.87,-317.80,70.13,-0.247005,-0.273519,1.594119,70.15,1
6529,0,48961,53147,49274.17,53084.00,-313.17,63.00,-0.246993,-0.273522,1.604085,69.90,1
6539,0,48956,53150,49273.54,53084.13,-317.54,65.87,-0.246980,-0.273524,1.614278,69.64,1
6549,0,48949,53143,49272.89,53084.25,-323.89,58.75,-0.246967,-0.273526,1.625162,69.37,1
6558,0,48948,53140,49272.24,53084.36,-324.24,55.64,-0.246953,-0.273528,1.636176,69.10,1
6568,0,48949,53138,49271.59,53084.47,-322.59,53.53,-0.246940,-0.273530,1.647146,68.82,1
6578,0,48945,53142,49270.94,53084.59,-325.94,57.41,-0.246927,-0.273533,1.658263,68.54,1
6589,0,48946,53134,49270.29,53084.69,-324.29,49.31,-0.246914,-0.273535,1.669507,68.26,1
6599,0,48941,53130,49269.64,53084.79,-328.64,45.21,-0.246901,-0.273536,1.681197,67.97,1
6608,0,48940,53135,49268.98,53084.89,-328.98,50.11,-0.246887,-0.273538,1.692803,67.68,1
6619,0,48936,53132,49268.32,53084.98,-332.32,47.02,-0.246874,-0.273540,1.704762,67.38,1
6629,0,48932,53136,49267.64,53085.08,-335.64,50.92,-0.246860,-0.273542,1.716884,67.08,1
6638,0,48934,53134,49266.98,53085.18,-332.98,48.82,-0.246847,-0.273544,1.728879,66.78,1
6649,0,48930,53136,49266.30,53085.28,-336.30,50.72,-0.246833,-0.273546,1.741090,66.47,1
6658,0,48935,53132,49265.64,53085.37,-330.64,46.63,-0.246820,-0.273547,1.753006,66.17,1
6668,0,48928,53140,49264.97,53085.48,-336.97,54.52,-0.246806,-0.273549,1.765182,65.87,1
6680,0,48930,53140,49264.30,53085.59,-334.30,54.41,-0.246792,-0.273552,1.777170,65.57,1
6688,0,48932,53137,49263.64,53085.70,-331.64,51.30,-0.246779,-0.273554,1.789073,65.27,1
6698,0,48937,53139,49262.98,53085.81,-325.98,53.19,-0.246766,-0.273556,1.800501,64.99,1
6709,0,48932,53139,49262.32,53085.92,-330.32,53.08,-0.246752,-0.273558,1.812282,64.69,1
6718,0,48934,53145,49261.67,53086.04,-327.67,58.96,-0.246739,-0.273560,1.823660,64.41,1
6729,0,48927,53144,49261.00,53086.16,-334.00,57.84,-0.246725,-0.273562,1.835585,64.11,1
6738,0,48931,53150,49260.34,53086.29,-329.34,63.71,-0.246712,-0.273565,1.846918,63.83,1
6749,0,48927,53144,49259.68,53086.40,-332.68,57.60,-0.246698,-0.273567,1.858778,63.53,1
6759,0,48930,53147,49259.02,53086.52,-329.02,60.48,-0.246685,-0.273569,1.870248,63.24,1
6768,0,48923,53151,49258.35,53086.65,-335.35,64.35,-0.246671,-0.273572,1.882054,62.95,1
6778,0,48921,53155,49257.68,53086.79,-336.68,68.21,-0.246658,-0.273574,1.893787,62.66,1
6789,0,48929,53154,49257.02,53086.93,-328.02,67.07,-0.246645,-0.273577,1.904901,62.38,1
6799,0,48931,53157,49256.37,53087.07,-325.37,69.93,-0.246631,-0.273579,1.915671,62.11,1
6814,0,48938,53160,49255.73,53087.21,-317.73,72.79,-0.246618,-0.273582,1.925713,61.86,1
6822,0,48924,53155,49255.07,53087.35,-331.07,67.65,-0.246605,-0.273585,1.937067,61.57,1
6826,0,48929,53155,49254.41,53087.49,-325.41,67.51,-0.246592,-0.273587,1.947993,61.30,1
6836,0,48931,53167,49253.77,53087.65,-322.77,79.35,-0.246578,-0.273590,1.958037,61.05,1
6846,0,48933,53160,49253.13,53087.79,-320.13,72.21,-0.246566,-0.273593,1.968309,60.79,1
6857,0,48928,53161,49252.48,53087.94,-324.48,73.06,-0.246552,-0.273596,1.978873,60.53,1
6867,0,48920,53163,49251.82,53088.09,-331.82,74.91,-0.246539,-0.273599,1.989911,60.25,1
6877,0,48923,53159,49251.16,53088.24,-328.16,70.76,-0.246526,-0.273601,2.000906,59.98,1
6888,0,48926,53169,49250.51,53088.40,-324.51,80.60,-0.246512,-0.273604,2.010992,59.73,1
6898,0,48925,53171,49249.86,53088.57,-324.86,82.43,-0.246499,-0.273608,2.020974,59.48,1
6908,0,48926,53169,49249.22,53088.73,-323.22,80.27,-0.246486,-0.273611,2.030972,59.23,1
6918,0,48922,53159,49248.57,53088.87,-326.57,70.12,-0.246473,-0.273613,2.041898,58.95,1
6928,0,48924,53150,49247.92,53089.00,-323.92,61.00,-0.246460,-0.273616,2.053148,58.67,1
6938,0,48920,53132,49247.26,53089.09,-327.26,42.91,-0.246446,-0.273617,2.065525,58.36,1
6948,0,48914,53128,49246.60,53089.16,-332.60,38.84,-0.246433,-0.273619,2.078517,58.04,1
6958,0,48910,53113,49245.93,53089.21,-335.93,23.79,-0.246419,-0.273620,2.092254,57.69,1
6969,0,48906,53104,49245.25,53089.25,-339.25,14.75,-0.246405,-0.273620,2.106473,57.34,1
6980,0,48896,53095,49244.55,53089.26,-348.55,5.74,-0.246391,-0.273621,2.121621,56.96,1
6988,0,48897,53095,49243.86,53089.27,-346.86,5.73,-0.246377,-0.273621,2.136665,56.58,1
6998,0,48900,53092,49243.17,53089.28,-343.17,2.72,-0.246363,-0.273621,2.151449,56.21,1
7008,0,48902,53104,49242.49,53089.31,-340.49,14.69,-0.246349,-0.273621,2.165946,55.85,1
7018,0,48898,53102,49241.80,53089.34,-343.80,12.66,-0.246335,-0.273622,2.180803,55.48,1
7030,0,48896,53103,49241.11,53089.36,-345.11,13.64,-0.246321,-0.273623,2.195807,55.10,1
7039,0,48900,53112,49240.43,53089.41,-340.43,22.59,-0.246308,-0.273623,2.210279,54.74,1
7049,0,48895,53120,49239.74,53089.47,-344.74,30.53,-0.246294,-0.273625,2.224943,54.38,1
7058,0,48901,53122,49239.06,53089.54,-338.06,32.46,-0.246280,-0.273626,2.238997,54.03,1
7068,0,48900,53121,49238.39,53089.60,-338.39,31.40,-0.246266,-0.273627,2.253155,53.67,1
7079,0,48902,53127,49237.71,53089.68,-335.71,37.32,-0.246252,-0.273628,2.266893,53.33,1
7088,0,48900,53127,49237.04,53089.75,-337.04,37.25,-0.246239,-0.273630,2.280784,52.98,1
7098,0,48899,53138,49236.36,53089.85,-337.36,48.15,-0.246225,-0.273632,2.294197,52.65,1
7108,0,48894,53129,49235.68,53089.93,-341.68,39.07,-0.246211,-0.273633,2.308483,52.29,1
7118,0,48898,53131,49235.00,53090.01,-337.00,40.99,-0.246197,-0.273635,2.322297,51.94,1
7129,0,48908,53142,49234.35,53090.11,-326.35,51.89,-0.246184,-0.273637,2.334607,51.63,1
7138,0,48894,53128,49233.67,53090.19,-339.67,37.81,-0.246170,-0.273638,2.348882,51.28,1
7148,0,48902,53131,49233.01,53090.27,-331.01,40.73,-0.246157,-0.273640,2.362286,50.94,1
7158,0,48903,53134,49232.35,53090.36,-329.35,43.64,-0.246144,-0.273641,2.375425,50.61,1
7168,0,48896,53136,49231.68,53090.46,-335.68,45.54,-0.246130,-0.273643,2.389043,50.27,1
7178,0,48900,53147,49231.02,53090.57,-331.02,56.43,-0.246116,-0.273645,2.401550,49.96,1
7189,0,48893,53138,49230.34,53090.67,-337.34,47.33,-0.246103,-0.273647,2.415264,49.62,1
7198,0,48899,53140,49229.68,53090.77,-330.68,49.23,-0.246089,-0.273649,2.428287,49.29,1
7208,0,48896,53141,49229.02,53090.87,-333.02,50.13,-0.246076,-0.273651,2.441483,48.96,1
7219,0,48900,53137,49228.36,53090.96,-328.36,46.04,-0.246062,-0.273653,2.454562,48.64,1
7230,0,48894,53141,49227.69,53091.07,-333.69,49.93,-0.246049,-0.273655,2.467885,48.30,1
7238,0,48893,53143,49227.02,53091.17,-334.02,51.83,-0.246035,-0.273657,2.481123,47.97,1
7248,0,48895,53141,49226.36,53091.27,-331.36,49.73,-0.246022,-0.273659,2.494298,47.64,1
7258,0,48893,53144,49225.70,53091.38,-332.70,52.62,-0.246008,-0.273660,2.507402,47.31,1
7268,0,48888,53142,49225.02,53091.48,-337.02,50.52,-0.245995,-0.273662,2.521083,46.97,1
7280,0,48889,53145,49224.35,53091.59,-335.35,53.41,-0.245981,-0.273664,2.534406,46.64,1
7288,0,48888,53149,49223.68,53091.71,-335.68,57.29,-0.245967,-0.273667,2.547450,46.31,1
7297,0,48890,53153,49223.01,53091.83,-333.01,61.17,-0.245954,-0.273669,2.559905,46.00,1
7308,0,48887,53157,49222.34,53091.96,-335.34,65.04,-0.245940,-0.273672,2.572201,45.69,1
7318,0,48889,53159,49221.67,53092.10,-332.67,66.90,-0.245927,-0.273674,2.584058,45.40,1
7328,0,48892,53159,49221.02,53092.24,-329.02,66.76,-0.245913,-0.273677,2.595592,45.11,1
7338,0,48880,53167,49220.34,53092.39,-340.34,74.61,-0.245899,-0.273680,2.595592,45.11,0
7348,0,48888,53166,49219.67,53092.54,-331.67,73.46,-0.245886,-0.273682,2.595592,45.11,0
7358,0,48884,53168,49219.00,53092.69,-335.00,75.31,-0.245872,-0.273685,2.595592,45.11,0
7368,0,48882,53183,49218.33,53092.87,-336.33,90.12,-0.245859,-0.273689,2.595592,45.11,0
7377,0,48888,53182,49217.67,53093.05,-329.67,88.95,-0.245845,-0.273692,2.595592,45.11,0
7387,0,48882,53182,49217.00,53093.23,-335.00,88.77,-0.245832,-0.273695,2.595592,45.11,0
7396,0,48888,53175,49216.34,53093.40,-328.34,81.60,-0.245818,-0.273699,2.595592,45.11,0
7406,0,48882,53176,49215.67,53093.57,-333.67,82.43,-0.245805,-0.273702,2.595592,45.11,0
7418,0,48877,53185,49215.00,53093.75,-338.00,91.25,-0.245791,-0.273705,2.595592,45.11,0
7426,0,48883,53192,49214.33,53093.95,-331.33,98.05,-0.245777,-0.273709,2.595592,45.11,0
7437,0,48887,53187,49213.68,53094.14,-326.68,92.86,-0.245764,-0.273712,2.595592,45.11,0
7448,0,48878,53193,49213.01,53094.34,-335.01,98.66,-0.245751,-0.273716,2.595592,45.11,0
7459,0,48881,53201,49212.34,53094.55,-331.34,106.45,-0.245737,-0.273720,2.595592,45.11,0
7469,0,48884,53196,49211.69,53094.75,-327.69,101.25,-0.245724,-0.273724,2.595592,45.11,0
7479,0,48879,53195,49211.02,53094.96,-332.02,100.04,-0.245710,-0.273728,2.595592,45.11,0
7489,0,48876,53199,49210.36,53095.17,-334.36,103.83,-0.245697,-0.273732,2.595592,45.11,0
7500,0,48885,53199,49209.71,53095.38,-324.71,103.62,-0.245683,-0.273736,2.595592,45.11,0
7509,0,48877,53179,49209.04,53095.55,-332.04,83.45,-0.245670,-0.273739,2.595592,45.11,0
7519,0,48874,53169,49208.37,53095.70,-334.37,73.30,-0.245656,-0.273742,2.595592,45.11,0
7528,0,48868,53153,49207.70,53095.81,-339.70,57.19,-0.245643,-0.273744,2.595592,45.11,0
7538,0,48863,53146,49207.01,53095.91,-344.01,50.09,-0.245629,-0.273746,2.595592,45.11,0
7546,0,48854,53135,49206.30,53095.99,-352.30,39.01,-0.245614,-0.273747,2.595592,45.11,0
7559,0,48850,53134,49205.59,53096.07,-355.59,37.93,-0.245600,-0.273749,2.595592,45.11,0
7569,0,48854,53125,49204.89,53096.13,-350.89,28.87,-0.245586,-0.273750,2.595592,45.11,0
7579,0,48848,53125,49204.18,53096.19,-356.18,28.81,-0.245571,-0.273751,2.595592,45.11,0
7589,0,48849,53129,49203.47,53096.25,-354.47,32.75,-0.245557,-0.273752,2.595592,45.11,0
7599,0,48845,53133,49202.75,53096.33,-357.75,36.67,-0.245542,-0.273754,2.595592,45.11,0
7611,0,48850,53138,49202.05,53096.41,-352.05,41.59,-0.245528,-0.273755,2.595592,45.11,0
7619,0,48848,53146,49201.34,53096.52,-353.34,49.48,-0.245514,-0.273757,2.595592,45.11,0
7630,0,48848,53148,49200.64,53096.62,-352.64,51.38,-0.245499,-0.273759,2.595592,45.11,0
7639,0,48847,53152,49199.93,53096.73,-352.93,55.27,-0.245485,-0.273761,2.595592,45.11,0
7649,0,48845,53146,49199.22,53096.84,-354.22,49.16,-0.245470,-0.273763,2.595592,45.11,0
7660,0,48850,53156,49198.53,53096.96,-348.53,59.04,-0.245456,-0.273766,2.595592,45.11,0
7669,0,48849,53156,49197.83,53097.08,-348.83,58.92,-0.245442,-0.273768,2.595592,45.11,0
7680,0,48853,53160,49197.14,53097.21,-344.14,62.79,-0.245428,-0.273770,2.595592,45.11,0
7689,0,48839,53163,49196.43,53097.34,-357.43,65.66,-0.245414,-0.273773,2.595592,45.11,0
7700,0,48841,53165,49195.71,53097.48,-354.71,67.52,-0.245399,-0.273775,2.595592,45.11,0
7710,0,48844,53166,49195.01,53097.61,-351.01,68.39,-0.245385,-0.273778,2.595592,45.11,0
7719,0,48850,53174,49194.32,53097.77,-344.32,76.23,-0.245371,-0.273781,2.595592,45.11,0
7728,0,48845,53174,49193.62,53097.92,-348.62,76.08,-0.245357,-0.273784,2.595592,45.11,0
7738,0,48843,53171,49192.93,53098.07,-349.93,72.93,-0.245342,-0.273786,2.595592,45.11,0
7746,0,48846,53173,49192.23,53098.22,-346.23,74.78,-0.245328,-0.273789,2.595592,45.11,0
7783,0,48845,53172,49191.54,53098.37,-346.54,73.63,-0.245314,-0.273792,2.595592,45.11,0
7800,0,48852,53173,49190.86,53098.52,-338.86,74.48,-0.245300,-0.273795,2.595592,45.11,0
7864,0,48843,53180,49190.17,53098.68,-347.17,81.32,-0.245286,-0.273798,2.595592,45.11,0
7883,0,48851,53174,49189.49,53098.84,-338.49,75.16,-0.245273,-0.273801,2.595592,45.11,0
7889,0,48847,53178,49188.81,53099.00,-341.81,79.00,-0.245259,-0.273804,2.595592,45.11,0
7895,0,48843,53182,49188.12,53099.16,-345.12,82.84,-0.245245,-0.273807,2.595592,45.11,0
7901,0,48845,53176,49187.43,53099.32,-342.43,76.68,-0.245231,-0.273810,2.595592,45.11,0
7908,0,48844,53178,49186.75,53099.48,-342.75,78.52,-0.245217,-0.273813,2.595592,45.11,0
7914,0,48841,53182,49186.05,53099.65,-345.05,82.35,-0.245203,-0.273816,2.595592,45.11,0
7919,0,48836,53187,49185.36,53099.82,-349.36,87.18,-0.245189,-0.273820,2.595592,45.11,0
7923,0,48838,53182,49184.66,53099.99,-346.66,82.01,-0.245174,-0.273823,2.595592,45.11,0
7926,0,48840,53187,49183.97,53100.16,-343.97,86.84,-0.245160,-0.273826,2.595592,45.11,0
7928,0,48838,53188,49183.28,53100.34,-345.28,87.66,-0.245146,-0.273829,2.595592,45.11,0
7931,0,48836,53196,49182.59,53100.53,-346.59,95.47,-0.245132,-0.273833,2.595592,45.11,0
7932,0,48841,53193,49181.91,53100.72,-340.91,92.28,-0.245118,-0.273836,2.595592,45.11,0
7934,0,48838,53201,49181.22,53100.92,-343.22,100.08,-0.245104,-0.273840,2.595592,45.11,0
7936,0,48834,53201,49180.53,53101.12,-346.53,99.87,-0.245090,-0.273844,2.595592,45.11,0
7937,0,48839,53204,49179.84,53101.33,-340.84,102.67,-0.245076,-0.273848,2.595592,45.11,0
7938,0,48839,53204,49179.16,53101.54,-340.16,102.46,-0.245063,-0.273852,2.595592,45.11,0
7947,0,48836,53211,49178.48,53101.76,-342.48,109.24,-0.245049,-0.273856,2.595592,45.11,0
7957,0,48831,53207,49177.79,53101.97,-346.79,105.03,-0.245035,-0.273860,2.595592,45.11,0
7968,0,48830,53213,49177.09,53102.19,-347.09,110.81,-0.245020,-0.273864,2.595592,45.11,0
7980,0,48832,53215,49176.40,53102.42,-344.40,112.58,-0.245007,-0.273868,2.595592,45.11,0
7990,0,48834,53216,49175.72,53102.65,-341.72,113.35,-0.244993,-0.273873,2.595592,45.11,0
7998,0,48839,53216,49175.05,53102.87,-336.05,113.12,-0.244979,-0.273877,2.595592,45.11,0
8009,0,48831,53223,49174.36,53103.12,-343.36,119.88,-0.244965,-0.273882,2.595592,45.11,0
8019,0,48834,53226,49173.68,53103.36,-339.68,122.64,-0.244951,-0.273886,2.595592,45.11,0
8030,0,48836,53233,49173.00,53103.62,-337.00,129.37,-0.244937,-0.273891,2.595592,45.11,0
8040,0,48835,53225,49172.33,53103.87,-337.33,121.13,-0.244924,-0.273896,2.595592,45.11,0
8049,0,48834,53226,49171.65,53104.11,-337.65,121.89,-0.244910,-0.273900,2.595592,45.11,0
8059,0,48832,53232,49170.97,53104.37,-338.97,127.63,-0.244896,-0.273905,2.595592,45.11,0
8069,0,48836,53232,49170.30,53104.63,-334.30,127.37,-0.244882,-0.273910,2.595592,45.11,0
8080,0,48840,53223,49169.64,53104.87,-329.64,118.13,-0.244869,-0.273914,2.595592,45.11,0
8089,0,48825,53209,49168.96,53105.08,-343.96,103.92,-0.244855,-0.273918,2.595592,45.11,0
8099,0,48827,53193,49168.27,53105.25,-341.27,87.75,-0.244841,-0.273922,2.595592,45.11,0
8109,0,48825,53185,49167.59,53105.41,-342.59,79.59,-0.244827,-0.273925,2.595592,45.11,0
8120,0,48821,53173,49166.90,53105.55,-345.90,67.45,-0.244813,-0.273927,2.595592,45.11,0
8129,0,48809,53158,49166.18,53105.66,-357.18,52.34,-0.244799,-0.273929,2.595592,45.11,0
8139,0,48815,53154,49165.48,53105.75,-350.48,48.25,-0.244784,-0.273931,2.595592,45.11,0
8149,0,48809,53147,49164.77,53105.84,-355.77,41.16,-0.244770,-0.273933,2.595592,45.11,0
8160,0,48803,53144,49164.05,53105.91,-361.05,38.09,-0.244755,-0.273934,2.595592,45.11,0
8169,0,48807,53146,49163.34,53106.00,-356.34,40.00,-0.244741,-0.273936,2.595592,45.11,0
8180,0,48802,53138,49162.62,53106.06,-360.62,31.94,-0.244726,-0.273937,2.595592,45.11,0
8189,0,48806,53141,49161.91,53106.13,-355.91,34.87,-0.244712,-0.273938,2.595592,45.11,0
8199,0,48796,53142,49161.18,53106.21,-365.18,35.79,-0.244697,-0.273940,2.595592,45.11,0
8210,0,48802,53153,49160.46,53106.30,-358.46,46.70,-0.244682,-0.273941,2.595592,45.11,0
8219,0,48802,53147,49159.74,53106.38,-357.74,40.62,-0.244668,-0.273943,2.595592,45.11,0
8230,0,48812,53153,49159.05,53106.48,-347.05,46.52,-0.244653,-0.273945,2.595592,45.11,0
8240,0,48802,53157,49158.34,53106.58,-356.34,50.42,-0.244639,-0.273947,2.595592,45.11,0
8249,0,48803,53145,49157.62,53106.66,-354.62,38.34,-0.244625,-0.273948,2.595592,45.11,0
8260,0,48804,53153,49156.92,53106.75,-352.92,46.25,-0.244610,-0.273950,2.595592,45.11,0
8269,0,48809,53154,49156.22,53106.85,-347.22,47.15,-0.244596,-0.273952,2.595592,45.11,0
8279,0,48804,53154,49155.52,53106.94,-351.52,47.06,-0.244582,-0.273954,2.595592,45.11,0
8290,0,48804,53156,49154.82,53107.04,-350.82,48.96,-0.244567,-0.273955,2.595592,45.11,0
8299,0,48796,53151,49154.10,53107.13,-358.10,43.87,-0.244553,-0.273957,2.595592,45.11,0
8310,0,48797,53154,49153.39,53107.22,-356.39,46.78,-0.244538,-0.273959,2.595592,45.11,0
8319,0,48792,53157,49152.66,53107.32,-360.66,49.68,-0.244524,-0.273961,2.595592,45.11,0
8329,0,48798,53151,49151.96,53107.41,-353.96,43.59,-0.244509,-0.273963,2.595592,45.11,0
8340,0,48796,53153,49151.25,53107.51,-355.25,45.49,-0.244495,-0.273964,2.595592,45.11,0
8349,0,48791,53148,49150.53,53107.59,-359.53,40.41,-0.244480,-0.273966,2.595592,45.11,0
8359,0,48793,53145,49149.81,53107.67,-356.81,37.33,-0.244466,-0.273967,2.595592,45.11,0
8370,0,48794,53148,49149.10,53107.75,-355.10,40.25,-0.244451,-0.273969,2.595592,45.11,0
8379,0,48790,53149,49148.38,53107.83,-358.38,41.17,-0.244437,-0.273970,2.595592,45.11,0
8389,0,48785,53145,49147.66,53107.91,-362.66,37.09,-0.244422,-0.273972,2.595592,45.11,0
8399,0,48787,53150,49146.94,53107.99,-359.94,42.01,-0.244407,-0.273973,2.595592,45.11,0
8409,0,48788,53145,49146.22,53108.07,-358.22,36.93,-0.244393,-0.273975,2.595592,45.11,0
8417,0,48781,53152,49145.49,53108.16,-364.49,43.84,-0.244378,-0.273977,2.595592,45.11,0
8427,0,48786,53151,49144.77,53108.24,-358.77,42.76,-0.244363,-0.273978,2.595592,45.11,0
8439,0,48784,53147,49144.05,53108.32,-360.05,38.68,-0.244348,-0.273980,2.595592,45.11,0
8450,0,48788,53150,49143.34,53108.41,-355.34,41.59,-0.244334,-0.273981,2.595592,45.11,0
8459,0,48787,53149,49142.63,53108.49,-355.63,40.51,-0.244320,-0.273983,2.595592,45.11,0
8469,0,48784,53154,49141.92,53108.58,-357.92,45.42,-0.244305,-0.273984,2.595592,45.11,0
8480,0,48785,53153,49141.21,53108.67,-356.21,44.33,-0.244291,-0.273986,2.595592,45.11,0
8489,0,48779,53155,49140.48,53108.77,-361.48,46.23,-0.244276,-0.273988,2.595592,45.11,0
8500,0,48774,53157,49139.75,53108.86,-365.75,48.14,-0.244261,-0.273990,2.595592,45.11,0
8509,0,48776,53158,49139.03,53108.96,-363.03,49.04,-0.244246,-0.273992,2.595592,45.11,0
8519,0,48777,53157,49138.30,53109.06,-361.30,47.94,-0.244231,-0.273994,2.595592,45.11,0
8529,0,48771,53161,49137.57,53109.17,-366.57,51.83,-0.244217,-0.273996,2.595592,45.11,0
8539,0,48774,53164,49136.84,53109.28,-362.84,54.72,-0.244202,-0.273998,2.595592,45.11,0
8549,0,48769,53159,49136.11,53109.38,-367.11,49.62,-0.244187,-0.274000,2.595592,45.11,0
8559,0,48764,53158,49135.37,53109.48,-371.37,48.52,-0.244172,-0.274001,2.595592,45.11,0
8569,0,48777,53159,49134.65,53109.58,-357.65,49.42,-0.244157,-0.274003,2.595592,45.11,0
8581,0,48761,53158,49133.91,53109.68,-372.91,48.32,-0.244142,-0.274005,2.595592,45.11,0
8589,0,48762,53156,49133.16,53109.77,-371.16,46.23,-0.244127,-0.274007,2.595592,45.11,0
8599,0,48767,53161,49132.43,53109.87,-365.43,51.13,-0.244112,-0.274009,2.595592,45.11,0
8611,0,48764,53156,49131.70,53109.97,-367.70,46.03,-0.244097,-0.274011,2.595592,45.11,0
8619,0,48757,53161,49130.95,53110.07,-373.95,50.93,-0.244082,-0.274012,2.595592,45.11,0
8629,0,48759,53157,49130.21,53110.16,-371.21,46.84,-0.244067,-0.274014,2.595592,45.11,0
8640,0,48755,53162,49129.46,53110.27,-374.46,51.73,-0.244051,-0.274016,2.595592,45.11,0
8649,0,48755,53155,49128.71,53110.36,-373.71,44.64,-0.244036,-0.274018,2.595592,45.11,0
8659,0,48758,53152,49127.97,53110.45,-369.97,41.55,-0.244021,-0.274020,2.595592,45.11,0
8668,0,48747,53155,49127.21,53110.54,-380.21,44.46,-0.244006,-0.274021,2.595592,45.11,0
8679,0,48748,53140,49126.45,53110.59,-378.45,29.41,-0.243990,-0.274022,2.595592,45.11,0
8689,0,48744,53118,49125.69,53110.61,-381.69,7.39,-0.243975,-0.274023,2.595592,45.11,0
8701,0,48735,53107,49124.91,53110.61,-389.91,-3.61,-0.243959,-0.274023,2.595592,45.11,0
8710,0,48735,53085,49124.13,53110.55,-389.13,-25.55,-0.243943,-0.274022,2.595592,45.11,0
8721,0,48725,53075,49123.34,53110.48,-398.34,-35.48,-0.243927,-0.274020,2.595592,45.11,0
8730,0,48718,53062,49122.53,53110.39,-404.53,-48.39,-0.243910,-0.274019,2.595592,45.11,0
8741,0,48714,53049,49121.71,53110.27,-407.71,-61.27,-0.243894,-0.274016,2.595592,45.11,0
8751,0,48705,53042,49120.88,53110.13,-415.88,-68.13,-0.243877,-0.274014,2.595592,45.11,0
8761,0,48705,53033,49120.05,53109.98,-415.05,-76.98,-0.243860,-0.274011,2.595592,45.11,0
8770,0,48700,53030,49119.21,53109.82,-419.21,-79.82,-0.243843,-0.274008,2.595592,45.11,0
8780,0,48698,53025,49118.37,53109.65,-420.37,-84.65,-0.243826,-0.274005,2.595592,45.11,0
8790,0,48695,53024,49117.52,53109.48,-422.52,-85.48,-0.243808,-0.274001,2.595592,45.11,0
8802,0,48694,53025,49116.68,53109.31,-422.68,-84.31,-0.243791,-0.273998,2.595592,45.11,0
8810,0,48691,53023,49115.82,53109.14,-424.82,-86.14,-0.243774,-0.273995,2.595592,45.11,0
8821,0,48682,53013,49114.96,53108.95,-432.96,-95.95,-0.243756,-0.273991,2.595592,45.11,0
8830,0,48680,53010,49114.09,53108.75,-434.09,-98.75,-0.243739,-0.273988,2.595592,45.11,0
8840,0,48680,53016,49113.22,53108.57,-433.22,-92.57,-0.243721,-0.273984,2.595592,45.11,0
8851,0,48678,53010,49112.35,53108.37,-434.35,-98.37,-0.243703,-0.273981,2.595592,45.11,0
8862,0,48685,53003,49111.50,53108.16,-426.50,-105.16,-0.243686,-0.273977,2.595592,45.11,0
8870,0,48675,53008,49110.63,53107.96,-435.63,-99.96,-0.243668,-0.273973,2.595592,45.11,0
8879,0,48673,53009,49109.75,53107.77,-436.75,-98.77,-0.243650,-0.273969,2.595592,45.11,0
8890,0,48674,53007,49108.88,53107.57,-434.88,-100.57,-0.243633,-0.273965,2.595592,45.11,0
8899,0,48666,53010,49108.00,53107.37,-442.00,-97.37,-0.243615,-0.273962,2.595592,45.11,0
8911,0,48671,53005,49107.13,53107.17,-436.13,-102.17,-0.243597,-0.273958,2.595592,45.11,0
8920,0,48667,52999,49106.25,53106.96,-439.25,-107.96,-0.243579,-0.273954,2.595592,45.11,0
8931,0,48664,52996,49105.37,53106.74,-441.37,-110.74,-0.243561,-0.273950,2.595592,45.11,0
8942,0,48664,52998,49104.48,53106.52,-440.48,-108.52,-0.243543,-0.273946,2.595592,45.11,0
8950,0,48659,52999,49103.59,53106.31,-444.59,-107.31,-0.243525,-0.273942,2.595592,45.11,0
8961,0,48666,52996,49102.72,53106.09,-436.72,-110.09,-0.243507,-0.273938,2.595592,45.11,0
8970,0,48659,53001,49101.83,53105.88,-442.83,-104.88,-0.243489,-0.273934,2.595592,45.11,0
8980,0,48658,52992,49100.95,53105.66,-442.95,-113.66,-0.243471,-0.273929,2.595592,45.11,0
8990,0,48652,52995,49100.05,53105.44,-448.05,-110.44,-0.243453,-0.273925,2.595592,45.11,0
9001,0,48661,52999,49099.17,53105.23,-438.17,-106.23,-0.243435,-0.273921,2.595592,45.11,0
9010,0,48656,52994,49098.29,53105.00,-442.29,-111.00,-0.243417,-0.273917,2.595592,45.11,0
9020,0,48659,52991,49097.41,53104.78,-438.41,-113.78,-0.243399,-0.273913,2.595592,45.11,0
9031,0,48649,52994,49096.51,53104.56,-447.51,-110.56,-0.243381,-0.273909,2.595592,45.11,0
9040,0,48655,52993,49095.63,53104.34,-440.63,-111.34,-0.243363,-0.273905,2.595592,45.11,0
9050,0,48643,52989,49094.73,53104.11,-451.73,-115.11,-0.243344,-0.273900,2.595592,45.11,0
9060,0,48645,52992,49093.83,53103.88,-448.83,-111.88,-0.243326,-0.273896,2.595592,45.11,0
9070,0,48649,52994,49092.94,53103.66,-443.94,-109.66,-0.243308,-0.273892,2.595592,45.11,0
9080,0,48650,52993,49092.06,53103.45,-442.06,-110.45,-0.243290,-0.273888,2.595592,45.11,0
9091,0,48649,52995,49091.17,53103.23,-442.17,-108.23,-0.243272,-0.273884,2.595592,45.11,0
9100,0,48647,52992,49090.29,53103.01,-443.29,-111.01,-0.243254,-0.273879,2.595592,45.11,0
9111,0,48642,52994,49089.39,53102.79,-447.39,-108.79,-0.243235,-0.273876,2.595592,45.11,0
9121,0,48641,52994,49088.50,53102.58,-447.50,-108.58,-0.243217,-0.273871,2.595592,45.11,0
9130,0,48643,52997,49087.61,53102.37,-444.61,-105.37,-0.243199,-0.273867,2.595592,45.11,0
9141,0,48635,53004,49086.70,53102.17,-451.70,-98.17,-0.243181,-0.273864,2.595592,45.11,0
9151,0,48640,53001,49085.81,53101.97,-445.81,-100.97,-0.243163,-0.273860,2.595592,45.11,0
9161,0,48638,52996,49084.92,53101.76,-446.92,-105.76,-0.243144,-0.273856,2.595592,45.11,0
9170,0,48634,52998,49084.02,53101.55,-450.02,-103.55,-0.243126,-0.273852,2.595592,45.11,0
9181,0,48627,52997,49083.10,53101.35,-456.10,-104.35,-0.243107,-0.273848,2.595592,45.11,0
9190,0,48631,52996,49082.20,53101.14,-451.20,-105.14,-0.243089,-0.273844,2.595592,45.11,0
9201,0,48627,52994,49081.29,53100.92,-454.29,-106.92,-0.243070,-0.273840,2.595592,45.11,0
9210,0,48625,52995,49080.38,53100.71,-455.38,-105.71,-0.243052,-0.273836,2.595592,45.11,0
9219,0,48630,52991,49079.48,53100.49,-449.48,-109.49,-0.243034,-0.273832,2.595592,45.11,0
9230,0,48622,52994,49078.57,53100.28,-456.57,-106.28,-0.243015,-0.273828,2.595592,45.11,0
9240,0,48619,52992,49077.65,53100.07,-458.65,-108.07,-0.242996,-0.273824,2.595592,45.11,0
9249,0,48621,52998,49076.74,53099.86,-455.74,-101.86,-0.242978,-0.273820,2.595592,45.11,0
9260,0,48620,52993,49075.82,53099.65,-455.82,-106.65,-0.242959,-0.273816,2.595592,45.11,0
9270,0,48616,52994,49074.91,53099.44,-458.91,-105.44,-0.242940,-0.273812,2.595592,45.11,0
9280,0,48624,52993,49074.00,53099.23,-450.00,-106.23,-0.242922,-0.273808,2.595592,45.11,0
9290,0,48617,52979,49073.09,53098.99,-456.09,-119.99,-0.242903,-0.273804,2.595592,45.11,0
9301,0,48615,52966,49072.18,53098.73,-457.18,-132.73,-0.242885,-0.273799,2.595592,45.11,0
9310,0,48605,52943,49071.24,53098.42,-466.24,-155.42,-0.242866,-0.273793,2.595592,45.11,0
9320,0,48604,52931,49070.31,53098.09,-466.31,-167.09,-0.242847,-0.273787,2.595592,45.11,0
9330,0,48598,52919,49069.37,53097.73,-471.37,-178.73,-0.242828,-0.273780,2.595592,45.11,0
9341,0,48597,52905,49068.42,53097.35,-471.42,-192.35,-0.242808,-0.273773,2.595592,45.11,0
9350,0,48588,52898,49067.46,53096.95,-479.46,-198.95,-0.242789,-0.273765,2.595592,45.11,0
9361,0,48587,52891,49066.50,53096.54,-479.50,-205.54,-0.242769,-0.273758,2.595592,45.11,0
9371,0,48586,52892,49065.54,53096.13,-479.54,-204.13,-0.242750,-0.273750,2.595592,45.11,0
9380,0,48585,52891,49064.58,53095.72,-479.58,-204.72,-0.242730,-0.273742,2.595592,45.11,0
9391,0,48580,52879,49063.61,53095.29,-483.61,-216.29,-0.242710,-0.273734,2.595592,45.11,0
9400,0,48577,52876,49062.64,53094.85,-485.64,-218.85,-0.242690,-0.273726,2.595592,45.11,0
9410,0,48573,52867,49061.66,53094.40,-488.66,-227.40,-0.242670,-0.273717,2.595592,45.11,0
9421,0,48561,52869,49060.66,53093.95,-499.66,-224.95,-0.242650,-0.273709,2.595592,45.11,0
9431,0,48566,52863,49059.67,53093.49,-493.67,-230.49,-0.242630,-0.273700,2.595592,45.11,0
9442,0,48562,52862,49058.68,53093.03,-496.68,-231.03,-0.242610,-0.273692,2.595592,45.11,0
9453,0,48564,52857,49057.69,53092.56,-493.69,-235.56,-0.242590,-0.273683,2.595592,45.11,0
9458,0,48564,52852,49056.71,53092.08,-492.71,-240.08,-0.242569,-0.273674,2.595592,45.11,0
9469,0,48558,52850,49055.71,53091.59,-497.71,-241.59,-0.242549,-0.273665,2.595592,45.11,0
9482,0,48557,52848,49054.71,53091.11,-497.71,-243.11,-0.242529,-0.273655,2.595592,45.11,0
9490,0,48557,52851,49053.72,53090.63,-496.72,-239.63,-0.242509,-0.273646,2.595592,45.11,0
9500,0,48547,52852,49052.71,53090.15,-505.71,-238.15,-0.242488,-0.273637,2.595592,45.11,0
9511,0,48551,52842,49051.70,53089.66,-500.70,-247.66,-0.242468,-0.273628,2.595592,45.11,0
9520,0,48546,52845,49050.69,53089.17,-504.69,-244.17,-0.242447,-0.273619,2.595592,45.11,0
9531,0,48542,52832,49049.68,53088.66,-507.68,-256.66,-0.242426,-0.273609,2.595592,45.11,0
9540,0,48540,52832,49048.66,53088.14,-508.66,-256.14,-0.242405,-0.273600,2.595592,45.11,0
9551,0,48541,52822,49047.64,53087.61,-506.64,-265.61,-0.242385,-0.273590,2.595592,45.11,0
9562,0,48527,52829,49046.60,53087.10,-519.60,-258.10,-0.242363,-0.273580,2.595592,45.11,0
9572,0,48533,52824,49045.57,53086.57,-512.57,-262.57,-0.242343,-0.273570,2.595592,45.11,0
9580,0,48535,52818,49044.55,53086.04,-509.55,-268.04,-0.242322,-0.273560,2.595592,45.11,0
9592,0,48525,52825,49043.52,53085.52,-518.52,-260.52,-0.242301,-0.273550,2.595592,45.11,0
9600,0,48525,52825,49042.48,53085.00,-517.48,-260.00,-0.242279,-0.273540,2.595592,45.11,0
9609,0,48516,52823,49041.43,53084.48,-525.43,-261.48,-0.242258,-0.273531,2.595592,45.11,0
9620,0,48520,52818,49040.39,53083.95,-520.39,-265.95,-0.242237,-0.273520,2.595592,45.11,0
9629,0,48520,52815,49039.35,53083.41,-519.35,-268.41,-0.242216,-0.273510,2.595592,45.11,0
9640,0,48516,52811,49038.30,53082.87,-522.30,-271.87,-0.242194,-0.273500,2.595592,45.11,0
9648,0,48515,52809,49037.25,53082.32,-522.25,-273.32,-0.242173,-0.273490,2.595592,45.11,0
9658,0,48511,52808,49036.20,53081.77,-525.20,-273.77,-0.242151,-0.273480,2.595592,45.11,0
9668,0,48507,52804,49035.14,53081.22,-528.14,-277.22,-0.242130,-0.273469,2.595592,45.11,0
9677,0,48502,52807,49034.08,53080.67,-532.08,-273.67,-0.242108,-0.273459,2.595592,45.11,0
9688,0,48506,52798,49033.02,53080.11,-527.02,-282.11,-0.242087,-0.273448,2.595592,45.11,0
9698,0,48496,52798,49031.95,53079.55,-535.95,-281.55,-0.242065,-0.273438,2.595592,45.11,0
9709,0,48498,52799,49030.88,53078.99,-532.88,-279.99,-0.242043,-0.273427,2.595592,45.11,0
9720,0,48498,52801,49029.82,53078.43,-531.82,-277.43,-0.242021,-0.273417,2.595592,45.11,0
9731,0,48490,52796,49028.74,53077.87,-538.74,-281.87,-0.241999,-0.273406,2.595592,45.11,0
9740,0,48494,52797,49027.67,53077.31,-533.67,-280.31,-0.241977,-0.273395,2.595592,45.11,0
9750,0,48488,52791,49026.59,53076.74,-538.59,-285.74,-0.241955,-0.273385,2.595592,45.11,0
9760,0,48487,52783,49025.52,53076.16,-538.52,-293.16,-0.241934,-0.273374,2.595592,45.11,0
9770,0,48481,52787,49024.43,53075.58,-543.43,-288.58,-0.241911,-0.273363,2.595592,45.11,0
9780,0,48482,52791,49023.35,53075.01,-541.35,-284.01,-0.241889,-0.273352,2.595592,45.11,0
9790,0,48487,52783,49022.28,53074.43,-535.28,-291.43,-0.241867,-0.273341,2.595592,45.11,0
9800,0,48475,52784,49021.18,53073.85,-546.18,-289.85,-0.241845,-0.273330,2.595592,45.11,0
9810,0,48476,52783,49020.09,53073.27,-544.09,-290.27,-0.241823,-0.273319,2.595592,45.11,0
9820,0,48476,52782,49019.01,53072.69,-543.01,-290.69,-0.241801,-0.273308,2.595592,45.11,0
9830,0,48470,52783,49017.91,53072.11,-547.91,-289.11,-0.241778,-0.273297,2.595592,45.11,0
9841,0,48474,52790,49016.82,53071.55,-542.82,-281.55,-0.241756,-0.273287,2.595592,45.11,0
9850,0,48470,52783,49015.73,53070.97,-545.73,-287.97,-0.241734,-0.273276,2.595592,45.11,0
9860,0,48467,52780,49014.63,53070.39,-547.63,-290.39,-0.241712,-0.273265,2.595592,45.11,0
9870,0,48463,52778,49013.53,53069.81,-550.53,-291.81,-0.241689,-0.273254,2.595592,45.11,0
9880,0,48463,52780,49012.43,53069.23,-549.43,-289.23,-0.241667,-0.273243,2.595592,45.11,0
9890,0,48461,52778,49011.33,53068.65,-550.33,-290.65,-0.241644,-0.273232,2.596245,45.09,1
9899,0,48463,52779,49010.23,53068.07,-547.23,-289.07,-0.241622,-0.273221,2.584960,45.38,1
9909,0,48464,52772,49009.14,53067.48,-545.14,-295.48,-0.241600,-0.273210,2.572575,45.69,1
9919,0,48461,52754,49008.05,53066.86,-547.05,-312.86,-0.241577,-0.273198,2.557089,46.07,1
9929,0,48449,52741,49006.93,53066.21,-557.93,-325.21,-0.241554,-0.273186,2.540255,46.49,1
9938,0,48449,52724,49005.82,53065.52,-556.82,-341.52,-0.241532,-0.273173,2.520453,46.99,1
9948,0,48440,52711,49004.69,53064.82,-564.69,-353.82,-0.241509,-0.273160,2.499305,47.52,1
10014,0,48437,52707,49003.56,53064.10,-566.56,-357.10,-0.241486,-0.273147,2.478498,48.04,1
10031,0,48436,52697,49002.43,53063.37,-566.43,-366.37,-0.241462,-0.273133,2.456610,48.58,1
10037,0,48428,52689,49001.28,53062.62,-573.28,-373.62,-0.241439,-0.273119,2.434616,49.13,1
10047,0,48426,52695,49000.13,53061.89,-574.13,-366.89,-0.241416,-0.273105,2.415081,49.62,1
10053,0,48427,52691,48998.98,53061.14,-571.98,-370.14,-0.241392,-0.273091,2.395609,50.11,1
10059,0,48430,52705,48997.85,53060.43,-567.85,-355.43,-0.241369,-0.273077,2.379533,50.51,1
10065,0,48434,52706,48996.72,53059.73,-562.72,-353.73,-0.241346,-0.273064,2.364079,50.90,1
10069,0,48429,52709,48995.59,53059.03,-566.59,-350.03,-0.241323,-0.273051,2.350096,51.25,1
10071,0,48429,52703,48994.46,53058.32,-565.46,-355.32,-0.241300,-0.273038,2.335632,51.61,1
10074,0,48437,52712,48993.34,53057.62,-556.34,-345.62,-0.241277,-0.273024,2.322799,51.93,1
10077,0,48439,52701,48992.24,53056.91,-553.24,-355.91,-0.241254,-0.273011,2.308517,52.29,1
10079,0,48433,52709,48991.12,53056.22,-558.12,-347.22,-0.241232,-0.272998,2.296430,52.59,1
10080,0,48432,52705,48990.00,53055.52,-558.00,-350.52,-0.241209,-0.272985,2.284213,52.89,1
10090,0,48424,52704,48988.87,53054.82,-564.87,-350.82,-0.241186,-0.272972,2.272743,53.18,1
10100,0,48429,52694,48987.76,53054.10,-558.76,-360.10,-0.241163,-0.272958,2.259870,53.50,1
10112,0,48423,52704,48986.63,53053.40,-563.63,-349.40,-0.241140,-0.272945,2.249325,53.77,1
10122,0,48426,52702,48985.51,53052.70,-559.51,-350.70,-0.241117,-0.272932,2.238694,54.03,1
10132,0,48423,52703,48984.38,53052.00,-561.38,-349.00,-0.241094,-0.272918,2.228742,54.28,1
10142,0,48424,52701,48983.26,53051.30,-559.26,-350.30,-0.241071,-0.272905,2.218793,54.53,1
10152,0,48423,52698,48982.14,53050.59,-559.14,-352.59,-0.241048,-0.272892,2.208817,54.78,1
10162,0,48417,52686,48981.01,53049.86,-564.01,-363.86,-0.241025,-0.272878,2.197819,55.05,1
10172,0,48408,52690,48979.87,53049.14,-571.87,-359.14,-0.241002,-0.272865,2.188250,55.29,1
10181,0,48416,52682,48978.74,53048.41,-562.74,-366.41,-0.240979,-0.272851,2.177494,55.56,1
10190,0,48413,52693,48977.61,53047.70,-564.61,-354.70,-0.240956,-0.272837,2.168741,55.78,1
10199,0,48411,52683,48976.48,53046.97,-565.48,-363.97,-0.240933,-0.272824,2.159069,56.02,1
10210,0,48406,52687,48975.34,53046.25,-569.34,-359.25,-0.240909,-0.272810,2.150501,56.24,1
10220,0,48406,52689,48974.20,53045.54,-568.20,-356.54,-0.240886,-0.272797,2.142468,56.44,1
10231,0,48406,52684,48973.07,53044.82,-567.07,-360.82,-0.240863,-0.272783,2.134067,56.65,1
10241,0,48401,52690,48971.92,53044.11,-570.92,-354.11,-0.240840,-0.272770,2.126926,56.83,1
10251,0,48405,52684,48970.79,53043.39,-565.79,-359.39,-0.240817,-0.272756,2.119081,57.02,1
10262,0,48402,52690,48969.65,53042.68,-567.65,-352.68,-0.240793,-0.272743,2.112343,57.19,1
10271,0,48399,52687,48968.51,53041.97,-569.51,-354.97,-0.240770,-0.272729,2.105606,57.36,1
10282,0,48397,52690,48967.37,53041.27,-570.37,-351.27,-0.240747,-0.272716,2.099515,57.51,1
10291,0,48394,52690,48966.23,53040.57,-572.23,-350.57,-0.240723,-0.272703,2.093750,57.66,1
10302,0,48389,52691,48965.07,53039.87,-576.07,-348.87,-0.240700,-0.272690,2.088508,57.79,1
10314,0,48392,52694,48963.93,53039.18,-571.93,-345.18,-0.240676,-0.272677,2.083596,57.91,1
10321,0,48394,52695,48962.79,53038.49,-568.79,-343.49,-0.240653,-0.272664,2.078831,58.03,1
10332,0,48388,52693,48961.64,53037.80,-573.64,-344.80,-0.240630,-0.272651,2.074270,58.14,1
10341,0,48389,52695,48960.50,53037.12,-571.50,-342.12,-0.240606,-0.272638,2.069995,58.25,1
10352,0,48391,52697,48959.36,53036.44,-568.36,-339.44,-0.240583,-0.272625,2.065944,58.35,1
10361,0,48388,52699,48958.22,53035.77,-570.22,-336.77,-0.240560,-0.272612,2.062341,58.44,1
10371,0,48383,52696,48957.07,53035.09,-574.07,-339.09,-0.240536,-0.272600,2.058764,58.53,1
10382,0,48381,52699,48955.92,53034.41,-574.92,-335.41,-0.240513,-0.272587,2.055672,58.61,1
10391,0,48386,52698,48954.79,53033.74,-568.79,-335.74,-0.240490,-0.272574,2.052324,58.69,1
10401,0,48384,52695,48953.64,53033.07,-569.64,-338.07,-0.240466,-0.272562,2.048856,58.78,1
10413,0,48384,52701,48952.51,53032.40,-568.51,-331.40,-0.240443,-0.272549,2.046054,58.85,1
10420,0,48384,52699,48951.37,53031.74,-567.37,-332.74,-0.240420,-0.272537,2.043128,58.92,1
10429,0,48379,52698,48950.23,53031.07,-571.23,-333.07,-0.240397,-0.272524,2.040405,58.99,1
10439,0,48383,52697,48949.09,53030.40,-566.09,-333.40,-0.240373,-0.272511,2.037470,59.06,1
10449,0,48378,52704,48947.95,53029.75,-569.95,-325.75,-0.240350,-0.272499,2.035478,59.11,1
10460,0,48382,52704,48946.82,53029.10,-564.82,-325.10,-0.240327,-0.272487,2.033351,59.17,1
10472,0,48381,52707,48945.70,53028.46,-564.70,-321.46,-0.240304,-0.272475,2.031585,59.21,1
10481,0,48383,52704,48944.57,53027.81,-561.57,-323.81,-0.240281,-0.272462,2.029501,59.26,1
10490,0,48382,52712,48943.45,53027.18,-561.45,-315.18,-0.240258,-0.272451,2.028210,59.29,1
10499,0,48382,52706,48942.32,53026.54,-560.32,-320.54,-0.240235,-0.272438,2.026421,59.34,1
10510,0,48383,52708,48941.21,53025.90,-558.21,-317.90,-0.240212,-0.272426,2.024801,59.38,1
10520,0,48383,52708,48940.09,53025.27,-557.09,-317.27,-0.240190,-0.272415,2.023215,59.42,1
10532,0,48378,52700,48938.97,53024.62,-560.97,-324.62,-0.240167,-0.272402,2.021183,59.47,1
10542,0,48375,52692,48937.85,53023.96,-562.85,-331.96,-0.240144,-0.272390,2.018619,59.53,1
10551,0,48371,52683,48936.71,53023.28,-565.71,-340.28,-0.240121,-0.272377,2.015477,59.61,1
10563,0,48371,52668,48935.59,53022.57,-564.59,-354.57,-0.240097,-0.272364,2.011029,59.72,1
10572,0,48368,52661,48934.45,53021.84,-566.45,-360.84,-0.240074,-0.272350,2.006164,59.85,1
10585,0,48366,52645,48933.32,53021.09,-567.32,-376.09,-0.240051,-0.272336,1.999980,60.00,1
10595,0,48357,52640,48932.16,53020.33,-575.16,-380.33,-0.240027,-0.272321,1.993871,60.15,1
10606,0,48359,52636,48931.02,53019.56,-572.02,-383.56,-0.240004,-0.272307,1.987460,60.31,1
10616,0,48348,52632,48929.86,53018.79,-581.86,-386.79,-0.239980,-0.272292,1.981318,60.47,1
10625,0,48351,52636,48928.70,53018.02,-577.70,-382.02,-0.239957,-0.272278,1.975602,60.61,1
10631,0,48356,52635,48927.55,53017.26,-571.55,-382.26,-0.239933,-0.272263,1.969736,60.76,1
10639,0,48353,52641,48926.41,53016.51,-573.41,-375.51,-0.239910,-0.272249,1.964706,60.88,1
10652,0,48358,52649,48925.27,53015.77,-567.27,-366.77,-0.239887,-0.272235,1.960308,60.99,1
10662,0,48352,52651,48924.12,53015.05,-572.12,-364.05,-0.239863,-0.272222,1.956442,61.09,1
10673,0,48363,52656,48923.00,53014.33,-560.00,-358.33,-0.239840,-0.272208,1.952643,61.18,1
10682,0,48365,52659,48921.89,53013.62,-556.89,-354.62,-0.239818,-0.272195,1.949100,61.27,1
10691,0,48360,52663,48920.77,53012.92,-560.77,-349.92,-0.239795,-0.272182,1.946167,61.35,1
10700,0,48360,52667,48919.65,53012.23,-559.65,-345.23,-0.239772,-0.272169,1.943619,61.41,1
10710,0,48363,52665,48918.54,53011.54,-555.54,-346.54,-0.239749,-0.272156,1.940846,61.48,1
10721,0,48364,52660,48917.43,53010.84,-553.43,-350.84,-0.239726,-0.272142,1.937692,61.56,1
10731,0,48362,52669,48916.32,53010.15,-554.32,-341.15,-0.239704,-0.272129,1.935393,61.62,1
10741,0,48361,52663,48915.21,53009.46,-554.21,-346.46,-0.239681,-0.272116,1.932713,61.68,1
10750,0,48358,52662,48914.09,53008.77,-556.09,-346.77,-0.239658,-0.272103,1.930129,61.75,1
10761,0,48359,52660,48912.98,53008.07,-553.98,-348.07,-0.239635,-0.272090,1.927404,61.81,1
10772,0,48358,52661,48911.87,53007.38,-553.87,-346.38,-0.239613,-0.272077,1.924851,61.88,1
10782,0,48359,52656,48910.77,53006.68,-551.77,-350.68,-0.239590,-0.272064,1.921925,61.95,1
10790,0,48360,52661,48909.67,53005.98,-549.67,-344.98,-0.239568,-0.272051,1.919405,62.01,1
10803,0,48358,52662,48908.57,53005.30,-550.57,-343.30,-0.239545,-0.272038,1.917088,62.07,1
10815,0,48361,52660,48907.47,53004.61,-546.47,-344.61,-0.239523,-0.272025,1.914551,62.14,1
10826,0,48357,52655,48906.37,53003.91,-549.37,-348.91,-0.239500,-0.272012,1.911841,62.20,1
10836,0,48359,52658,48905.28,53003.22,-546.28,-345.22,-0.239478,-0.271999,1.909334,62.27,1
10843,0,48352,52650,48904.17,53002.52,-552.17,-352.52,-0.239455,-0.271985,1.906543,62.34,1
10850,0,48353,52658,48903.07,53001.83,-550.07,-343.83,-0.239433,-0.271972,1.904368,62.39,1
10863,0,48356,52662,48901.98,53001.15,-545.98,-339.15,-0.239410,-0.271960,1.902411,62.44,1
10872,0,48358,52663,48900.89,53000.47,-542.89,-337.47,-0.239388,-0.271947,1.900488,62.49,1
10883,0,48352,52658,48899.79,52999.79,-547.79,-341.79,-0.239366,-0.271934,1.898467,62.54,1
10892,0,48357,52651,48898.71,52999.09,-541.71,-348.09,-0.239344,-0.271921,1.895789,62.61,1
10903,0,48348,52653,48897.61,52998.40,-549.61,-345.40,-0.239321,-0.271908,1.893645,62.66,1
10911,0,48346,52657,48896.50,52997.72,-550.50,-340.72,-0.239299,-0.271895,1.891904,62.70,1
10923,0,48353,52661,48895.42,52997.05,-542.42,-336.05,-0.239276,-0.271882,1.890215,62.74,1
10931,0,48345,52665,48894.32,52996.39,-549.32,-331.39,-0.239254,-0.271870,1.889132,62.77,1
10941,0,48345,52668,48893.22,52995.73,-548.22,-327.73,-0.239231,-0.271857,1.888273,62.79,1
10952,0,48347,52668,48892.13,52995.08,-545.13,-327.08,-0.239209,-0.271845,1.887354,62.82,1
10962,0,48345,52667,48891.04,52994.42,-546.04,-327.42,-0.239187,-0.271833,1.886457,62.84,1
10972,0,48352,52670,48889.96,52993.77,-537.96,-323.77,-0.239165,-0.271820,1.885519,62.86,1
10983,0,48343,52675,48888.87,52993.14,-545.87,-318.14,-0.239142,-0.271808,1.885257,62.87,1
10992,0,48346,52678,48887.78,52992.51,-541.78,-314.51,-0.239120,-0.271796,1.885083,62.87,1
11003,0,48338,52672,48886.68,52991.87,-548.68,-319.87,-0.239098,-0.271784,1.884818,62.88,1
11014,0,48340,52676,48885.59,52991.24,-545.59,-315.24,-0.239075,-0.271772,1.884743,62.88,1
11023,0,48344,52670,48884.51,52990.60,-540.51,-320.60,-0.239053,-0.271760,1.884132,62.90,1
11031,0,48340,52676,48883.42,52989.97,-543.42,-313.97,-0.239031,-0.271749,1.884067,62.90,1
11043,0,48341,52682,48882.34,52989.36,-541.34,-307.36,-0.239009,-0.271737,1.884347,62.89,1
11052,0,48340,52684,48881.26,52988.75,-541.26,-304.75,-0.238987,-0.271726,1.884785,62.88,1
11064,0,48338,52686,48880.17,52988.14,-542.17,-302.14,-0.238964,-0.271714,1.885414,62.86,1
11073,0,48346,52688,48879.11,52987.54,-533.11,-299.54,-0.238943,-0.271703,1.885866,62.85,1
11080,0,48334,52687,48878.02,52986.94,-544.02,-299.94,-0.238920,-0.271691,1.886688,62.83,1
11090,0,48346,52686,48876.95,52986.34,-530.95,-300.34,-0.238899,-0.271680,1.887002,62.82,1
11102,0,48340,52684,48875.88,52985.74,-535.88,-301.74,-0.238877,-0.271669,1.887405,62.81,1
11113,0,48338,52685,48874.80,52985.14,-536.80,-300.14,-0.238855,-0.271657,1.887936,62.80,1
11122,0,48334,52698,48873.72,52984.56,-539.72,-286.56,-0.238833,-0.271647,1.889388,62.77,1
11131,0,48340,52692,48872.66,52983.98,-532.66,-291.98,-0.238811,-0.271636,1.890248,62.74,1
11143,0,48345,52692,48871.60,52983.40,-526.60,-291.40,-0.238789,-0.271625,1.890917,62.73,1
11152,0,48338,52692,48870.54,52982.82,-532.54,-290.82,-0.238767,-0.271614,1.891829,62.70,1
11161,0,48333,52684,48869.46,52982.22,-536.46,-298.22,-0.238745,-0.271602,1.892425,62.69,1
11172,0,48341,52671,48868.41,52981.60,-527.41,-310.60,-0.238724,-0.271591,1.891909,62.70,1
11183,0,48337,52659,48867.34,52980.95,-530.34,-321.95,-0.238702,-0.271578,1.890764,62.73,1
11193,0,48326,52646,48866.26,52980.29,-540.26,-334.29,-0.238680,-0.271566,1.889161,62.77,1
11202,0,48324,52630,48865.18,52979.59,-541.18,-349.59,-0.238658,-0.271553,1.886542,62.84,1
11213,0,48325,52633,48864.10,52978.89,-539.10,-345.89,-0.238636,-0.271540,1.884148,62.90,1
11223,0,48323,52619,48863.02,52978.18,-540.02,-359.18,-0.238613,-0.271526,1.880874,62.98,1
11233,0,48317,52631,48861.93,52977.48,-544.93,-346.48,-0.238591,-0.271513,1.878733,63.03,1
11241,0,48324,52622,48860.86,52976.77,-536.86,-354.77,-0.238569,-0.271500,1.875748,63.11,1
11250,0,48320,52632,48859.77,52976.09,-539.77,-344.09,-0.238547,-0.271487,1.873660,63.16,1
11261,0,48319,52634,48858.69,52975.40,-539.69,-341.40,-0.238525,-0.271474,1.871781,63.21,1
11272,0,48318,52642,48857.61,52974.74,-539.61,-332.74,-0.238503,-0.271461,1.870506,63.24,1
11281,0,48321,52636,48856.54,52974.06,-535.54,-338.06,-0.238481,-0.271448,1.868748,63.28,1
11292,0,48319,52645,48855.46,52973.41,-536.46,-328.41,-0.238459,-0.271436,1.867682,63.31,1
11303,0,48330,52652,48854.41,52972.77,-524.41,-320.77,-0.238437,-0.271424,1.866692,63.33,1
11313,0,48324,52657,48853.36,52972.14,-529.36,-315.14,-0.238416,-0.271412,1.866241,63.34,1
11322,0,48335,52659,48852.32,52971.51,-517.32,-312.51,-0.238394,-0.271400,1.865537,63.36,1
11329,0,48328,52666,48851.27,52970.90,-523.27,-304.90,-0.238373,-0.271389,1.865510,63.36,1
11339,0,48326,52662,48850.22,52970.29,-524.22,-308.29,-0.238352,-0.271377,1.865312,63.37,1
11349,0,48331,52662,48849.18,52969.67,-518.18,-307.67,-0.238330,-0.271365,1.864944,63.38,1
11360,0,48323,52666,48848.13,52969.07,-525.13,-303.07,-0.238309,-0.271354,1.865098,63.37,1
11370,0,48327,52661,48847.09,52968.45,-520.09,-307.45,-0.238287,-0.271342,1.864812,63.38,1
11379,0,48327,52665,48846.05,52967.85,-519.05,-302.85,-0.238266,-0.271331,1.864769,63.38,1
11390,0,48328,52666,48845.02,52967.25,-517.02,-301.25,-0.238245,-0.271320,1.864752,63.38,1
11400,0,48330,52670,48843.99,52966.65,-513.99,-296.65,-0.238224,-0.271308,1.864902,63.38,1
11412,0,48322,52664,48842.95,52966.05,-520.95,-302.05,-0.238203,-0.271297,1.864973,63.38,1
11421,0,48333,52665,48841.93,52965.45,-508.93,-300.45,-0.238182,-0.271286,1.864725,63.38,1
11431,0,48327,52660,48840.90,52964.84,-513.90,-304.84,-0.238161,-0.271274,1.864386,63.39,1
11441,0,48322,52667,48839.87,52964.24,-517.87,-297.24,-0.238140,-0.271263,1.864640,63.38,1
11451,0,48327,52664,48838.84,52963.64,-511.84,-299.64,-0.238119,-0.271252,1.864542,63.39,1
11462,0,48324,52663,48837.82,52963.04,-513.82,-300.04,-0.238098,-0.271240,1.864489,63.39,1
11472,0,48319,52659,48836.78,52962.44,-517.78,-303.44,-0.238076,-0.271229,1.864371,63.39,1
11482,0,48315,52663,48835.74,52961.84,-520.74,-298.84,-0.238055,-0.271218,1.864632,63.38,1
11492,0,48318,52662,48834.70,52961.24,-516.70,-299.24,-0.238034,-0.271206,1.864727,63.38,1
11502,0,48319,52666,48833.67,52960.65,-514.67,-294.65,-0.238013,-0.271195,1.865020,63.37,1
11512,0,48321,52667,48832.65,52960.07,-511.65,-293.07,-0.237992,-0.271184,1.865300,63.37,1
11522,0,48319,52669,48831.62,52959.48,-512.62,-290.48,-0.237971,-0.271173,1.865761,63.36,1
11531,0,48316,52676,48830.59,52958.92,-514.59,-282.92,-0.237950,-0.271162,1.866718,63.33,1
11543,0,48317,52676,48829.56,52958.35,-512.56,-282.35,-0.237928,-0.271152,1.867630,63.31,1
11554,0,48310,52679,48828.52,52957.79,-518.52,-278.79,-0.237907,-0.271141,1.868943,63.28,1
11562,0,48317,52687,48827.50,52957.25,-510.50,-270.25,-0.237886,-0.271131,1.870438,63.24,1
11574,0,48316,52684,48826.48,52956.71,-510.48,-272.71,-0.237865,-0.271121,1.871788,63.21,1
11582,0,48311,52682,48825.45,52956.16,-514.45,-274.16,-0.237844,-0.271110,1.873187,63.17,1
11592,0,48312,52695,48824.42,52955.64,-512.42,-260.64,-0.237823,-0.271100,1.875239,63.12,1
11603,0,48312,52694,48823.39,52955.12,-511.39,-261.12,-0.237802,-0.271091,1.877217,63.07,1
11614,0,48311,52701,48822.37,52954.61,-511.37,-253.61,-0.237781,-0.271081,1.879578,63.01,1
11624,0,48312,52708,48821.35,52954.12,-509.35,-246.12,-0.237760,-0.271072,1.882241,62.94,1
11632,0,48310,52712,48820.33,52953.63,-510.33,-241.63,-0.237740,-0.271063,1.885152,62.87,1
11643,0,48313,52705,48819.32,52953.14,-506.32,-248.14,-0.237719,-0.271053,1.887580,62.81,1
11653,0,48314,52708,48818.31,52952.65,-504.31,-244.65,-0.237698,-0.271044,1.890106,62.75,1
11664,0,48314,52713,48817.30,52952.17,-503.30,-239.17,-0.237677,-0.271035,1.892864,62.68,1
11672,0,48316,52715,48816.30,52951.70,-500.30,-236.70,-0.237657,-0.271026,1.895630,62.61,1
11681,0,48315,52714,48815.30,52951.23,-500.30,-237.23,-0.237636,-0.271017,1.898359,62.54,1
11690,0,48322,52713,48814.32,52950.75,-492.32,-237.75,-0.237616,-0.271008,1.900777,62.48,1
11701,0,48312,52727,48813.32,52950.30,-501.32,-223.30,-0.237596,-0.271000,1.904208,62.39,1
11713,0,48313,52722,48812.32,52949.85,-499.32,-227.85,-0.237575,-0.270991,1.907338,62.32,1
11723,0,48317,52726,48811.33,52949.40,-494.33,-223.40,-0.237555,-0.270983,1.910503,62.24,1
11733,0,48318,52730,48810.34,52948.96,-492.34,-218.96,-0.237535,-0.270974,1.913803,62.15,1
11743,0,48316,52738,48809.36,52948.54,-493.36,-210.54,-0.237515,-0.270967,1.917527,62.06,1
11753,0,48325,52735,48808.39,52948.12,-483.39,-213.12,-0.237495,-0.270958,1.920779,61.98,1
11763,0,48321,52738,48807.41,52947.70,-486.41,-209.70,-0.237475,-0.270951,1.924289,61.89,1
11773,0,48326,52733,48806.45,52947.27,-480.45,-214.27,-0.237455,-0.270942,1.927371,61.82,1
11781,0,48319,52713,48805.48,52946.80,-486.48,-233.80,-0.237435,-0.270934,1.929669,61.76,1
11792,0,48316,52704,48804.50,52946.32,-488.50,-242.32,-0.237415,-0.270924,1.931571,61.71,1
11802,0,48318,52692,48803.53,52945.81,-485.53,-253.81,-0.237395,-0.270915,1.932715,61.68,1
11813,0,48315,52687,48802.55,52945.29,-487.55,-258.29,-0.237375,-0.270905,1.933662,61.66,1
11822,0,48316,52671,48801.58,52944.75,-485.58,-273.75,-0.237355,-0.270895,1.933599,61.66,1
11834,0,48311,52673,48800.60,52944.20,-489.60,-271.20,-0.237335,-0.270884,1.933835,61.65,1
11841,0,48311,52674,48799.62,52943.66,-488.62,-269.66,-0.237315,-0.270874,1.934131,61.65,1
11852,0,48306,52676,48798.64,52943.13,-492.64,-267.13,-0.237295,-0.270864,1.934721,61.63,1
11862,0,48314,52672,48797.67,52942.59,-483.67,-270.59,-0.237275,-0.270854,1.934779,61.63,1
11873,0,48315,52687,48796.71,52942.08,-481.71,-255.08,-0.237255,-0.270844,1.935703,61.61,1
11882,0,48318,52690,48795.75,52941.57,-477.75,-251.57,-0.237236,-0.270835,1.936689,61.58,1
11892,0,48316,52695,48794.79,52941.08,-478.79,-246.08,-0.237216,-0.270826,1.938021,61.55,1
11901,0,48318,52699,48793.84,52940.60,-475.84,-241.60,-0.237197,-0.270816,1.939498,61.51,1
11912,0,48324,52708,48792.90,52940.13,-468.90,-232.13,-0.237177,-0.270808,1.941251,61.47,1
11924,0,48322,52710,48791.96,52939.68,-469.96,-229.68,-0.237158,-0.270799,1.943167,61.42,1
11931,0,48323,52721,48791.02,52939.24,-468.02,-218.24,-0.237139,-0.270791,1.945611,61.36,1
11943,0,48328,52725,48790.10,52938.81,-462.10,-213.81,-0.237120,-0.270783,1.948073,61.30,1
11951,0,48330,52728,48789.18,52938.39,-459.18,-210.39,-0.237101,-0.270775,1.950602,61.23,1
11961,0,48327,52731,48788.26,52937.98,-461.26,-206.98,-0.237082,-0.270767,1.953368,61.17,1
11972,0,48331,52735,48787.34,52937.57,-456.34,-202.57,-0.237064,-0.270759,1.956178,61.10,1
11981,0,48330,52742,48786.43,52937.18,-456.43,-195.18,-0.237045,-0.270752,1.959345,61.02,1
11994,0,48327,52746,48785.51,52936.80,-458.51,-190.80,-0.237026,-0.270745,1.962786,60.93,1
12003,0,48334,52734,48784.61,52936.39,-450.61,-202.39,-0.237007,-0.270737,1.965393,60.87,1
12012,0,48328,52741,48783.70,52936.00,-455.70,-195.00,-0.236989,-0.270730,1.968534,60.79,1
12023,0,48332,52747,48782.80,52935.63,-450.80,-188.63,-0.236970,-0.270723,1.971810,60.70,1
12033,0,48336,52747,48781.91,52935.25,-445.91,-188.25,-0.236952,-0.270715,1.974933,60.63,1
12041,0,48334,52757,48781.01,52934.90,-447.01,-177.90,-0.236934,-0.270709,1.978573,60.54,1
12052,0,48335,52754,48780.12,52934.54,-445.12,-180.54,-0.236915,-0.270702,1.982028,60.45,1
12062,0,48337,52753,48779.23,52934.18,-442.23,-181.18,-0.236897,-0.270695,1.985355,60.37,1
12081,0,48339,52749,48778.36,52933.81,-439.36,-184.81,-0.236879,-0.270688,1.988411,60.29,1
12089,0,48335,52752,48777.47,52933.45,-442.47,-181.45,-0.236861,-0.270681,1.991733,60.21,1
12104,0,48333,52750,48776.58,52933.08,-443.58,-183.08,-0.236843,-0.270674,1.995014,60.12,1
12170,0,48334,52754,48775.70,52932.72,-441.70,-178.72,-0.236825,-0.270668,1.998438,60.04,1
12178,0,48332,52751,48774.81,52932.36,-442.81,-181.36,-0.236807,-0.270661,2.001772,59.96,1
12185,0,48334,52754,48773.93,52932.00,-439.93,-178.00,-0.236789,-0.270654,2.005168,59.87,1
12193,0,48337,52755,48773.06,52931.65,-436.06,-176.65,-0.236771,-0.270647,2.008494,59.79,1
12198,0,48335,52747,48772.19,52931.29,-437.19,-184.29,-0.236753,-0.270641,2.011483,59.71,1
12202,0,48333,52753,48771.31,52930.93,-438.31,-177.93,-0.236735,-0.270634,2.014826,59.63,1
12206,0,48335,52760,48770.44,52930.59,-435.44,-170.59,-0.236717,-0.270627,2.018421,59.54,1
12209,0,48331,52763,48769.56,52930.26,-438.56,-167.26,-0.236699,-0.270621,2.022285,59.44,1
12211,0,48335,52766,48768.69,52929.93,-433.69,-163.93,-0.236681,-0.270615,2.026133,59.35,1
12213,0,48338,52766,48767.83,52929.60,-429.83,-163.60,-0.236664,-0.270609,2.029864,59.25,1
12214,0,48334,52771,48766.96,52929.29,-432.96,-158.29,-0.236646,-0.270603,2.033953,59.15,1
12216,0,48333,52774,48766.10,52928.98,-433.10,-154.98,-0.236628,-0.270597,2.038200,59.04,1
12220,0,48337,52780,48765.24,52928.68,-428.24,-148.68,-0.236610,-0.270591,2.042559,58.94,1
12230,0,48340,52784,48764.39,52928.39,-424.39,-144.39,-0.236593,-0.270586,2.046974,58.83,1
12240,0,48339,52785,48763.55,52928.11,-424.55,-143.11,-0.236576,-0.270580,2.051457,58.71,1
12250,0,48339,52784,48762.70,52927.82,-423.70,-143.82,-0.236558,-0.270575,2.055888,58.60,1
12262,0,48338,52787,48761.85,52927.54,-423.85,-140.54,-0.236541,-0.270570,2.060474,58.49,1
12275,0,48340,52791,48761.01,52927.27,-421.01,-136.27,-0.236524,-0.270565,2.065149,58.37,1
12283,0,48337,52791,48760.16,52927.00,-423.16,-136.00,-0.236506,-0.270559,2.069923,58.25,1
12294,0,48342,52795,48759.32,52926.73,-417.32,-131.73,-0.236489,-0.270555,2.074676,58.13,1
12303,0,48340,52793,48758.49,52926.47,-418.49,-133.47,-0.236472,-0.270549,2.079411,58.01,1
12313,0,48341,52798,48757.66,52926.21,-416.66,-128.21,-0.236455,-0.270545,2.084309,57.89,1
12323,0,48343,52803,48756.83,52925.97,-413.83,-122.97,-0.236438,-0.270540,2.089330,57.77,1
12333,0,48339,52802,48755.99,52925.72,-416.99,-123.72,-0.236421,-0.270535,2.094450,57.64,1
12343,0,48347,52804,48755.18,52925.48,-408.18,-121.48,-0.236404,-0.270531,2.099357,57.52,1
12353,0,48352,52807,48754.37,52925.25,-402.37,-118.25,-0.236387,-0.270526,2.104200,57.39,1
12362,0,48356,52814,48753.57,52925.02,-397.57,-111.02,-0.236371,-0.270522,2.109167,57.27,1
12373,0,48345,52802,48752.76,52924.78,-407.76,-122.78,-0.236354,-0.270518,2.114053,57.15,1
12383,0,48349,52784,48751.95,52924.50,-402.95,-140.50,-0.236338,-0.270512,2.117985,57.05,1
12392,0,48347,52775,48751.14,52924.20,-404.14,-149.20,-0.236321,-0.270507,2.121535,56.96,1
12403,0,48343,52759,48750.33,52923.87,-407.33,-164.87,-0.236305,-0.270500,2.124356,56.89,1
12413,0,48340,52745,48749.51,52923.52,-409.51,-178.52,-0.236288,-0.270494,2.126443,56.84,1
12423,0,48331,52734,48748.67,52923.14,-417.67,-189.14,-0.236271,-0.270487,2.128152,56.80,1
12431,0,48334,52726,48747.84,52922.74,-413.84,-196.74,-0.236254,-0.270479,2.129198,56.77,1
12442,0,48337,52717,48747.02,52922.33,-410.02,-205.33,-0.236237,-0.270471,2.129489,56.76,1
12454,0,48331,52717,48746.19,52921.92,-415.19,-204.92,-0.236220,-0.270464,2.130004,56.75,1
12463,0,48330,52715,48745.36,52921.51,-415.36,-206.51,-0.236203,-0.270456,2.130407,56.74,1
12473,0,48327,52722,48744.52,52921.11,-417.52,-199.11,-0.236185,-0.270448,2.131426,56.71,1
12481,0,48324,52723,48743.68,52920.71,-419.68,-197.71,-0.236168,-0.270441,2.132623,56.68,1
12494,0,48330,52730,48742.86,52920.34,-412.86,-190.34,-0.236151,-0.270434,2.134065,56.65,1
12502,0,48327,52725,48742.03,52919.95,-415.03,-194.95,-0.236134,-0.270426,2.135267,56.62,1
12512,0,48331,52734,48741.21,52919.57,-410.21,-185.57,-0.236117,-0.270419,2.136923,56.58,1
12522,0,48325,52736,48740.37,52919.21,-415.37,-183.21,-0.236100,-0.270412,2.138935,56.53,1
12532,0,48330,52740,48739.55,52918.85,-409.55,-178.85,-0.236084,-0.270406,2.141004,56.47,1
12542,0,48327,52741,48738.73,52918.50,-411.73,-177.50,-0.236067,-0.270399,2.143243,56.42,1
12552,0,48335,52747,48737.93,52918.16,-402.93,-171.16,-0.236050,-0.270392,2.145546,56.36,1
12564,0,48329,52745,48737.11,52917.81,-408.11,-172.81,-0.236033,-0.270386,2.147941,56.30,1
12574,0,48328,52748,48736.29,52917.47,-408.29,-169.47,-0.236017,-0.270380,2.150554,56.24,1
12583,0,48333,52750,48735.49,52917.14,-402.49,-167.14,-0.236000,-0.270373,2.153085,56.17,1
12594,0,48333,52747,48734.68,52916.80,-401.68,-169.80,-0.235984,-0.270367,2.155414,56.11,1
12602,0,48325,52747,48733.87,52916.46,-408.87,-169.46,-0.235967,-0.270360,2.158043,56.05,1
12612,0,48324,52745,48733.05,52916.12,-409.05,-171.12,-0.235950,-0.270354,2.160567,55.99,1
12620,0,48329,52751,48732.24,52915.79,-403.24,-164.79,-0.235933,-0.270348,2.163269,55.92,1
12632,0,48325,52752,48731.43,52915.46,-406.43,-163.46,-0.235917,-0.270342,2.166178,55.85,1
12642,0,48326,52752,48730.62,52915.14,-404.62,-163.14,-0.235900,-0.270335,2.169034,55.77,1
12652,0,48324,52756,48729.80,52914.82,-405.80,-158.82,-0.235883,-0.270329,2.172209,55.69,1
12661,0,48327,52755,48729.00,52914.51,-402.00,-159.51,-0.235867,-0.270324,2.175186,55.62,1
12673,0,48327,52751,48728.20,52914.18,-401.20,-163.18,-0.235850,-0.270317,2.177894,55.55,1
12683,0,48331,52752,48727.40,52913.86,-396.40,-161.86,-0.235834,-0.270311,2.180494,55.49,1
12694,0,48328,52755,48726.61,52913.54,-398.61,-158.54,-0.235818,-0.270305,2.183394,55.42,1
12704,0,48328,52749,48725.81,52913.21,-397.81,-164.21,-0.235801,-0.270299,2.185888,55.35,1
12715,0,48325,52759,48725.01,52912.91,-400.01,-153.91,-0.235785,-0.270293,2.189140,55.27,1
12723,0,48320,52756,48724.20,52912.59,-404.20,-156.59,-0.235768,-0.270287,2.192390,55.19,1
12734,0,48331,52757,48723.41,52912.29,-392.41,-155.29,-0.235752,-0.270281,2.195244,55.12,1
12744,0,48330,52757,48722.63,52911.98,-392.63,-154.98,-0.235736,-0.270276,2.198126,55.05,1
12756,0,48326,52756,48721.84,52911.66,-395.84,-155.66,-0.235720,-0.270270,2.201092,54.97,1
12765,0,48328,52758,48721.05,52911.36,-393.05,-153.36,-0.235704,-0.270264,2.204093,54.90,1
12774,0,48320,52754,48720.25,52911.05,-400.25,-157.05,-0.235687,-0.270258,2.207145,54.82,1
12786,0,48321,52758,48719.45,52910.74,-398.45,-152.74,-0.235671,-0.270252,2.210407,54.74,1
12794,0,48322,52761,48718.66,52910.45,-396.66,-149.45,-0.235655,-0.270247,2.213808,54.65,1
12803,0,48322,52754,48717.87,52910.13,-395.87,-156.13,-0.235638,-0.270241,2.216729,54.58,1
12815,0,48324,52763,48717.08,52909.84,-393.08,-146.84,-0.235622,-0.270235,2.220151,54.50,1
12824,0,48320,52760,48716.29,52909.54,-396.29,-149.54,-0.235606,-0.270230,2.223529,54.41,1
12835,0,48325,52768,48715.51,52909.26,-390.51,-141.26,-0.235590,-0.270224,2.227201,54.32,1
12844,0,48318,52763,48714.71,52908.97,-396.71,-145.97,-0.235574,-0.270219,2.230831,54.23,1
12854,0,48325,52767,48713.94,52908.69,-388.94,-141.69,-0.235558,-0.270214,2.234413,54.14,1
12864,0,48328,52767,48713.17,52908.41,-385.17,-141.41,-0.235542,-0.270208,2.237857,54.05,1
12873,0,48321,52764,48712.39,52908.12,-391.39,-144.12,-0.235526,-0.270203,2.241385,53.97,1
12882,0,48324,52774,48711.61,52907.85,-387.61,-133.85,-0.235510,-0.270198,2.245414,53.86,1
12894,0,48322,52766,48710.83,52907.57,-388.83,-141.57,-0.235494,-0.270192,2.249002,53.77,1
12903,0,48327,52774,48710.07,52907.30,-383.07,-133.30,-0.235478,-0.270187,2.252881,53.68,1
12912,0,48318,52770,48709.29,52907.03,-391.29,-137.03,-0.235462,-0.270182,2.256875,53.58,1
12923,0,48321,52774,48708.51,52906.77,-387.51,-132.77,-0.235446,-0.270177,2.260983,53.48,1
12932,0,48327,52773,48707.75,52906.50,-380.75,-133.50,-0.235431,-0.270172,2.264759,53.38,1
12943,0,48317,52780,48706.97,52906.25,-389.97,-126.25,-0.235415,-0.270167,2.269392,53.27,1
12954,0,48319,52782,48706.20,52906.00,-387.20,-124.00,-0.235399,-0.270163,2.274047,53.15,1
12964,0,48322,52774,48705.43,52905.74,-383.43,-131.74,-0.235383,-0.270158,2.278056,53.05,1
12973,0,48327,52765,48704.68,52905.46,-377.68,-140.46,-0.235368,-0.270152,2.281230,52.97,1
12983,0,48320,52759,48703.91,52905.17,-383.91,-146.17,-0.235352,-0.270147,2.284263,52.89,1
12993,0,48320,52754,48703.14,52904.87,-383.14,-150.87,-0.235336,-0.270141,2.286909,52.83,1
13003,0,48308,52729,48702.35,52904.52,-394.35,-175.52,-0.235320,-0.270135,2.288012,52.80,1
13013,0,48305,52708,48701.56,52904.12,-396.56,-196.12,-0.235304,-0.270127,2.287268,52.82,1
13023,0,48305,52699,48700.77,52903.71,-395.77,-204.71,-0.235287,-0.270120,2.285621,52.86,1
13033,0,48301,52687,48699.97,52903.28,-398.97,-216.28,-0.235271,-0.270111,2.282901,52.93,1
13043,0,48300,52675,48699.17,52902.82,-399.17,-227.82,-0.235255,-0.270103,2.278924,53.03,1
13053,0,48294,52669,48698.36,52902.36,-404.36,-233.36,-0.235238,-0.270094,2.274589,53.14,1
13065,0,48297,52666,48697.56,52901.89,-400.56,-235.89,-0.235222,-0.270085,2.269835,53.25,1
13074,0,48307,52661,48696.78,52901.41,-389.78,-240.41,-0.235206,-0.270076,2.264117,53.40,1
13085,0,48289,52667,48695.97,52900.94,-406.97,-233.94,-0.235189,-0.270067,2.260016,53.50,1
13094,0,48301,52663,48695.18,52900.46,-394.18,-237.46,-0.235173,-0.270058,2.254968,53.63,1
13105,0,48301,52672,48694.39,52900.01,-393.39,-228.01,-0.235157,-0.270049,2.251029,53.72,1
13114,0,48303,52655,48693.61,52899.52,-390.61,-244.52,-0.235141,-0.270040,2.245098,53.87,1
13124,0,48300,52660,48692.83,52899.04,-392.83,-239.04,-0.235124,-0.270031,2.239990,54.00,1
13134,0,48303,52665,48692.05,52898.58,-389.05,-233.58,-0.235108,-0.270022,2.235404,54.11,1
13144,0,48297,52669,48691.26,52898.12,-394.26,-229.12,-0.235092,-0.270014,2.231601,54.21,1
13154,0,48303,52666,48690.49,52897.66,-387.49,-231.66,-0.235076,-0.270005,2.227256,54.32,1
13164,0,48305,52667,48689.72,52897.20,-384.72,-230.20,-0.235061,-0.269996,2.222999,54.43,1
13174,0,48309,52673,48688.96,52896.75,-379.96,-223.75,-0.235045,-0.269988,2.219279,54.52,1
13185,0,48301,52661,48688.18,52896.29,-387.18,-235.29,-0.235029,-0.269979,2.214652,54.63,1
13194,0,48302,52666,48687.41,52895.82,-385.41,-229.82,-0.235013,-0.269970,2.210604,54.73,1
13204,0,48297,52665,48686.63,52895.36,-389.63,-230.36,-0.234997,-0.269962,2.206730,54.83,1
13213,0,48302,52659,48685.86,52894.89,-383.86,-235.89,-0.234981,-0.269953,2.202033,54.95,1
13222,0,48301,52661,48685.09,52894.43,-384.09,-233.43,-0.234966,-0.269944,2.197674,55.06,1
13231,0,48297,52664,48684.32,52893.96,-387.32,-229.96,-0.234950,-0.269935,2.193883,55.15,1
13243,0,48305,52657,48683.56,52893.49,-378.56,-236.49,-0.234934,-0.269926,2.189036,55.27,1
13253,0,48304,52655,48682.80,52893.02,-378.80,-238.02,-0.234918,-0.269917,2.184088,55.40,1
13265,0,48300,52656,48682.04,52892.54,-382.04,-236.54,-0.234903,-0.269908,2.179502,55.51,1
13273,0,48305,52657,48681.29,52892.07,-376.29,-235.07,-0.234887,-0.269899,2.174879,55.63,1
13283,0,48305,52656,48680.54,52891.60,-375.54,-235.60,-0.234872,-0.269890,2.170217,55.74,1
13293,0,48305,52646,48679.79,52891.11,-374.79,-245.11,-0.234856,-0.269881,2.164531,55.89,1
13303,0,48302,52646,48679.03,52890.62,-377.03,-244.62,-0.234841,-0.269872,2.159070,56.02,1
13313,0,48299,52653,48678.27,52890.15,-379.27,-237.15,-0.234825,-0.269863,2.154590,56.14,1
13323,0,48298,52649,48677.52,52889.67,-379.52,-240.67,-0.234810,-0.269854,2.149793,56.26,1
13333,0,48308,52647,48676.78,52889.19,-368.78,-242.19,-0.234795,-0.269845,2.144426,56.39,1
13343,0,48311,52650,48676.05,52888.71,-365.05,-238.71,-0.234780,-0.269836,2.139340,56.52,1
13353,0,48304,52645,48675.30,52888.23,-371.30,-243.23,-0.234764,-0.269827,2.134094,56.65,1
13363,0,48308,52653,48674.57,52887.76,-366.57,-234.76,-0.234749,-0.269818,2.129606,56.76,1
13373,0,48310,52653,48673.84,52887.29,-363.84,-234.29,-0.234734,-0.269809,2.125100,56.87,1
13383,0,48307,52651,48673.11,52886.82,-366.11,-235.82,-0.234719,-0.269800,2.120579,56.99,1
13393,0,48313,52650,48672.39,52886.34,-359.39,-236.34,-0.234705,-0.269791,2.115772,57.11,1
13403,0,48319,52650,48671.68,52885.87,-352.68,-235.87,-0.234690,-0.269782,2.110790,57.23,1
13411,0,48314,52657,48670.97,52885.41,-356.97,-228.41,-0.234675,-0.269774,2.106789,57.33,1
13424,0,48311,52657,48670.25,52884.96,-359.25,-227.96,-0.234661,-0.269765,2.102968,57.43,1
13433,0,48314,52649,48669.54,52884.49,-355.54,-235.49,-0.234646,-0.269756,2.098273,57.54,1
13442,0,48317,52650,48668.84,52884.02,-351.84,-234.02,-0.234632,-0.269747,2.093626,57.66,1
