t_ms,phase,red_raw,ir_raw,red_dc,ir_dc,red_ac,ir_ac,OD_red,OD_ir,R,spo2,spo2_valid
39,0,52143,58111,52010.34,57497.81,132.66,613.19,-0.476044,-0.470093,0.363706,99.97,0
79,0,52147,58133,52010.62,57499.08,136.38,633.92,-0.476049,-0.470115,0.363706,99.97,0
119,0,52158,58151,52010.91,57500.39,147.09,650.61,-0.476055,-0.470138,0.363706,99.97,0
160,0,52161,58114,52011.21,57501.62,149.79,612.38,-0.476061,-0.470160,0.363706,99.97,0
200,0,52136,58071,52011.46,57502.76,124.54,568.24,-0.476066,-0.470179,0.363706,99.97,0
240,0,52132,58070,52011.71,57503.89,120.29,566.11,-0.476070,-0.470199,0.363216,99.97,1
278,0,52135,58093,52011.95,57505.07,123.05,587.93,-0.476075,-0.470220,0.362730,99.97,1
320,0,52139,58109,52012.21,57506.29,126.79,602.71,-0.476080,-0.470241,0.362249,99.97,1
360,0,52138,58126,52012.46,57507.53,125.54,618.47,-0.476085,-0.470262,0.361772,99.97,1
400,0,52151,58151,52012.74,57508.82,138.26,642.18,-0.476090,-0.470285,0.361301,99.97,1
440,0,52153,58164,52013.02,57510.13,139.98,653.87,-0.476096,-0.470308,0.360834,99.98,1
480,0,52161,58173,52013.32,57511.46,147.68,661.54,-0.476101,-0.470331,0.360374,99.98,1
519,0,52169,58193,52013.63,57512.82,155.37,680.18,-0.476107,-0.470354,0.359921,99.98,1
560,0,52175,58217,52013.95,57514.23,161.05,702.77,-0.476114,-0.470379,0.359475,99.98,1
600,0,52186,58244,52014.30,57515.69,171.70,728.31,-0.476120,-0.470404,0.359036,99.98,1
639,0,52195,58268,52014.66,57517.20,180.34,750.80,-0.476127,-0.470431,0.358606,99.98,1
677,0,52205,58288,52015.04,57518.74,189.96,769.26,-0.476134,-0.470457,0.358186,99.98,1
718,0,52215,58309,52015.45,57520.32,199.55,788.68,-0.476142,-0.470485,0.357775,99.98,1
757,0,52224,58329,52015.86,57521.94,208.14,807.06,-0.476150,-0.470513,0.357375,99.98,1
797,0,52225,58293,52016.28,57523.48,208.72,769.52,-0.476158,-0.470540,0.356987,99.98,1
837,0,52202,58241,52016.65,57524.92,185.35,716.08,-0.476165,-0.470565,0.356605,99.98,1
877,0,52195,58239,52017.01,57526.35,177.99,712.65,-0.476172,-0.470590,0.356230,99.98,1
917,0,52199,58261,52017.38,57527.82,181.62,733.18,-0.476179,-0.470615,0.355860,99.98,1
957,0,52207,58271,52017.76,57529.31,189.24,741.69,-0.476187,-0.470641,0.355497,99.98,1
997,0,52208,58277,52018.14,57530.81,189.86,746.19,-0.476194,-0.470667,0.355139,99.98,1
1037,0,52215,58295,52018.54,57532.34,196.46,762.66,-0.476202,-0.470694,0.354788,99.98,1
1077,0,52218,58311,52018.93,57533.90,199.07,777.10,-0.476209,-0.470721,0.354443,99.99,1
1117,0,52221,58321,52019.34,57535.47,201.66,785.53,-0.476217,-0.470748,0.354104,99.99,1
1157,0,52222,58341,52019.75,57537.09,202.25,803.91,-0.476225,-0.470776,0.353769,99.99,1
1198,0,52229,58358,52020.16,57538.73,208.84,819.27,-0.476233,-0.470805,0.353440,99.99,1
1239,0,52236,58375,52020.60,57540.41,215.40,834.59,-0.476241,-0.470834,0.353117,99.99,1
1278,0,52238,58391,52021.04,57542.11,216.96,848.89,-0.476250,-0.470864,0.352798,99.99,1
1318,0,52246,58415,52021.49,57543.86,224.51,871.14,-0.476258,-0.470894,0.352486,99.99,1
1358,0,52253,58430,52021.95,57545.63,231.05,884.37,-0.476267,-0.470925,0.352178,99.99,1
1399,0,52257,58453,52022.43,57547.45,234.57,905.55,-0.476276,-0.470956,0.351876,99.99,1
1438,0,52263,58473,52022.91,57549.30,240.09,923.70,-0.476286,-0.470988,0.351579,99.99,1
1478,0,52266,58448,52023.40,57551.10,242.60,896.90,-0.476295,-0.471020,0.351288,99.99,1
1519,0,52248,58383,52023.85,57552.76,224.15,830.24,-0.476304,-0.471049,0.351003,99.99,1
1560,0,52235,58377,52024.27,57554.41,210.73,822.59,-0.476312,-0.471077,0.350720,99.99,1
1601,0,52238,58393,52024.70,57556.09,213.30,836.91,-0.476320,-0.471106,0.350441,99.99,1
1639,0,52245,58399,52025.14,57557.78,219.86,841.22,-0.476329,-0.471136,0.350165,99.99,1
1678,0,52242,58406,52025.57,57559.48,216.43,846.52,-0.476337,-0.471165,0.349892,99.99,1
1718,0,52251,58428,52026.03,57561.21,224.97,866.79,-0.476346,-0.471195,0.349622,99.99,1
1763,0,52260,58443,52026.50,57562.98,233.50,880.02,-0.476355,-0.471226,0.349357,99.99,1
1798,0,52261,58450,52026.96,57564.76,234.04,885.24,-0.476364,-0.471257,0.349095,99.99,1
1838,0,52266,58458,52027.45,57566.55,238.55,891.45,-0.476373,-0.471288,0.348837,99.99,1
1878,0,52266,58468,52027.92,57568.35,238.08,899.65,-0.476382,-0.471319,0.348582,99.99,1
1918,0,52272,58484,52028.41,57570.18,243.59,913.82,-0.476391,-0.471351,0.348331,99.99,1
1959,0,52274,58499,52028.90,57572.04,245.10,926.96,-0.476401,-0.471384,0.348083,99.99,1
1998,0,52283,58522,52029.41,57573.95,253.59,948.05,-0.476411,-0.471417,0.347839,99.99,1
2038,0,52288,58538,52029.93,57575.87,258.07,962.12,-0.476421,-0.471450,0.347599,99.99,1
2078,0,52296,58554,52030.46,57577.83,265.54,976.17,-0.476431,-0.471484,0.347362,99.99,1
2122,0,52300,58568,52031.00,57579.81,269.00,988.19,-0.476441,-0.471519,0.347129,99.99,1
2158,0,52308,58582,52031.56,57581.82,276.44,1000.18,-0.476452,-0.471553,0.346901,99.99,1
2198,0,52300,58547,52032.10,57583.75,267.90,963.25,-0.476462,-0.471587,0.346676,99.99,1
2238,0,52276,58488,52032.59,57585.56,243.41,902.44,-0.476472,-0.471618,0.346455,99.99,1
2279,0,52262,58476,52033.05,57587.34,228.95,888.66,-0.476481,-0.471649,0.346234,99.99,1
2319,0,52262,58480,52033.51,57589.13,228.49,890.87,-0.476489,-0.471680,0.346016,99.99,1
2359,0,52262,58476,52033.96,57590.90,228.04,885.10,-0.476498,-0.471711,0.345798,99.99,1
2399,0,52257,58477,52034.41,57592.68,222.59,884.32,-0.476507,-0.471742,0.345582,99.99,1
2439,0,52259,58484,52034.86,57594.46,224.14,889.54,-0.476515,-0.471773,0.345367,99.99,1
2479,0,52254,58499,52035.30,57596.27,218.70,902.73,-0.476524,-0.471804,0.345152,99.99,1
2519,0,52257,58502,52035.75,57598.09,221.25,903.91,-0.476533,-0.471836,0.344937,100.00,1
2559,0,52253,58509,52036.19,57599.91,216.81,909.09,-0.476541,-0.471868,0.344723,100.00,1
2599,0,52255,58515,52036.62,57601.74,218.37,913.26,-0.476549,-0.471899,0.344508,100.00,1
2640,0,52259,58527,52037.07,57603.59,221.93,923.41,-0.476558,-0.471931,0.344294,100.00,1
2681,0,52255,58541,52037.51,57605.47,217.49,935.53,-0.476566,-0.471964,0.344079,100.00,1
2721,0,52265,58558,52037.96,57607.37,227.04,950.62,-0.476575,-0.471997,0.343865,100.00,1
2760,0,52262,58566,52038.41,57609.29,223.59,956.71,-0.476584,-0.472030,0.343650,100.00,1
2799,0,52266,58570,52038.87,57611.21,227.13,958.79,-0.476592,-0.472064,0.343435,100.00,1
2839,0,52271,58585,52039.34,57613.16,231.66,971.84,-0.476601,-0.472098,0.343221,100.00,1
2879,0,52276,58592,52039.81,57615.12,236.19,976.87,-0.476611,-0.472132,0.343007,100.00,1
2919,0,52269,58545,52040.27,57616.98,228.73,928.02,-0.476619,-0.472164,0.342793,100.00,1
2959,0,52249,58500,52040.69,57618.75,208.31,881.25,-0.476627,-0.472195,0.342580,100.00,1
2999,0,52238,58504,52041.09,57620.52,196.91,883.48,-0.476635,-0.472225,0.342365,100.00,1
3039,0,52244,58518,52041.49,57622.32,202.51,895.68,-0.476643,-0.472257,0.342151,100.00,1
3079,0,52244,58530,52041.90,57624.14,202.10,905.86,-0.476651,-0.472288,0.341936,100.00,1
3120,0,52250,58533,52042.32,57625.96,207.68,907.04,-0.476659,-0.472320,0.341720,100.00,1
3160,0,52246,58539,52042.73,57627.79,203.27,911.21,-0.476667,-0.472351,0.341504,100.00,1
3201,0,52247,58547,52043.14,57629.62,203.86,917.37,-0.476674,-0.472383,0.341288,100.00,1
3240,0,52241,58548,52043.54,57631.46,197.46,916.54,-0.476682,-0.472415,0.341070,100.00,1
3282,0,52237,58555,52043.92,57633.31,193.08,921.69,-0.476690,-0.472447,0.340851,100.00,1
3322,0,52238,58565,52044.31,57635.18,193.69,929.82,-0.476697,-0.472480,0.340631,100.00,1
3361,0,52241,58581,52044.71,57637.07,196.29,943.93,-0.476705,-0.472512,0.340410,100.00,1
3400,0,52241,58588,52045.10,57638.97,195.90,949.03,-0.476712,-0.472545,0.340187,100.00,1
3442,0,52241,58602,52045.50,57640.90,195.50,961.10,-0.476720,-0.472579,0.339962,100.00,1
3481,0,52245,58623,52045.89,57642.86,199.11,980.14,-0.476727,-0.472613,0.339737,100.00,1
3523,0,52243,58638,52046.29,57644.86,196.71,993.14,-0.476735,-0.472647,0.339509,100.00,1
3564,0,52250,58638,52046.70,57646.84,203.30,991.16,-0.476743,-0.472682,0.339280,100.00,1
3602,0,52238,58578,52047.08,57648.71,190.92,929.29,-0.476750,-0.472714,0.339049,100.00,1
3642,0,52227,58559,52047.44,57650.53,179.56,908.47,-0.476757,-0.472746,0.338818,100.00,1
3683,0,52226,58575,52047.80,57652.38,178.20,922.62,-0.476764,-0.472778,0.338585,100.00,1
3721,0,52231,58595,52048.17,57654.27,182.83,940.73,-0.476771,-0.472811,0.338350,100.00,1
3764,0,52232,58601,52048.54,57656.16,183.46,944.84,-0.476778,-0.472844,0.338114,100.00,1
3805,0,52232,58620,52048.90,57658.09,183.10,961.91,-0.476785,-0.472877,0.337877,100.00,1
3844,0,52244,58634,52049.29,57660.04,194.71,973.96,-0.476793,-0.472911,0.337638,100.00,1
3883,0,52251,58639,52049.70,57662.00,201.30,977.00,-0.476801,-0.472945,0.337398,100.00,1
3922,0,52253,58652,52050.11,57663.98,202.89,988.02,-0.476808,-0.472979,0.337158,100.00,1
3960,0,52254,58663,52050.52,57665.98,203.48,997.02,-0.476816,-0.473014,0.336916,100.00,1
4004,0,52260,58682,52050.94,57668.02,209.06,1013.98,-0.476824,-0.473049,0.336674,100.00,1
4042,0,52257,58696,52051.35,57670.08,205.65,1025.92,-0.476832,-0.473085,0.336430,100.00,1
4085,0,52261,58713,52051.77,57672.16,209.23,1040.84,-0.476840,-0.473121,0.336186,100.00,1
4123,0,52267,58728,52052.21,57674.28,214.79,1053.72,-0.476849,-0.473158,0.335941,100.00,1
4163,0,52271,58739,52052.64,57676.41,218.36,1062.59,-0.476857,-0.473195,0.335694,100.00,1
4200,0,52274,58752,52053.09,57678.56,220.91,1073.44,-0.476866,-0.473232,0.335448,100.00,1
4243,0,52279,58770,52053.54,57680.75,225.46,1089.25,-0.476874,-0.473270,0.335200,100.00,1
4282,0,52276,58736,52053.99,57682.86,222.01,1053.14,-0.476883,-0.473307,0.334952,100.00,1
4324,0,52251,58671,52054.38,57684.84,196.62,986.16,-0.476891,-0.473341,0.334703,100.00,1
4364,0,52236,58660,52054.75,57686.79,181.25,973.21,-0.476897,-0.473375,0.334453,100.00,1
4405,0,52236,58668,52055.11,57688.75,180.89,979.25,-0.476905,-0.473409,0.334202,100.00,1
4445,0,52235,58678,52055.47,57690.73,179.53,987.27,-0.476911,-0.473443,0.333949,100.00,1
4482,0,52237,58676,52055.83,57692.71,181.17,983.29,-0.476918,-0.473477,0.333695,100.00,1
4524,0,52233,58689,52056.19,57694.70,176.81,994.30,-0.476925,-0.473512,0.333440,100.00,1
4564,0,52234,58700,52056.54,57696.71,177.46,1003.29,-0.476932,-0.473547,0.333183,100.00,1
4604,0,52233,58707,52056.90,57698.73,176.10,1008.27,-0.476939,-0.473582,0.332924,100.00,1
4644,0,52234,58718,52057.25,57700.77,176.75,1017.23,-0.476946,-0.473617,0.332664,100.00,1
4683,0,52235,58725,52057.61,57702.82,177.39,1022.18,-0.476953,-0.473653,0.332402,100.00,1
4724,0,52239,58734,52057.97,57704.89,181.03,1029.11,-0.476959,-0.473688,0.332138,100.00,1
4764,0,52241,58751,52058.34,57706.98,182.66,1044.02,-0.476967,-0.473725,0.331873,100.00,1
4804,0,52239,58760,52058.70,57709.09,180.30,1050.91,-0.476974,-0.473761,0.331606,100.00,1
4844,0,52245,58775,52059.08,57711.22,185.92,1063.78,-0.476981,-0.473798,0.331338,100.00,1
4883,0,52249,58788,52059.46,57713.38,189.54,1074.62,-0.476988,-0.473835,0.331068,100.00,1
4923,0,52251,58798,52059.84,57715.55,191.16,1082.45,-0.476995,-0.473873,0.330796,100.00,1
4963,0,52258,58802,52060.24,57717.73,197.76,1084.27,-0.477003,-0.473911,0.330524,100.00,1
5004,0,52252,58739,52060.63,57719.77,191.37,1019.23,-0.477011,-0.473946,0.330251,100.00,1
5045,0,52224,58687,52060.96,57721.71,163.04,965.29,-0.477017,-0.473980,0.329977,100.00,1
5082,0,52210,58683,52061.26,57723.63,148.74,959.37,-0.477023,-0.474013,0.329701,100.00,1
5126,0,52210,58693,52061.56,57725.57,148.44,967.43,-0.477028,-0.474047,0.329423,100.00,1
5165,0,52205,58684,52061.85,57727.49,143.15,956.51,-0.477034,-0.474080,0.329144,100.00,1
5201,0,52205,58681,52062.14,57729.40,142.86,951.60,-0.477039,-0.474113,0.328864,100.00,1
5241,0,52201,58679,52062.41,57731.30,138.59,947.70,-0.477045,-0.474146,0.328581,100.00,1
5281,0,52198,58682,52062.69,57733.21,135.31,948.79,-0.477050,-0.474179,0.328297,100.00,1
5321,0,52188,58668,52062.94,57735.08,125.06,932.92,-0.477055,-0.474211,0.328012,100.00,1
5362,0,52182,58674,52063.18,57736.96,118.82,937.04,-0.477059,-0.474244,0.327724,100.00,1
5407,0,52184,58683,52063.42,57738.85,120.58,944.15,-0.477064,-0.474277,0.327434,100.00,1
5444,0,52179,58688,52063.66,57740.75,115.34,947.25,-0.477069,-0.474310,0.327142,100.00,1
5486,0,52180,58692,52063.89,57742.65,116.11,949.35,-0.477073,-0.474343,0.326848,100.00,1
5523,0,52178,58698,52064.12,57744.57,113.88,953.43,-0.477078,-0.474376,0.326551,100.00,1
5566,0,52173,58709,52064.34,57746.50,108.66,962.50,-0.477082,-0.474409,0.326253,100.00,1
5606,0,52173,58715,52064.56,57748.43,108.44,966.57,-0.477086,-0.474443,0.325952,100.00,1
5645,0,52171,58716,52064.77,57750.37,106.23,965.63,-0.477090,-0.474476,0.325648,100.00,1
5683,0,52164,58664,52064.97,57752.20,99.03,911.80,-0.477094,-0.474508,0.325343,100.00,1
5726,0,52140,58603,52065.12,57753.90,74.87,849.10,-0.477097,-0.474537,0.325036,100.00,1
5766,0,52125,58596,52065.25,57755.59,59.75,840.41,-0.477099,-0.474567,0.324727,100.00,1
5806,0,52124,58602,52065.36,57757.29,58.64,844.71,-0.477101,-0.474596,0.324416,100.00,1
5846,0,52123,58601,52065.48,57758.97,57.52,842.03,-0.477104,-0.474625,0.324102,100.00,1
5884,0,52121,58605,52065.59,57760.67,55.41,844.33,-0.477106,-0.474655,0.323787,100.00,1
5924,0,52121,58609,52065.71,57762.37,55.29,846.63,-0.477108,-0.474684,0.323469,100.00,1
5965,0,52124,58611,52065.82,57764.07,58.18,846.93,-0.477110,-0.474713,0.323150,100.00,1
6002,0,52122,58615,52065.94,57765.77,56.06,849.23,-0.477112,-0.474743,0.322828,100.00,1
6044,0,52125,58618,52066.06,57767.48,58.94,850.52,-0.477115,-0.474772,0.322505,100.00,1
6087,0,52125,58626,52066.18,57769.20,58.82,856.80,-0.477117,-0.474802,0.322179,100.00,1
6124,0,52126,58643,52066.30,57770.95,59.70,872.05,-0.477119,-0.474832,0.321851,100.00,1
6166,0,52127,58655,52066.42,57772.71,60.58,882.29,-0.477122,-0.474863,0.321522,100.00,1
6206,0,52128,58666,52066.55,57774.50,61.45,891.50,-0.477124,-0.474894,0.321190,100.00,1
6246,0,52135,58686,52066.68,57776.33,68.32,909.67,-0.477127,-0.474926,0.320856,100.00,1
6286,0,52146,58697,52066.84,57778.17,79.16,918.83,-0.477130,-0.474958,0.320520,100.00,1
6322,0,52140,58655,52066.99,57779.93,73.01,875.07,-0.477133,-0.474988,0.320182,100.00,1
6362,0,52111,58580,52067.08,57781.53,43.92,798.47,-0.477134,-0.475016,0.319843,100.00,1
6406,0,52095,58572,52067.14,57783.11,27.86,788.89,-0.477136,-0.475043,0.319502,100.00,1
6447,0,52094,58572,52067.20,57784.69,26.80,787.31,-0.477137,-0.475070,0.319159,100.00,1
6486,0,52091,58569,52067.25,57786.26,23.75,782.74,-0.477138,-0.475098,0.318815,100.00,1
6523,0,52088,58566,52067.29,57787.82,20.71,778.18,-0.477138,-0.475125,0.318469,100.00,1
6566,0,52085,58578,52067.32,57789.40,17.68,788.60,-0.477139,-0.475152,0.318121,100.00,1
6603,0,52087,58576,52067.36,57790.98,19.64,785.02,-0.477140,-0.475179,0.317772,100.00,1
6643,0,52083,58577,52067.39,57792.55,15.61,784.45,-0.477140,-0.475206,0.317422,100.00,1
6685,0,52083,58591,52067.43,57794.15,15.57,796.85,-0.477141,-0.475234,0.317422,100.00,0
6723,0,52087,58597,52067.46,57795.75,19.54,801.25,-0.477142,-0.475262,0.317422,100.00,0
6767,0,52092,58603,52067.52,57797.37,24.48,805.63,-0.477143,-0.475290,0.317422,100.00,0
6807,0,52090,58620,52067.56,57799.02,22.44,820.98,-0.477144,-0.475318,0.317422,100.00,0
6843,0,52091,58634,52067.61,57800.69,23.39,833.31,-0.477145,-0.475347,0.317422,100.00,0
6888,0,52101,58657,52067.68,57802.41,33.32,854.59,-0.477146,-0.475377,0.317422,100.00,0
6923,0,52101,58662,52067.74,57804.12,33.26,857.87,-0.477147,-0.475407,0.317422,100.00,0
6966,0,52109,58670,52067.82,57805.86,41.18,864.14,-0.477149,-0.475437,0.317422,100.00,0
7006,0,52104,58609,52067.90,57807.47,36.10,801.53,-0.477150,-0.475465,0.317422,100.00,0
7047,0,52078,58528,52067.92,57808.91,10.08,719.09,-0.477151,-0.475489,0.317422,100.00,0
7087,0,52058,58505,52067.90,57810.30,-9.90,694.70,-0.477150,-0.475514,0.317422,100.00,0
7127,0,52055,58512,52067.88,57811.71,-12.88,700.29,-0.477150,-0.475538,0.317422,100.00,0
7166,0,52061,58508,52067.87,57813.11,-6.87,694.89,-0.477150,-0.475562,0.317422,100.00,0
7207,0,52057,58507,52067.85,57814.50,-10.85,692.50,-0.477149,-0.475586,0.317422,100.00,0
7245,0,52055,58507,52067.82,57815.88,-12.82,691.12,-0.477149,-0.475610,0.317422,100.00,0
7284,0,52053,58505,52067.80,57817.26,-14.80,687.74,-0.477148,-0.475634,0.317422,100.00,0
7327,0,52050,58500,52067.76,57818.63,-17.76,681.37,-0.477148,-0.475658,0.317422,100.00,0
7366,0,52049,58501,52067.73,57820.00,-18.73,681.00,-0.477147,-0.475681,0.317422,100.00,0
7406,0,52047,58511,52067.69,57821.38,-20.69,689.62,-0.477146,-0.475705,0.317422,100.00,0
7444,0,52050,58518,52067.65,57822.77,-17.65,695.23,-0.477145,-0.475729,0.317422,100.00,0
7484,0,52050,58530,52067.62,57824.19,-17.62,705.81,-0.477145,-0.475754,0.317422,100.00,0
7524,0,52052,58537,52067.59,57825.61,-15.59,711.39,-0.477144,-0.475778,0.317422,100.00,0
7564,0,52054,58542,52067.56,57827.05,-13.56,714.95,-0.477144,-0.475803,0.317422,100.00,0
7606,0,52056,58555,52067.54,57828.50,-11.54,726.50,-0.477143,-0.475828,0.317422,100.00,0
7648,0,52057,58565,52067.52,57829.98,-10.52,735.02,-0.477143,-0.475854,0.317422,100.00,0
7687,0,52050,58498,52067.48,57831.31,-17.48,666.69,-0.477142,-0.475877,0.317422,100.00,0
7728,0,52020,58415,52067.39,57832.48,-47.39,582.52,-0.477140,-0.475897,0.317422,100.00,0
7768,0,52000,58397,52067.25,57833.61,-67.25,563.39,-0.477138,-0.475917,0.317422,100.00,0
7807,0,52004,58397,52067.13,57834.74,-63.13,562.26,-0.477135,-0.475936,0.317422,100.00,0
7848,0,52005,58399,52067.01,57835.87,-62.01,563.13,-0.477133,-0.475956,0.317422,100.00,0
7888,0,52003,58396,52066.88,57836.99,-63.88,559.01,-0.477131,-0.475975,0.317422,100.00,0
7928,0,52003,58416,52066.76,57838.15,-63.76,577.85,-0.477128,-0.475995,0.317422,100.00,0
7967,0,52010,58421,52066.64,57839.32,-56.64,581.68,-0.477126,-0.476015,0.317422,100.00,0
8006,0,52012,58422,52066.54,57840.48,-54.54,581.52,-0.477124,-0.476035,0.317422,100.00,0
8048,0,52015,58425,52066.43,57841.66,-51.43,583.34,-0.477122,-0.476056,0.317422,100.00,0
8084,0,52021,58439,52066.34,57842.85,-45.34,596.15,-0.477120,-0.476076,0.317422,100.00,0
8124,0,52025,58446,52066.26,57844.06,-41.26,601.94,-0.477119,-0.476097,0.317422,100.00,0
8165,0,52029,58455,52066.19,57845.28,-37.19,609.72,-0.477117,-0.476118,0.317422,100.00,0
8207,0,52033,58470,52066.12,57846.53,-33.12,623.47,-0.477116,-0.476140,0.317422,100.00,0
8247,0,52035,58480,52066.06,57847.80,-31.06,632.20,-0.477115,-0.476162,0.317422,100.00,0
8287,0,52036,58494,52066.00,57849.09,-30.00,644.91,-0.477114,-0.476184,0.317422,100.00,0
8324,0,52043,58504,52065.96,57850.41,-22.96,653.59,-0.477113,-0.476207,0.317422,100.00,0
8366,0,52045,58483,52065.92,57851.67,-20.92,631.33,-0.477112,-0.476229,0.317422,100.00,0
8407,0,52020,58384,52065.83,57852.74,-45.83,531.26,-0.477110,-0.476247,0.317422,100.00,0
8445,0,51995,58334,52065.69,57853.70,-70.69,480.30,-0.477108,-0.476264,0.317422,100.00,0
8484,0,51981,58333,52065.52,57854.66,-84.52,478.34,-0.477104,-0.476281,0.317422,100.00,0
8524,0,51987,58339,52065.36,57855.63,-78.36,483.37,-0.477101,-0.476297,0.317422,100.00,0
8565,0,51983,58332,52065.20,57856.59,-82.20,475.41,-0.477098,-0.476314,0.317422,100.00,0
8605,0,51978,58338,52065.03,57857.55,-87.03,480.45,-0.477095,-0.476331,0.317422,100.00,0
8645,0,51985,58341,52064.87,57858.52,-79.87,482.48,-0.477092,-0.476347,0.317422,100.00,0
8685,0,51982,58347,52064.70,57859.50,-82.70,487.50,-0.477089,-0.476364,0.317422,100.00,0
8727,0,51983,58347,52064.54,57860.47,-81.54,486.53,-0.477086,-0.476381,0.317422,100.00,0
8767,0,51981,58352,52064.38,57861.46,-83.38,490.54,-0.477082,-0.476398,0.317422,100.00,0
8805,0,51983,58367,52064.22,57862.47,-81.22,504.53,-0.477079,-0.476416,0.317422,100.00,0
8846,0,51991,58378,52064.07,57863.50,-73.07,514.50,-0.477077,-0.476433,0.317422,100.00,0
8888,0,51996,58392,52063.94,57864.56,-67.94,527.44,-0.477074,-0.476452,0.317422,100.00,0
8927,0,52004,58408,52063.82,57865.65,-59.82,542.35,-0.477072,-0.476470,0.317422,100.00,0
8967,0,52008,58423,52063.71,57866.77,-55.71,556.23,-0.477070,-0.476490,0.317422,100.00,0
9008,0,52013,58438,52063.61,57867.91,-50.61,570.09,-0.477068,-0.476510,0.317422,100.00,0
9047,0,52016,58426,52063.52,57869.03,-47.52,556.97,-0.477066,-0.476529,0.317422,100.00,0
9086,0,52000,58341,52063.39,57869.97,-63.39,471.03,-0.477064,-0.476545,0.317422,100.00,0
9126,0,51977,58291,52063.22,57870.82,-86.22,420.18,-0.477060,-0.476560,0.317422,100.00,0
9169,0,51973,58286,52063.04,57871.65,-90.04,414.35,-0.477057,-0.476574,0.317422,100.00,0
9208,0,51975,58292,52062.86,57872.49,-87.86,419.51,-0.477053,-0.476589,0.317422,100.00,0
9247,0,51975,58294,52062.69,57873.34,-87.69,420.66,-0.477050,-0.476603,0.317422,100.00,0
9288,0,51978,58299,52062.52,57874.19,-84.52,424.81,-0.477047,-0.476618,0.317422,100.00,0
9325,0,51977,58307,52062.35,57875.05,-85.35,431.95,-0.477044,-0.476633,0.317422,100.00,0
9368,0,51979,58302,52062.19,57875.91,-83.19,426.09,-0.477040,-0.476648,0.317422,100.00,0
9407,0,51980,58294,52062.02,57876.75,-82.02,417.25,-0.477037,-0.476662,0.317422,100.00,0
9448,0,51976,58300,52061.85,57877.59,-85.85,422.41,-0.477034,-0.476677,0.317422,100.00,0
9487,0,51977,58310,52061.68,57878.46,-84.68,431.54,-0.477031,-0.476692,0.317422,100.00,0
9528,0,51974,58324,52061.51,57879.35,-87.51,444.65,-0.477027,-0.476707,0.317422,100.00,0
9565,0,51982,58329,52061.35,57880.25,-79.35,448.75,-0.477024,-0.476723,0.317422,100.00,0
9608,0,51983,58338,52061.20,57881.17,-78.20,456.83,-0.477021,-0.476739,0.317422,100.00,0
9649,0,51986,58353,52061.05,57882.12,-75.05,470.88,-0.477019,-0.476755,0.317422,100.00,0
9688,0,51990,58341,52060.91,57883.04,-70.91,457.96,-0.477016,-0.476771,0.317422,100.00,0
9726,0,51971,58251,52060.73,57883.77,-89.73,367.23,-0.477012,-0.476784,0.317422,100.00,0
9766,0,51939,58199,52060.48,57884.41,-121.48,314.59,-0.477008,-0.476795,0.317422,100.00,0
9811,0,51931,58205,52060.23,57885.05,-129.23,319.95,-0.477003,-0.476806,0.317422,100.00,0
9846,0,51935,58218,52059.98,57885.72,-124.98,332.28,-0.476998,-0.476817,0.317422,100.00,0
9886,0,51942,58225,52059.74,57886.40,-117.74,338.60,-0.476993,-0.476829,0.317422,100.00,0
9928,0,51946,58235,52059.52,57887.10,-113.52,347.90,-0.476989,-0.476841,0.317422,100.00,0
9966,0,51950,58242,52059.30,57887.81,-109.30,354.19,-0.476985,-0.476853,0.317422,100.00,0
10008,0,51951,58245,52059.08,57888.52,-108.08,356.48,-0.476981,-0.476866,0.317422,100.00,0
10047,0,51953,58252,52058.87,57889.25,-105.87,362.75,-0.476977,-0.476878,0.317422,100.00,0
10087,0,51954,58261,52058.66,57890.00,-104.66,371.00,-0.476973,-0.476891,0.317422,100.00,0
10129,0,51962,58277,52058.47,57890.77,-96.47,386.23,-0.476969,-0.476905,0.317422,100.00,0
10169,0,51970,58290,52058.30,57891.57,-88.30,398.43,-0.476966,-0.476918,0.317422,100.00,0
10209,0,51977,58306,52058.14,57892.41,-81.14,413.59,-0.476963,-0.476933,0.317422,100.00,0
10247,0,51986,58319,52057.99,57893.26,-71.99,425.74,-0.476960,-0.476947,0.317422,100.00,0
10289,0,51986,58331,52057.85,57894.14,-71.85,436.86,-0.476957,-0.476963,0.317422,100.00,0
10328,0,51991,58321,52057.71,57895.00,-66.71,426.00,-0.476955,-0.476977,0.317422,100.00,0
10369,0,51971,58229,52057.54,57895.66,-86.54,333.34,-0.476951,-0.476989,0.317422,100.00,0
10409,0,51943,58171,52057.32,57896.21,-114.32,274.79,-0.476947,-0.476999,0.317422,100.00,0
10447,0,51935,58166,52057.07,57896.76,-122.07,269.24,-0.476942,-0.477008,0.317422,100.00,0
10489,0,51936,58172,52056.83,57897.31,-120.83,274.69,-0.476938,-0.477017,0.317422,100.00,0
10529,0,51937,58159,52056.59,57897.83,-119.59,261.17,-0.476933,-0.477026,0.317422,100.00,0
10568,0,51934,58164,52056.35,57898.37,-122.35,265.63,-0.476928,-0.477036,0.317422,100.00,0
10609,0,51934,58171,52056.11,57898.91,-122.11,272.09,-0.476924,-0.477045,0.317422,100.00,0
10651,0,51937,58178,52055.87,57899.47,-118.87,278.53,-0.476919,-0.477055,0.317422,100.00,0
10694,0,51939,58179,52055.64,57900.04,-116.64,278.96,-0.476915,-0.477065,0.317422,100.00,0
10731,0,51947,58186,52055.43,57900.61,-108.43,285.39,-0.476911,-0.477074,0.317422,100.00,0
10770,0,51944,58197,52055.20,57901.20,-111.20,295.80,-0.476906,-0.477085,0.317422,100.00,0
10811,0,51946,58211,52054.98,57901.82,-108.98,309.18,-0.476902,-0.477095,0.317422,100.00,0
10851,0,51951,58229,52054.78,57902.48,-103.78,326.52,-0.476898,-0.477107,0.317422,100.00,0
10891,0,51958,58241,52054.59,57903.16,-96.59,337.84,-0.476894,-0.477118,0.317422,100.00,0
10932,0,51962,58256,52054.40,57903.87,-92.40,352.13,-0.476891,-0.477131,0.317422,100.00,0
10969,0,51970,58269,52054.23,57904.60,-84.23,364.40,-0.476888,-0.477143,0.317422,100.00,0
11012,0,51968,58230,52054.06,57905.25,-86.06,324.75,-0.476884,-0.477155,0.317422,100.00,0
11051,0,51941,58130,52053.84,57905.70,-112.84,224.30,-0.476880,-0.477162,0.317422,100.00,0
11091,0,51919,58099,52053.57,57906.09,-134.57,192.91,-0.476875,-0.477169,0.317422,100.00,0
11131,0,51924,58098,52053.31,57906.47,-129.31,191.53,-0.476870,-0.477176,0.317422,100.00,0
11172,0,51923,58097,52053.05,57906.86,-130.05,190.14,-0.476865,-0.477182,0.317071,100.00,1
11207,0,51926,58088,52052.80,57907.22,-126.80,180.78,-0.476860,-0.477189,0.316725,100.00,1
11251,0,51930,58094,52052.55,57907.59,-122.55,186.41,-0.476855,-0.477195,0.316384,100.00,1
11290,0,51933,58096,52052.31,57907.97,-119.31,188.03,-0.476851,-0.477202,0.316046,100.00,1
11331,0,51934,58104,52052.08,57908.37,-118.08,195.63,-0.476846,-0.477208,0.315713,100.00,1
11368,0,51939,58107,52051.85,57908.77,-112.85,198.23,-0.476842,-0.477215,0.315384,100.00,1
11412,0,51941,58119,52051.63,57909.19,-110.63,209.81,-0.476838,-0.477223,0.315059,100.00,1
11450,0,51945,58128,52051.42,57909.62,-106.42,218.37,-0.476834,-0.477230,0.314737,100.00,1
11491,0,51952,58146,52051.22,57910.10,-99.22,235.90,-0.476830,-0.477238,0.314417,100.00,1
11531,0,51960,58160,52051.04,57910.60,-91.04,249.40,-0.476826,-0.477247,0.314101,100.00,1
11571,0,51964,58173,52050.87,57911.12,-86.87,261.87,-0.476823,-0.477256,0.313786,100.00,1
11609,0,51973,58187,52050.71,57911.68,-77.71,275.32,-0.476820,-0.477266,0.313474,100.00,1
11648,0,51976,58201,52050.57,57912.26,-74.57,288.74,-0.476817,-0.477276,0.313163,100.00,1
11691,0,51972,58159,52050.41,57912.76,-78.41,246.24,-0.476814,-0.477284,0.312854,100.00,1
11732,0,51945,58052,52050.20,57913.04,-105.20,138.96,-0.476810,-0.477289,0.312549,100.00,1
11772,0,51917,58011,52049.93,57913.24,-132.93,97.76,-0.476805,-0.477293,0.312249,100.00,1
11812,0,51916,58011,52049.67,57913.43,-133.67,97.57,-0.476800,-0.477296,0.311954,100.00,1
11851,0,51915,58009,52049.40,57913.62,-134.40,95.37,-0.476795,-0.477299,0.311666,100.00,1
11891,0,51914,58007,52049.13,57913.81,-135.13,93.19,-0.476790,-0.477302,0.311383,100.00,1
11932,0,51913,58010,52048.86,57914.01,-135.86,95.99,-0.476784,-0.477306,0.311105,100.00,1
11972,0,51916,58018,52048.59,57914.22,-132.59,103.78,-0.476779,-0.477309,0.310833,100.00,1
12012,0,51922,58022,52048.34,57914.44,-126.34,107.56,-0.476774,-0.477313,0.310566,100.00,1
12051,0,51925,58025,52048.10,57914.66,-123.10,110.34,-0.476770,-0.477317,0.310304,100.00,1
12091,0,51934,58033,52047.87,57914.90,-113.87,118.10,-0.476765,-0.477321,0.310046,100.00,1
12131,0,51935,58043,52047.65,57915.16,-112.65,127.84,-0.476761,-0.477326,0.309792,100.00,1
12169,0,51938,58066,52047.43,57915.46,-109.43,150.54,-0.476757,-0.477331,0.309541,100.00,1
12211,0,51946,58080,52047.23,57915.79,-101.23,164.21,-0.476753,-0.477337,0.309294,100.00,1
12251,0,51954,58092,52047.04,57916.15,-93.04,175.85,-0.476749,-0.477343,0.309050,100.00,1
12291,0,51963,58112,52046.87,57916.54,-83.87,195.46,-0.476746,-0.477350,0.308808,100.00,1
12332,0,51968,58116,52046.72,57916.95,-78.72,199.05,-0.476743,-0.477356,0.308568,100.00,1
12371,0,51961,58038,52046.55,57917.19,-85.55,120.81,-0.476740,-0.477361,0.308330,100.00,1
12412,0,51929,57956,52046.31,57917.27,-117.31,38.73,-0.476735,-0.477362,0.308097,100.00,1
12452,0,51915,57945,52046.05,57917.32,-131.05,27.68,-0.476730,-0.477363,0.307870,100.00,1
12490,0,51910,57956,52045.78,57917.40,-135.78,38.60,-0.476725,-0.477364,0.307649,100.00,1
12532,0,51924,57953,52045.54,57917.48,-121.54,35.52,-0.476721,-0.477366,0.307432,100.00,1
12572,0,51922,57955,52045.29,57917.55,-123.29,37.45,-0.476716,-0.477367,0.307220,100.00,1
12612,0,51927,57960,52045.06,57917.64,-118.06,42.36,-0.476711,-0.477369,0.307014,100.00,1
12652,0,51925,57961,52044.82,57917.73,-119.82,43.27,-0.476707,-0.477370,0.306811,100.00,1
12692,0,51927,57958,52044.59,57917.81,-117.59,40.19,-0.476702,-0.477372,0.306614,100.00,1
12729,0,51922,57963,52044.34,57917.91,-122.34,45.09,-0.476698,-0.477373,0.306421,100.00,1
12772,0,51929,57979,52044.11,57918.03,-115.11,60.97,-0.476693,-0.477375,0.306233,100.00,1
12811,0,51934,57991,52043.89,57918.18,-109.89,72.82,-0.476689,-0.477378,0.306048,100.00,1
12852,0,51941,58010,52043.69,57918.36,-102.69,91.64,-0.476685,-0.477381,0.305868,100.00,1
12891,0,51943,58026,52043.49,57918.58,-100.49,107.42,-0.476681,-0.477385,0.305690,100.00,1
12931,0,51951,58040,52043.31,57918.82,-92.31,121.18,-0.476678,-0.477389,0.305516,100.00,1
12971,0,51953,58044,52043.13,57919.07,-90.13,124.93,-0.476674,-0.477393,0.305344,100.00,1
13011,0,51942,57970,52042.93,57919.18,-100.93,50.82,-0.476671,-0.477395,0.305176,100.00,1
13050,0,51912,57897,52042.67,57919.13,-130.67,-22.13,-0.476665,-0.477394,0.305014,100.00,1
13091,0,51901,57896,52042.39,57919.09,-141.39,-23.09,-0.476660,-0.477394,0.304858,100.00,1
13130,0,51910,57899,52042.12,57919.05,-132.12,-20.05,-0.476655,-0.477393,0.304708,100.00,1
13171,0,51912,57908,52041.87,57919.03,-129.87,-11.03,-0.476650,-0.477392,0.304563,100.00,1
13211,0,51918,57915,52041.62,57919.02,-123.62,-4.02,-0.476645,-0.477392,0.304424,100.00,1
13250,0,51920,57933,52041.38,57919.05,-121.38,13.95,-0.476641,-0.477393,0.304290,100.00,1
13293,0,51930,57944,52041.16,57919.11,-111.16,24.89,-0.476636,-0.477394,0.304160,100.00,1
13332,0,51937,57950,52040.95,57919.17,-103.95,30.83,-0.476632,-0.477395,0.304033,100.00,1
13372,0,51944,57958,52040.76,57919.25,-96.76,38.75,-0.476629,-0.477396,0.303910,100.00,1
13413,0,51953,57976,52040.58,57919.36,-87.58,56.64,-0.476625,-0.477398,0.303790,100.00,1
13453,0,51961,57995,52040.43,57919.51,-79.43,75.49,-0.476622,-0.477401,0.303672,100.00,1
13492,0,51968,58010,52040.28,57919.70,-72.28,90.30,-0.476620,-0.477404,0.303556,100.00,1
13533,0,51975,58034,52040.15,57919.93,-65.15,114.07,-0.476617,-0.477408,0.303441,100.00,1
13571,0,51980,58052,52040.04,57920.19,-60.04,131.81,-0.476615,-0.477413,0.303327,100.00,1
13612,0,51991,58073,52039.94,57920.50,-48.94,152.50,-0.476613,-0.477418,0.303215,100.00,1
13653,0,51999,58054,52039.86,57920.77,-40.86,133.23,-0.476611,-0.477423,0.303102,100.00,1
13692,0,51976,57961,52039.73,57920.85,-63.73,40.15,-0.476609,-0.477424,0.302992,100.00,1
13732,0,51952,57919,52039.55,57920.85,-87.55,-1.85,-0.476606,-0.477424,0.302884,100.00,1
13772,0,51942,57919,52039.36,57920.84,-97.36,-1.84,-0.476602,-0.477424,0.302780,100.00,1
13812,0,51947,57922,52039.18,57920.85,-92.18,1.15,-0.476598,-0.477424,0.302679,100.00,1
13854,0,51948,57916,52039.00,57920.84,-91.00,-4.84,-0.476595,-0.477424,0.302581,100.00,1
13894,0,51947,57921,52038.81,57920.84,-91.81,0.16,-0.476591,-0.477424,0.302487,100.00,1
13933,0,51950,57936,52038.64,57920.87,-88.64,15.13,-0.476588,-0.477424,0.302395,100.00,1
13973,0,51960,57946,52038.48,57920.92,-78.48,25.08,-0.476585,-0.477425,0.302306,100.00,1
14014,0,51960,57958,52038.32,57921.00,-78.32,37.00,-0.476582,-0.477426,0.302220,100.00,1
14054,0,51964,57978,52038.18,57921.11,-74.18,56.89,-0.476579,-0.477428,0.302135,100.00,1
14093,0,51971,57998,52038.04,57921.27,-67.04,76.73,-0.476577,-0.477431,0.302052,100.00,1
14132,0,51979,58018,52037.93,57921.46,-58.93,96.54,-0.476574,-0.477435,0.301971,100.00,1
14174,0,51991,58032,52037.83,57921.69,-46.83,110.31,-0.476573,-0.477438,0.301890,100.00,1
14213,0,52001,58059,52037.76,57921.96,-36.76,137.04,-0.476571,-0.477443,0.301810,100.00,1
14252,0,52008,58081,52037.70,57922.29,-29.70,158.71,-0.476570,-0.477449,0.301729,100.00,1
14293,0,52014,58101,52037.65,57922.64,-23.65,178.36,-0.476569,-0.477455,0.301648,100.00,1
14333,0,52027,58124,52037.63,57923.05,-10.63,200.95,-0.476569,-0.477462,0.301567,100.00,1
14373,0,52027,58076,52037.61,57923.36,-10.61,152.64,-0.476568,-0.477467,0.301486,100.00,1
14412,0,52005,58004,52037.55,57923.52,-32.55,80.48,-0.476567,-0.477470,0.301405,100.00,1
14452,0,51996,57988,52037.47,57923.65,-41.47,64.35,-0.476566,-0.477472,0.301324,100.00,1
14492,0,52000,57996,52037.39,57923.79,-37.39,72.21,-0.476564,-0.477475,0.301245,100.00,1
14532,0,52000,57997,52037.32,57923.94,-37.32,73.06,-0.476563,-0.477477,0.301166,100.00,1
14572,0,52000,57996,52037.25,57924.09,-37.25,71.91,-0.476561,-0.477480,0.301088,100.00,1
14612,0,52000,58019,52037.17,57924.28,-37.17,94.72,-0.476560,-0.477483,0.301010,100.00,1
14654,0,52012,58030,52037.12,57924.49,-25.12,105.51,-0.476559,-0.477487,0.300933,100.00,1
14694,0,52017,58043,52037.08,57924.73,-20.08,118.27,-0.476558,-0.477491,0.300855,100.00,1
14734,0,52023,58056,52037.05,57925.00,-14.05,131.00,-0.476558,-0.477496,0.300778,100.00,1
14774,0,52028,58069,52037.04,57925.29,-9.04,143.71,-0.476557,-0.477500,0.300700,100.00,1
14814,0,52037,58091,52037.04,57925.62,-0.04,165.38,-0.476557,-0.477506,0.300622,100.00,1
14854,0,52042,58112,52037.05,57925.99,4.95,186.01,-0.476557,-0.477513,0.300543,100.00,1
14892,0,52053,58126,52037.09,57926.39,15.91,199.61,-0.476558,-0.477520,0.300463,100.00,1
14935,0,52056,58144,52037.12,57926.83,18.87,217.17,-0.476559,-0.477527,0.300383,100.00,1
14972,0,52062,58162,52037.18,57927.30,24.82,234.70,-0.476560,-0.477535,0.300302,100.00,1
15015,0,52070,58186,52037.24,57927.82,32.76,258.18,-0.476561,-0.477544,0.300219,100.00,1
15055,0,52071,58176,52037.31,57928.32,33.69,247.68,-0.476562,-0.477553,0.300136,100.00,1
15095,0,52053,58105,52037.34,57928.68,15.66,176.32,-0.476563,-0.477559,0.300052,100.00,1
15132,0,52034,58071,52037.34,57928.96,-3.34,142.04,-0.476563,-0.477564,0.299968,100.00,1
15175,0,52031,58079,52037.33,57929.26,-6.33,149.74,-0.476563,-0.477569,0.299884,100.00,1
15215,0,52039,58086,52037.33,57929.58,1.67,156.42,-0.476563,-0.477575,0.299799,100.00,1
15253,0,52042,58094,52037.34,57929.91,4.66,164.09,-0.476563,-0.477580,0.299714,100.00,1
15295,0,52044,58101,52037.36,57930.25,6.64,170.75,-0.476563,-0.477586,0.299628,100.00,1
15333,0,52046,58116,52037.38,57930.62,8.62,185.37,-0.476564,-0.477593,0.299542,100.00,1
15371,0,52055,58130,52037.41,57931.02,17.59,198.98,-0.476565,-0.477600,0.299455,100.00,1
15413,0,52060,58140,52037.46,57931.44,22.54,208.56,-0.476565,-0.477607,0.299367,100.00,1
15452,0,52067,58151,52037.52,57931.88,29.48,219.12,-0.476566,-0.477614,0.299278,100.00,1
15495,0,52076,58167,52037.60,57932.36,38.40,234.64,-0.476568,-0.477623,0.299189,100.00,1
15535,0,52083,58180,52037.69,57932.85,45.31,247.15,-0.476570,-0.477631,0.299100,100.00,1
15575,0,52086,58195,52037.79,57933.38,48.21,261.62,-0.476572,-0.477640,0.299009,100.00,1
15615,0,52094,58212,52037.90,57933.94,56.10,278.06,-0.476574,-0.477650,0.298919,100.00,1
15655,0,52095,58228,52038.02,57934.53,56.98,293.47,-0.476576,-0.477660,0.298828,100.00,1
15695,0,52107,58243,52038.16,57935.14,68.84,307.86,-0.476579,-0.477671,0.298736,100.00,1
15735,0,52104,58213,52038.29,57935.70,65.71,277.30,-0.476581,-0.477680,0.298645,100.00,1
15775,0,52083,58145,52038.38,57936.12,44.62,208.87,-0.476583,-0.477688,0.298554,100.00,1
15815,0,52066,58129,52038.44,57936.51,27.56,192.49,-0.476584,-0.477694,0.298463,100.00,1
15856,0,52067,58134,52038.50,57936.91,28.50,197.09,-0.476585,-0.477701,0.298371,100.00,1
15893,0,52065,58137,52038.55,57937.31,26.45,199.69,-0.476586,-0.477708,0.298278,100.00,1
15936,0,52067,58143,52038.61,57937.72,28.39,205.28,-0.476587,-0.477715,0.298185,100.00,1
15976,0,52071,58155,52038.68,57938.16,32.32,216.84,-0.476589,-0.477723,0.298092,100.00,1
16014,0,52071,58162,52038.74,57938.61,32.26,223.39,-0.476590,-0.477731,0.297997,100.00,1
16056,0,52077,58170,52038.82,57939.07,38.18,230.93,-0.476592,-0.477738,0.297902,100.00,1
16096,0,52076,58174,52038.89,57939.55,37.11,234.45,-0.476593,-0.477747,0.297807,100.00,1
16133,0,52080,58193,52038.98,57940.05,41.02,252.95,-0.476595,-0.477755,0.297710,100.00,1
16175,0,52086,58211,52039.07,57940.60,46.93,270.40,-0.476596,-0.477765,0.297613,100.00,1
16216,0,52090,58225,52039.17,57941.17,50.83,283.83,-0.476598,-0.477775,0.297515,100.00,1
16254,0,52098,58242,52039.29,57941.77,58.71,300.23,-0.476600,-0.477785,0.297417,100.00,1
16292,0,52109,58261,52039.43,57942.41,69.57,318.59,-0.476603,-0.477796,0.297318,100.00,1
16336,0,52112,58282,52039.58,57943.09,72.42,338.91,-0.476606,-0.477808,0.297219,100.00,1
16377,0,52119,58273,52039.74,57943.75,79.26,329.25,-0.476609,-0.477819,0.297120,100.00,1
16415,0,52102,58194,52039.86,57944.25,62.14,249.75,-0.476611,-0.477828,0.297022,100.00,1
16454,0,52082,58158,52039.95,57944.68,42.05,213.32,-0.476613,-0.477835,0.296924,100.00,1
16493,0,52086,58154,52040.04,57945.11,45.96,208.89,-0.476615,-0.477843,0.296825,100.00,1
16534,0,52086,58163,52040.14,57945.54,45.86,217.46,-0.476617,-0.477850,0.296727,100.00,1
16573,0,52089,58165,52040.23,57945.98,48.77,219.02,-0.476619,-0.477858,0.296629,100.00,1
16614,0,52089,58169,52040.33,57946.43,48.67,222.57,-0.476621,-0.477866,0.296531,100.00,1
16655,0,52089,58181,52040.43,57946.90,48.57,234.10,-0.476622,-0.477874,0.296433,100.00,1
16695,0,52097,58187,52040.54,57947.38,56.46,239.62,-0.476625,-0.477882,0.296335,100.00,1
16735,0,52097,58195,52040.66,57947.88,56.34,247.12,-0.476627,-0.477890,0.296237,100.00,1
16775,0,52101,58200,52040.78,57948.38,60.22,251.62,-0.476629,-0.477899,0.296140,100.00,1
16813,0,52105,58211,52040.91,57948.91,64.09,262.09,-0.476632,-0.477908,0.296043,100.00,1
16853,0,52108,58230,52041.04,57949.47,66.96,280.53,-0.476634,-0.477918,0.295946,100.00,1
16892,0,52113,58249,52041.19,57950.07,71.81,298.93,-0.476637,-0.477928,0.295850,100.00,1
16935,0,52119,58262,52041.34,57950.70,77.66,311.30,-0.476640,-0.477939,0.295754,100.00,1
16974,0,52123,58277,52041.51,57951.35,81.49,325.65,-0.476643,-0.477950,0.295659,100.00,1
17016,0,52127,58295,52041.68,57952.04,85.32,342.96,-0.476646,-0.477962,0.295565,100.00,1
17055,0,52137,58308,52041.87,57952.75,95.13,355.25,-0.476650,-0.477975,0.295472,100.00,1
17096,0,52137,58286,52042.06,57953.42,94.94,332.58,-0.476654,-0.477986,0.295381,100.00,1
17135,0,52113,58204,52042.21,57953.93,70.79,250.07,-0.476657,-0.477995,0.295291,100.00,1
17176,0,52089,58164,52042.30,57954.35,46.70,209.65,-0.476658,-0.478002,0.295202,100.00,1
17215,0,52086,58163,52042.39,57954.77,43.61,208.23,-0.476660,-0.478009,0.295112,100.00,1
17255,0,52091,58165,52042.49,57955.19,48.51,209.81,-0.476662,-0.478017,0.295023,100.00,1
17296,0,52093,58165,52042.59,57955.61,50.41,209.39,-0.476664,-0.478024,0.294933,100.00,1
17336,0,52088,58175,52042.68,57956.05,45.32,218.95,-0.476666,-0.478032,0.294844,100.00,1
17375,0,52092,58187,52042.79,57956.52,49.21,230.48,-0.476668,-0.478040,0.294755,100.00,1
17415,0,52102,58195,52042.91,57956.99,59.09,238.01,-0.476670,-0.478048,0.294666,100.00,1
17457,0,52103,58202,52043.03,57957.48,59.97,244.52,-0.476672,-0.478056,0.294577,100.00,1
17495,0,52119,58215,52043.18,57958.00,75.82,257.00,-0.476675,-0.478065,0.294490,100.00,1
17536,0,52121,58221,52043.34,57958.53,77.66,262.47,-0.476678,-0.478074,0.294404,100.00,1
17576,0,52124,58243,52043.50,57959.10,80.50,283.90,-0.476681,-0.478084,0.294320,100.00,1
17613,0,52130,58259,52043.68,57959.70,86.32,299.30,-0.476685,-0.478094,0.294238,100.00,1
17655,0,52137,58273,52043.86,57960.33,93.14,312.67,-0.476688,-0.478105,0.294158,100.00,1
17695,0,52139,58289,52044.05,57960.99,94.95,328.01,-0.476692,-0.478117,0.294080,100.00,1
17736,0,52145,58301,52044.26,57961.67,100.74,339.33,-0.476696,-0.478128,0.294004,100.00,1
17776,0,52151,58317,52044.47,57962.38,106.53,354.62,-0.476700,-0.478141,0.293931,100.00,1
17816,0,52156,58319,52044.70,57963.09,111.30,355.91,-0.476704,-0.478153,0.293861,100.00,1
17856,0,52140,58236,52044.89,57963.64,95.11,272.36,-0.476708,-0.478162,0.293795,100.00,1
17895,0,52108,58166,52045.02,57964.05,62.98,201.95,-0.476711,-0.478169,0.293729,100.00,1
17935,0,52096,58166,52045.12,57964.45,50.88,201.55,-0.476712,-0.478176,0.293664,100.00,1
17977,0,52101,58169,52045.23,57964.86,55.77,204.14,-0.476715,-0.478184,0.293600,100.00,1
18015,0,52098,58162,52045.34,57965.26,52.66,196.74,-0.476717,-0.478190,0.293536,100.00,1
18056,0,52093,58167,52045.43,57965.66,47.57,201.34,-0.476719,-0.478197,0.293472,100.00,1
18097,0,52092,58172,52045.53,57966.08,46.47,205.92,-0.476720,-0.478205,0.293408,100.00,1
18136,0,52096,58178,52045.63,57966.50,50.37,211.50,-0.476722,-0.478212,0.293344,100.00,1
18174,0,52094,58177,52045.73,57966.93,48.27,210.07,-0.476724,-0.478219,0.293280,100.00,1
18216,0,52091,58192,52045.82,57967.38,45.18,224.62,-0.476726,-0.478227,0.293215,100.00,1
18256,0,52097,58196,52045.93,57967.84,51.07,228.16,-0.476728,-0.478235,0.293151,100.00,1
18296,0,52109,58216,52046.05,57968.33,62.95,247.67,-0.476731,-0.478243,0.293087,100.00,1
18337,0,52110,58237,52046.18,57968.87,63.82,268.13,-0.476733,-0.478253,0.293023,100.00,1
18376,0,52116,58252,52046.32,57969.44,69.68,282.56,-0.476736,-0.478262,0.292959,100.00,1
18417,0,52121,58263,52046.48,57970.03,74.52,292.97,-0.476739,-0.478273,0.292896,100.00,1
18454,0,52129,58276,52046.64,57970.64,82.36,305.36,-0.476742,-0.478283,0.292834,100.00,1
18497,0,52134,58298,52046.82,57971.30,87.18,326.70,-0.476745,-0.478295,0.292772,100.00,1
18538,0,52142,58283,52047.01,57971.92,94.99,311.08,-0.476749,-0.478305,0.292713,100.00,1
18577,0,52126,58203,52047.17,57972.39,78.83,230.61,-0.476752,-0.478313,0.292657,100.00,1
18618,0,52101,58151,52047.28,57972.75,53.72,178.25,-0.476754,-0.478320,0.292601,100.00,1
18658,0,52098,58153,52047.38,57973.11,50.62,179.89,-0.476756,-0.478326,0.292545,100.00,1
18698,0,52098,58159,52047.48,57973.48,50.52,185.52,-0.476758,-0.478332,0.292491,100.00,1
18737,0,52100,58167,52047.59,57973.87,52.41,193.13,-0.476760,-0.478339,0.292436,100.00,1
18778,0,52103,58177,52047.70,57974.28,55.30,202.72,-0.476762,-0.478346,0.292382,100.00,1
18818,0,52110,58183,52047.83,57974.70,62.17,208.30,-0.476765,-0.478353,0.292330,100.00,1
18854,0,52112,58175,52047.96,57975.10,64.04,199.90,-0.476767,-0.478360,0.292278,100.00,1
18894,0,52107,58180,52048.08,57975.51,58.92,204.49,-0.476769,-0.478367,0.292227,100.00,1
18938,0,52105,58191,52048.19,57975.94,56.81,215.06,-0.476772,-0.478375,0.292177,100.00,1
18978,0,52106,58205,52048.31,57976.40,57.69,228.60,-0.476774,-0.478383,0.292127,100.00,1
19018,0,52115,58216,52048.44,57976.88,66.56,239.12,-0.476776,-0.478391,0.292078,100.00,1
19057,0,52118,58226,52048.58,57977.38,69.42,248.62,-0.476779,-0.478400,0.292030,100.00,1
19099,0,52126,58245,52048.74,57977.92,77.26,267.08,-0.476782,-0.478409,0.291983,100.00,1
19138,0,52123,58254,52048.89,57978.47,74.11,275.53,-0.476785,-0.478418,0.291936,100.00,1
19179,0,52127,58274,52049.04,57979.07,77.96,294.93,-0.476788,-0.478429,0.291891,100.00,1
19218,0,52130,58242,52049.21,57979.59,80.79,262.41,-0.476791,-0.478438,0.291847,100.00,1
19259,0,52103,58157,52049.32,57979.95,53.68,177.05,-0.476793,-0.478444,0.291804,100.00,1
19299,0,52079,58116,52049.38,57980.22,29.62,135.78,-0.476794,-0.478449,0.291760,100.00,1
19339,0,52077,58113,52049.43,57980.49,27.57,132.51,-0.476795,-0.478453,0.291717,100.00,1
19379,0,52083,58119,52049.50,57980.77,33.50,138.23,-0.476797,-0.478458,0.291674,100.00,1
19419,0,52085,58123,52049.58,57981.05,35.42,141.95,-0.476798,-0.478463,0.291631,100.00,1
19459,0,52086,58133,52049.65,57981.36,36.35,151.64,-0.476800,-0.478468,0.291588,100.00,1
19499,0,52096,58149,52049.75,57981.69,46.25,167.31,-0.476801,-0.478474,0.291545,100.00,1
19539,0,52102,58150,52049.85,57982.03,52.15,167.97,-0.476803,-0.478480,0.291503,100.00,1
19579,0,52103,58157,52049.96,57982.38,53.04,174.62,-0.476806,-0.478486,0.291463,100.00,1
19619,0,52109,58166,52050.08,57982.75,58.92,183.25,-0.476808,-0.478492,0.291423,100.00,1
19659,0,52115,58182,52050.21,57983.15,64.79,198.85,-0.476810,-0.478499,0.291385,100.00,1
19699,0,52121,58200,52050.36,57983.58,70.64,216.42,-0.476813,-0.478506,0.291348,100.00,1
19735,0,52127,58219,52050.52,57984.05,76.48,234.95,-0.476816,-0.478515,0.291313,100.00,1
19779,0,52132,58234,52050.68,57984.55,81.32,249.45,-0.476819,-0.478523,0.291281,100.00,1
19815,0,52142,58245,52050.86,57985.08,91.14,259.92,-0.476823,-0.478532,0.291251,100.00,1
19855,0,52147,58259,52051.06,57985.63,95.94,273.37,-0.476827,-0.478542,0.291226,100.00,1
19895,0,52149,58269,52051.25,57986.20,97.75,282.80,-0.476830,-0.478552,0.291203,100.00,1
19936,0,52141,58198,52051.43,57986.62,89.57,211.38,-0.476834,-0.478559,0.291185,100.00,1
19977,0,52105,58101,52051.54,57986.85,53.46,114.15,-0.476836,-0.478563,0.291168,100.00,1
20016,0,52087,58081,52051.61,57987.04,35.39,93.96,-0.476837,-0.478566,0.291151,100.00,1
20060,0,52090,58075,52051.69,57987.22,38.31,87.78,-0.476839,-0.478569,0.291136,100.00,1
20100,0,52090,58071,52051.77,57987.39,38.23,83.61,-0.476840,-0.478572,0.291121,100.00,1
20141,0,52088,58068,52051.84,57987.55,36.16,80.45,-0.476842,-0.478575,0.291107,100.00,1
20178,0,52084,58082,52051.91,57987.74,32.09,94.26,-0.476843,-0.478578,0.291094,100.00,1
20218,0,52093,58094,52051.99,57987.96,41.01,106.04,-0.476845,-0.478582,0.291081,100.00,1
20261,0,52097,58094,52052.08,57988.17,44.92,105.83,-0.476846,-0.478586,0.291069,100.00,1
20296,0,52099,58101,52052.18,57988.40,46.82,112.60,-0.476848,-0.478589,0.291059,100.00,1
20340,0,52106,58111,52052.29,57988.64,53.71,122.36,-0.476850,-0.478594,0.291050,100.00,1
20376,0,52112,58126,52052.41,57988.92,59.59,137.08,-0.476853,-0.478598,0.291043,100.00,1
20420,0,52120,58156,52052.54,57989.26,67.46,166.74,-0.476855,-0.478604,0.291038,100.00,1
20460,0,52126,58171,52052.69,57989.62,73.31,181.38,-0.476858,-0.478611,0.291035,100.00,1
20497,0,52134,58184,52052.86,57990.01,81.14,193.99,-0.476861,-0.478617,0.291037,100.00,1
20540,0,52145,58206,52053.04,57990.45,91.96,215.55,-0.476865,-0.478625,0.291042,100.00,1
20580,0,52155,58218,52053.25,57990.90,101.75,227.10,-0.476869,-0.478633,0.291053,100.00,1
20620,0,52162,58220,52053.47,57991.36,108.53,228.64,-0.476873,-0.478641,0.291071,100.00,1
20660,0,52154,58130,52053.67,57991.64,100.33,138.36,-0.476877,-0.478645,0.291096,100.00,1
20700,0,52114,58042,52053.79,57991.74,60.21,50.26,-0.476879,-0.478647,0.291124,100.00,1
20739,0,52102,58026,52053.89,57991.81,48.11,34.19,-0.476881,-0.478648,0.291153,100.00,1
20780,0,52102,58030,52053.99,57991.89,48.01,38.11,-0.476883,-0.478650,0.291185,100.00,1
20820,0,52100,58026,52054.08,57991.96,45.92,34.04,-0.476885,-0.478651,0.291218,100.00,1
20860,0,52104,58020,52054.18,57992.02,49.82,27.98,-0.476887,-0.478652,0.291252,100.00,1
20899,0,52108,58028,52054.29,57992.09,53.71,35.91,-0.476889,-0.478653,0.291290,100.00,1
20940,0,52107,58024,52054.40,57992.16,52.60,31.84,-0.476891,-0.478654,0.291329,100.00,1
20980,0,52104,58016,52054.50,57992.21,49.50,23.79,-0.476893,-0.478655,0.291370,100.00,1
21018,0,52101,58020,52054.59,57992.27,46.41,27.73,-0.476895,-0.478656,0.291413,100.00,1
21060,0,52105,58031,52054.70,57992.35,50.30,38.65,-0.476897,-0.478658,0.291459,100.00,1
21100,0,52110,58044,52054.81,57992.45,55.19,51.55,-0.476899,-0.478659,0.291506,100.00,1
21141,0,52112,58056,52054.93,57992.58,57.07,63.42,-0.476901,-0.478662,0.291556,100.00,1
21180,0,52119,58070,52055.05,57992.74,63.95,77.26,-0.476903,-0.478664,0.291609,100.00,1
21223,0,52124,58085,52055.20,57992.93,68.80,92.07,-0.476906,-0.478668,0.291666,100.00,1
21261,0,52130,58099,52055.35,57993.14,74.65,105.86,-0.476909,-0.478671,0.291727,100.00,1
21301,0,52125,58064,52055.49,57993.29,69.51,70.71,-0.476912,-0.478674,0.291792,100.00,1
21342,0,52104,57962,52055.59,57993.22,48.41,-31.22,-0.476914,-0.478673,0.291858,100.00,1
21381,0,52074,57917,52055.62,57993.07,18.37,-76.07,-0.476914,-0.478670,0.291925,100.00,1
21417,0,52071,57921,52055.66,57992.93,15.34,-71.93,-0.476915,-0.478668,0.291990,100.00,1
21461,0,52076,57929,52055.70,57992.80,20.30,-63.80,-0.476916,-0.478665,0.292056,100.00,1
21501,0,52080,57934,52055.75,57992.68,24.25,-58.68,-0.476917,-0.478663,0.292122,100.00,1
21541,0,52081,57949,52055.80,57992.60,25.20,-43.60,-0.476918,-0.478662,0.292188,100.00,1
21582,0,52086,57952,52055.86,57992.52,30.14,-40.52,-0.476919,-0.478661,0.292255,100.00,1
21621,0,52089,57954,52055.93,57992.45,33.07,-38.45,-0.476920,-0.478659,0.292323,100.00,1
21661,0,52095,57958,52056.01,57992.38,38.99,-34.38,-0.476922,-0.478658,0.292391,100.00,1
21701,0,52104,57973,52056.11,57992.34,47.89,-19.34,-0.476924,-0.478657,0.292462,100.00,1
21740,0,52111,57989,52056.21,57992.34,54.79,-3.34,-0.476926,-0.478657,0.292536,100.00,1
21781,0,52115,58008,52056.33,57992.37,58.67,15.63,-0.476928,-0.478658,0.292613,100.00,1
21821,0,52119,58024,52056.46,57992.43,62.54,31.57,-0.476930,-0.478659,0.292693,100.00,1
21860,0,52127,58043,52056.60,57992.54,70.40,50.46,-0.476933,-0.478661,0.292778,100.00,1
21901,0,52132,58061,52056.75,57992.67,75.25,68.33,-0.476936,-0.478663,0.292869,100.00,1
21938,0,52143,58060,52056.93,57992.81,86.07,67.19,-0.476939,-0.478666,0.292966,100.00,1
21980,0,52125,57965,52057.06,57992.75,67.94,-27.75,-0.476942,-0.478665,0.293068,100.00,1
22020,0,52088,57883,52057.12,57992.54,30.87,-109.54,-0.476943,-0.478661,0.293169,100.00,1
22061,0,52070,57860,52057.15,57992.27,12.85,-132.27,-0.476944,-0.478656,0.293269,100.00,1
22101,0,52068,57854,52057.18,57992.00,10.82,-138.00,-0.476944,-0.478652,0.293366,100.00,1
22138,0,52067,57839,52057.20,57991.70,9.80,-152.70,-0.476945,-0.478646,0.293462,100.00,1
22182,0,52061,57833,52057.20,57991.38,3.80,-158.38,-0.476945,-0.478641,0.293555,100.00,1
22222,0,52061,57839,52057.21,57991.07,3.79,-152.07,-0.476945,-0.478636,0.293645,100.00,1
22262,0,52063,57853,52057.22,57990.80,5.78,-137.80,-0.476945,-0.478631,0.293734,100.00,1
22302,0,52071,57856,52057.25,57990.53,13.75,-134.53,-0.476946,-0.478626,0.293820,100.00,1
22340,0,52067,57864,52057.27,57990.28,9.73,-126.28,-0.476946,-0.478622,0.293905,100.00,1
22382,0,52071,57882,52057.30,57990.07,13.70,-108.07,-0.476947,-0.478618,0.293989,100.00,1
22422,0,52077,57893,52057.34,57989.87,19.66,-96.87,-0.476947,-0.478615,0.294072,100.00,1
22462,0,52085,57910,52057.39,57989.71,27.61,-79.71,-0.476948,-0.478612,0.294156,100.00,1
22502,0,52091,57937,52057.46,57989.61,33.54,-52.61,-0.476950,-0.478610,0.294240,100.00,1
22542,0,52100,57957,52057.55,57989.55,42.45,-32.55,-0.476951,-0.478609,0.294325,100.00,1
22582,0,52105,57978,52057.65,57989.52,47.35,-11.52,-0.476953,-0.478609,0.294413,100.00,1
22621,0,52115,57991,52057.77,57989.53,57.23,1.47,-0.476955,-0.478609,0.294505,100.00,1
22662,0,52115,57930,52057.88,57989.41,57.12,-59.41,-0.476958,-0.478607,0.294600,100.00,1
22702,0,52082,57832,52057.93,57989.10,24.07,-157.10,-0.476959,-0.478602,0.294693,100.00,1
22742,0,52067,57797,52057.95,57988.71,9.05,-191.71,-0.476959,-0.478595,0.294782,100.00,1
22781,0,52061,57785,52057.96,57988.31,3.04,-203.31,-0.476959,-0.478588,0.294866,100.00,1
22822,0,52055,57775,52057.96,57987.88,-2.96,-212.88,-0.476959,-0.478581,0.294946,100.00,1
22861,0,52052,57772,52057.95,57987.45,-5.95,-215.45,-0.476959,-0.478573,0.295020,100.00,1
22900,0,52053,57772,52057.94,57987.02,-4.94,-215.02,-0.476959,-0.478566,0.295090,100.00,1
22940,0,52051,57782,52057.93,57986.61,-6.93,-204.61,-0.476959,-0.478559,0.295155,100.00,1
22980,0,52059,57783,52057.93,57986.21,1.07,-203.21,-0.476959,-0.478552,0.295216,100.00,1
23020,0,52057,57789,52057.93,57985.81,-0.93,-196.81,-0.476959,-0.478545,0.295273,100.00,1
23059,0,52061,57795,52057.94,57985.43,3.06,-190.43,-0.476959,-0.478538,0.295327,100.00,1
23101,0,52062,57810,52057.95,57985.09,4.05,-175.09,-0.476959,-0.478532,0.295377,100.00,1
23138,0,52066,57830,52057.96,57984.78,8.04,-154.78,-0.476959,-0.478527,0.295424,100.00,1
23181,0,52076,57846,52058.00,57984.50,18.00,-138.50,-0.476960,-0.478522,0.295470,100.00,1
23220,0,52078,57862,52058.04,57984.26,19.96,-122.26,-0.476961,-0.478518,0.295515,100.00,1
23262,0,52085,57886,52058.10,57984.06,26.90,-98.06,-0.476962,-0.478515,0.295560,100.00,1
23303,0,52090,57900,52058.16,57983.89,31.84,-83.89,-0.476963,-0.478512,0.295605,100.00,1
23339,0,52092,57898,52058.23,57983.72,33.77,-85.72,-0.476965,-0.478509,0.295651,100.00,1
23381,0,52077,57807,52058.27,57983.37,18.73,-176.37,-0.476965,-0.478503,0.295694,100.00,1
23420,0,52048,57737,52058.25,57982.88,-10.25,-245.88,-0.476965,-0.478494,0.295730,100.00,1
23461,0,52033,57721,52058.20,57982.36,-25.20,-261.36,-0.476964,-0.478485,0.295761,100.00,1
23501,0,52034,57716,52058.16,57981.82,-24.16,-265.82,-0.476963,-0.478476,0.295785,100.00,1
23539,0,52040,57709,52058.12,57981.28,-18.12,-272.28,-0.476962,-0.478467,0.295802,100.00,1
23582,0,52030,57712,52058.07,57980.75,-28.07,-268.75,-0.476961,-0.478458,0.295813,100.00,1
23623,0,52032,57728,52058.02,57980.24,-26.02,-252.24,-0.476960,-0.478449,0.295819,100.00,1
23661,0,52038,57731,52057.98,57979.75,-19.98,-248.75,-0.476960,-0.478440,0.295819,100.00,1
23703,0,52040,57733,52057.94,57979.25,-17.94,-246.25,-0.476959,-0.478432,0.295814,100.00,1
23739,0,52044,57736,52057.91,57978.77,-13.91,-242.77,-0.476958,-0.478423,0.295803,100.00,1
23783,0,52052,57754,52057.90,57978.32,-5.90,-224.32,-0.476958,-0.478416,0.295788,100.00,1
23821,0,52058,57766,52057.90,57977.90,0.10,-211.90,-0.476958,-0.478408,0.295769,100.00,1
23861,0,52058,57787,52057.90,57977.52,0.10,-190.52,-0.476958,-0.478402,0.295747,100.00,1
23901,0,52063,57802,52057.91,57977.17,5.09,-175.17,-0.476958,-0.478396,0.295721,100.00,1
23941,0,52067,57813,52057.93,57976.84,9.07,-163.84,-0.476959,-0.478390,0.295694,100.00,1
23981,0,52073,57827,52057.96,57976.55,15.04,-149.55,-0.476959,-0.478385,0.295665,100.00,1
24021,0,52079,57823,52058.01,57976.24,20.99,-153.24,-0.476960,-0.478380,0.295634,100.00,1
24061,0,52065,57742,52058.02,57975.77,6.98,-233.77,-0.476960,-0.478372,0.295598,100.00,1
24102,0,52030,57665,52057.97,57975.15,-27.97,-310.15,-0.476959,-0.478361,0.295555,100.00,1
24141,0,52013,57648,52057.88,57974.50,-44.88,-326.50,-0.476958,-0.478350,0.295505,100.00,1
24182,0,52017,57655,52057.80,57973.86,-40.80,-318.86,-0.476956,-0.478339,0.295449,100.00,1
24222,0,52013,57644,52057.71,57973.20,-44.71,-329.20,-0.476954,-0.478327,0.295386,100.00,1
24262,0,52011,57653,52057.61,57972.56,-46.61,-319.56,-0.476953,-0.478316,0.295318,100.00,1
24302,0,52013,57655,52057.53,57971.93,-44.53,-316.93,-0.476951,-0.478305,0.295245,100.00,1
24342,0,52013,57658,52057.44,57971.30,-44.44,-313.30,-0.476949,-0.478295,0.295166,100.00,1
24382,0,52012,57663,52057.35,57970.69,-45.35,-307.69,-0.476948,-0.478284,0.295083,100.00,1
24422,0,52012,57668,52057.26,57970.09,-45.26,-302.09,-0.476946,-0.478274,0.294996,100.00,1
24462,0,52016,57687,52057.18,57969.52,-41.18,-282.52,-0.476944,-0.478264,0.294905,100.00,1
24502,0,52025,57702,52057.12,57968.98,-32.12,-266.98,-0.476943,-0.478255,0.294810,100.00,1
24542,0,52033,57714,52057.07,57968.48,-24.07,-254.48,-0.476942,-0.478246,0.294711,100.00,1
24582,0,52035,57738,52057.03,57968.02,-22.03,-230.02,-0.476941,-0.478238,0.294609,100.00,1
24623,0,52041,57760,52057.00,57967.60,-16.00,-207.60,-0.476941,-0.478231,0.294505,100.00,1
24662,0,52048,57769,52056.98,57967.21,-8.98,-198.21,-0.476940,-0.478224,0.294398,100.00,1
24700,0,52049,57699,52056.96,57966.67,-7.96,-267.67,-0.476940,-0.478215,0.294285,100.00,1
24740,0,52018,57624,52056.89,57965.99,-38.89,-341.99,-0.476939,-0.478203,0.294167,100.00,1
24783,0,52006,57596,52056.79,57965.25,-50.79,-369.25,-0.476937,-0.478190,0.294043,100.00,1
24822,0,52004,57597,52056.68,57964.52,-52.68,-367.52,-0.476935,-0.478178,0.293913,100.00,1
24862,0,52003,57588,52056.57,57963.77,-53.57,-375.77,-0.476933,-0.478165,0.293778,100.00,1
24902,0,52002,57590,52056.46,57963.02,-54.46,-373.02,-0.476931,-0.478152,0.293638,100.00,1
24942,0,52007,57601,52056.37,57962.30,-49.37,-361.30,-0.476929,-0.478139,0.293493,100.00,1
24982,0,52003,57604,52056.26,57961.58,-53.26,-357.58,-0.476927,-0.478127,0.293344,100.00,1
25023,0,52007,57605,52056.16,57960.87,-49.16,-355.87,-0.476925,-0.478115,0.293190,100.00,1
25062,0,52011,57613,52056.07,57960.18,-45.07,-347.18,-0.476923,-0.478103,0.293032,100.00,1
25103,0,52016,57625,52056.00,57959.51,-40.00,-334.51,-0.476921,-0.478091,0.292870,100.00,1
25142,0,52017,57637,52055.92,57958.86,-38.92,-321.86,-0.476920,-0.478080,0.292704,100.00,1
25183,0,52024,57657,52055.86,57958.26,-31.86,-301.26,-0.476919,-0.478070,0.292534,100.00,1
25222,0,52035,57674,52055.82,57957.70,-20.82,-283.70,-0.476918,-0.478060,0.292360,100.00,1
25264,0,52038,57689,52055.78,57957.16,-17.78,-268.16,-0.476917,-0.478051,0.292184,100.00,1
25305,0,52040,57704,52055.75,57956.66,-15.75,-252.66,-0.476917,-0.478042,0.292004,100.00,1
25345,0,52044,57718,52055.73,57956.18,-11.73,-238.18,-0.476916,-0.478034,0.291822,100.00,1
25385,0,52047,57677,52055.71,57955.62,-8.71,-278.62,-0.476916,-0.478024,0.291636,100.00,1
25426,0,52017,57579,52055.64,57954.87,-38.64,-375.87,-0.476915,-0.478011,0.291444,100.00,1
25465,0,51993,57534,52055.51,57954.03,-62.51,-420.03,-0.476912,-0.477997,0.291249,100.00,1
25501,0,51983,57528,52055.37,57953.18,-72.37,-425.18,-0.476909,-0.477982,0.291051,100.00,1
25545,0,51988,57525,52055.23,57952.32,-67.23,-427.32,-0.476907,-0.477967,0.290849,100.00,1
25584,0,51982,57510,52055.09,57951.44,-73.09,-441.44,-0.476904,-0.477952,0.290646,100.00,1
25625,0,51989,57520,52054.96,57950.58,-65.96,-430.58,-0.476902,-0.477937,0.290439,100.00,1
25664,0,51990,57531,52054.83,57949.74,-64.83,-418.74,-0.476899,-0.477923,0.290229,100.00,1
25703,0,51993,57534,52054.71,57948.91,-61.71,-414.91,-0.476897,-0.477908,0.290016,100.00,1
25744,0,51995,57547,52054.59,57948.11,-59.59,-401.11,-0.476895,-0.477895,0.289801,100.00,1
25783,0,52003,57558,52054.49,57947.34,-51.49,-389.34,-0.476893,-0.477881,0.289582,100.00,1
25823,0,52009,57571,52054.40,57946.59,-45.40,-375.59,-0.476891,-0.477868,0.289360,100.00,1
25863,0,52017,57590,52054.33,57945.87,-37.33,-355.87,-0.476889,-0.477856,0.289135,100.00,1
25903,0,52030,57607,52054.28,57945.20,-24.28,-338.20,-0.476889,-0.477844,0.288906,100.00,1
25944,0,52036,57622,52054.25,57944.55,-18.25,-322.55,-0.476888,-0.477833,0.288673,100.00,1
25984,0,52043,57644,52054.23,57943.95,-11.23,-299.95,-0.476887,-0.477823,0.288438,100.00,1
26023,0,52051,57660,52054.22,57943.39,-3.22,-283.39,-0.476887,-0.477813,0.288199,100.00,1
26063,0,52057,57677,52054.23,57942.86,2.77,-265.86,-0.476888,-0.477804,0.287959,100.00,1
26103,0,52057,57639,52054.24,57942.25,2.76,-303.25,-0.476888,-0.477793,0.287715,100.00,1
26144,0,52033,57530,52054.20,57941.43,-21.20,-411.43,-0.476887,-0.477779,0.287465,100.00,1
26184,0,52003,57488,52054.09,57940.52,-51.09,-452.52,-0.476885,-0.477763,0.287211,100.00,1
26224,0,51998,57481,52053.98,57939.60,-55.98,-458.60,-0.476883,-0.477748,0.286953,100.00,1
26263,0,51995,57474,52053.87,57938.67,-58.87,-464.67,-0.476881,-0.477732,0.286953,100.00,0
26303,0,51988,57465,52053.74,57937.73,-65.74,-472.73,-0.476878,-0.477715,0.286953,100.00,0
26344,0,51991,57468,52053.61,57936.79,-62.61,-468.79,-0.476876,-0.477699,0.286953,100.00,0
26384,0,51996,57475,52053.50,57935.87,-57.50,-460.87,-0.476874,-0.477683,0.286953,100.00,0
26425,0,51994,57475,52053.38,57934.95,-59.38,-459.95,-0.476871,-0.477667,0.286953,100.00,0
26463,0,51998,57486,52053.27,57934.05,-55.27,-448.05,-0.476869,-0.477652,0.286953,100.00,0
26504,0,52006,57500,52053.18,57933.18,-47.18,-433.18,-0.476867,-0.477637,0.286953,100.00,0
26544,0,52009,57519,52053.09,57932.36,-44.09,-413.36,-0.476866,-0.477623,0.286953,100.00,0
26584,0,52013,57535,52053.02,57931.56,-40.02,-396.56,-0.476864,-0.477609,0.286953,100.00,0
26625,0,52028,57554,52052.97,57930.81,-24.97,-376.81,-0.476863,-0.477596,0.286953,100.00,0
26666,0,52039,57576,52052.94,57930.10,-13.94,-354.10,-0.476863,-0.477584,0.286953,100.00,0
26706,0,52047,57600,52052.93,57929.44,-5.93,-329.44,-0.476863,-0.477572,0.286953,100.00,0
26746,0,52052,57617,52052.93,57928.82,-0.93,-311.82,-0.476863,-0.477561,0.286953,100.00,0
26786,0,52059,57643,52052.94,57928.25,6.06,-285.25,-0.476863,-0.477552,0.286953,100.00,0
26826,0,52069,57601,52052.98,57927.59,16.02,-326.59,-0.476864,-0.477540,0.286953,100.00,0
26866,0,52044,57512,52052.96,57926.77,-8.96,-414.77,-0.476863,-0.477526,0.286953,100.00,0
26907,0,52024,57482,52052.91,57925.88,-28.91,-443.88,-0.476862,-0.477511,0.286953,100.00,0
26946,0,52027,57481,52052.86,57924.99,-25.86,-443.99,-0.476861,-0.477495,0.286953,100.00,0
26986,0,52028,57477,52052.81,57924.10,-24.81,-447.10,-0.476860,-0.477480,0.286953,100.00,0
27026,0,52031,57469,52052.77,57923.19,-21.77,-454.19,-0.476859,-0.477464,0.286953,100.00,0
27062,0,52029,57479,52052.72,57922.30,-23.72,-443.30,-0.476859,-0.477449,0.286953,100.00,0
27106,0,52034,57493,52052.68,57921.45,-18.68,-428.45,-0.476858,-0.477434,0.286953,100.00,0
27146,0,52037,57501,52052.65,57920.61,-15.65,-419.61,-0.476857,-0.477420,0.286953,100.00,0
27186,0,52044,57509,52052.64,57919.79,-8.64,-410.79,-0.476857,-0.477406,0.286953,100.00,0
27225,0,52048,57515,52052.63,57918.98,-4.63,-403.98,-0.476857,-0.477392,0.286953,100.00,0
27266,0,52053,57530,52052.63,57918.20,0.37,-388.20,-0.476857,-0.477378,0.286953,100.00,0
27306,0,52059,57554,52052.65,57917.47,6.35,-363.47,-0.476857,-0.477366,0.286953,100.00,0
27342,0,52065,57575,52052.68,57916.79,12.32,-341.79,-0.476858,-0.477354,0.286953,100.00,0
27386,0,52073,57589,52052.72,57916.14,20.28,-327.14,-0.476859,-0.477343,0.286953,100.00,0
27427,0,52076,57611,52052.77,57915.53,23.23,-304.53,-0.476859,-0.477332,0.286953,100.00,0
27467,0,52087,57629,52052.84,57914.96,34.16,-285.96,-0.476861,-0.477322,0.286953,100.00,0
27507,0,52094,57636,52052.92,57914.40,41.08,-278.40,-0.476862,-0.477313,0.286953,100.00,0
27547,0,52088,57565,52052.99,57913.70,35.01,-348.70,-0.476864,-0.477301,0.286953,100.00,0
27587,0,52053,57501,52052.99,57912.88,0.01,-411.88,-0.476864,-0.477286,0.286953,100.00,0
27627,0,52042,57497,52052.97,57912.05,-10.97,-415.05,-0.476863,-0.477272,0.286953,100.00,0
27667,0,52046,57502,52052.96,57911.23,-6.96,-409.23,-0.476863,-0.477258,0.286953,100.00,0
27707,0,52051,57506,52052.95,57910.42,-1.95,-404.42,-0.476863,-0.477244,0.286953,100.00,0
27746,0,52050,57510,52052.95,57909.62,-2.95,-399.62,-0.476863,-0.477230,0.286953,100.00,0
27787,0,52059,57525,52052.96,57908.85,6.04,-383.85,-0.476863,-0.477217,0.286953,100.00,0
27827,0,52063,57538,52052.98,57908.11,10.02,-370.11,-0.476864,-0.477204,0.286953,100.00,0
27867,0,52065,57549,52053.00,57907.39,12.00,-358.39,-0.476864,-0.477192,0.286953,100.00,0
27907,0,52072,57561,52053.04,57906.70,18.96,-345.70,-0.476865,-0.477180,0.286953,100.00,0
27946,0,52081,57583,52053.10,57906.06,27.90,-323.06,-0.476866,-0.477169,0.286953,100.00,0
27987,0,52089,57605,52053.18,57905.46,35.82,-300.46,-0.476867,-0.477158,0.286953,100.00,0
28027,0,52105,57623,52053.28,57904.89,51.72,-281.89,-0.476869,-0.477148,0.286953,100.00,0
28064,0,52116,57645,52053.41,57904.37,62.59,-259.37,-0.476872,-0.477139,0.286953,100.00,0
28107,0,52120,57658,52053.54,57903.88,66.46,-245.88,-0.476874,-0.477131,0.286953,100.00,0
28144,0,52129,57684,52053.69,57903.45,75.31,-219.45,-0.476877,-0.477123,0.286953,100.00,0
28187,0,52137,57698,52053.86,57903.04,83.14,-205.04,-0.476880,-0.477116,0.286953,100.00,0
28228,0,52133,57645,52054.02,57902.52,78.98,-257.52,-0.476884,-0.477107,0.286953,100.00,0
28267,0,52104,57575,52054.12,57901.87,49.88,-326.87,-0.476885,-0.477096,0.286953,100.00,0
28306,0,52097,57566,52054.21,57901.20,42.79,-335.20,-0.476887,-0.477085,0.286953,100.00,0
28347,0,52103,57567,52054.30,57900.53,48.70,-333.53,-0.476889,-0.477073,0.286953,100.00,0
28387,0,52102,57571,52054.40,57899.87,47.60,-328.87,-0.476891,-0.477062,0.286953,100.00,0
28427,0,52102,57577,52054.50,57899.23,47.50,-322.23,-0.476893,-0.477051,0.286953,100.00,0
28467,0,52101,57589,52054.59,57898.61,46.41,-309.61,-0.476895,-0.477040,0.286953,100.00,0
28507,0,52104,57594,52054.70,57898.00,49.30,-304.00,-0.476897,-0.477029,0.286953,100.00,0
28546,0,52104,57595,52054.80,57897.39,49.20,-302.39,-0.476898,-0.477019,0.286953,100.00,0
28588,0,52105,57605,52054.90,57896.81,50.10,-291.81,-0.476900,-0.477009,0.286953,100.00,0
28627,0,52115,57619,52055.02,57896.26,59.98,-277.26,-0.476903,-0.476999,0.286953,100.00,0
28668,0,52121,57639,52055.15,57895.75,65.85,-256.75,-0.476905,-0.476990,0.286953,100.00,0
28709,0,52124,57657,52055.29,57895.27,68.71,-238.27,-0.476908,-0.476982,0.286953,100.00,0
28748,0,52130,57680,52055.45,57894.84,74.55,-214.84,-0.476911,-0.476975,0.286953,100.00,0
28788,0,52141,57698,52055.62,57894.45,85.38,-196.45,-0.476914,-0.476968,0.286953,100.00,0
28828,0,52148,57717,52055.80,57894.10,92.20,-177.10,-0.476918,-0.476962,0.286953,100.00,0
28868,0,52152,57680,52056.00,57893.67,96.00,-213.67,-0.476922,-0.476955,0.286953,100.00,0
28908,0,52128,57610,52056.14,57893.11,71.86,-283.11,-0.476924,-0.476945,0.286953,100.00,0
28948,0,52112,57593,52056.26,57892.51,55.74,-299.51,-0.476927,-0.476934,0.286953,100.00,0
28986,0,52111,57606,52056.37,57891.94,54.63,-285.94,-0.476929,-0.476925,0.286953,100.00,0
29028,0,52116,57615,52056.49,57891.39,59.51,-276.39,-0.476931,-0.476915,0.286953,100.00,0
29065,0,52124,57623,52056.62,57890.85,67.37,-267.85,-0.476934,-0.476906,0.286953,100.00,0
29108,0,52130,57640,52056.77,57890.35,73.23,-250.35,-0.476936,-0.476897,0.286953,100.00,0
29148,0,52139,57643,52056.94,57889.86,82.06,-246.86,-0.476940,-0.476889,0.286953,100.00,0
29187,0,52138,57649,52057.10,57889.38,80.90,-240.38,-0.476943,-0.476880,0.286953,100.00,0
29228,0,52149,57661,52057.29,57888.92,91.71,-227.92,-0.476946,-0.476873,0.286953,100.00,0
29268,0,52150,57679,52057.47,57888.50,92.53,-209.50,-0.476950,-0.476865,0.286953,100.00,0
29308,0,52159,57698,52057.68,57888.12,101.32,-190.12,-0.476954,-0.476859,0.286953,100.00,0
29348,0,52163,57716,52057.89,57887.78,105.11,-171.78,-0.476958,-0.476853,0.286953,100.00,0
29386,0,52173,57731,52058.12,57887.47,114.88,-156.47,-0.476962,-0.476847,0.286953,100.00,0
29426,0,52179,57753,52058.36,57887.20,120.64,-134.20,-0.476967,-0.476843,0.286702,100.00,1
29466,0,52187,57760,52058.62,57886.95,128.38,-126.95,-0.476972,-0.476838,0.286467,100.00,1
29507,0,52180,57698,52058.86,57886.57,121.14,-188.57,-0.476976,-0.476832,0.286246,100.00,1
29544,0,52151,57632,52059.05,57886.07,91.95,-254.07,-0.476980,-0.476823,0.286031,100.00,1
29586,0,52141,57628,52059.21,57885.55,81.79,-257.55,-0.476983,-0.476814,0.285821,100.00,1
29626,0,52142,57633,52059.38,57885.05,82.62,-252.05,-0.476986,-0.476806,0.285616,100.00,1
29668,0,52142,57630,52059.55,57884.54,82.45,-254.54,-0.476990,-0.476797,0.285416,100.00,1
29708,0,52143,57644,52059.71,57884.06,83.29,-240.06,-0.476993,-0.476789,0.285221,100.00,1
29747,0,52147,57654,52059.89,57883.60,87.11,-229.60,-0.476996,-0.476781,0.285031,100.00,1
29787,0,52152,57660,52060.08,57883.16,91.92,-223.16,-0.477000,-0.476773,0.284848,100.00,1
29827,0,52148,57665,52060.25,57882.72,87.75,-217.72,-0.477003,-0.476765,0.284671,100.00,1
29867,0,52154,57679,52060.44,57882.32,93.56,-203.32,-0.477007,-0.476758,0.284501,100.00,1
29907,0,52157,57702,52060.64,57881.96,96.36,-179.96,-0.477011,-0.476752,0.284339,100.00,1
29947,0,52164,57720,52060.84,57881.63,103.16,-161.63,-0.477015,-0.476747,0.284187,100.00,1
29987,0,52181,57738,52061.09,57881.35,119.91,-143.35,-0.477019,-0.476742,0.284047,100.00,1
30027,0,52184,57763,52061.33,57881.11,122.67,-118.11,-0.477024,-0.476738,0.283920,100.00,1
30065,0,52194,57783,52061.60,57880.92,132.40,-97.92,-0.477029,-0.476734,0.283810,100.00,1
30107,0,52200,57807,52061.87,57880.77,138.12,-73.77,-0.477034,-0.476732,0.283716,100.00,1
30147,0,52207,57781,52062.17,57880.57,144.83,-99.57,-0.477040,-0.476728,0.283641,100.00,1
30187,0,52187,57700,52062.42,57880.21,124.58,-180.21,-0.477045,-0.476722,0.283578,100.00,1
30227,0,52170,57671,52062.63,57879.80,107.37,-208.80,-0.477049,-0.476715,0.283522,100.00,1
30267,0,52171,57671,52062.85,57879.38,108.15,-208.38,-0.477053,-0.476708,0.283475,100.00,1
30308,0,52173,57670,52063.07,57878.96,109.93,-208.96,-0.477058,-0.476700,0.283436,100.00,1
30347,0,52171,57660,52063.29,57878.52,107.71,-218.52,-0.477062,-0.476693,0.283405,100.00,1
30387,0,52170,57669,52063.51,57878.11,106.49,-209.11,-0.477066,-0.476686,0.283381,100.00,1
30427,0,52175,57685,52063.73,57877.72,111.27,-192.72,-0.477070,-0.476679,0.283365,100.00,1
30466,0,52177,57695,52063.96,57877.36,113.04,-182.36,-0.477074,-0.476673,0.283358,100.00,1
30505,0,52186,57701,52064.20,57877.01,121.80,-176.01,-0.477079,-0.476667,0.283362,100.00,1
30547,0,52187,57717,52064.45,57876.69,122.55,-159.69,-0.477084,-0.476661,0.283377,100.00,1
30588,0,52192,57733,52064.71,57876.40,127.29,-143.40,-0.477089,-0.476656,0.283405,100.00,1
30628,0,52200,57747,52064.98,57876.14,135.02,-129.14,-0.477094,-0.476652,0.283445,100.00,1
30667,0,52205,57776,52065.26,57875.95,139.74,-99.95,-0.477099,-0.476648,0.283501,100.00,1
30708,0,52212,57792,52065.55,57875.78,146.45,-83.78,-0.477105,-0.476645,0.283574,100.00,1
30747,0,52221,57812,52065.87,57875.65,155.13,-63.65,-0.477111,-0.476643,0.283665,100.00,1
30788,0,52223,57828,52066.18,57875.56,156.82,-47.56,-0.477117,-0.476642,0.283775,100.00,1
30828,0,52232,57844,52066.52,57875.50,165.48,-31.50,-0.477124,-0.476641,0.283906,100.00,1
30868,0,52232,57801,52066.85,57875.35,165.15,-74.35,-0.477130,-0.476638,0.284057,100.00,1
30909,0,52204,57719,52067.12,57875.04,136.87,-156.04,-0.477135,-0.476633,0.284220,100.00,1
30948,0,52183,57694,52067.36,57874.68,115.64,-180.68,-0.477140,-0.476626,0.284391,100.00,1
30988,0,52180,57699,52067.59,57874.32,112.41,-175.32,-0.477144,-0.476620,0.284568,100.00,1
31028,0,52184,57697,52067.82,57873.97,116.18,-176.97,-0.477149,-0.476614,0.284752,100.00,1
31067,0,52181,57694,52068.05,57873.61,112.95,-179.61,-0.477153,-0.476608,0.284944,100.00,1
31109,0,52184,57708,52068.28,57873.29,115.72,-165.29,-0.477157,-0.476602,0.285142,100.00,1
31147,0,52190,57720,52068.53,57872.98,121.47,-152.98,-0.477162,-0.476597,0.285350,100.00,1
31188,0,52195,57726,52068.78,57872.69,126.22,-146.69,-0.477167,-0.476592,0.285567,100.00,1
31228,0,52198,57742,52069.04,57872.43,128.96,-130.43,-0.477172,-0.476588,0.285795,100.00,1
31268,0,52203,57760,52069.31,57872.20,133.69,-112.20,-0.477177,-0.476584,0.286034,100.00,1
31309,0,52207,57783,52069.59,57872.03,137.41,-89.03,-0.477183,-0.476581,0.286285,100.00,1
31348,0,52226,57800,52069.90,57871.89,156.10,-71.89,-0.477189,-0.476578,0.286554,100.00,1
31388,0,52230,57823,52070.22,57871.79,159.78,-48.79,-0.477195,-0.476577,0.286840,100.00,1
31428,0,52247,57844,52070.58,57871.73,176.42,-27.73,-0.477202,-0.476576,0.287149,100.00,1
31468,0,52253,57867,52070.95,57871.73,182.05,-4.73,-0.477209,-0.476575,0.287480,100.00,1
31509,0,52263,57884,52071.33,57871.75,191.67,12.25,-0.477216,-0.476576,0.287836,100.00,1
31548,0,52270,57892,52071.73,57871.80,198.27,20.20,-0.477224,-0.476577,0.288219,100.00,1
31588,0,52255,57822,52072.10,57871.70,182.90,-49.70,-0.477231,-0.476575,0.288623,100.00,1
31628,0,52235,57765,52072.43,57871.49,162.57,-106.49,-0.477237,-0.476571,0.289044,100.00,1
31668,0,52220,57761,52072.72,57871.27,147.28,-110.27,-0.477243,-0.476568,0.289477,100.00,1
31709,0,52225,57763,52073.03,57871.05,151.97,-108.05,-0.477249,-0.476564,0.289923,100.00,1
31748,0,52222,57758,52073.33,57870.83,148.67,-112.83,-0.477254,-0.476560,0.290382,100.00,1
31788,0,52223,57763,52073.63,57870.61,149.37,-107.61,-0.477260,-0.476556,0.290854,100.00,1
31829,0,52225,57772,52073.93,57870.42,151.07,-98.42,-0.477266,-0.476553,0.291338,100.00,1
31868,0,52231,57782,52074.25,57870.24,156.75,-88.24,-0.477272,-0.476550,0.291837,100.00,1
31908,0,52227,57789,52074.56,57870.08,152.44,-81.08,-0.477278,-0.476547,0.292350,100.00,1
31948,0,52231,57799,52074.87,57869.94,156.13,-70.94,-0.477284,-0.476545,0.292876,100.00,1
31990,0,52233,57815,52075.19,57869.83,157.81,-54.83,-0.477290,-0.476543,0.293418,100.00,1
32028,0,52241,57833,52075.52,57869.76,165.48,-36.76,-0.477297,-0.476541,0.293976,100.00,1
32067,0,52245,57845,52075.86,57869.71,169.14,-24.71,-0.477303,-0.476541,0.294552,100.00,1
32108,0,52247,57864,52076.20,57869.70,170.80,-5.70,-0.477310,-0.476541,0.295146,100.00,1
32147,0,52256,57885,52076.56,57869.73,179.44,15.27,-0.477316,-0.476541,0.295759,100.00,1
32190,0,52261,57898,52076.93,57869.79,184.07,28.21,-0.477324,-0.476542,0.296393,100.00,1
32230,0,52267,57922,52077.32,57869.90,189.68,52.10,-0.477331,-0.476544,0.297048,100.00,1
32270,0,52274,57902,52077.71,57869.96,196.29,32.04,-0.477339,-0.476545,0.297727,100.00,1
32309,0,52248,57813,52078.05,57869.85,169.95,-56.85,-0.477345,-0.476543,0.298422,100.00,1
32349,0,52231,57786,52078.36,57869.68,152.64,-83.68,-0.477351,-0.476540,0.299129,100.00,1
32390,0,52226,57795,52078.66,57869.54,147.34,-74.54,-0.477357,-0.476538,0.299847,100.00,1
32430,0,52231,57803,52078.96,57869.40,152.04,-66.40,-0.477363,-0.476535,0.300578,100.00,1
32469,0,52230,57804,52079.27,57869.27,150.73,-65.27,-0.477368,-0.476533,0.301320,100.00,1
32507,0,52235,57822,52079.58,57869.18,155.42,-47.18,-0.477374,-0.476531,0.302076,100.00,1
32548,0,52238,57832,52079.90,57869.11,158.10,-37.11,-0.477381,-0.476530,0.302846,100.00,1
32589,0,52246,57836,52080.23,57869.04,165.77,-33.04,-0.477387,-0.476529,0.303631,100.00,1
32629,0,52248,57839,52080.57,57868.98,167.43,-29.98,-0.477393,-0.476528,0.304432,100.00,1
32669,0,52255,57847,52080.92,57868.94,174.08,-21.94,-0.477400,-0.476527,0.305250,100.00,1
32709,0,52259,57860,52081.28,57868.92,177.72,-8.92,-0.477407,-0.476527,0.306086,100.00,1
32747,0,52264,57881,52081.64,57868.95,182.36,12.05,-0.477414,-0.476528,0.306942,100.00,1
32791,0,52268,57898,52082.02,57869.01,185.98,28.99,-0.477421,-0.476528,0.307817,100.00,1
32829,0,52270,57915,52082.40,57869.10,187.60,45.90,-0.477429,-0.476530,0.308712,100.00,1
32870,0,52278,57929,52082.79,57869.22,195.21,59.78,-0.477436,-0.476532,0.309628,100.00,1
32909,0,52277,57902,52083.18,57869.29,193.82,32.71,-0.477444,-0.476533,0.310565,100.00,1
32948,0,52263,57820,52083.54,57869.19,179.46,-49.19,-0.477450,-0.476532,0.311520,100.00,1
32990,0,52234,57788,52083.84,57869.03,150.16,-81.03,-0.477456,-0.476529,0.312484,100.00,1
33030,0,52233,57789,52084.14,57868.87,148.86,-79.87,-0.477462,-0.476526,0.313459,100.00,1
33069,0,52229,57786,52084.43,57868.71,144.57,-82.71,-0.477468,-0.476523,0.314443,100.00,1
33109,0,52229,57791,52084.72,57868.55,144.28,-77.55,-0.477473,-0.476521,0.315436,100.00,1
33151,0,52230,57804,52085.02,57868.43,144.98,-64.43,-0.477479,-0.476518,0.316439,100.00,1
33189,0,52237,57807,52085.32,57868.30,151.68,-61.30,-0.477485,-0.476516,0.317453,100.00,1
33230,0,52234,57809,52085.62,57868.19,148.38,-59.19,-0.477490,-0.476514,0.318477,100.00,1
33270,0,52236,57814,52085.92,57868.08,150.08,-54.08,-0.477496,-0.476512,0.319513,100.00,1
33310,0,52240,57831,52086.23,57868.01,153.77,-37.01,-0.477502,-0.476511,0.320560,100.00,1
33350,0,52244,57848,52086.54,57867.97,157.46,-19.97,-0.477508,-0.476511,0.321620,100.00,1
33388,0,52244,57863,52086.86,57867.96,157.14,-4.96,-0.477514,-0.476510,0.322693,100.00,1
33430,0,52249,57882,52087.18,57867.99,161.82,14.01,-0.477520,-0.476511,0.323780,100.00,1
33469,0,52259,57902,52087.53,57868.06,171.47,33.94,-0.477527,-0.476512,0.324883,100.00,1
33509,0,52269,57914,52087.89,57868.16,181.11,45.84,-0.477534,-0.476514,0.326004,100.00,1
33549,0,52276,57909,52088.27,57868.24,187.73,40.76,-0.477541,-0.476515,0.327144,100.00,1
33591,0,52251,57821,52088.60,57868.14,162.40,-47.14,-0.477548,-0.476514,0.328297,100.00,1
33630,0,52224,57767,52088.87,57867.95,135.13,-100.95,-0.477553,-0.476510,0.329457,100.00,1
33670,0,52215,57757,52089.12,57867.73,125.87,-110.73,-0.477558,-0.476506,0.330619,100.00,1
33711,0,52221,57760,52089.39,57867.51,131.61,-107.51,-0.477563,-0.476503,0.331787,100.00,1
33750,0,52216,57750,52089.64,57867.28,126.36,-117.28,-0.477568,-0.476499,0.332958,100.00,1
33788,0,52222,57760,52089.91,57867.06,132.09,-107.06,-0.477573,-0.476495,0.334133,100.00,1
33829,0,52228,57766,52090.19,57866.86,137.81,-100.86,-0.477578,-0.476491,0.335315,100.00,1
33870,0,52234,57774,52090.48,57866.68,143.52,-92.68,-0.477584,-0.476488,0.336505,100.00,1
33909,0,52235,57780,52090.77,57866.51,144.23,-86.51,-0.477589,-0.476485,0.337703,100.00,1
33950,0,52234,57788,52091.05,57866.35,142.95,-78.35,-0.477595,-0.476483,0.338909,100.00,1
33991,0,52239,57806,52091.35,57866.23,147.65,-60.23,-0.477600,-0.476480,0.340125,100.00,1
34031,0,52246,57826,52091.66,57866.15,154.34,-40.15,-0.477606,-0.476479,0.341354,100.00,1
34071,0,52256,57842,52091.99,57866.11,164.01,-24.11,-0.477613,-0.476478,0.342597,100.00,1
34110,0,52261,57860,52092.33,57866.09,168.67,-6.09,-0.477619,-0.476478,0.343855,100.00,1
34150,0,52269,57879,52092.69,57866.12,176.31,12.88,-0.477626,-0.476479,0.345131,100.00,1
34191,0,52276,57893,52093.05,57866.18,182.95,26.82,-0.477633,-0.476480,0.346425,100.00,1
34228,0,52280,57906,52093.43,57866.26,186.57,39.74,-0.477640,-0.476481,0.347739,100.00,1
34271,0,52270,57820,52093.79,57866.17,176.21,-46.17,-0.477647,-0.476479,0.349070,100.00,1
34311,0,52235,57743,52094.07,57865.92,140.93,-122.92,-0.477653,-0.476475,0.350404,100.00,1
34351,0,52220,57724,52094.32,57865.64,125.68,-141.64,-0.477658,-0.476470,0.351739,100.00,1
34391,0,52219,57723,52094.57,57865.36,124.43,-142.36,-0.477662,-0.476465,0.353073,100.00,1
34430,0,52215,57709,52094.82,57865.04,120.18,-156.04,-0.477667,-0.476460,0.354404,100.00,1
34469,0,52214,57710,52095.05,57864.73,118.95,-154.73,-0.477672,-0.476455,0.355733,100.00,1
34511,0,52217,57729,52095.30,57864.46,121.70,-135.46,-0.477676,-0.476450,0.357061,100.00,1
34551,0,52223,57746,52095.56,57864.23,127.44,-118.23,-0.477681,-0.476446,0.358391,100.00,1
34592,0,52226,57760,52095.82,57864.02,130.18,-104.02,-0.477686,-0.476442,0.359726,100.00,1
34631,0,52233,57770,52096.10,57863.84,136.90,-93.84,-0.477692,-0.476439,0.361066,100.00,1
34671,0,52237,57784,52096.38,57863.68,140.62,-79.68,-0.477697,-0.476436,0.362413,100.00,1
34709,0,52245,57808,52096.68,57863.57,148.32,-55.57,-0.477703,-0.476435,0.363771,100.00,1
34751,0,52256,57835,52097.00,57863.52,159.00,-28.52,-0.477709,-0.476434,0.365143,100.00,1
34792,0,52263,57858,52097.33,57863.51,165.67,-5.51,-0.477715,-0.476433,0.366529,100.00,1
34831,0,52270,57876,52097.68,57863.54,172.32,12.46,-0.477722,-0.476434,0.367933,100.00,1
34871,0,52280,57901,52098.04,57863.61,181.96,37.39,-0.477729,-0.476435,0.369355,100.00,1
34911,0,52289,57928,52098.43,57863.74,190.57,64.26,-0.477736,-0.476438,0.370797,100.00,1
34952,0,52299,57899,52098.83,57863.81,200.17,35.19,-0.477744,-0.476439,0.372263,100.00,1
34992,0,52274,57810,52099.18,57863.71,174.82,-53.71,-0.477751,-0.476437,0.373744,100.00,1
35030,0,52253,57786,52099.49,57863.55,153.51,-77.55,-0.477757,-0.476434,0.375235,100.00,1
35069,0,52258,57789,52099.81,57863.41,158.19,-74.41,-0.477763,-0.476432,0.376737,100.00,1
35111,0,52256,57799,52100.12,57863.28,155.88,-64.28,-0.477769,-0.476429,0.378251,100.00,1
35151,0,52260,57797,52100.44,57863.14,159.56,-66.14,-0.477775,-0.476427,0.379775,100.00,1
35192,0,52258,57810,52100.76,57863.04,157.24,-53.04,-0.477781,-0.476425,0.381312,100.00,1
35231,0,52265,57823,52101.09,57862.96,163.91,-39.96,-0.477787,-0.476424,0.382862,100.00,1
35269,0,52271,57839,52101.43,57862.91,169.57,-23.91,-0.477794,-0.476423,0.384429,100.00,1
35311,0,52274,57845,52101.77,57862.88,172.23,-17.88,-0.477801,-0.476423,0.386012,100.00,1
35351,0,52271,57860,52102.11,57862.87,168.89,-2.87,-0.477807,-0.476423,0.387611,100.00,1
35392,0,52280,57874,52102.47,57862.90,177.53,11.10,-0.477814,-0.476423,0.389227,100.00,1
35431,0,52284,57894,52102.83,57862.96,181.17,31.04,-0.477821,-0.476424,0.390863,100.00,1
35471,0,52289,57913,52103.21,57863.06,185.79,49.94,-0.477828,-0.476426,0.392517,100.00,1
35510,0,52296,57940,52103.59,57863.22,192.41,76.78,-0.477835,-0.476428,0.394190,100.00,1
35552,0,52303,57957,52103.99,57863.41,199.01,93.59,-0.477843,-0.476432,0.395882,100.00,1
35592,0,52311,57974,52104.41,57863.63,206.59,110.37,-0.477851,-0.476436,0.397594,100.00,1
35632,0,52310,57955,52104.82,57863.81,205.18,91.19,-0.477859,-0.476439,0.399326,100.00,1
35673,0,52288,57886,52105.19,57863.86,182.81,22.14,-0.477866,-0.476439,0.401077,100.00,1
35712,0,52270,57870,52105.52,57863.87,164.48,6.12,-0.477872,-0.476440,0.402842,100.00,1
35752,0,52272,57890,52105.86,57863.93,166.14,26.07,-0.477879,-0.476441,0.404622,99.99,1
35792,0,52277,57902,52106.20,57864.01,170.80,37.99,-0.477885,-0.476442,0.406416,99.99,1
35832,0,52281,57910,52106.55,57864.10,174.45,45.90,-0.477892,-0.476444,0.408227,99.98,1
35872,0,52289,57931,52106.92,57864.24,182.08,66.76,-0.477899,-0.476446,0.410053,99.98,1
35912,0,52294,57949,52107.29,57864.41,186.71,84.59,-0.477906,-0.476449,0.411895,99.97,1
35952,0,52294,57959,52107.67,57864.60,186.33,94.40,-0.477914,-0.476452,0.413752,99.96,1
35991,0,52305,57978,52108.06,57864.83,196.94,113.17,-0.477921,-0.476456,0.415623,99.95,1
36032,0,52315,57999,52108.48,57865.10,206.52,133.90,-0.477929,-0.476461,0.417508,99.94,1
36070,0,52319,58015,52108.90,57865.40,210.10,149.60,-0.477937,-0.476466,0.419405,99.92,1
36112,0,52331,58039,52109.34,57865.75,221.66,173.25,-0.477946,-0.476472,0.421313,99.91,1
36150,0,52339,58059,52109.80,57866.13,229.20,192.87,-0.477955,-0.476479,0.423228,99.90,1
36192,0,52349,58084,52110.29,57866.57,238.71,217.43,-0.477964,-0.476486,0.425147,99.88,1
36232,0,52358,58106,52110.78,57867.05,247.22,238.95,-0.477973,-0.476495,0.427067,99.86,1
36272,0,52357,58091,52111.27,57867.50,245.73,223.50,-0.477983,-0.476502,0.428991,99.85,1
36312,0,52346,58032,52111.75,57867.83,234.25,164.17,-0.477992,-0.476508,0.430929,99.83,1
36350,0,52322,58008,52112.17,57868.11,209.83,139.89,-0.478000,-0.476513,0.432879,99.81,1
36390,0,52326,58021,52112.60,57868.42,213.40,152.58,-0.478008,-0.476518,0.434839,99.79,1
36433,0,52332,58025,52113.04,57868.74,218.96,156.26,-0.478017,-0.476524,0.436809,99.77,1
36472,0,52331,58032,52113.48,57869.07,217.52,162.93,-0.478025,-0.476530,0.438788,99.74,1
36512,0,52328,58043,52113.91,57869.41,214.09,173.59,-0.478033,-0.476535,0.440772,99.72,1
36551,0,52332,58053,52114.34,57869.78,217.66,183.22,-0.478042,-0.476542,0.442760,99.70,1
36591,0,52337,58069,52114.79,57870.18,222.21,198.82,-0.478050,-0.476549,0.444748,99.67,1
36630,0,52339,58078,52115.24,57870.60,223.76,207.40,-0.478059,-0.476556,0.446736,99.65,1
36674,0,52344,58093,52115.70,57871.04,228.30,221.96,-0.478068,-0.476564,0.448719,99.62,1
36713,0,52347,58110,52116.16,57871.52,230.84,238.48,-0.478077,-0.476572,0.450694,99.59,1
36753,0,52352,58127,52116.63,57872.04,235.37,254.96,-0.478086,-0.476581,0.452658,99.57,1
36792,0,52357,58145,52117.11,57872.58,239.89,272.42,-0.478095,-0.476590,0.454606,99.54,1
36833,0,52363,58167,52117.61,57873.17,245.39,293.83,-0.478104,-0.476600,0.456533,99.51,1
36873,0,52368,58185,52118.11,57873.80,249.89,311.20,-0.478114,-0.476611,0.458435,99.48,1
36913,0,52373,58208,52118.62,57874.46,254.38,333.54,-0.478124,-0.476623,0.460306,99.45,1
36953,0,52377,58221,52119.14,57875.16,257.86,345.84,-0.478134,-0.476635,0.462145,99.42,1
36993,0,52375,58158,52119.65,57875.73,255.35,282.27,-0.478144,-0.476645,0.463974,99.39,1
37034,0,52354,58115,52120.12,57876.21,233.88,238.79,-0.478153,-0.476653,0.465798,99.36,1
37073,0,52350,58118,52120.58,57876.69,229.42,241.31,-0.478161,-0.476661,0.467615,99.33,1
37113,0,52353,58130,52121.05,57877.20,231.95,252.80,-0.478170,-0.476670,0.469424,99.30,1
37153,0,52354,58137,52121.52,57877.72,232.48,259.28,-0.478179,-0.476679,0.471223,99.26,1
37193,0,52356,58143,52121.98,57878.25,234.02,264.75,-0.478188,-0.476688,0.473011,99.23,1
37233,0,52363,58161,52122.47,57878.82,240.53,282.18,-0.478198,-0.476698,0.474786,99.20,1
37272,0,52371,58171,52122.97,57879.40,248.03,291.60,-0.478207,-0.476708,0.476546,99.17,1
37313,0,52380,58180,52123.48,57880.00,256.52,300.00,-0.478217,-0.476718,0.478292,99.13,1
37352,0,52377,58194,52123.99,57880.63,253.01,313.37,-0.478227,-0.476729,0.480021,99.10,1
37393,0,52381,58205,52124.51,57881.28,256.49,323.72,-0.478237,-0.476741,0.481730,99.06,1
37433,0,52387,58224,52125.04,57881.97,261.96,342.03,-0.478247,-0.476752,0.483416,99.03,1
37473,0,52393,58244,52125.57,57882.70,267.43,361.30,-0.478257,-0.476765,0.485076,98.99,1
37512,0,52395,58258,52126.11,57883.45,268.89,374.55,-0.478268,-0.476778,0.486708,98.96,1
37553,0,52402,58267,52126.67,57884.22,275.33,382.78,-0.478278,-0.476791,0.488312,98.92,1
37593,0,52406,58285,52127.23,57885.02,278.77,399.98,-0.478289,-0.476805,0.489884,98.89,1
37634,0,52409,58304,52127.79,57885.86,281.21,418.14,-0.478300,-0.476820,0.491423,98.85,1
37673,0,52413,58286,52128.36,57886.66,284.64,399.34,-0.478311,-0.476834,0.492936,98.82,1
37713,0,52393,58216,52128.89,57887.32,264.11,328.68,-0.478321,-0.476845,0.494437,98.78,1
37755,0,52372,58189,52129.38,57887.93,242.62,301.07,-0.478330,-0.476855,0.495928,98.75,1
37796,0,52364,58189,52129.85,57888.54,234.15,300.46,-0.478339,-0.476866,0.497407,98.71,1
37836,0,52364,58192,52130.32,57889.14,233.68,302.86,-0.478348,-0.476876,0.498874,98.68,1
37876,0,52369,58193,52130.80,57889.75,238.20,303.25,-0.478357,-0.476887,0.500331,98.64,1
37916,0,52369,58207,52131.28,57890.39,237.72,316.61,-0.478367,-0.476898,0.501773,98.61,1
37956,0,52367,58223,52131.75,57891.06,235.25,331.94,-0.478376,-0.476909,0.503199,98.57,1
37996,0,52373,58237,52132.23,57891.75,240.77,345.25,-0.478385,-0.476921,0.504607,98.53,1
38035,0,52378,58242,52132.73,57892.46,245.27,349.54,-0.478394,-0.476934,0.505997,98.50,1
38074,0,52375,58256,52133.21,57893.19,241.79,362.81,-0.478404,-0.476946,0.507367,98.46,1
38115,0,52385,58267,52133.71,57893.94,251.29,373.06,-0.478413,-0.476959,0.508717,98.43,1
38156,0,52388,58284,52134.23,57894.72,253.77,389.28,-0.478423,-0.476973,0.510044,98.39,1
38195,0,52394,58301,52134.75,57895.53,259.25,405.47,-0.478433,-0.476987,0.511347,98.36,1
38236,0,52401,58321,52135.28,57896.38,265.72,424.62,-0.478443,-0.477001,0.512625,98.32,1
38275,0,52406,58332,52135.82,57897.25,270.18,434.75,-0.478454,-0.477016,0.513876,98.29,1
38315,0,52412,58346,52136.38,57898.15,275.62,447.85,-0.478464,-0.477032,0.515100,98.25,1
38352,0,52416,58345,52136.94,57899.05,279.06,445.95,-0.478475,-0.477047,0.516300,98.22,1
38392,0,52402,58275,52137.47,57899.80,264.53,375.20,-0.478485,-0.477060,0.517487,98.18,1
38432,0,52381,58235,52137.96,57900.47,243.04,334.53,-0.478495,-0.477072,0.518665,98.15,1
38473,0,52379,58239,52138.45,57901.15,240.55,337.85,-0.478504,-0.477084,0.519833,98.11,1
38512,0,52383,58244,52138.94,57901.84,244.06,342.16,-0.478514,-0.477096,0.520991,98.08,1
38552,0,52384,58250,52139.43,57902.54,244.57,347.46,-0.478523,-0.477108,0.522139,98.05,1
38594,0,52381,58261,52139.91,57903.26,241.09,357.74,-0.478532,-0.477120,0.523275,98.01,1
38634,0,52386,58268,52140.41,57903.99,245.59,364.01,-0.478542,-0.477133,0.524398,97.98,1
38676,0,52382,58268,52140.89,57904.72,241.11,363.28,-0.478551,-0.477145,0.525508,97.94,1
38715,0,52381,58269,52141.37,57905.45,239.63,363.55,-0.478560,-0.477158,0.526606,97.91,1
38756,0,52388,58276,52141.87,57906.19,246.13,369.81,-0.478570,-0.477171,0.527692,97.88,1
38793,0,52386,58290,52142.36,57906.96,243.64,383.04,-0.478579,-0.477184,0.528763,97.85,1
38836,0,52389,58301,52142.85,57907.75,246.15,393.25,-0.478589,-0.477198,0.529819,97.81,1
38876,0,52389,58316,52143.34,57908.57,245.66,407.43,-0.478598,-0.477212,0.530859,97.78,1
38915,0,52392,58328,52143.84,57909.41,248.16,418.59,-0.478608,-0.477226,0.531880,97.75,1
38957,0,52396,58338,52144.35,57910.27,251.65,427.73,-0.478617,-0.477241,0.532883,97.72,1
38996,0,52396,58337,52144.85,57911.12,251.15,425.88,-0.478627,-0.477256,0.533868,97.68,1
39036,0,52387,58271,52145.34,57911.84,241.66,359.16,-0.478636,-0.477268,0.534845,97.65,1
39076,0,52356,58211,52145.76,57912.45,210.24,298.55,-0.478644,-0.477279,0.535816,97.62,1
39116,0,52348,58217,52146.16,57913.05,201.84,303.95,-0.478652,-0.477289,0.536780,97.59,1
39156,0,52348,58225,52146.57,57913.68,201.43,311.32,-0.478660,-0.477300,0.537735,97.56,1
39195,0,52352,58233,52146.98,57914.32,205.02,318.68,-0.478668,-0.477311,0.538683,97.53,1
39236,0,52354,58243,52147.40,57914.98,206.60,328.02,-0.478676,-0.477323,0.539621,97.50,1
39277,0,52356,58251,52147.82,57915.65,208.18,335.35,-0.478684,-0.477334,0.540549,97.47,1
39313,0,52358,58255,52148.24,57916.33,209.76,338.67,-0.478692,-0.477346,0.541468,97.44,1
39355,0,52363,58263,52148.67,57917.03,214.33,345.97,-0.478700,-0.477358,0.542377,97.41,1
39393,0,52363,58276,52149.10,57917.75,213.90,358.25,-0.478708,-0.477370,0.543275,97.38,1
39435,0,52365,58292,52149.53,57918.50,215.47,373.50,-0.478717,-0.477383,0.544160,97.35,1
39475,0,52373,58313,52149.98,57919.29,223.02,393.71,-0.478725,-0.477397,0.545032,97.32,1
39515,0,52382,58322,52150.45,57920.09,231.55,401.91,-0.478734,-0.477411,0.545889,97.29,1
39555,0,52391,58339,52150.93,57920.93,240.07,418.07,-0.478744,-0.477425,0.546733,97.26,1
39595,0,52398,58350,52151.43,57921.79,246.57,428.21,-0.478753,-0.477440,0.547562,97.23,1
39636,0,52398,58361,52151.92,57922.67,246.08,438.33,-0.478763,-0.477455,0.548376,97.20,1
39675,0,52395,58325,52152.41,57923.48,242.59,401.52,-0.478772,-0.477469,0.549180,97.18,1
39715,0,52368,58242,52152.84,57924.11,215.16,317.89,-0.478780,-0.477480,0.549979,97.15,1
39756,0,52344,58206,52153.23,57924.68,190.77,281.32,-0.478788,-0.477490,0.550773,97.12,1
39795,0,52343,58206,52153.61,57925.24,189.39,280.76,-0.478795,-0.477500,0.551564,97.09,1
39835,0,52349,58204,52154.00,57925.80,195.00,278.20,-0.478802,-0.477509,0.552351,97.07,1
39876,0,52345,58206,52154.38,57926.36,190.62,279.64,-0.478810,-0.477519,0.553134,97.04,1
39915,0,52342,58203,52154.76,57926.92,187.24,276.08,-0.478817,-0.477529,0.553913,97.01,1
39955,0,52339,58215,52155.13,57927.50,183.87,287.50,-0.478824,-0.477539,0.554686,96.99,1
39995,0,52344,58218,52155.51,57928.08,188.49,289.92,-0.478831,-0.477549,0.555455,96.96,1
40036,0,52343,58222,52155.88,57928.67,187.12,293.33,-0.478839,-0.477559,0.556219,96.93,1
40076,0,52343,58227,52156.26,57929.27,186.74,297.73,-0.478846,-0.477569,0.556976,96.91,1
40116,0,52343,58238,52156.63,57929.88,186.37,308.12,-0.478853,-0.477580,0.557727,96.88,1
40156,0,52350,58261,52157.02,57930.55,192.98,330.45,-0.478860,-0.477591,0.558470,96.86,1
40194,0,52349,58268,52157.41,57931.22,191.59,336.78,-0.478868,-0.477603,0.559204,96.83,1
40237,0,52352,58293,52157.80,57931.95,194.20,361.05,-0.478875,-0.477616,0.559927,96.81,1
40275,0,52363,58309,52158.21,57932.70,204.79,376.30,-0.478883,-0.477629,0.560640,96.78,1
40316,0,52369,58318,52158.63,57933.48,210.37,384.52,-0.478891,-0.477642,0.561341,96.76,1
40356,0,52376,58283,52159.07,57934.18,216.93,348.82,-0.478900,-0.477654,0.562036,96.73,1
40396,0,52345,58187,52159.44,57934.68,185.56,252.32,-0.478907,-0.477663,0.562729,96.71,1
40436,0,52311,58145,52159.75,57935.11,151.25,209.89,-0.478913,-0.477670,0.563421,96.69,1
40476,0,52307,58145,52160.04,57935.53,146.96,209.47,-0.478918,-0.477677,0.564110,96.66,1
40516,0,52316,58147,52160.36,57935.95,155.64,211.05,-0.478924,-0.477685,0.564798,96.64,1
40556,0,52315,58144,52160.67,57936.37,154.33,207.63,-0.478930,-0.477692,0.565484,96.62,1
40596,0,52313,58145,52160.97,57936.79,152.03,208.21,-0.478936,-0.477699,0.566168,96.59,1
40636,0,52318,58152,52161.29,57937.22,156.71,214.78,-0.478942,-0.477707,0.566850,96.57,1
40675,0,52324,58159,52161.62,57937.67,162.38,221.33,-0.478948,-0.477714,0.567531,96.55,1
40716,0,52327,58164,52161.95,57938.12,165.05,225.88,-0.478955,-0.477722,0.568210,96.52,1
40757,0,52328,58172,52162.28,57938.59,165.72,233.41,-0.478961,-0.477730,0.568887,96.50,1
40796,0,52330,58187,52162.62,57939.09,167.38,247.91,-0.478968,-0.477739,0.569561,96.48,1
40836,0,52337,58204,52162.97,57939.62,174.03,264.38,-0.478974,-0.477748,0.570231,96.46,1
40876,0,52344,58216,52163.33,57940.18,180.67,275.82,-0.478981,-0.477758,0.570898,96.44,1
40916,0,52349,58233,52163.70,57940.76,185.30,292.24,-0.478988,-0.477768,0.571560,96.41,1
40956,0,52356,58246,52164.09,57941.37,191.91,304.62,-0.478996,-0.477778,0.572217,96.39,1
40996,0,52359,58260,52164.48,57942.02,194.52,317.98,-0.479003,-0.477789,0.572868,96.37,1
41037,0,52360,58252,52164.87,57942.64,195.13,309.36,-0.479011,-0.477800,0.573514,96.35,1
41076,0,52343,58150,52165.23,57943.05,177.77,206.95,-0.479018,-0.477807,0.574161,96.33,1
41116,0,52303,58075,52165.51,57943.32,137.49,131.68,-0.479023,-0.477812,0.574809,96.31,1
41157,0,52292,58068,52165.76,57943.57,126.24,124.43,-0.479028,-0.477816,0.575458,96.29,1
41197,0,52290,58066,52166.01,57943.82,123.99,122.18,-0.479033,-0.477820,0.576107,96.27,1
41237,0,52291,58059,52166.26,57944.05,124.74,114.95,-0.479037,-0.477824,0.576756,96.25,1
41277,0,52288,58057,52166.51,57944.27,121.49,112.73,-0.479042,-0.477828,0.577407,96.23,1
41317,0,52291,58071,52166.76,57944.53,124.24,126.47,-0.479047,-0.477833,0.578057,96.21,1
41358,0,52293,58079,52167.01,57944.80,125.99,134.20,-0.479052,-0.477837,0.578708,96.18,1
41397,0,52295,58088,52167.27,57945.09,127.73,142.91,-0.479057,-0.477842,0.579359,96.16,1
41437,0,52299,58094,52167.54,57945.39,131.46,148.61,-0.479062,-0.477847,0.580009,96.14,1
41477,0,52295,58105,52167.79,57945.71,127.21,159.29,-0.479067,-0.477853,0.580659,96.13,1
41515,0,52308,58117,52168.07,57946.05,139.93,170.95,-0.479072,-0.477859,0.581308,96.11,1
41557,0,52315,58138,52168.37,57946.44,146.63,191.56,-0.479078,-0.477866,0.581955,96.09,1
41597,0,52324,58158,52168.68,57946.86,155.32,211.14,-0.479084,-0.477873,0.582602,96.07,1
41638,0,52331,58176,52169.01,57947.32,161.99,228.68,-0.479090,-0.477881,0.583246,96.05,1
41677,0,52334,58193,52169.34,57947.82,164.66,245.18,-0.479097,-0.477889,0.583887,96.03,1
41717,0,52337,58143,52169.68,57948.21,167.32,194.79,-0.479103,-0.477896,0.584529,96.01,1
41757,0,52305,58040,52169.95,57948.39,135.05,91.61,-0.479108,-0.477899,0.585173,95.99,1
41796,0,52285,58011,52170.18,57948.52,114.82,62.48,-0.479113,-0.477902,0.585819,95.97,1
41835,0,52289,58015,52170.42,57948.65,118.58,66.35,-0.479117,-0.477904,0.586467,95.95,1
41875,0,52293,58024,52170.66,57948.80,122.34,75.20,-0.479122,-0.477906,0.587117,95.93,1
41915,0,52298,58026,52170.92,57948.96,127.08,77.04,-0.479127,-0.477909,0.587769,95.91,1
41956,0,52301,58039,52171.18,57949.14,129.82,89.86,-0.479132,-0.477912,0.588424,95.89,1
41997,0,52304,58044,52171.45,57949.33,132.55,94.67,-0.479137,-0.477915,0.589081,95.88,1
42037,0,52304,58050,52171.71,57949.53,132.29,100.47,-0.479142,-0.477919,0.589740,95.86,1
42077,0,52304,58052,52171.98,57949.74,132.02,102.26,-0.479147,-0.477923,0.590402,95.84,1
42117,0,52313,58069,52172.27,57949.98,140.73,119.02,-0.479153,-0.477927,0.591065,95.82,1
42158,0,52319,58083,52172.56,57950.24,146.44,132.76,-0.479158,-0.477931,0.591731,95.80,1
42198,0,52325,58100,52172.86,57950.54,152.14,149.46,-0.479164,-0.477936,0.592399,95.78,1
42237,0,52331,58116,52173.18,57950.87,157.82,165.12,-0.479170,-0.477942,0.593068,95.77,1
42277,0,52333,58132,52173.50,57951.24,159.50,180.76,-0.479176,-0.477948,0.593738,95.75,1
42317,0,52344,58139,52173.84,57951.62,170.16,187.38,-0.479183,-0.477955,0.594410,95.73,1
42356,0,52332,58043,52174.16,57951.80,157.84,91.20,-0.479189,-0.477958,0.595087,95.71,1
42398,0,52290,57952,52174.39,57951.80,115.61,0.20,-0.479193,-0.477958,0.595766,95.69,1
42438,0,52275,57944,52174.60,57951.79,100.40,-7.79,-0.479197,-0.477958,0.596447,95.67,1
42478,0,52278,57952,52174.80,57951.79,103.20,0.21,-0.479201,-0.477958,0.597130,95.66,1
42518,0,52283,57955,52175.02,57951.79,107.98,3.21,-0.479205,-0.477958,0.597816,95.64,1
42558,0,52281,57963,52175.24,57951.82,105.76,11.18,-0.479210,-0.477958,0.598503,95.62,1
42598,0,52288,57984,52175.46,57951.88,112.54,32.12,-0.479214,-0.477960,0.599193,95.60,1
42639,0,52297,57992,52175.71,57951.96,121.29,40.04,-0.479219,-0.477961,0.599885,95.58,1
42678,0,52297,57991,52175.95,57952.04,121.05,38.96,-0.479223,-0.477962,0.600581,95.57,1
42718,0,52304,58002,52176.21,57952.14,127.79,49.86,-0.479228,-0.477964,0.601281,95.55,1
42758,0,52312,58025,52176.48,57952.29,135.52,72.71,-0.479233,-0.477967,0.601984,95.53,1
42798,0,52323,58052,52176.78,57952.49,146.22,99.51,-0.479239,-0.477970,0.602692,95.51,1
42838,0,52328,58074,52177.08,57952.74,150.92,121.26,-0.479245,-0.477974,0.603402,95.49,1
42878,0,52340,58096,52177.41,57953.03,162.59,142.97,-0.479251,-0.477979,0.604117,95.48,1
42918,0,52350,58120,52177.76,57953.36,172.24,166.64,-0.479258,-0.477985,0.604835,95.46,1
42956,0,52358,58105,52178.12,57953.67,179.88,151.33,-0.479265,-0.477990,0.605558,95.44,1
42998,0,52337,57989,52178.44,57953.74,158.56,35.26,-0.479271,-0.477992,0.606288,95.42,1
43038,0,52302,57919,52178.69,57953.67,123.31,-34.67,-0.479276,-0.477990,0.607022,95.40,1
43078,0,52288,57911,52178.91,57953.59,109.09,-42.59,-0.479280,-0.477989,0.607759,95.39,1
43118,0,52291,57913,52179.14,57953.51,111.86,-40.51,-0.479284,-0.477988,0.608498,95.37,1
43158,0,52293,57908,52179.37,57953.42,113.63,-45.42,-0.479289,-0.477986,0.609239,95.35,1
43199,0,52291,57918,52179.59,57953.35,111.41,-35.35,-0.479293,-0.477985,0.609983,95.33,1
43238,0,52299,57941,52179.83,57953.33,119.17,-12.33,-0.479298,-0.477985,0.610730,95.31,1
43278,0,52308,57950,52180.09,57953.32,127.91,-3.32,-0.479302,-0.477984,0.611482,95.30,1
43318,0,52314,57960,52180.36,57953.34,133.64,6.66,-0.479308,-0.477985,0.612239,95.28,1
43359,0,52318,57975,52180.64,57953.38,137.36,21.62,-0.479313,-0.477985,0.613002,95.26,1
43398,0,52322,57995,52180.92,57953.47,141.08,41.53,-0.479318,-0.477987,0.613771,95.24,1
43438,0,52328,58020,52181.22,57953.60,146.78,66.40,-0.479324,-0.477989,0.614545,95.22,1
43478,0,52338,58044,52181.54,57953.79,156.46,90.21,-0.479330,-0.477992,0.615325,95.21,1
43519,0,52348,58069,52181.87,57954.02,166.13,114.98,-0.479337,-0.477996,0.616112,95.19,1
43559,0,52353,58087,52182.21,57954.28,170.79,132.72,-0.479343,-0.478001,0.616904,95.17,1
43599,0,52363,58105,52182.58,57954.59,180.42,150.41,-0.479350,-0.478006,0.617701,95.15,1
43637,0,52355,58041,52182.93,57954.76,172.07,86.24,-0.479357,-0.478009,0.618507,95.13,1
43679,0,52324,57947,52183.21,57954.75,140.79,-7.75,-0.479362,-0.478009,0.619320,95.11,1
43719,0,52299,57932,52183.45,57954.70,115.55,-22.70,-0.479367,-0.478008,0.620135,95.10,1
43759,0,52301,57942,52183.68,57954.68,117.32,-12.68,-0.479371,-0.478008,0.620955,95.08,1
43799,0,52304,57942,52183.93,57954.66,120.07,-12.66,-0.479376,-0.478007,0.621778,95.06,1
43839,0,52303,57943,52184.16,57954.63,118.84,-11.63,-0.479381,-0.478007,0.622605,95.04,1
43879,0,52311,57966,52184.42,57954.66,126.58,11.34,-0.479385,-0.478007,0.623437,95.02,1
43919,0,52317,57993,52184.68,57954.73,132.32,38.27,-0.479391,-0.478009,0.624274,95.00,1
43958,0,52322,58007,52184.96,57954.84,137.04,52.16,-0.479396,-0.478011,0.625117,94.98,1
43999,0,52330,58027,52185.25,57954.98,144.75,72.02,-0.479401,-0.478013,0.625965,94.96,1
44037,0,52337,58045,52185.56,57955.16,151.44,89.84,-0.479407,-0.478016,0.626819,94.95,1
44079,0,52346,58073,52185.88,57955.40,160.12,117.60,-0.479413,-0.478020,0.627677,94.93,1
44119,0,52360,58104,52186.23,57955.70,173.77,148.30,-0.479420,-0.478025,0.628541,94.91,1
44159,0,52372,58120,52186.60,57956.03,185.40,163.97,-0.479427,-0.478031,0.629409,94.89,1
44200,0,52381,58145,52186.99,57956.41,194.01,188.59,-0.479435,-0.478038,0.630282,94.87,1
44238,0,52388,58166,52187.39,57956.83,200.61,209.17,-0.479442,-0.478045,0.631156,94.85,1
44278,0,52399,58191,52187.82,57957.30,211.18,233.70,-0.479451,-0.478053,0.632031,94.83,1
44317,0,52401,58135,52188.24,57957.66,212.76,177.34,-0.479459,-0.478059,0.632915,94.81,1
44357,0,52365,58066,52188.60,57957.87,176.40,108.12,-0.479466,-0.478063,0.633806,94.79,1
44399,0,52349,58044,52188.92,57958.05,160.08,85.95,-0.479472,-0.478066,0.634705,94.77,1
44439,0,52346,58061,52189.23,57958.25,156.77,102.75,-0.479478,-0.478070,0.635609,94.75,1
44479,0,52353,58063,52189.56,57958.46,163.44,104.54,-0.479484,-0.478073,0.636519,94.73,1
44519,0,52352,58070,52189.89,57958.69,162.11,111.31,-0.479490,-0.478077,0.637435,94.71,1
44557,0,52358,58087,52190.23,57958.95,167.77,128.05,-0.479497,-0.478081,0.638356,94.69,1
44599,0,52359,58095,52190.57,57959.22,168.43,135.78,-0.479503,-0.478086,0.639281,94.67,1
44640,0,52356,58107,52190.90,57959.52,165.10,147.48,-0.479510,-0.478091,0.640210,94.65,1
44680,0,52361,58113,52191.24,57959.82,169.76,153.18,-0.479516,-0.478097,0.641141,94.63,1
44720,0,52367,58139,52191.59,57960.18,175.41,178.82,-0.479523,-0.478103,0.642072,94.61,1
44759,0,52371,58149,52191.95,57960.56,179.05,188.44,-0.479530,-0.478109,0.643004,94.59,1
44800,0,52377,58176,52192.32,57961.00,184.68,215.00,-0.479537,-0.478117,0.643934,94.57,1
44840,0,52381,58192,52192.70,57961.46,188.30,230.54,-0.479544,-0.478125,0.644858,94.55,1
44880,0,52385,58216,52193.09,57961.97,191.91,254.03,-0.479552,-0.478134,0.645775,94.53,1
44919,0,52392,58232,52193.48,57962.52,198.52,269.48,-0.479559,-0.478143,0.646683,94.51,1
44960,0,52391,58188,52193.88,57962.97,197.12,225.03,-0.479567,-0.478151,0.647588,94.49,1
45000,0,52366,58125,52194.22,57963.29,171.78,161.71,-0.479573,-0.478156,0.648496,94.46,1
45041,0,52357,58130,52194.55,57963.63,162.45,166.37,-0.479580,-0.478162,0.649404,94.44,1
45080,0,52360,58139,52194.88,57963.98,165.12,175.02,-0.479586,-0.478168,0.650312,94.42,1
45120,0,52363,58151,52195.22,57964.36,167.78,186.64,-0.479592,-0.478175,0.651218,94.40,1
45160,0,52367,58161,52195.56,57964.75,171.44,196.25,-0.479599,-0.478182,0.652122,94.38,1
45200,0,52373,58180,52195.92,57965.18,177.08,214.82,-0.479606,-0.478189,0.653022,94.36,1
45240,0,52379,58188,52196.29,57965.63,182.71,222.37,-0.479613,-0.478197,0.653918,94.34,1
45280,0,52382,58197,52196.66,57966.09,185.34,230.91,-0.479620,-0.478205,0.654809,94.32,1
45320,0,52387,58209,52197.04,57966.58,189.96,242.42,-0.479627,-0.478213,0.655694,94.30,1
45360,0,52390,58226,52197.43,57967.10,192.57,258.90,-0.479635,-0.478222,0.656570,94.27,1
45400,0,52400,58249,52197.83,57967.67,202.17,281.33,-0.479643,-0.478232,0.657437,94.25,1
45441,0,52402,58267,52198.24,57968.27,203.76,298.73,-0.479650,-0.478242,0.658289,94.23,1
45481,0,52406,58279,52198.66,57968.89,207.34,310.11,-0.479658,-0.478253,0.659127,94.21,1
45521,0,52414,58296,52199.09,57969.55,214.91,326.45,-0.479667,-0.478264,0.659949,94.19,1
45562,0,52419,58306,52199.54,57970.22,219.46,335.78,-0.479675,-0.478276,0.660755,94.17,1
45601,0,52417,58270,52199.97,57970.82,217.03,299.18,-0.479684,-0.478286,0.661551,94.15,1
45641,0,52387,58202,52200.35,57971.29,186.65,230.71,-0.479691,-0.478294,0.662344,94.13,1
45682,0,52373,58192,52200.70,57971.73,172.30,220.27,-0.479697,-0.478302,0.663132,94.10,1
45722,0,52374,58201,52201.04,57972.19,172.96,228.81,-0.479704,-0.478310,0.663915,94.08,1
45762,0,52374,58206,52201.39,57972.66,172.61,233.34,-0.479711,-0.478318,0.664693,94.06,1
45801,0,52377,58206,52201.74,57973.13,175.26,232.87,-0.479717,-0.478326,0.665465,94.04,1
45843,0,52380,58225,52202.10,57973.63,177.90,251.37,-0.479724,-0.478335,0.666229,94.02,1
45883,0,52379,58233,52202.46,57974.15,176.54,258.85,-0.479731,-0.478344,0.666984,94.00,1
45923,0,52377,58246,52202.81,57974.70,174.19,271.30,-0.479738,-0.478353,0.667729,93.98,1
45962,0,52382,58258,52203.17,57975.27,178.83,282.73,-0.479745,-0.478363,0.668461,93.96,1
46002,0,52385,58273,52203.53,57975.86,181.47,297.14,-0.479752,-0.478373,0.669180,93.94,1
46043,0,52392,58292,52203.91,57976.50,188.09,315.50,-0.479759,-0.478384,0.669882,93.92,1
46082,0,52402,58314,52204.31,57977.17,197.69,336.83,-0.479767,-0.478396,0.670567,93.90,1
46122,0,52406,58332,52204.71,57977.88,201.29,354.12,-0.479774,-0.478408,0.671233,93.88,1
46162,0,52416,58356,52205.14,57978.64,210.86,377.36,-0.479782,-0.478421,0.671876,93.86,1
46203,0,52419,58378,52205.57,57979.44,213.43,398.56,-0.479791,-0.478435,0.672494,93.84,1
46239,0,52427,58395,52206.02,57980.27,220.98,414.73,-0.479799,-0.478449,0.673086,93.82,1
46282,0,52433,58357,52206.47,57981.03,226.53,375.97,-0.479808,-0.478462,0.673662,93.80,1
46322,0,52410,58289,52206.88,57981.64,203.12,307.36,-0.479816,-0.478473,0.674230,93.78,1
46362,0,52396,58278,52207.26,57982.24,188.74,295.76,-0.479823,-0.478483,0.674789,93.76,1
46402,0,52401,58285,52207.65,57982.84,193.35,302.16,-0.479831,-0.478494,0.675340,93.74,1
46443,0,52400,58286,52208.04,57983.45,191.96,302.55,-0.479838,-0.478504,0.675882,93.72,1
46482,0,52397,58289,52208.42,57984.07,188.58,304.93,-0.479845,-0.478515,0.676414,93.70,1
46522,0,52400,58312,52208.80,57984.72,191.20,327.28,-0.479853,-0.478526,0.676934,93.68,1
46562,0,52405,58321,52209.20,57985.40,195.80,335.60,-0.479860,-0.478538,0.677442,93.66,1
46603,0,52408,58325,52209.59,57986.08,198.41,338.92,-0.479868,-0.478549,0.677937,93.64,1
46643,0,52412,58333,52210.00,57986.77,202.00,346.23,-0.479876,-0.478561,0.678420,93.63,1
46682,0,52411,58345,52210.40,57987.49,200.60,357.51,-0.479883,-0.478574,0.678889,93.61,1
46722,0,52414,58367,52210.81,57988.25,203.19,378.75,-0.479891,-0.478587,0.679342,93.59,1
46762,0,52418,58381,52211.23,57989.04,206.77,391.96,-0.479899,-0.478601,0.679777,93.57,1
46803,0,52422,58402,52211.65,57989.87,210.35,412.13,-0.479907,-0.478615,0.680192,93.56,1
46843,0,52434,58416,52212.09,57990.72,221.91,425.28,-0.479916,-0.478630,0.680588,93.54,1
46882,0,52435,58426,52212.54,57991.59,222.46,434.41,-0.479924,-0.478645,0.680964,93.52,1
46923,0,52441,58449,52213.00,57992.51,228.00,456.49,-0.479933,-0.478660,0.681318,93.51,1
46963,0,52444,58461,52213.46,57993.45,230.54,467.55,-0.479942,-0.478677,0.681650,93.49,1
47003,0,52437,58409,52213.91,57994.28,223.09,414.72,-0.479950,-0.478691,0.681968,93.47,1
47044,0,52409,58352,52214.30,57995.00,194.70,357.00,-0.479958,-0.478703,0.682275,93.46,1
47083,0,52396,58348,52214.66,57995.71,181.34,352.29,-0.479965,-0.478715,0.682572,93.44,1
47120,0,52400,58362,52215.04,57996.44,184.96,365.56,-0.479972,-0.478728,0.682857,93.43,1
47162,0,52411,58363,52215.43,57997.18,195.57,365.82,-0.479980,-0.478741,0.683131,93.41,1
47202,0,52409,58368,52215.82,57997.92,193.18,370.08,-0.479987,-0.478754,0.683395,93.40,1
47242,0,52409,58381,52216.20,57998.69,192.80,382.31,-0.479994,-0.478767,0.683647,93.38,1
47282,0,52411,58393,52216.59,57999.48,194.41,393.52,-0.480002,-0.478780,0.683886,93.37,1
47322,0,52413,58403,52216.99,58000.29,196.01,402.71,-0.480009,-0.478794,0.684111,93.35,1
47362,0,52418,58412,52217.39,58001.11,200.61,410.89,-0.480017,-0.478809,0.684322,93.34,1
47402,0,52424,58426,52217.80,58001.96,206.20,424.04,-0.480025,-0.478823,0.684520,93.33,1
47442,0,52434,58443,52218.24,58002.84,215.76,440.16,-0.480033,-0.478839,0.684704,93.31,1
47482,0,52441,58460,52218.68,58003.76,222.32,456.24,-0.480042,-0.478854,0.684872,93.30,1
47522,0,52442,58474,52219.13,58004.70,222.87,469.30,-0.480050,-0.478871,0.685025,93.29,1
47562,0,52449,58496,52219.59,58005.68,229.41,490.32,-0.480059,-0.478888,0.685161,93.27,1
47602,0,52453,58504,52220.06,58006.68,232.94,497.32,-0.480068,-0.478905,0.685279,93.26,1
47643,0,52457,58518,52220.54,58007.71,236.46,510.29,-0.480077,-0.478922,0.685381,93.25,1
47684,0,52462,58523,52221.02,58008.74,240.98,514.26,-0.480087,-0.478940,0.685466,93.24,1
47724,0,52459,58473,52221.50,58009.67,237.50,463.33,-0.480096,-0.478956,0.685542,93.23,1
47764,0,52423,58413,52221.91,58010.48,201.09,402.52,-0.480104,-0.478970,0.685609,93.22,1
47803,0,52414,58407,52222.29,58011.27,191.71,395.73,-0.480111,-0.478984,0.685669,93.21,1
47842,0,52413,58415,52222.68,58012.08,190.32,402.92,-0.480118,-0.478998,0.685719,93.19,1
47883,0,52416,58419,52223.06,58012.89,192.94,406.11,-0.480126,-0.479012,0.685761,93.18,1
47922,0,52415,58420,52223.45,58013.71,191.55,406.29,-0.480133,-0.479026,0.685795,93.17,1
47964,0,52414,58435,52223.83,58014.55,190.17,420.45,-0.480140,-0.479040,0.685818,93.17,1
48002,0,52418,58435,52224.22,58015.40,193.78,419.60,-0.480148,-0.479055,0.685833,93.16,1
48044,0,52416,58442,52224.61,58016.25,191.39,425.75,-0.480155,-0.479070,0.685837,93.15,1
48085,0,52419,58453,52225.00,58017.13,194.00,435.87,-0.480163,-0.479085,0.685832,93.14,1
48125,0,52410,58464,52225.37,58018.02,184.63,445.98,-0.480170,-0.479100,0.685815,93.13,1
48164,0,52423,58475,52225.77,58018.94,197.23,456.06,-0.480178,-0.479116,0.685787,93.12,1
48205,0,52424,58494,52226.17,58019.89,197.83,474.11,-0.480185,-0.479132,0.685746,93.11,1
48244,0,52433,58510,52226.58,58020.87,206.42,489.13,-0.480193,-0.479149,0.685693,93.11,1
48285,0,52440,58529,52227.01,58021.89,212.99,507.11,-0.480201,-0.479167,0.685628,93.10,1
48325,0,52446,58544,52227.45,58022.94,218.55,521.06,-0.480210,-0.479185,0.685548,93.09,1
48365,0,52447,58540,52227.89,58023.97,219.11,516.03,-0.480218,-0.479203,0.685457,93.08,1
48405,0,52434,58471,52228.30,58024.87,205.70,446.13,-0.480226,-0.479218,0.685359,93.08,1
48444,0,52415,58436,52228.68,58025.69,186.32,410.31,-0.480233,-0.479232,0.685254,93.07,1
48485,0,52410,58443,52229.04,58026.53,180.96,416.47,-0.480240,-0.479247,0.685143,93.07,1
48522,0,52415,58452,52229.42,58027.38,185.58,424.62,-0.480247,-0.479261,0.685025,93.06,1
48565,0,52419,58451,52229.80,58028.23,189.20,422.77,-0.480255,-0.479276,0.684901,93.05,1
48605,0,52417,58459,52230.17,58029.09,186.83,429.91,-0.480262,-0.479291,0.684770,93.05,1
48645,0,52421,58475,52230.55,58029.98,190.45,445.02,-0.480269,-0.479306,0.684631,93.04,1
48685,0,52423,58475,52230.94,58030.87,192.06,444.12,-0.480277,-0.479322,0.684486,93.04,1
48725,0,52421,58482,52231.32,58031.78,189.68,450.22,-0.480284,-0.479337,0.684333,93.04,1
48765,0,52429,58499,52231.72,58032.71,197.28,466.29,-0.480292,-0.479353,0.684172,93.03,1
48802,0,52427,58506,52232.11,58033.66,194.89,472.34,-0.480299,-0.479370,0.684002,93.03,1
48844,0,52431,58523,52232.51,58034.64,198.49,488.36,-0.480307,-0.479387,0.683824,93.02,1
48885,0,52436,58532,52232.92,58035.64,203.08,496.36,-0.480314,-0.479404,0.683637,93.02,1
48924,0,52438,58549,52233.33,58036.67,204.67,512.33,-0.480322,-0.479422,0.683440,93.02,1
48966,0,52443,58566,52233.75,58037.73,209.25,528.27,-0.480330,-0.479440,0.683233,93.01,1
49006,0,52448,58574,52234.18,58038.80,213.82,535.20,-0.480339,-0.479458,0.683016,93.01,1
49046,0,52449,58548,52234.61,58039.82,214.39,508.18,-0.480347,-0.479476,0.682792,93.01,1
49086,0,52425,58468,52235.00,58040.68,190.00,427.32,-0.480354,-0.479491,0.682564,93.01,1
49126,0,52399,58434,52235.32,58041.47,163.68,392.53,-0.480361,-0.479504,0.682332,93.00,1
49164,0,52393,58437,52235.64,58042.26,157.36,394.74,-0.480367,-0.479518,0.682095,93.00,1
49205,0,52390,58438,52235.95,58043.05,154.05,394.95,-0.480372,-0.479532,0.681854,93.00,1
49245,0,52391,58433,52236.26,58043.84,154.74,389.16,-0.480378,-0.479545,0.681608,93.00,1
49285,0,52395,58440,52236.58,58044.63,158.42,395.37,-0.480385,-0.479559,0.681357,93.00,1
49324,0,52399,58453,52236.91,58045.45,162.09,407.55,-0.480391,-0.479573,0.681102,93.00,1
49364,0,52400,58458,52237.24,58046.27,162.76,411.73,-0.480397,-0.479587,0.680843,93.00,1
49404,0,52399,58471,52237.56,58047.12,161.44,423.87,-0.480403,-0.479602,0.680577,93.00,1
49446,0,52404,58480,52237.90,58047.99,166.10,432.01,-0.480410,-0.479617,0.680306,93.00,1
49484,0,52409,58495,52238.24,58048.89,170.76,446.11,-0.480416,-0.479632,0.680030,93.00,1
49526,0,52415,58510,52238.60,58049.81,176.40,460.19,-0.480423,-0.479648,0.679747,93.00,1
49566,0,52425,58519,52238.97,58050.75,186.03,468.25,-0.480430,-0.479664,0.679458,93.00,1
49606,0,52430,58536,52239.36,58051.72,190.64,484.28,-0.480438,-0.479681,0.679164,93.00,1
49645,0,52434,58547,52239.75,58052.71,194.25,494.29,-0.480445,-0.479698,0.678863,93.00,1
49686,0,52434,58565,52240.14,58053.74,193.86,511.26,-0.480453,-0.479716,0.678555,93.00,1
49726,0,52441,58578,52240.54,58054.79,200.46,523.21,-0.480460,-0.479734,0.678240,93.00,1
49766,0,52439,58542,52240.94,58055.77,198.06,486.23,-0.480468,-0.479751,0.677921,93.00,1
49806,0,52413,58452,52241.28,58056.56,171.72,395.44,-0.480475,-0.479764,0.677599,93.01,1
49846,0,52389,58410,52241.58,58057.27,147.42,352.73,-0.480480,-0.479776,0.677276,93.01,1
49886,0,52387,58407,52241.87,58057.97,145.13,349.03,-0.480486,-0.479789,0.676951,93.01,1
49926,0,52381,58403,52242.15,58058.66,138.85,344.34,-0.480491,-0.479800,0.676624,93.01,1
49965,0,52380,58395,52242.43,58059.34,137.57,335.66,-0.480496,-0.479812,0.676295,93.01,1
50005,0,52376,58397,52242.70,58060.01,133.30,336.99,-0.480502,-0.479824,0.675965,93.02,1
50046,0,52376,58401,52242.97,58060.70,133.03,340.30,-0.480507,-0.479835,0.675633,93.02,1
50086,0,52371,58403,52243.23,58061.38,127.77,341.62,-0.480512,-0.479847,0.675298,93.02,1
50126,0,52372,58400,52243.48,58062.06,128.52,337.94,-0.480517,-0.479859,0.674961,93.03,1
50165,0,52371,58407,52243.74,58062.75,127.26,344.25,-0.480522,-0.479871,0.674622,93.03,1
50207,0,52373,58413,52244.00,58063.46,129.00,349.54,-0.480527,-0.479883,0.674280,93.03,1
50245,0,52377,58428,52244.27,58064.19,132.73,363.81,-0.480532,-0.479896,0.673935,93.04,1
50286,0,52381,58449,52244.54,58064.96,136.46,384.04,-0.480537,-0.479909,0.673586,93.04,1
50323,0,52385,58457,52244.82,58065.74,140.18,391.26,-0.480542,-0.479922,0.673234,93.04,1
50367,0,52386,58467,52245.11,58066.55,140.89,400.45,-0.480548,-0.479936,0.672878,93.05,1
50403,0,52395,58481,52245.41,58067.38,149.59,413.62,-0.480554,-0.479951,0.672517,93.05,1
50444,0,52396,58449,52245.71,58068.14,150.29,380.86,-0.480559,-0.479964,0.672155,93.06,1
50484,0,52366,58361,52245.95,58068.73,120.05,292.27,-0.480564,-0.479974,0.671792,93.06,1
50527,0,52338,58324,52246.14,58069.24,91.86,254.76,-0.480567,-0.479983,0.671428,93.06,1
50567,0,52341,58333,52246.33,58069.77,94.67,263.23,-0.480571,-0.479992,0.671064,93.07,1
50605,0,52345,58336,52246.53,58070.30,98.47,265.70,-0.480575,-0.480001,0.670698,93.07,1
50646,0,52346,58339,52246.73,58070.84,99.27,268.16,-0.480579,-0.480010,0.670332,93.08,1
50687,0,52359,58354,52246.95,58071.41,112.05,282.59,-0.480583,-0.480020,0.669964,93.08,1
50727,0,52360,58353,52247.18,58071.98,112.82,281.02,-0.480587,-0.480030,0.669597,93.09,1
50767,0,52357,58360,52247.40,58072.55,109.60,287.45,-0.480592,-0.480040,0.669228,93.10,1
50807,0,52358,58368,52247.62,58073.15,110.37,294.85,-0.480596,-0.480050,0.668858,93.10,1
50847,0,52356,58379,52247.84,58073.76,108.16,305.24,-0.480600,-0.480060,0.668487,93.11,1
50887,0,52362,58386,52248.07,58074.39,113.93,311.61,-0.480605,-0.480071,0.668113,93.11,1
50927,0,52369,58402,52248.32,58075.04,120.68,326.96,-0.480609,-0.480083,0.667738,93.12,1
50967,0,52377,58413,52248.57,58075.72,128.43,337.28,-0.480614,-0.480094,0.667362,93.12,1
51007,0,52380,58432,52248.84,58076.43,131.16,355.57,-0.480619,-0.480106,0.666983,93.13,1
51046,0,52382,58445,52249.11,58077.17,132.89,367.83,-0.480624,-0.480119,0.666601,93.14,1
51087,0,52384,58446,52249.38,58077.91,134.62,368.09,-0.480630,-0.480132,0.666217,93.14,1
51126,0,52369,58354,52249.62,58078.46,119.38,275.54,-0.480634,-0.480141,0.665833,93.15,1
51167,0,52333,58293,52249.79,58078.89,83.21,214.11,-0.480637,-0.480149,0.665449,93.16,1
51208,0,52327,58292,52249.95,58079.32,77.05,212.68,-0.480640,-0.480156,0.665065,93.16,1
51248,0,52327,58301,52250.10,58079.77,76.90,221.23,-0.480643,-0.480164,0.664680,93.17,1
51287,0,52324,58310,52250.25,58080.23,73.75,229.77,-0.480646,-0.480172,0.664295,93.18,1
51326,0,52325,58318,52250.40,58080.70,74.60,237.30,-0.480649,-0.480180,0.663909,93.18,1
51368,0,52333,58333,52250.57,58081.21,82.43,251.79,-0.480652,-0.480189,0.663522,93.19,1
51408,0,52332,58342,52250.73,58081.73,81.27,260.27,-0.480655,-0.480198,0.663133,93.20,1
51448,0,52339,58343,52250.91,58082.26,88.09,260.74,-0.480659,-0.480207,0.662744,93.20,1
51488,0,52341,58361,52251.09,58082.82,89.91,278.18,-0.480662,-0.480216,0.662352,93.21,1
51527,0,52348,58384,52251.29,58083.42,96.71,300.58,-0.480666,-0.480227,0.661959,93.22,1
51567,0,52355,58401,52251.50,58084.06,103.50,316.94,-0.480670,-0.480238,0.661563,93.22,1
51608,0,52364,58427,52251.72,58084.75,112.28,342.25,-0.480674,-0.480250,0.661165,93.23,1
51648,0,52373,58448,52251.96,58085.47,121.04,362.53,-0.480679,-0.480262,0.660763,93.24,1
51687,0,52384,58466,52252.23,58086.23,131.77,379.77,-0.480684,-0.480275,0.660358,93.25,1
51728,0,52391,58481,52252.51,58087.03,138.49,393.97,-0.480689,-0.480289,0.659950,93.25,1
51769,0,52402,58495,52252.81,58087.84,149.19,407.16,-0.480695,-0.480303,0.659539,93.26,1
51808,0,52394,58434,52253.09,58088.54,140.91,345.46,-0.480701,-0.480315,0.659128,93.27,1
51848,0,52364,58357,52253.32,58089.08,110.68,267.92,-0.480705,-0.480324,0.658716,93.28,1
51888,0,52344,58336,52253.50,58089.57,90.50,246.43,-0.480708,-0.480333,0.658304,93.29,1
51924,0,52346,58341,52253.69,58090.08,92.31,250.92,-0.480712,-0.480341,0.657892,93.29,1
51968,0,52348,58346,52253.88,58090.59,94.12,255.41,-0.480716,-0.480350,0.657480,93.30,1
52006,0,52348,58341,52254.07,58091.09,93.93,249.91,-0.480719,-0.480359,0.657067,93.31,1
52048,0,52347,58352,52254.26,58091.62,92.74,260.38,-0.480723,-0.480368,0.656654,93.32,1
52088,0,52350,58369,52254.45,58092.17,95.55,276.83,-0.480727,-0.480377,0.656239,93.33,1
52128,0,52353,58375,52254.65,58092.74,98.35,282.26,-0.480730,-0.480387,0.655824,93.33,1
52167,0,52350,58383,52254.84,58093.32,95.16,289.68,-0.480734,-0.480397,0.655407,93.34,1
52209,0,52356,58392,52255.04,58093.92,100.96,298.08,-0.480738,-0.480407,0.654989,93.35,1
52248,0,52361,58407,52255.26,58094.55,105.74,312.45,-0.480742,-0.480418,0.654568,93.36,1
52288,0,52368,58427,52255.48,58095.21,112.52,331.79,-0.480746,-0.480430,0.654146,93.37,1
52328,0,52370,58449,52255.71,58095.93,114.29,353.07,-0.480751,-0.480442,0.653721,93.38,1
52368,0,52376,58469,52255.96,58096.67,120.04,372.33,-0.480755,-0.480455,0.653292,93.39,1
52407,0,52383,58482,52256.21,58097.45,126.79,384.55,-0.480760,-0.480468,0.652860,93.40,1
52448,0,52391,58508,52256.48,58098.27,134.52,409.73,-0.480765,-0.480482,0.652424,93.40,1
52488,0,52395,58502,52256.76,58099.08,138.24,402.92,-0.480771,-0.480496,0.651985,93.41,1
52529,0,52384,58414,52257.01,58099.71,126.99,314.29,-0.480776,-0.480507,0.651546,93.42,1
52569,0,52354,58361,52257.21,58100.23,96.79,260.77,-0.480779,-0.480516,0.651107,93.43,1
52609,0,52342,58360,52257.38,58100.75,84.62,259.25,-0.480783,-0.480525,0.650667,93.44,1
52648,0,52343,58367,52257.55,58101.29,85.45,265.71,-0.480786,-0.480534,0.650226,93.45,1
52689,0,52349,58369,52257.73,58101.82,91.27,267.18,-0.480789,-0.480544,0.649784,93.46,1
52728,0,52353,58373,52257.93,58102.37,95.07,270.63,-0.480793,-0.480553,0.649342,93.47,1
52768,0,52355,58386,52258.12,58102.94,96.88,283.06,-0.480797,-0.480563,0.648899,93.48,1
52809,0,52364,58392,52258.34,58103.52,105.66,288.48,-0.480801,-0.480573,0.648456,93.49,1
52849,0,52364,58395,52258.55,58104.10,105.45,290.90,-0.480805,-0.480583,0.648011,93.50,1
52888,0,52364,58399,52258.76,58104.69,105.24,294.31,-0.480809,-0.480593,0.647566,93.50,1
52929,0,52370,58418,52258.98,58105.32,111.02,312.68,-0.480813,-0.480604,0.647121,93.51,1
52969,0,52374,58437,52259.21,58105.98,114.79,331.02,-0.480818,-0.480615,0.646673,93.52,1
53008,0,52379,58447,52259.45,58106.67,119.55,340.33,-0.480822,-0.480627,0.646224,93.53,1
53049,0,52386,58464,52259.71,58107.38,126.29,356.62,-0.480827,-0.480639,0.645773,93.54,1
53088,0,52390,58470,52259.97,58108.11,130.03,361.89,-0.480832,-0.480652,0.645321,93.55,1
53128,0,52391,58489,52260.23,58108.87,130.77,380.13,-0.480837,-0.480665,0.644866,93.56,1
53169,0,52398,58496,52260.51,58109.65,137.49,386.35,-0.480843,-0.480678,0.644409,93.57,1
53208,0,52387,58427,52260.76,58110.29,126.24,316.71,-0.480847,-0.480689,0.643952,93.58,1
53248,0,52357,58355,52260.96,58110.78,96.04,244.22,-0.480851,-0.480698,0.643496,93.59,1
53286,0,52338,58336,52261.11,58111.23,76.89,224.77,-0.480854,-0.480705,0.643040,93.60,1
53326,0,52341,58348,52261.27,58111.71,79.73,236.29,-0.480857,-0.480714,0.642584,93.61,1
53368,0,52342,58348,52261.44,58112.18,80.56,235.82,-0.480860,-0.480722,0.642128,93.62,1
53409,0,52340,58357,52261.60,58112.67,78.40,244.33,-0.480863,-0.480730,0.641671,93.63,1
53448,0,52349,58368,52261.77,58113.18,87.23,254.82,-0.480867,-0.480739,0.641214,93.64,1
53488,0,52348,58370,52261.95,58113.70,86.05,256.30,-0.480870,-0.480748,0.640757,93.65,1
53527,0,52346,58379,52262.11,58114.23,83.89,264.77,-0.480873,-0.480757,0.640298,93.66,1
53568,0,52349,58382,52262.29,58114.77,86.71,267.23,-0.480877,-0.480766,0.639839,93.67,1
53608,0,52355,58401,52262.48,58115.34,92.52,285.66,-0.480880,-0.480776,0.639379,93.68,1
53648,0,52357,58419,52262.67,58115.95,94.33,303.05,-0.480884,-0.480787,0.638918,93.69,1
53686,0,52369,58429,52262.88,58116.58,106.12,312.42,-0.480888,-0.480797,0.638455,93.70,1
53729,0,52370,58456,52263.10,58117.26,106.90,338.74,-0.480892,-0.480809,0.637990,93.71,1
53768,0,52378,58460,52263.33,58117.95,114.67,342.05,-0.480896,-0.480821,0.637523,93.72,1
