t_ms,phase,red_raw,ir_raw,red_dc,ir_dc,red_ac,ir_ac,OD_red,OD_ir,R,spo2,spo2_valid
18897,0,47527,56351,47524.72,56362.73,2.28,-11.73,-0.022022,-0.004263,2.020959,59.48,1
18908,0,47496,56349,47524.15,56362.46,-28.15,-13.46,-0.02201,-0.004258,2.02101,59.47,1
18917,0,47485,56338,47523.37,56361.97,-38.37,-23.97,-0.021994,-0.00425,2.020998,59.48,1
18928,0,47466,56330,47522.22,56361.33,-56.22,-31.34,-0.021969,-0.004238,2.021067,59.47,1
18937,0,47454,56317,47520.85,56360.45,-66.86,-43.45,-0.021941,-0.004223,2.020951,59.48,1
18948,0,47429,56324,47519.01,56359.72,-90.02,-35.72,-0.021902,-0.00421,2.021625,59.46,1
18958,0,47410,56305,47516.83,56358.63,-106.84,-53.63,-0.021856,-0.00419,2.022115,59.45,1
18968,0,47378,56298,47514.06,56357.42,-136.06,-59.42,-0.021798,-0.004169,2.023376,59.42,1
18977,0,47365,56280,47511.08,56355.87,-146.08,-75.87,-0.021735,-0.004141,2.024111,59.4,1
18987,0,47354,56279,47507.94,56354.33,-153.94,-75.33,-0.021669,-0.004114,2.025237,59.37,1
18998,0,47346,56272,47504.7,56352.69,-158.7,-80.69,-0.021601,-0.004085,2.026227,59.34,1
19007,0,47338,56266,47501.37,56350.96,-163.37,-84.96,-0.021531,-0.004054,2.02714,59.32,1
19018,0,47334,56268,47498.02,56349.3,-164.02,-81.3,-0.02146,-0.004025,2.028355,59.29,1
19027,0,47331,56260,47494.68,56347.51,-163.68,-87.51,-0.02139,-0.003993,2.029093,59.27,1
19037,0,47321,56258,47491.21,56345.72,-170.21,-87.72,-0.021317,-0.003961,2.030152,59.25,1
19048,0,47297,56254,47487.33,56343.89,-190.33,-89.89,-0.021235,-0.003929,2.032157,59.2,1
19057,0,47279,56244,47483.16,56341.89,-204.16,-97.89,-0.021147,-0.003893,2.034331,59.14,1
19067,0,47266,56246,47478.82,56339.98,-212.82,-93.98,-0.021056,-0.003859,2.037409,59.06,1
19078,0,47242,56231,47474.08,56337.8,-232.08,-106.8,-0.020956,-0.003821,2.040643,58.98,1
19088,0,47248,56235,47469.56,56335.75,-221.56,-100.75,-0.020861,-0.003784,2.043707,58.91,1
19097,0,47240,56226,47464.97,56333.55,-224.97,-107.55,-0.020764,-0.003745,2.04635,58.84,1
19107,0,47229,56226,47460.25,56331.4,-231.25,-105.4,-0.020665,-0.003707,2.049655,58.76,1
19118,0,47216,56227,47455.37,56329.31,-239.37,-102.31,-0.020562,-0.00367,2.053858,58.65,1
19127,0,47214,56207,47450.55,56326.87,-236.55,-119.87,-0.02046,-0.003627,2.056,58.6,1
19138,0,47191,56202,47445.35,56324.37,-254.36,-122.37,-0.020351,-0.003582,2.059231,58.52,1
19147,0,47174,56187,47439.93,56321.62,-265.93,-134.62,-0.020236,-0.003533,2.061903,58.45,1
19156,0,47149,56177,47434.11,56318.73,-285.11,-141.73,-0.020114,-0.003482,2.065291,58.37,1
19168,0,47130,56174,47428.03,56315.83,-298.04,-141.84,-0.019985,-0.003431,2.069823,58.25,1
19177,0,47124,56164,47421.96,56312.8,-297.96,-148.8,-0.019857,-0.003377,2.073334,58.17,1
19187,0,47113,56166,47415.78,56309.87,-302.78,-143.87,-0.019727,-0.003325,2.077952,58.05,1
19197,0,47104,56163,47409.54,56306.93,-305.54,-143.93,-0.019595,-0.003273,2.082777,57.93,1
19207,0,47107,56148,47403.49,56303.76,-296.49,-155.76,-0.019468,-0.003216,2.08499,57.88,1
19218,0,47100,56153,47397.42,56300.74,-297.42,-147.74,-0.01934,-0.003163,2.088433,57.79,1
19227,0,47090,56154,47391.27,56297.8,-301.27,-143.8,-0.01921,-0.00311,2.092753,57.68,1
19237,0,47100,56137,47385.45,56294.59,-285.45,-157.59,-0.019087,-0.003053,2.093571,57.66,1
19248,0,47094,56153,47379.62,56291.76,-285.62,-138.76,-0.018964,-0.003003,2.09709,57.57,1
19257,0,47100,56149,47374.03,56288.9,-274.03,-139.9,-0.018846,-0.002952,2.099413,57.51,1
19267,0,47102,56148,47368.59,56286.08,-266.59,-138.09,-0.018731,-0.002902,2.101333,57.47,1
19277,0,47096,56133,47363.14,56283.03,-267.14,-150.03,-0.018616,-0.002848,2.101611,57.46,1
19288,0,47094,56136,47357.76,56280.08,-263.76,-144.09,-0.018503,-0.002796,2.102456,57.44,1
19298,0,47090,56141,47352.41,56277.3,-262.41,-136.3,-0.01839,-0.002746,2.104245,57.39,1
19307,0,47083,56138,47347.02,56274.52,-264.02,-136.52,-0.018276,-0.002697,2.106127,57.35,1
19317,0,47091,56129,47341.9,56271.61,-250.9,-142.61,-0.018168,-0.002645,2.106105,57.35,1
19328,0,47078,56136,47336.62,56268.9,-258.62,-132.9,-0.018056,-0.002597,2.108011,57.3,1
19338,0,47075,56132,47331.39,56266.16,-256.39,-134.16,-0.017946,-0.002548,2.109557,57.26,1
19347,0,47065,56131,47326.07,56263.46,-261.07,-132.46,-0.017833,-0.0025,2.111698,57.21,1
19357,0,47066,56136,47320.87,56260.91,-254.87,-124.91,-0.017723,-0.002455,2.114282,57.14,1
19367,0,47070,56134,47315.85,56258.37,-245.85,-124.37,-0.017617,-0.00241,2.116207,57.09,1
19377,0,47073,56136,47310.99,56255.92,-237.99,-119.93,-0.017515,-0.002366,2.118064,57.05,1
19388,0,47067,56126,47306.11,56253.33,-239.11,-127.33,-0.017412,-0.00232,2.119083,57.02,1
19397,0,47051,56115,47301.01,56250.56,-250.01,-135.56,-0.017304,-0.002271,2.119857,57,1
19407,0,47042,56111,47295.83,56247.77,-253.83,-136.77,-0.017194,-0.002221,2.120767,56.98,1
19418,0,47035,56099,47290.62,56244.8,-255.62,-145.8,-0.017084,-0.002168,2.120535,56.99,1
19427,0,47021,56094,47285.23,56241.78,-264.23,-147.78,-0.01697,-0.002115,2.120724,56.98,1
19438,0,47021,56100,47279.94,56238.94,-258.95,-138.95,-0.016858,-0.002064,2.121746,56.96,1
19447,0,47015,56096,47274.65,56236.08,-259.65,-140.09,-0.016746,-0.002014,2.122658,56.93,1
19457,0,47014,56091,47269.44,56233.19,-255.44,-142.19,-0.016636,-0.001962,2.12292,56.93,1
19468,0,47010,56093,47264.25,56230.38,-254.25,-137.38,-0.016526,-0.001912,2.123761,56.91,1
19477,0,47006,56086,47259.08,56227.5,-253.09,-141.5,-0.016417,-0.001861,2.123923,56.9,1
19486,0,47005,56089,47254.01,56224.73,-249.01,-135.73,-0.01631,-0.001812,2.124567,56.89,1
19497,0,46999,56091,47248.91,56222.05,-249.91,-131.05,-0.016202,-0.001764,2.125909,56.85,1
19507,0,46997,56088,47243.87,56219.37,-246.88,-131.38,-0.016095,-0.001716,2.12696,56.83,1
19518,0,46994,56091,47238.88,56216.81,-244.88,-125.81,-0.015989,-0.001671,2.128576,56.79,1
19527,0,46989,56085,47233.88,56214.17,-244.88,-129.17,-0.015883,-0.001624,2.129746,56.76,1
19536,0,46993,56080,47229.07,56211.49,-236.07,-131.49,-0.015782,-0.001576,2.129918,56.75,1
19548,0,46985,56086,47224.18,56208.98,-239.18,-122.98,-0.015678,-0.001532,2.13144,56.71,1
19557,0,46984,56083,47219.38,56206.46,-235.38,-123.46,-0.015576,-0.001487,2.132602,56.68,1
19567,0,46974,56084,47214.47,56204.01,-240.47,-120.01,-0.015472,-0.001443,2.134586,56.64,1
19577,0,46967,56083,47209.52,56201.59,-242.52,-118.59,-0.015368,-0.0014,2.136897,56.58,1
19587,0,46969,56079,47204.71,56199.14,-235.71,-120.14,-0.015266,-0.001356,2.138477,56.54,1
19598,0,46969,56078,47200,56196.72,-231,-118.72,-0.015166,-0.001313,2.139868,56.5,1
19607,0,46958,56076,47195.16,56194.3,-237.16,-118.3,-0.015063,-0.00127,2.141777,56.46,1
19617,0,46962,56063,47190.49,56191.68,-228.49,-128.68,-0.014964,-0.001224,2.141668,56.46,1
19628,0,46944,56064,47185.56,56189.13,-241.56,-125.13,-0.01486,-0.001178,2.143043,56.42,1
19637,0,46948,56061,47180.81,56186.57,-232.81,-125.57,-0.014759,-0.001133,2.14367,56.41,1
19647,0,46943,56056,47176.05,56183.96,-233.05,-127.96,-0.014658,-0.001086,2.143992,56.4,1
19657,0,46948,56058,47171.5,56181.44,-223.5,-123.44,-0.014562,-0.001041,2.144196,56.4,1
19666,0,46944,56052,47166.94,56178.85,-222.95,-126.85,-0.014465,-0.000995,2.143904,56.4,1
19678,0,46947,56061,47162.55,56176.49,-215.55,-115.49,-0.014372,-0.000953,2.144546,56.39,1
19687,0,46942,56050,47158.14,56173.96,-216.14,-123.96,-0.014279,-0.000908,2.144141,56.4,1
19697,0,46930,56046,47153.58,56171.41,-223.58,-125.41,-0.014182,-0.000863,2.144091,56.4,1
19707,0,46931,56051,47149.13,56169,-218.13,-118,-0.014088,-0.00082,2.14461,56.38,1
19717,0,46926,56053,47144.67,56166.68,-218.67,-113.68,-0.013993,-0.000779,2.145709,56.36,1
19727,0,46921,56050,47140.2,56164.35,-219.2,-114.35,-0.013898,-0.000737,2.146761,56.33,1
19737,0,46921,56050,47135.82,56162.06,-214.82,-112.06,-0.013805,-0.000696,2.147771,56.31,1
19747,0,46935,56046,47131.8,56159.74,-196.8,-113.74,-0.01372,-0.000655,2.147311,56.32,1
19758,0,46935,56058,47127.86,56157.71,-192.86,-99.71,-0.013636,-0.000619,2.14824,56.29,1
19767,0,46939,56049,47124.09,56155.53,-185.09,-106.54,-0.013556,-0.00058,2.147884,56.3,1
19777,0,46941,56052,47120.43,56153.46,-179.43,-101.46,-0.013479,-0.000543,2.147759,56.31,1
19787,0,46945,56059,47116.92,56151.58,-171.92,-92.58,-0.013404,-0.00051,2.14814,56.3,1
19796,0,46946,56057,47113.51,56149.69,-167.51,-92.69,-0.013332,-0.000476,2.148249,56.29,1
19808,0,46946,56067,47110.16,56148.03,-164.16,-81.04,-0.013261,-0.000447,2.149309,56.27,1
19817,0,46949,56067,47106.94,56146.41,-157.94,-79.41,-0.013192,-0.000418,2.150165,56.25,1
19826,0,46952,56074,47103.84,56144.97,-151.84,-70.97,-0.013127,-0.000392,2.151419,56.21,1
19837,0,46945,56074,47100.66,56143.55,-155.66,-69.55,-0.013059,-0.000367,2.153005,56.17,1
19847,0,46939,56067,47097.43,56142.02,-158.43,-75.02,-0.01299,-0.000339,2.154291,56.14,1
19858,0,46933,56063,47094.14,56140.44,-161.14,-77.44,-0.012921,-0.000311,2.155521,56.11,1
19867,0,46915,56056,47090.56,56138.75,-175.56,-82.75,-0.012845,-0.000281,2.157136,56.07,1
19876,0,46906,56051,47086.87,56137,-180.88,-86,-0.012766,-0.00025,2.158774,56.03,1
19888,0,46892,56041,47082.98,56135.08,-190.98,-94.08,-0.012684,-0.000216,2.160231,55.99,1
19897,0,46880,56031,47078.92,56133,-198.92,-102,-0.012597,-0.000179,2.161323,55.97,1
19907,0,46869,56028,47074.72,56130.9,-205.72,-102.9,-0.012508,-0.000141,2.162811,55.93,1
19917,0,46858,56019,47070.39,56128.66,-212.39,-109.66,-0.012416,-0.000102,2.16394,55.9,1
19928,0,46852,56018,47066.02,56126.45,-214.02,-108.45,-0.012323,-0.000062,2.165356,55.87,1
19937,0,46846,56000,47061.62,56123.92,-215.62,-123.93,-0.01223,-0.000017,2.164698,55.88,1
19947,0,46833,55991,47057.05,56121.27,-224.05,-130.27,-0.012133,0.00003,2.163752,55.91,1
19957,0,46824,55990,47052.39,56118.64,-228.39,-128.64,-0.012034,0.000077,2.163438,55.91,1
19966,0,46809,55981,47047.52,56115.89,-238.52,-134.89,-0.01193,0.000126,2.163006,55.92,1
19977,0,46796,55960,47042.5,56112.78,-246.5,-152.78,-0.011823,0.000182,2.160171,56,1
19987,0,46774,55958,47037.13,56109.68,-263.13,-151.68,-0.011709,0.000237,2.159154,56.02,1
19997,0,46774,55946,47031.87,56106.41,-257.87,-160.41,-0.011597,0.000295,2.156007,56.1,1
20007,0,46764,55956,47026.51,56103.41,-262.51,-147.41,-0.011484,0.000349,2.15576,56.11,1
20017,0,46754,55938,47021.06,56100.1,-267.06,-162.1,-0.011368,0.000407,2.153243,56.17,1
20027,0,46747,55930,47015.58,56096.7,-268.58,-166.7,-0.011251,0.000468,2.150025,56.25,1
20037,0,46741,55921,47010.08,56093.19,-269.09,-172.19,-0.011134,0.000531,2.145827,56.35,1
20047,0,46741,55921,47004.71,56089.74,-263.71,-168.74,-0.01102,0.000592,2.141879,56.45,1
20057,0,46731,55919,46999.23,56086.33,-268.23,-167.33,-0.010903,0.000653,2.138719,56.53,1
20067,0,46706,55905,46993.37,56082.7,-287.37,-177.7,-0.010779,0.000718,2.135482,56.61,1
20077,0,46686,55897,46987.22,56078.99,-301.22,-181.99,-0.010648,0.000784,2.132902,56.68,1
20086,0,46675,55896,46980.98,56075.33,-305.98,-179.34,-0.010515,0.000849,2.131443,56.71,1
20098,0,46655,55876,46974.46,56071.35,-319.46,-195.35,-0.010376,0.00092,2.128152,56.8,1
20107,0,46642,55870,46967.82,56067.32,-325.82,-197.32,-0.010235,0.000992,2.125248,56.87,1
20117,0,46634,55872,46961.14,56063.42,-327.14,-191.42,-0.010092,0.001062,2.123833,56.9,1
20127,0,46624,55858,46954.4,56059.32,-330.4,-201.32,-0.009949,0.001135,2.120728,56.98,1
20136,0,46620,55846,46947.71,56055.05,-327.71,-209.05,-0.009806,0.001211,2.115724,57.11,1
20148,0,46613,55855,46941.02,56051.05,-328.02,-196.05,-0.009664,0.001282,2.113682,57.16,1
20157,0,46604,55852,46934.28,56047.07,-330.28,-195.07,-0.00952,0.001353,2.112149,57.2,1
20166,0,46605,55844,46927.69,56043.01,-322.7,-199.01,-0.00938,0.001426,2.109035,57.27,1
20177,0,46600,55842,46921.14,56038.99,-321.14,-196.99,-0.00924,0.001497,2.106251,57.34,1
20187,0,46594,55833,46914.6,56034.87,-320.6,-201.88,-0.009101,0.001571,2.102502,57.44,1
20197,0,46574,55825,46907.78,56030.68,-333.79,-205.68,-0.008956,0.001646,2.099485,57.51,1
20207,0,46567,55813,46900.97,56026.33,-333.97,-213.33,-0.00881,0.001723,2.094997,57.63,1
20216,0,46542,55809,46893.79,56021.98,-351.79,-212.98,-0.008657,0.001801,2.092667,57.68,1
20228,0,46537,55785,46886.65,56017.24,-349.65,-232.24,-0.008505,0.001886,2.086068,57.85,1
20237,0,46519,55766,46879.3,56012.22,-360.3,-246.22,-0.008348,0.001975,2.077751,58.06,1
20247,0,46494,55759,46871.59,56007.16,-377.59,-248.16,-0.008184,0.002066,2.071286,58.22,1
20257,0,46485,55742,46863.86,56001.85,-378.86,-259.86,-0.008019,0.00216,2.062571,58.44,1
20267,0,46471,55720,46856.01,55996.22,-385.01,-276.22,-0.007851,0.002261,2.051113,58.72,1
20277,0,46437,55707,46847.62,55990.44,-410.63,-283.44,-0.007672,0.002364,2.041472,58.96,1
20287,0,46405,55680,46838.77,55984.23,-433.77,-304.23,-0.007483,0.002475,2.030102,59.25,1
20297,0,46363,55666,46829.26,55977.87,-466.26,-311.87,-0.00728,0.002589,2.021596,59.46,1
20306,0,46316,55643,46819,55971.17,-503,-328.17,-0.007061,0.002708,2.014436,59.64,1
20317,0,46276,55617,46808.14,55964.09,-532.14,-347.09,-0.006829,0.002835,2.00701,59.82,1
20327,0,46246,55601,46796.9,55956.83,-550.9,-355.83,-0.006589,0.002965,2.000536,59.99,1
20336,0,46214,55575,46785.24,55949.19,-571.24,-374.19,-0.00634,0.003101,1.992801,60.18,1
20347,0,46207,55577,46773.68,55941.75,-566.68,-364.75,-0.006093,0.003234,1.987345,60.32,1
20357,0,46192,55563,46762.05,55934.17,-570.05,-371.18,-0.005844,0.00337,1.98125,60.47,1
20366,0,46166,55547,46750.13,55926.43,-584.13,-379.43,-0.005589,0.003508,1.975541,60.61,1
20377,0,46152,55538,46738.17,55918.67,-586.17,-380.67,-0.005333,0.003647,1.970246,60.74,1
20386,0,46116,55516,46725.73,55910.62,-609.73,-394.62,-0.005067,0.003791,1.965247,60.87,1
20397,0,46100,55502,46713.21,55902.44,-613.21,-400.45,-0.004799,0.003937,1.959811,61,1
20407,0,46078,55490,46700.51,55894.2,-622.51,-404.2,-0.004527,0.004084,1.955128,61.12,1
20416,0,46050,55469,46687.5,55885.69,-637.5,-416.7,-0.004249,0.004237,1.950016,61.25,1
20427,0,46034,55462,46674.43,55877.22,-640.43,-415.22,-0.003969,0.004388,1.94594,61.35,1
20436,0,46018,55452,46661.3,55868.72,-643.3,-416.72,-0.003687,0.00454,1.94221,61.44,1
20446,0,45987,55437,46647.82,55860.08,-660.82,-423.08,-0.003398,0.004695,1.939524,61.51,1
20457,0,45958,55405,46634.02,55850.98,-676.02,-445.98,-0.003102,0.004858,1.9344,61.64,1
20466,0,45921,55389,46619.76,55841.75,-698.76,-452.75,-0.002797,0.005023,1.930936,61.73,1
20477,0,45882,55371,46605.01,55832.33,-723.01,-461.34,-0.00248,0.005192,1.928863,61.78,1
20487,0,45855,55353,46590.01,55822.75,-735.01,-469.75,-0.002158,0.005364,1.926764,61.83,1
20496,0,45838,55334,46574.97,55812.98,-736.97,-478.98,-0.001835,0.005539,1.923409,61.91,1
20507,0,45825,55321,46559.97,55803.14,-734.97,-482.14,-0.001513,0.005715,1.919565,62.01,1
20516,0,45816,55300,46545.09,55793.08,-729.09,-493.08,-0.001194,0.005895,1.913566,62.16,1
20528,0,45797,55305,46530.13,55783.32,-733.13,-478.32,-0.000872,0.00607,1.910832,62.23,1
20537,0,45781,55280,46515.15,55773.26,-734.15,-493.26,-0.00055,0.006251,1.906025,62.35,1
20546,0,45764,55266,46500.13,55763.11,-736.13,-497.11,-0.000227,0.006432,1.901144,62.47,1
20557,0,45733,55252,46484.79,55752.89,-751.79,-500.89,0.000103,0.006616,1.89746,62.56,1
20567,0,45716,55233,46469.42,55742.49,-753.42,-509.49,0.000434,0.006802,1.8929,62.68,1
20577,0,45698,55234,46453.99,55732.32,-755.99,-498.32,0.000766,0.006985,1.890495,62.74,1
20587,0,45680,55225,46438.51,55722.18,-758.52,-497.18,0.001099,0.007167,1.888631,62.78,1
20596,0,45674,55221,46423.23,55712.16,-749.23,-491.16,0.001428,0.007347,1.88693,62.83,1
20606,0,45667,55213,46408.1,55702.17,-741.1,-489.18,0.001754,0.007526,1.884946,62.88,1
20617,0,45664,55213,46393.22,55692.39,-729.22,-479.39,0.002075,0.007701,1.883386,62.92,1
20627,0,45660,55216,46378.56,55682.87,-718.56,-466.87,0.002391,0.007873,1.882623,62.93,1
20637,0,45653,55211,46364.05,55673.43,-711.05,-462.43,0.002704,0.008042,1.881874,62.95,1
20646,0,45660,55210,46349.96,55664.16,-689.96,-454.16,0.003007,0.008209,1.880617,62.98,1
20657,0,45658,55205,46336.12,55654.98,-678.13,-449.98,0.003306,0.008374,1.879076,63.02,1
20667,0,45653,55205,46322.46,55645.98,-669.46,-440.98,0.003601,0.008535,1.877987,63.05,1
20677,0,45675,55217,46309.51,55637.41,-634.51,-420.41,0.003881,0.008689,1.876823,63.08,1
20686,0,45687,55217,46297.06,55629,-610.06,-412,0.004149,0.00884,1.875059,63.12,1
20697,0,45700,55222,46285.12,55620.86,-585.12,-398.86,0.004407,0.008987,1.873159,63.17,1
20707,0,45720,55226,46273.82,55612.96,-553.82,-386.96,0.004652,0.009129,1.870695,63.23,1
20716,0,45733,55238,46263,55605.47,-530,-367.47,0.004885,0.009264,1.868739,63.28,1
20726,0,45758,55258,46252.9,55598.52,-494.9,-340.52,0.005104,0.009389,1.867281,63.32,1
20737,0,45786,55257,46243.56,55591.69,-457.56,-334.69,0.005306,0.009511,1.864623,63.38,1
20746,0,45799,55264,46234.67,55585.14,-435.67,-321.14,0.005498,0.009629,1.862078,63.45,1
20757,0,45811,55282,46226.2,55579.08,-415.2,-297.08,0.005681,0.009738,1.860406,63.49,1
20766,0,45824,55286,46218.16,55573.21,-394.16,-287.21,0.005855,0.009844,1.858589,63.54,1
20776,0,45842,55291,46210.63,55567.57,-368.63,-276.57,0.006018,0.009945,1.856537,63.59,1
20787,0,45865,55300,46203.72,55562.22,-338.72,-262.22,0.006168,0.010042,1.854357,63.64,1
20796,0,45895,55308,46197.55,55557.14,-302.55,-249.14,0.006301,0.010133,1.851827,63.7,1
20807,0,45918,55334,46191.96,55552.67,-273.96,-218.68,0.006422,0.010213,1.850109,63.75,1
20816,0,45943,55350,46186.98,55548.62,-243.98,-198.63,0.00653,0.010286,1.84858,63.79,1
20827,0,45968,55348,46182.6,55544.61,-214.6,-196.61,0.006625,0.010359,1.846476,63.84,1
20837,0,45987,55369,46178.68,55541.1,-191.68,-172.1,0.00671,0.010422,1.844937,63.88,1
20846,0,46006,55372,46175.23,55537.72,-169.23,-165.72,0.006784,0.010483,1.843232,63.92,1
20856,0,46028,55386,46172.28,55534.69,-144.29,-148.69,0.006848,0.010537,1.84174,63.96,1
20867,0,46044,55391,46169.72,55531.82,-125.72,-140.82,0.006904,0.010589,1.840246,63.99,1
20876,0,46056,55396,46167.44,55529.1,-111.45,-133.1,0.006953,0.010638,1.838813,64.03,1
20887,0,46088,55415,46165.86,55526.82,-77.86,-111.82,0.006987,0.010679,1.837647,64.06,1
20896,0,46102,55425,46164.58,55524.78,-62.58,-99.79,0.007015,0.010716,1.83666,64.08,1
20905,0,46119,55452,46163.67,55523.33,-44.67,-71.33,0.007035,0.010742,1.836147,64.1,1
20917,0,46133,55456,46163.06,55521.98,-30.06,-65.98,0.007048,0.010766,1.835653,64.11,1
20926,0,46143,55466,46162.66,55520.87,-19.66,-54.87,0.007057,0.010786,1.835289,64.12,1
20936,0,46161,55465,46162.62,55519.75,-1.62,-54.75,0.007058,0.010806,1.834889,64.13,1
20945,0,46173,55485,46162.83,55519.05,10.17,-34.05,0.007053,0.010819,1.83472,64.13,1
20957,0,46178,55479,46163.14,55518.25,14.86,-39.25,0.007046,0.010833,1.834503,64.14,1
20966,0,46195,55491,46163.77,55517.71,31.23,-26.71,0.007033,0.010843,1.834423,64.14,1
20976,0,46186,55490,46164.22,55517.16,21.78,-27.16,0.007023,0.010853,1.834319,64.14,1
20986,0,46192,55496,46164.77,55516.73,27.23,-20.73,0.007011,0.010861,1.834269,64.14,1
20997,0,46202,55503,46165.52,55516.46,36.48,-13.46,0.006995,0.010865,1.83428,64.14,1
21006,0,46210,55514,46166.41,55516.41,43.59,-2.41,0.006975,0.010866,1.834349,64.14,1
21017,0,46217,55524,46167.42,55516.57,49.58,7.43,0.006954,0.010864,1.834446,64.14,1
21026,0,46231,55526,46168.69,55516.75,62.3,9.25,0.006926,0.01086,1.834612,64.13,1
21037,0,46249,55538,46170.3,55517.18,78.7,20.82,0.006891,0.010853,1.834862,64.13,1
21046,0,46257,55539,46172.04,55517.62,84.96,21.38,0.006854,0.010845,1.835166,64.12,1
21057,0,46266,55551,46173.92,55518.28,92.08,32.71,0.006813,0.010833,1.835466,64.11,1
21066,0,46279,55554,46176.02,55519,102.98,35,0.006767,0.01082,1.835867,64.1,1
21076,0,46290,55565,46178.3,55519.92,111.7,45.08,0.006718,0.010803,1.836271,64.09,1
21086,0,46297,55563,46180.67,55520.78,116.32,42.21,0.006667,0.010788,1.836773,64.08,1
21097,0,46315,55584,46183.36,55522.05,131.64,61.95,0.006608,0.010765,1.83722,64.07,1
21106,0,46326,55579,46186.21,55523.19,139.79,55.81,0.006547,0.010744,1.8379,64.05,1
21115,0,46331,55595,46189.11,55524.62,141.89,70.37,0.006484,0.010718,1.838365,64.04,1
21127,0,46334,55580,46192.01,55525.73,141.99,54.27,0.006421,0.010698,1.83912,64.02,1
21136,0,46329,55586,46194.75,55526.94,134.25,59.06,0.006362,0.010677,1.839676,64.01,1
21146,0,46332,55583,46197.5,55528.06,134.5,54.94,0.006302,0.010657,1.840309,63.99,1
21156,0,46334,55583,46200.23,55529.16,133.77,53.84,0.006243,0.010637,1.840954,63.98,1
21167,0,46331,55594,46202.84,55530.46,128.16,63.54,0.006187,0.010613,1.841345,63.97,1
21176,0,46343,55594,46205.65,55531.73,137.35,62.27,0.006126,0.010591,1.841917,63.95,1
21187,0,46354,55602,46208.61,55533.14,145.39,68.86,0.006062,0.010565,1.842509,63.94,1
21196,0,46359,55607,46211.62,55534.62,147.38,72.38,0.005997,0.010539,1.843068,63.92,1
21206,0,46360,55615,46214.59,55536.23,145.41,78.77,0.005932,0.01051,1.843445,63.91,1
21217,0,46367,55613,46217.64,55537.76,149.36,75.23,0.005866,0.010482,1.843986,63.9,1
21226,0,46363,55611,46220.55,55539.23,142.45,71.77,0.005803,0.010455,1.844479,63.89,1
21236,0,46362,55610,46223.38,55540.64,138.62,69.36,0.005742,0.01043,1.844959,63.88,1
21246,0,46360,55604,46226.11,55541.91,133.89,62.09,0.005683,0.010407,1.84551,63.86,1
21257,0,46367,55624,46228.93,55543.55,138.07,80.45,0.005622,0.010378,1.84572,63.86,1
21266,0,46369,55626,46231.73,55545.2,137.27,80.8,0.005562,0.010348,1.845908,63.85,1
21275,0,46379,55648,46234.68,55547.26,144.32,100.74,0.005498,0.010311,1.845634,63.86,1
21286,0,46390,55651,46237.79,55549.33,152.21,101.66,0.005431,0.010274,1.845491,63.86,1
21296,0,46403,55648,46241.09,55551.31,161.91,96.69,0.005359,0.010238,1.845727,63.86,1
21307,0,46403,55659,46244.33,55553.47,158.67,105.53,0.005289,0.010199,1.845588,63.86,1
21316,0,46400,55647,46247.44,55555.34,152.55,91.66,0.005222,0.010165,1.845781,63.86,1
21326,0,46391,55653,46250.32,55557.3,140.68,95.7,0.00516,0.01013,1.845594,63.86,1
21337,0,46391,55653,46253.13,55559.21,137.87,93.79,0.005099,0.010096,1.845413,63.86,1
21346,0,46382,55652,46255.71,55561.07,126.29,90.93,0.005043,0.010062,1.845101,63.87,1
21356,0,46380,55656,46258.2,55562.97,121.8,93.03,0.004989,0.010028,1.844637,63.88,1
21366,0,46394,55655,46260.91,55564.81,133.09,90.19,0.004931,0.009995,1.844476,63.89,1
21377,0,46399,55645,46263.67,55566.41,135.32,78.59,0.004871,0.009966,1.844711,63.88,1
21386,0,46382,55646,46266.04,55568.01,115.96,77.99,0.00482,0.009937,1.844599,63.89,1
21397,0,46369,55635,46268.1,55569.35,100.9,65.65,0.004775,0.009913,1.844562,63.89,1
21406,0,46349,55635,46269.72,55570.66,79.28,64.34,0.00474,0.00989,1.844262,63.89,1
21416,0,46334,55624,46271.01,55571.73,62.99,52.27,0.004712,0.009871,1.844046,63.9,1
21426,0,46319,55621,46271.97,55572.71,47.03,48.29,0.004692,0.009853,1.843772,63.91,1
21436,0,46324,55617,46273.01,55573.6,50.99,43.4,0.004669,0.009837,1.843608,63.91,1
21446,0,46316,55617,46273.87,55574.46,42.13,42.54,0.004651,0.009821,1.843396,63.92,1
21455,0,46320,55612,46274.79,55575.21,45.21,36.79,0.004631,0.009808,1.843288,63.92,1
21467,0,46315,55616,46275.6,55576.03,39.4,39.97,0.004613,0.009793,1.843095,63.92,1
21476,0,46308,55613,46276.25,55576.77,31.75,36.23,0.004599,0.00978,1.842915,63.93,1
21486,0,46305,55604,46276.82,55577.32,28.18,26.68,0.004587,0.00977,1.842833,63.93,1
21495,0,46293,55599,46277.15,55577.75,15.85,21.25,0.00458,0.009762,1.842764,63.93,1
21507,0,46271,55583,46277.03,55577.85,-6.03,5.14,0.004582,0.00976,1.84277,63.93,1
21516,0,46259,55587,46276.67,55578.04,-17.67,8.96,0.00459,0.009757,1.842801,63.93,1
21526,0,46248,55570,46276.1,55577.88,-28.1,-7.88,0.004602,0.00976,1.842877,63.93,1
21535,0,46239,55573,46275.36,55577.78,-36.36,-4.79,0.004618,0.009761,1.843018,63.92,1
21547,0,46238,55568,46274.61,55577.59,-36.61,-9.59,0.004634,0.009765,1.843145,63.92,1
21556,0,46222,55560,46273.56,55577.24,-51.56,-17.24,0.004657,0.009771,1.843357,63.92,1
21566,0,46210,55546,46272.29,55576.62,-62.29,-30.62,0.004685,0.009783,1.843544,63.91,1
21575,0,46188,55535,46270.61,55575.78,-82.61,-40.79,0.004721,0.009797,1.843859,63.9,1
21586,0,46156,55521,46268.32,55574.69,-112.32,-53.69,0.00477,0.009817,1.84447,63.89,1
21596,0,46139,55506,46265.73,55573.32,-126.73,-67.32,0.004826,0.009842,1.845046,63.87,1
21606,0,46122,55503,46262.86,55571.91,-140.86,-68.91,0.004888,0.009867,1.845955,63.85,1
21616,0,46109,55494,46259.78,55570.35,-150.79,-76.35,0.004955,0.009895,1.846905,63.83,1
21626,0,46097,55492,46256.53,55568.78,-159.53,-76.79,0.005025,0.009923,1.848122,63.8,1
21636,0,46103,55487,46253.46,55567.15,-150.46,-80.15,0.005092,0.009953,1.848931,63.78,1
21647,0,46110,55502,46250.59,55565.84,-140.59,-63.84,0.005154,0.009976,1.850019,63.75,1
21656,0,46115,55499,46247.88,55564.51,-132.88,-65.51,0.005212,0.01,1.850841,63.73,1
21665,0,46108,55490,46245.08,55563.02,-137.09,-73.02,0.005273,0.010027,1.851531,63.71,1
21677,0,46105,55490,46242.28,55561.56,-137.29,-71.56,0.005333,0.010053,1.852283,63.69,1
21686,0,46096,55486,46239.36,55560.05,-143.36,-74.05,0.005397,0.010081,1.853132,63.67,1
21696,0,46092,55487,46236.42,55558.59,-144.42,-71.59,0.00546,0.010107,1.854109,63.65,1
21706,0,46084,55480,46233.37,55557.02,-149.37,-77.02,0.005526,0.010135,1.855044,63.62,1
21716,0,46071,55479,46230.12,55555.46,-159.13,-76.46,0.005596,0.010163,1.856335,63.59,1
21726,0,46069,55477,46226.9,55553.89,-157.9,-76.89,0.005666,0.010192,1.857574,63.56,1
21736,0,46054,55476,46223.44,55552.33,-169.44,-76.33,0.005741,0.01022,1.85926,63.52,1
21746,0,46050,55471,46219.97,55550.7,-169.97,-79.7,0.005816,0.010249,1.860836,63.48,1
21755,0,46037,55463,46216.31,55548.95,-179.31,-85.95,0.005895,0.01028,1.86251,63.44,1
21767,0,46033,55456,46212.65,55547.1,-179.65,-91.1,0.005974,0.010314,1.86396,63.4,1
21776,0,46014,55444,46208.67,55545.03,-194.68,-101.04,0.00606,0.010351,1.865535,63.36,1
21786,0,46006,55452,46204.62,55543.17,-198.63,-91.18,0.006148,0.010384,1.867812,63.3,1
21796,0,45991,55436,46200.35,55541.03,-209.36,-105.03,0.00624,0.010423,1.869849,63.25,1
21806,0,45979,55420,46195.92,55538.61,-216.93,-118.61,0.006336,0.010467,1.871421,63.21,1
21816,0,45958,55396,46191.17,55535.76,-233.17,-139.76,0.006439,0.010518,1.872317,63.19,1
21826,0,45934,55389,46186.02,55532.82,-252.02,-143.82,0.006551,0.010571,1.873949,63.15,1
21836,0,45915,55378,46180.6,55529.73,-265.61,-151.73,0.006668,0.010627,1.875735,63.11,1
21846,0,45894,55369,46174.87,55526.51,-280.88,-157.51,0.006792,0.010685,1.877979,63.05,1
21856,0,45881,55363,46169,55523.25,-288,-160.25,0.006919,0.010743,1.880436,62.99,1
21866,0,45869,55359,46163,55519.96,-294,-160.96,0.007049,0.010802,1.883218,62.92,1
21876,0,45863,55356,46157,55516.68,-294,-160.68,0.007179,0.010862,1.886008,62.85,1
21886,0,45852,55346,46150.9,55513.27,-298.9,-167.27,0.007311,0.010923,1.888502,62.79,1
21896,0,45852,55345,46144.92,55509.91,-292.93,-164.91,0.007441,0.010984,1.89079,62.73,1
21906,0,45842,55341,46138.87,55506.53,-296.87,-165.53,0.007572,0.011044,1.893275,62.67,1
21916,0,45851,55350,46133.11,55503.4,-282.11,-153.4,0.007697,0.011101,1.895859,62.6,1
21925,0,45865,55350,46127.75,55500.33,-262.75,-150.34,0.007813,0.011156,1.897466,62.56,1
21937,0,45867,55360,46122.53,55497.53,-255.54,-137.53,0.007926,0.011207,1.8997,62.51,1
21946,0,45873,55357,46117.55,55494.72,-244.55,-137.72,0.008034,0.011257,1.901266,62.47,1
21955,0,45863,55348,46112.46,55491.79,-249.46,-143.79,0.008145,0.01131,1.902613,62.43,1
21966,0,45861,55355,46107.42,55489.05,-246.43,-134.05,0.008254,0.011359,1.904577,62.39,1
21976,0,45847,55355,46102.22,55486.37,-255.22,-131.38,0.008367,0.011408,1.907275,62.32,1
21986,0,45841,55342,46097,55483.49,-256,-141.49,0.00848,0.01146,1.909189,62.27,1
21996,0,45833,55342,46091.72,55480.66,-258.72,-138.66,0.008595,0.011511,1.911504,62.21,1
22005,0,45823,55341,46086.35,55477.87,-263.35,-136.87,0.008711,0.011561,1.914251,62.14,1
22017,0,45824,55341,46081.1,55475.13,-257.1,-134.13,0.008825,0.01161,1.916825,62.08,1
22026,0,45815,55336,46075.78,55472.35,-260.78,-136.35,0.008941,0.01166,1.919439,62.01,1
22036,0,45803,55324,46070.32,55469.39,-267.32,-145.39,0.009059,0.011714,1.921683,61.96,1
22046,0,45793,55319,46064.78,55466.38,-271.78,-147.38,0.009179,0.011768,1.924029,61.9,1
22055,0,45789,55320,46059.26,55463.45,-270.27,-143.45,0.009299,0.011821,1.926619,61.83,1
22066,0,45783,55318,46053.74,55460.54,-270.74,-142.54,0.009419,0.011873,1.92931,61.77,1
22076,0,45784,55308,46048.35,55457.49,-264.35,-149.49,0.009536,0.011928,1.93094,61.73,1
22086,0,45791,55320,46043.2,55454.74,-252.2,-134.74,0.009648,0.011978,1.933108,61.67,1
22096,0,45808,55317,46038.5,55451.98,-230.5,-134.98,0.00975,0.012028,1.933961,61.65,1
22106,0,45817,55319,46034.07,55449.32,-217.07,-130.32,0.009846,0.012076,1.93446,61.64,1
22116,0,45826,55318,46029.91,55446.7,-203.91,-128.7,0.009937,0.012123,1.934404,61.64,1
22126,0,45835,55331,46026.01,55444.39,-191.01,-113.39,0.010021,0.012165,1.934897,61.63,1
22135,0,45835,55330,46022.19,55442.1,-187.19,-112.1,0.010104,0.012206,1.935302,61.62,1
22146,0,45830,55336,46018.35,55439.98,-188.35,-103.98,0.010188,0.012244,1.936333,61.59,1
22156,0,45836,55331,46014.7,55437.8,-178.7,-106.8,0.010267,0.012283,1.93672,61.58,1
22166,0,45842,55327,46011.25,55435.59,-169.25,-108.59,0.010342,0.012323,1.936558,61.59,1
22176,0,45855,55340,46008.13,55433.68,-153.13,-93.68,0.01041,0.012358,1.936721,61.58,1
22185,0,45862,55341,46005.21,55431.83,-143.21,-90.83,0.010473,0.012391,1.936676,61.58,1
22196,0,45879,55347,46002.68,55430.13,-123.68,-83.13,0.010528,0.012422,1.936393,61.59,1
22206,0,45882,55345,46000.27,55428.43,-118.27,-83.43,0.010581,0.012452,1.935917,61.6,1
22215,0,45883,55351,45997.92,55426.88,-114.93,-75.88,0.010632,0.01248,1.935744,61.61,1
22226,0,45895,55351,45995.87,55425.37,-100.87,-74.37,0.010676,0.012508,1.935237,61.62,1
22236,0,45895,55352,45993.85,55423.9,-98.85,-71.9,0.01072,0.012534,1.934796,61.63,1
22246,0,45884,55358,45991.65,55422.58,-107.65,-64.58,0.010768,0.012558,1.934955,61.63,1
22256,0,45886,55350,45989.54,55421.13,-103.54,-71.13,0.010814,0.012584,1.934677,61.63,1
22265,0,45881,55352,45987.37,55419.75,-106.37,-67.75,0.010861,0.012609,1.93465,61.63,1
22276,0,45884,55354,45985.3,55418.43,-101.3,-64.43,0.010906,0.012633,1.934631,61.63,1
22286,0,45889,55347,45983.38,55417.01,-94.38,-70.01,0.010948,0.012659,1.934144,61.65,1
22296,0,45896,55367,45981.63,55416.01,-85.63,-49.01,0.010986,0.012677,1.934344,61.64,1
22305,0,45904,55376,45980.08,55415.21,-76.08,-39.21,0.01102,0.012691,1.93464,61.63,1
22317,0,45916,55385,45978.8,55414.6,-62.8,-29.6,0.011048,0.012702,1.934914,61.63,1
22326,0,45925,55392,45977.72,55414.15,-52.72,-22.15,0.011071,0.01271,1.935162,61.62,1
22336,0,45944,55401,45977.05,55413.89,-33.05,-12.89,0.011086,0.012715,1.935278,61.62,1
22346,0,45946,55408,45976.43,55413.77,-30.43,-5.77,0.011099,0.012717,1.935424,61.61,1
22355,0,45951,55410,45975.92,55413.7,-24.92,-3.7,0.01111,0.012718,1.93553,61.61,1
22366,0,45964,55415,45975.69,55413.73,-11.69,1.27,0.011115,0.012718,1.935561,61.61,1
22375,0,45970,55424,45975.57,55413.93,-5.57,10.07,0.011118,0.012714,1.935538,61.61,1
22386,0,45984,55432,45975.74,55414.3,8.26,17.7,0.011114,0.012707,1.93543,61.61,1
22395,0,45990,55436,45976.03,55414.73,13.97,21.27,0.011108,0.0127,1.935283,61.62,1
22406,0,46001,55441,45976.53,55415.26,24.47,25.74,0.011097,0.01269,1.935106,61.62,1
22415,0,46007,55442,45977.14,55415.79,29.86,26.21,0.011084,0.01268,1.934961,61.63,1
22426,0,46000,55446,45977.59,55416.4,22.41,29.6,0.011074,0.01267,1.934682,61.63,1
22435,0,46000,55440,45978.04,55416.87,21.96,23.13,0.011064,0.012661,1.934536,61.64,1
22447,0,45996,55448,45978.41,55417.5,17.59,30.5,0.011056,0.01265,1.934203,61.64,1
22456,0,45987,55441,45978.58,55417.97,8.42,23.03,0.011052,0.012641,1.933999,61.65,1
22466,0,45988,55444,45978.77,55418.49,9.23,25.51,0.011048,0.012632,1.933745,61.66,1
22475,0,45986,55449,45978.91,55419.1,7.09,29.9,0.011045,0.012621,1.933383,61.67,1
22487,0,45984,55452,45979.01,55419.76,4.98,32.24,0.011043,0.012609,1.932953,61.68,1
22496,0,45984,55449,45979.12,55420.34,4.88,28.66,0.011041,0.012598,1.932612,61.68,1
22506,0,45989,55451,45979.32,55420.96,9.68,30.04,0.011036,0.012587,1.932241,61.69,1
22515,0,45984,55455,45979.41,55421.64,4.59,33.36,0.011034,0.012575,1.931766,61.71,1
22526,0,45985,55457,45979.52,55422.35,5.48,34.65,0.011032,0.012562,1.931248,61.72,1
22536,0,45991,55459,45979.75,55423.08,11.25,35.92,0.011027,0.012549,1.930698,61.73,1
22545,0,45997,55473,45980.1,55424.08,16.9,48.92,0.011019,0.012531,1.929668,61.76,1
22555,0,46009,55474,45980.68,55425.08,28.32,48.92,0.011007,0.012513,1.928713,61.78,1
22565,0,46017,55493,45981.41,55426.44,35.59,66.56,0.010991,0.012488,1.926889,61.83,1
22576,0,46023,55489,45982.24,55427.69,40.76,61.3,0.010973,0.012466,1.925434,61.86,1
22585,0,46024,55484,45983.07,55428.82,40.93,55.18,0.010955,0.012445,1.924304,61.89,1
22596,0,46031,55486,45984.03,55429.96,46.96,56.04,0.010934,0.012425,1.923216,61.92,1
22605,0,46032,55493,45985,55431.23,47,61.77,0.010913,0.012402,1.921797,61.96,1
22616,0,46026,55498,45985.82,55432.56,40.18,65.44,0.010895,0.012378,1.920039,62,1
22625,0,46044,55510,45986.98,55434.11,57.02,75.89,0.01087,0.01235,1.917855,62.05,1
22636,0,46053,55517,45988.3,55435.77,64.7,81.23,0.010841,0.01232,1.915428,62.11,1
22645,0,46075,55531,45990.03,55437.68,84.96,93.32,0.010803,0.012286,1.912534,62.19,1
22656,0,46107,55544,45992.37,55439.8,114.62,104.2,0.010752,0.012247,1.909719,62.26,1
22666,0,46136,55565,45995.25,55442.31,140.75,122.69,0.01069,0.012202,1.906138,62.35,1
22676,0,46160,55580,45998.54,55445.07,161.46,134.93,0.010618,0.012152,1.902244,62.44,1
22685,0,46169,55587,46001.95,55447.91,167.05,139.09,0.010544,0.012101,1.898179,62.55,1
22695,0,46188,55600,46005.67,55450.95,182.32,149.05,0.010463,0.012046,1.893793,62.66,1
22706,0,46199,55616,46009.54,55454.25,189.46,161.75,0.010379,0.011987,1.888057,62.8,1
22715,0,46205,55621,46013.45,55457.58,191.55,163.41,0.010294,0.011927,1.882297,62.94,1
22726,0,46217,55635,46017.52,55461.13,199.48,173.87,0.010206,0.011863,1.875542,63.11,1
22735,0,46231,55637,46021.8,55464.65,209.2,172.35,0.010113,0.011799,1.869929,63.25,1
22746,0,46241,55642,46026.18,55468.19,214.82,173.8,0.010018,0.011735,1.86464,63.38,1
22756,0,46256,55649,46030.78,55471.81,225.22,177.19,0.009918,0.01167,1.859782,63.51,1
22765,0,46269,55663,46035.55,55475.64,233.45,187.36,0.009814,0.011601,1.854037,63.65,1
22776,0,46277,55674,46040.37,55479.61,236.63,194.39,0.009709,0.01153,1.84748,63.81,1
22786,0,46288,55674,46045.33,55483.5,242.67,190.5,0.009602,0.011459,1.842308,63.94,1
22795,0,46285,55667,46050.12,55487.17,234.88,179.83,0.009498,0.011393,1.838306,64.04,1
22806,0,46291,55677,46054.94,55490.97,236.05,186.03,0.009393,0.011325,1.83348,64.16,1
22815,0,46288,55667,46059.61,55494.49,228.39,172.51,0.009292,0.011261,1.830208,64.24,1
22827,0,46291,55671,46064.24,55498.02,226.76,172.98,0.009191,0.011198,1.82678,64.33,1
22836,0,46301,55667,46068.97,55501.4,232.03,165.6,0.009088,0.011137,1.824951,64.38,1
22845,0,46312,55673,46073.83,55504.83,238.17,168.16,0.008983,0.011075,1.823321,64.42,1
22856,0,46312,55674,46078.59,55508.22,233.41,165.78,0.00888,0.011014,1.821638,64.46,1
22865,0,46317,55678,46083.36,55511.62,233.64,166.38,0.008776,0.010953,1.819914,64.5,1
22876,0,46332,55694,46088.33,55515.26,243.66,178.73,0.008668,0.010887,1.817287,64.57,1
22886,0,46346,55690,46093.49,55518.76,252.51,171.24,0.008556,0.010824,1.816639,64.58,1
22895,0,46343,55691,46098.48,55522.21,244.52,168.79,0.008448,0.010762,1.815615,64.61,1
22905,0,46356,55698,46103.64,55525.73,252.36,172.27,0.008336,0.010699,1.814828,64.63,1
22916,0,46369,55708,46108.94,55529.37,260.05,178.63,0.008221,0.010633,1.813843,64.65,1
22926,0,46374,55708,46114.25,55532.95,259.75,175.05,0.008106,0.010569,1.813374,64.67,1
22935,0,46380,55706,46119.56,55536.41,260.44,169.59,0.007991,0.010506,1.81376,64.66,1
22945,0,46384,55713,46124.85,55539.95,259.15,173.05,0.007876,0.010443,1.813524,64.66,1
22956,0,46390,55702,46130.16,55543.19,259.84,158.81,0.007761,0.010384,1.81531,64.62,1
22966,0,46384,55713,46135.23,55546.59,248.77,166.41,0.007651,0.010323,1.815028,64.62,1
22976,0,46377,55711,46140.07,55549.88,236.93,161.12,0.007546,0.010264,1.814424,64.64,1
22985,0,46380,55712,46144.87,55553.12,235.13,158.88,0.007442,0.010205,1.813968,64.65,1
22995,0,46376,55704,46149.49,55556.14,226.51,147.86,0.007342,0.010151,1.814189,64.65,1
23006,0,46381,55718,46154.12,55559.37,226.88,158.63,0.007242,0.010093,1.813081,64.67,1
23015,0,46383,55720,46158.7,55562.58,224.3,157.41,0.007142,0.010035,1.811934,64.7,1
23026,0,46402,55725,46163.57,55565.83,238.43,159.16,0.007037,0.009977,1.811749,64.71,1
23035,0,46397,55731,46168.24,55569.14,228.76,161.86,0.006936,0.009917,1.810401,64.74,1
23045,0,46412,55731,46173.12,55572.38,238.88,158.62,0.00683,0.009859,1.810341,64.74,1
23056,0,46417,55737,46178,55575.67,239,161.33,0.006725,0.0098,1.809939,64.75,1
23065,0,46415,55728,46182.74,55578.72,232.26,149.28,0.006622,0.009745,1.810492,64.74,1
23076,0,46414,55736,46187.37,55581.86,226.63,154.14,0.006522,0.009688,1.809978,64.75,1
23086,0,46412,55734,46191.86,55584.91,220.14,149.09,0.006424,0.009633,1.809572,64.76,1
23095,0,46402,55732,46196.06,55587.85,205.94,144.15,0.006333,0.00958,1.808677,64.78,1
23105,0,46394,55729,46200.02,55590.67,193.98,138.33,0.006248,0.00953,1.8076,64.81,1
23115,0,46395,55721,46203.92,55593.28,191.08,127.72,0.006163,0.009483,1.807477,64.81,1
23126,0,46388,55729,46207.6,55596,180.4,133,0.006084,0.009434,1.80608,64.85,1
23135,0,46390,55726,46211.25,55598.6,178.75,127.4,0.006005,0.009387,1.805179,64.87,1
23146,0,46383,55733,46214.69,55601.28,168.31,131.71,0.00593,0.009339,1.803169,64.92,1
23155,0,46381,55722,46218.01,55603.7,162.98,118.3,0.005858,0.009295,1.802222,64.94,1
23164,0,46380,55728,46221.26,55606.19,158.74,121.81,0.005788,0.009251,1.800682,64.98,1
23176,0,46372,55724,46224.27,55608.55,147.73,115.45,0.005723,0.009208,1.79915,65.02,1
23185,0,46362,55725,46227.03,55610.88,134.97,114.12,0.005663,0.009166,1.797086,65.07,1
23196,0,46365,55720,46229.79,55613.06,135.21,106.94,0.005604,0.009127,1.795693,65.11,1
23205,0,46354,55718,46232.27,55615.16,121.73,102.84,0.00555,0.009089,1.794015,65.15,1
23216,0,46353,55716,46234.69,55617.18,118.31,98.82,0.005498,0.009053,1.792522,65.19,1
23225,0,46367,55729,46237.33,55619.41,129.66,109.59,0.00544,0.009013,1.790613,65.23,1
23235,0,46370,55722,46239.99,55621.47,130.01,100.53,0.005383,0.008976,1.789523,65.26,1
23245,0,46365,55729,46242.49,55623.62,122.51,105.38,0.005329,0.008937,1.787649,65.31,1
23255,0,46362,55716,46244.88,55625.46,117.12,90.54,0.005277,0.008904,1.786764,65.33,1
23266,0,46357,55727,46247.12,55627.5,109.88,99.5,0.005229,0.008867,1.784833,65.38,1
23275,0,46353,55716,46249.24,55629.26,103.76,86.73,0.005183,0.008836,1.783667,65.41,1
23286,0,46345,55714,46251.15,55630.96,93.85,83.04,0.005142,0.008805,1.782388,65.44,1
23296,0,46336,55708,46252.85,55632.5,83.15,75.5,0.005105,0.008777,1.781252,65.47,1
23305,0,46333,55711,46254.45,55634.07,78.55,76.93,0.00507,0.008749,1.779869,65.5,1
23315,0,46332,55699,46256,55635.37,76,63.63,0.005037,0.008726,1.779224,65.52,1
23324,0,46318,55701,46257.24,55636.69,60.76,64.31,0.00501,0.008702,1.77812,65.55,1
23335,0,46311,55696,46258.32,55637.87,52.68,58.13,0.004987,0.008681,1.777164,65.57,1
23345,0,46313,55697,46259.41,55639.06,53.59,57.94,0.004963,0.00866,1.776231,65.59,1
23355,0,46318,55698,46260.58,55640.24,57.41,57.76,0.004938,0.008638,1.775386,65.62,1
23364,0,46318,55711,46261.73,55641.65,56.27,69.35,0.004913,0.008613,1.773836,65.65,1
23375,0,46327,55715,46263.04,55643.12,63.96,71.88,0.004885,0.008587,1.772305,65.69,1
23385,0,46333,55723,46264.44,55644.72,68.56,78.28,0.004854,0.008558,1.770447,65.74,1
23395,0,46347,55725,46266.09,55646.32,80.91,78.68,0.004819,0.008529,1.768944,65.78,1
23405,0,46342,55730,46267.61,55648,74.39,82,0.004786,0.008499,1.766968,65.83,1
23415,0,46352,55734,46269.3,55649.72,82.7,84.28,0.004749,0.008468,1.765087,65.87,1
23425,0,46357,55734,46271.05,55651.41,85.95,82.59,0.004712,0.008438,1.763452,65.91,1
23435,0,46354,55738,46272.71,55653.14,81.29,84.86,0.004676,0.008407,1.761459,65.96,1
23445,0,46350,55735,46274.25,55654.78,75.75,80.22,0.004642,0.008377,1.759635,66.01,1
23455,0,46360,55738,46275.97,55656.45,84.03,81.55,0.004605,0.008347,1.757994,66.05,1
23464,0,46351,55731,46277.47,55657.94,73.53,73.06,0.004573,0.00832,1.756613,66.08,1
23476,0,46345,55733,46278.82,55659.44,66.18,73.55,0.004544,0.008293,1.754957,66.13,1
23485,0,46345,55723,46280.14,55660.72,64.86,62.28,0.004515,0.00827,1.754004,66.15,1
23495,0,46339,55726,46281.32,55662.02,57.68,63.98,0.004489,0.008247,1.752739,66.18,1
23504,0,46338,55719,46282.46,55663.16,55.54,55.84,0.004465,0.008226,1.751895,66.2,1
23516,0,46337,55725,46283.55,55664.4,53.45,60.6,0.004441,0.008204,1.750715,66.23,1
23525,0,46334,55711,46284.56,55665.33,49.44,45.66,0.00442,0.008187,1.750231,66.24,1
23535,0,46341,55714,46285.69,55666.31,55.31,47.69,0.004395,0.00817,1.749792,66.26,1
23544,0,46350,55719,46286.98,55667.37,63.02,51.63,0.004367,0.008151,1.749366,66.27,1
23556,0,46354,55725,46288.32,55668.52,65.68,56.48,0.004338,0.00813,1.74875,66.28,1
23565,0,46372,55727,46289.99,55669.69,82.01,57.31,0.004302,0.008109,1.748669,66.28,1
23575,0,46378,55732,46291.75,55670.93,86.25,61.07,0.004264,0.008087,1.748529,66.29,1
23585,0,46391,55738,46293.73,55672.28,97.27,65.72,0.004221,0.008063,1.74858,66.29,1
23596,0,46416,55752,46296.18,55673.87,119.82,78.13,0.004169,0.008034,1.748907,66.28,1
23605,0,46424,55745,46298.74,55675.29,125.26,69.71,0.004113,0.008009,1.750243,66.24,1
23616,0,46436,55754,46301.48,55676.87,134.52,77.13,0.004054,0.00798,1.751604,66.21,1
23625,0,46454,55759,46304.53,55678.51,149.46,80.49,0.003988,0.007951,1.753766,66.16,1
23634,0,46460,55764,46307.64,55680.22,152.36,83.78,0.003921,0.00792,1.755857,66.1,1
23645,0,46462,55767,46310.73,55681.96,151.27,85.04,0.003854,0.007889,1.757743,66.06,1
23655,0,46480,55763,46314.12,55683.58,165.88,79.41,0.003781,0.00786,1.76135,65.97,1
23665,0,46487,55777,46317.57,55685.45,169.43,91.55,0.003707,0.007826,1.764097,65.9,1
23674,0,46497,55772,46321.16,55687.19,175.84,84.81,0.003629,0.007795,1.768089,65.8,1
23686,0,46503,55784,46324.8,55689.12,178.2,94.87,0.003551,0.00776,1.771262,65.72,1
23695,0,46503,55775,46328.36,55690.84,174.64,84.16,0.003474,0.007729,1.775194,65.62,1
23704,0,46490,55779,46331.6,55692.6,158.4,86.39,0.003404,0.007698,1.777474,65.56,1
23715,0,46484,55773,46334.64,55694.21,149.36,78.79,0.003338,0.007669,1.779745,65.51,1
23725,0,46474,55765,46337.43,55695.63,136.57,69.37,0.003278,0.007643,1.781863,65.45,1
23735,0,46469,55758,46340.07,55696.88,128.93,61.12,0.003221,0.007621,1.78408,65.4,1
23745,0,46462,55759,46342.5,55698.12,119.5,60.88,0.003168,0.007599,1.785692,65.36,1
23755,0,46470,55756,46345.05,55699.28,124.95,56.71,0.003113,0.007578,1.787965,65.3,1
23764,0,46465,55752,46347.46,55700.34,117.54,51.66,0.003062,0.007559,1.790091,65.25,1
23776,0,46475,55759,46350.01,55701.51,124.99,57.48,0.003007,0.007538,1.792335,65.19,1
23785,0,46477,55759,46352.55,55702.67,124.45,56.33,0.002952,0.007517,1.794633,65.13,1
23794,0,46473,55774,46354.96,55704.1,118.04,69.9,0.0029,0.007491,1.795441,65.11,1
23805,0,46475,55759,46357.36,55705.19,117.64,53.8,0.002848,0.007472,1.797474,65.06,1
23815,0,46472,55763,46359.66,55706.35,112.34,56.64,0.002798,0.007451,1.798975,65.03,1
23825,0,46471,55759,46361.89,55707.41,109.11,51.59,0.00275,0.007432,1.80063,64.98,1
23834,0,46463,55751,46363.91,55708.28,99.09,42.72,0.002707,0.007416,1.802236,64.94,1
23845,0,46459,55752,46365.81,55709.16,93.19,42.84,0.002666,0.007401,1.80352,64.91,1
23855,0,46457,55741,46367.64,55709.79,89.36,31.21,0.002626,0.007389,1.805175,64.87,1
23865,0,46444,55750,46369.16,55710.6,74.84,39.4,0.002593,0.007375,1.805764,64.86,1
23875,0,46447,55739,46370.72,55711.17,76.28,27.83,0.00256,0.007364,1.80694,64.83,1
23885,0,46431,55738,46371.93,55711.71,59.07,26.29,0.002534,0.007355,1.807493,64.81,1
23895,0,46422,55728,46372.93,55712.03,49.07,15.97,0.002512,0.007349,1.808022,64.8,1
23905,0,46417,55727,46373.82,55712.33,43.18,14.67,0.002493,0.007344,1.808422,64.79,1
23915,0,46405,55724,46374.44,55712.57,30.56,11.43,0.00248,0.007339,1.808604,64.78,1
23925,0,46396,55721,46374.87,55712.73,21.12,8.27,0.00247,0.007336,1.808684,64.78,1
23934,0,46389,55712,46375.16,55712.72,13.84,-0.72,0.002464,0.007337,1.808733,64.78,1
23945,0,46382,55714,46375.3,55712.75,6.7,1.25,0.002461,0.007336,1.808742,64.78,1
23955,0,46384,55715,46375.47,55712.79,8.53,2.21,0.002457,0.007335,1.808756,64.78,1
23965,0,46394,55717,46375.84,55712.88,18.16,4.12,0.002449,0.007334,1.80884,64.78,1
23974,0,46389,55712,46376.11,55712.86,12.89,-0.86,0.002444,0.007334,1.808883,64.78,1
23985,0,46384,55715,46376.27,55712.9,7.73,2.1,0.00244,0.007333,1.808895,64.78,1
23994,0,46377,55715,46376.28,55712.94,0.71,2.05,0.00244,0.007333,1.808893,64.78,1
24005,0,46371,55710,46376.18,55712.89,-5.18,-2.89,0.002442,0.007334,1.808897,64.78,1
24014,0,46365,55711,46375.96,55712.85,-10.96,-1.85,0.002447,0.007334,1.808943,64.78,1
24025,0,46361,55696,46375.66,55712.51,-14.66,-16.51,0.002453,0.00734,1.808804,64.78,1
24034,0,46355,55699,46375.25,55712.24,-20.25,-13.24,0.002462,0.007345,1.808816,64.78,1
24045,0,46355,55700,46374.85,55712,-19.85,-12,0.002471,0.00735,1.808848,64.78,1
24054,0,46348,55696,46374.31,55711.68,-26.31,-15.68,0.002482,0.007355,1.808906,64.78,1
24065,0,46357,55695,46373.97,55711.34,-16.97,-16.34,0.00249,0.007361,1.808794,64.78,1
24074,0,46364,55706,46373.77,55711.24,-9.77,-5.24,0.002494,0.007363,1.808811,64.78,1
24085,0,46362,55704,46373.54,55711.09,-11.54,-7.09,0.002499,0.007366,1.808822,64.78,1
24094,0,46369,55713,46373.45,55711.13,-4.45,1.87,0.002501,0.007365,1.808831,64.78,1
24104,0,46380,55709,46373.58,55711.09,6.42,-2.09,0.002498,0.007366,1.808837,64.78,1
24114,0,46381,55720,46373.73,55711.26,7.27,8.73,0.002495,0.007363,1.808791,64.78,1
24125,0,46376,55705,46373.78,55711.14,2.22,-6.14,0.002494,0.007365,1.808754,64.78,1
24135,0,46381,55715,46373.92,55711.22,7.08,3.78,0.002491,0.007363,1.808758,64.78,1
24144,0,46382,55713,46374.08,55711.26,7.91,1.74,0.002487,0.007363,1.808775,64.78,1
24155,0,46384,55716,46374.28,55711.36,9.71,4.64,0.002483,0.007361,1.808788,64.78,1
24164,0,46393,55719,46374.66,55711.51,18.34,7.49,0.002475,0.007358,1.808862,64.78,1
24175,0,46400,55721,46375.17,55711.7,24.83,9.3,0.002464,0.007355,1.809018,64.77,1
24184,0,46405,55726,46375.76,55711.99,29.23,14.01,0.002451,0.00735,1.809171,64.77,1
24195,0,46405,55733,46376.35,55712.41,28.65,20.59,0.002438,0.007342,1.809104,64.77,1
24204,0,46418,55739,46377.18,55712.94,40.82,26.05,0.00242,0.007333,1.809141,64.77,1
24215,0,46423,55744,46378.1,55713.57,44.9,30.43,0.002401,0.007321,1.80909,64.77,1
24224,0,46426,55747,46379.06,55714.24,46.94,32.76,0.00238,0.007309,1.808977,64.78,1
24235,0,46434,55739,46380.16,55714.73,53.84,24.27,0.002356,0.0073,1.809617,64.76,1
24244,0,46436,55742,46381.27,55715.28,54.73,26.72,0.002332,0.007291,1.810183,64.75,1
24255,0,46428,55737,46382.21,55715.71,45.79,21.29,0.002312,0.007283,1.810625,64.73,1
24264,0,46423,55731,46383.02,55716.02,39.98,14.98,0.002294,0.007277,1.81108,64.72,1
24274,0,46426,55734,46383.88,55716.38,42.12,17.62,0.002276,0.007271,1.811531,64.71,1
24285,0,46430,55720,46384.81,55716.45,45.19,3.55,0.002256,0.00727,1.812397,64.69,1
24295,0,46426,55725,46385.63,55716.62,40.37,8.38,0.002238,0.007267,1.813034,64.67,1
24304,0,46424,55717,46386.4,55716.63,37.6,0.37,0.002222,0.007266,1.813648,64.66,1
24315,0,46412,55711,46386.91,55716.52,25.09,-5.52,0.002211,0.007268,1.813882,64.65,1
24325,0,46408,55700,46387.33,55716.19,20.66,-16.19,0.002201,0.007274,1.813775,64.66,1
24335,0,46395,55706,46387.49,55715.99,7.51,-9.99,0.002198,0.007278,1.813682,64.66,1
24344,0,46388,55693,46387.5,55715.53,0.5,-22.53,0.002198,0.007286,1.813119,64.67,1
24354,0,46390,55692,46387.55,55715.06,2.45,-23.06,0.002197,0.007295,1.812524,64.69,1
24365,0,46376,55685,46387.32,55714.46,-11.32,-29.46,0.002202,0.007305,1.811622,64.71,1
24375,0,46381,55686,46387.19,55713.89,-6.2,-27.89,0.002205,0.007316,1.810765,64.73,1
24384,0,46374,55685,46386.93,55713.31,-12.93,-28.31,0.00221,0.007326,1.809942,64.75,1
24395,0,46379,55678,46386.77,55712.6,-7.77,-34.6,0.002214,0.007339,1.808605,64.78,1
24404,0,46367,55672,46386.38,55711.79,-19.38,-39.79,0.002222,0.007353,1.806983,64.83,1
24415,0,46358,55671,46385.81,55710.98,-27.81,-39.98,0.002234,0.007368,1.805541,64.86,1
24424,0,46360,55670,46385.3,55710.16,-25.3,-40.16,0.002245,0.007383,1.804002,64.9,1
24435,0,46358,55672,46384.75,55709.39,-26.75,-37.39,0.002257,0.007396,1.802743,64.93,1
24444,0,46351,55665,46384.08,55708.51,-33.08,-43.51,0.002272,0.007412,1.801095,64.97,1
24455,0,46349,55667,46383.38,55707.68,-34.38,-40.68,0.002287,0.007427,1.799766,65.01,1
24464,0,46343,55659,46382.57,55706.71,-39.57,-47.71,0.002304,0.007445,1.797896,65.05,1
24475,0,46341,55661,46381.74,55705.79,-40.74,-44.79,0.002322,0.007461,1.796389,65.09,1
24484,0,46333,55656,46380.76,55704.8,-47.77,-48.8,0.002343,0.007479,1.794761,65.13,1
24495,0,46335,55661,46379.85,55703.92,-44.85,-42.93,0.002363,0.007494,1.793631,65.16,1
24505,0,46329,55659,46378.83,55703.03,-49.83,-44.03,0.002385,0.007511,1.792639,65.18,1
24515,0,46334,55666,46377.94,55702.29,-43.94,-36.29,0.002404,0.007524,1.792098,65.2,1
24524,0,46330,55660,46376.98,55701.44,-46.98,-41.45,0.002425,0.007539,1.791212,65.22,1
24534,0,46328,55666,46376,55700.74,-48,-34.74,0.002446,0.007552,1.791014,65.22,1
24545,0,46331,55659,46375.1,55699.9,-44.1,-40.9,0.002465,0.007567,1.790021,65.25,1
24554,0,46332,55670,46374.24,55699.3,-42.24,-29.3,0.002484,0.007577,1.789966,65.25,1
24564,0,46322,55660,46373.2,55698.52,-51.2,-38.52,0.002506,0.007591,1.789594,65.26,1
24573,0,46322,55671,46372.17,55697.97,-50.18,-26.97,0.002528,0.007601,1.790138,65.25,1
24585,0,46325,55659,46371.23,55697.19,-46.23,-38.19,0.002549,0.007615,1.789507,65.26,1
24594,0,46325,55665,46370.31,55696.55,-45.31,-31.55,0.002569,0.007627,1.78943,65.26,1
24604,0,46328,55670,46369.46,55696.02,-41.46,-26.02,0.002587,0.007636,1.789574,65.26,1
24613,0,46331,55680,46368.7,55695.7,-37.7,-15.7,0.002603,0.007642,1.790117,65.25,1
24625,0,46334,55676,46368,55695.31,-34,-19.31,0.002618,0.007649,1.79033,65.24,1
24634,0,46335,55686,46367.34,55695.12,-32.34,-9.12,0.002633,0.007653,1.790876,65.23,1
24644,0,46340,55687,46366.8,55694.96,-26.8,-7.96,0.002644,0.007655,1.791248,65.22,1
24653,0,46344,55688,46366.34,55694.82,-22.34,-6.82,0.002654,0.007658,1.791507,65.21,1
24665,0,46331,55682,46365.64,55694.57,-34.64,-12.57,0.002669,0.007662,1.79206,65.2,1
24674,0,46321,55679,46364.75,55694.25,-43.75,-15.25,0.002689,0.007668,1.79297,65.18,1
24685,0,46315,55671,46363.75,55693.79,-48.75,-22.79,0.00271,0.007676,1.793775,65.16,1
24694,0,46301,55666,46362.5,55693.23,-61.5,-27.23,0.002737,0.007686,1.79518,65.12,1
24705,0,46299,55659,46361.23,55692.55,-62.23,-33.55,0.002764,0.007699,1.796092,65.1,1
24714,0,46291,55657,46359.83,55691.84,-68.83,-34.84,0.002795,0.007711,1.79745,65.06,1
24725,0,46289,55661,46358.41,55691.22,-69.41,-30.22,0.002825,0.007723,1.799317,65.02,1
24734,0,46297,55661,46357.19,55690.62,-60.19,-29.62,0.002852,0.007733,1.800447,64.99,1
24744,0,46292,55664,46355.88,55690.08,-63.88,-26.09,0.00288,0.007743,1.802194,64.95,1
24754,0,46301,55658,46354.78,55689.44,-53.79,-31.45,0.002903,0.007754,1.802668,64.93,1
24765,0,46300,55665,46353.69,55688.96,-53.69,-23.96,0.002927,0.007763,1.80378,64.91,1
24774,0,46298,55655,46352.58,55688.28,-54.58,-33.28,0.002951,0.007775,1.804133,64.9,1
24784,0,46297,55655,46351.47,55687.62,-54.47,-32.62,0.002975,0.007787,1.804548,64.89,1
24794,0,46294,55650,46350.32,55686.87,-56.32,-36.87,0.003,0.007801,1.804642,64.88,1
24805,0,46293,55653,46349.17,55686.19,-56.18,-33.19,0.003024,0.007813,1.805137,64.87,1
24814,0,46297,55649,46348.13,55685.45,-51.13,-36.45,0.003047,0.007826,1.804881,64.88,1
24824,0,46292,55658,46347.01,55684.9,-55.01,-26.9,0.003071,0.007836,1.805903,64.85,1
24835,0,46298,55655,46346.03,55684.31,-48.04,-29.31,0.003092,0.007847,1.806187,64.85,1
24845,0,46295,55659,46345.01,55683.8,-50.02,-24.8,0.003114,0.007856,1.807019,64.82,1
24854,0,46300,55645,46344.12,55683.03,-44.12,-38.03,0.003134,0.00787,1.806057,64.85,1
24865,0,46292,55661,46343.07,55682.58,-51.07,-21.59,0.003156,0.007878,1.807235,64.82,1
24875,0,46305,55648,46342.32,55681.89,-37.32,-33.89,0.003172,0.00789,1.806342,64.84,1
24885,0,46293,55657,46341.33,55681.4,-48.33,-24.4,0.003194,0.007899,1.80711,64.82,1
24894,0,46290,55648,46340.31,55680.73,-50.31,-32.73,0.003216,0.007911,1.80721,64.82,1
24903,0,46276,55645,46339.02,55680.02,-63.02,-35.02,0.003244,0.007924,1.808152,64.8,1
24914,0,46258,55629,46337.4,55679,-79.4,-50,0.003279,0.007942,1.808676,64.78,1
24924,0,46232,55609,46335.3,55677.6,-103.3,-68.6,0.003324,0.007967,1.808718,64.78,1
24934,0,46193,55587,46332.45,55675.79,-139.45,-88.79,0.003385,0.008,1.809982,64.75,1
24944,0,46154,55567,46328.88,55673.61,-174.88,-106.61,0.003462,0.008039,1.813669,64.66,1
24954,0,46122,55550,46324.75,55671.14,-202.75,-121.14,0.003552,0.008083,1.819427,64.51,1
24964,0,46099,55526,46320.23,55668.24,-221.23,-142.24,0.003649,0.008135,1.821356,64.47,1
24975,0,46082,55531,46315.47,55665.5,-233.47,-134.5,0.003752,0.008185,1.830527,64.24,1
24984,0,46073,55518,46310.62,55662.55,-237.63,-144.55,0.003857,0.008238,1.836051,64.1,1
24993,0,46066,55521,46305.73,55659.72,-239.73,-138.72,0.003962,0.008288,1.844462,63.89,1
25005,0,46083,55520,46301.28,55656.92,-218.28,-136.93,0.004058,0.008339,1.846805,63.83,1
25014,0,46088,55520,46297.02,55654.19,-209.02,-134.19,0.00415,0.008388,1.847635,63.81,1
25025,0,46110,55526,46293.28,55651.62,-183.28,-125.62,0.004231,0.008434,1.8454,63.87,1
25034,0,46119,55531,46289.79,55649.21,-170.79,-118.21,0.004307,0.008477,1.843141,63.92,1
25043,0,46124,55531,46286.48,55646.85,-162.48,-115.85,0.004378,0.00852,1.840052,64,1
25055,0,46123,55531,46283.21,55644.53,-160.21,-113.54,0.004449,0.008561,1.837363,64.07,1
25064,0,46142,55531,46280.38,55642.26,-138.38,-111.27,0.00451,0.008602,1.831529,64.21,1
25075,0,46130,55549,46277.38,55640.4,-147.38,-91.4,0.004575,0.008636,1.832987,64.18,1
25084,0,46149,55552,46274.81,55638.63,-125.81,-86.63,0.00463,0.008667,1.832062,64.2,1
25094,0,46182,55561,46272.96,55637.08,-90.96,-76.08,0.00467,0.008695,1.828981,64.28,1
25104,0,46205,55570,46271.6,55635.73,-66.6,-65.73,0.0047,0.008719,1.825631,64.36,1
25114,0,46229,55583,46270.75,55634.68,-41.75,-51.68,0.004718,0.008738,1.822943,64.43,1
25124,0,46247,55588,46270.28,55633.75,-23.28,-45.75,0.004728,0.008755,1.820311,64.49,1
25134,0,46253,55598,46269.93,55633.03,-16.93,-35.04,0.004736,0.008768,1.818737,64.53,1
25145,0,46255,55588,46269.63,55632.14,-14.63,-44.14,0.004742,0.008784,1.816069,64.6,1
25154,0,46253,55592,46269.3,55631.33,-16.3,-39.34,0.004749,0.008798,1.814,64.65,1
25164,0,46258,55603,46269.07,55630.77,-11.07,-27.77,0.004754,0.008809,1.812952,64.68,1
25174,0,46270,55608,46269.09,55630.32,0.91,-22.32,0.004754,0.008817,1.812209,64.69,1
25185,0,46275,55615,46269.21,55630.01,5.79,-15.01,0.004751,0.008822,1.811884,64.7,1
25194,0,46288,55609,46269.59,55629.59,18.41,-20.59,0.004743,0.00883,1.811447,64.71,1
25204,0,46298,55623,46270.16,55629.46,27.84,-6.46,0.004731,0.008832,1.811871,64.7,1
25213,0,46316,55633,46271.08,55629.53,44.92,3.46,0.004711,0.008831,1.813166,64.67,1
25225,0,46323,55644,46272.12,55629.82,50.88,14.18,0.004688,0.008826,1.814572,64.64,1
25234,0,46342,55657,46273.51,55630.37,68.48,26.63,0.004658,0.008816,1.816623,64.58,1
25244,0,46360,55670,46275.25,55631.16,84.75,38.84,0.004621,0.008802,1.819137,64.52,1
25254,0,46385,55682,46277.44,55632.18,107.56,49.82,0.004573,0.008783,1.823122,64.42,1
25265,0,46399,55694,46279.87,55633.42,119.12,60.58,0.004521,0.008761,1.827016,64.32,1
25274,0,46421,55717,46282.7,55635.09,138.3,81.91,0.00446,0.008731,1.829445,64.26,1
25283,0,46447,55732,46285.99,55637.03,161.01,94.97,0.004389,0.008696,1.832801,64.18,1
25294,0,46456,55728,46289.39,55638.85,166.61,89.15,0.004315,0.008663,1.838995,64.03,1
25304,0,46469,55749,46292.98,55641.05,176.02,107.95,0.004238,0.008624,1.841398,63.97,1
25315,0,46485,55765,46296.82,55643.53,188.18,121.46,0.004155,0.008579,1.84184,63.95,1
25324,0,46503,55770,46300.94,55646.06,202.05,123.94,0.004066,0.008534,1.844829,63.88,1
25334,0,46522,55785,46305.37,55648.84,216.63,136.16,0.00397,0.008484,1.846796,63.83,1
25345,0,46535,55791,46309.96,55651.68,225.04,139.32,0.003871,0.008433,1.849678,63.76,1
25354,0,46547,55793,46314.7,55654.51,232.3,138.49,0.003769,0.008382,1.854733,63.63,1
25364,0,46544,55793,46319.29,55657.28,224.71,135.72,0.003669,0.008332,1.858555,63.54,1
25374,0,46541,55788,46323.72,55659.9,217.28,128.1,0.003574,0.008285,1.863088,63.42,1
25384,0,46530,55796,46327.85,55662.62,202.15,133.38,0.003485,0.008236,1.861924,63.45,1
25394,0,46525,55796,46331.8,55665.3,193.2,130.7,0.003399,0.008188,1.859772,63.51,1
25404,0,46523,55802,46335.62,55668.03,187.38,133.97,0.003317,0.008139,1.855325,63.62,1
25414,0,46528,55803,46339.47,55670.73,188.53,132.27,0.003234,0.008091,1.851873,63.7,1
25423,0,46532,55803,46343.32,55673.37,188.68,129.63,0.003151,0.008043,1.849463,63.76,1
25435,0,46540,55819,46347.25,55676.29,192.75,142.71,0.003066,0.007991,1.843474,63.91,1
25444,0,46552,55820,46351.35,55679.16,200.65,140.84,0.002978,0.007939,1.840017,64,1
25453,0,46572,55825,46355.76,55682.08,216.24,142.92,0.002882,0.007887,1.839336,64.02,1
25464,0,46578,55828,46360.21,55685,217.79,143,0.002787,0.007834,1.838994,64.03,1
25474,0,46582,55827,46364.64,55687.84,217.36,139.16,0.002691,0.007783,1.839838,64,1
25484,0,46578,55833,46368.91,55690.75,209.09,142.25,0.002599,0.007731,1.837908,64.05,1
25494,0,46578,55829,46373.09,55693.51,204.91,135.49,0.002509,0.007681,1.837347,64.07,1
25504,0,46584,55844,46377.31,55696.52,206.69,147.48,0.002418,0.007627,1.833354,64.17,1
25513,0,46581,55846,46381.38,55699.51,199.62,146.49,0.00233,0.007574,1.828483,64.29,1
25524,0,46587,55850,46385.5,55702.52,201.5,147.48,0.002241,0.00752,1.823837,64.4,1
25534,0,46593,55858,46389.64,55705.63,203.36,152.37,0.002152,0.007464,1.818164,64.55,1
25543,0,46604,55853,46393.93,55708.57,210.07,144.43,0.002059,0.007411,1.816416,64.59,1
25554,0,46610,55864,46398.25,55711.68,211.75,152.32,0.001966,0.007355,1.812655,64.68,1
25564,0,46621,55873,46402.71,55714.91,218.29,158.09,0.00187,0.007297,1.808486,64.79,1
25575,0,46629,55888,46407.23,55718.37,221.77,169.63,0.001773,0.007235,1.801462,64.96,1
25584,0,46637,55885,46411.82,55721.71,225.18,163.29,0.001674,0.007175,1.797422,65.06,1
25593,0,46651,55886,46416.61,55724.99,234.39,161.01,0.001571,0.007116,1.796016,65.1,1
25605,0,46661,55893,46421.5,55728.35,239.5,164.65,0.001465,0.007056,1.794573,65.14,1
25614,0,46662,55887,46426.3,55731.52,235.7,155.48,0.001362,0.006999,1.795112,65.12,1
25624,0,46651,55898,46430.8,55734.85,220.2,163.14,0.001265,0.006939,1.790639,65.23,1
25633,0,46660,55897,46435.39,55738.1,224.61,158.9,0.001166,0.006881,1.788306,65.29,1
25644,0,46638,55902,46439.44,55741.38,198.56,160.62,0.001079,0.006822,1.781311,65.47,1
25654,0,46640,55897,46443.45,55744.49,196.55,152.51,0.000992,0.006766,1.776398,65.59,1
25663,0,46636,55885,46447.3,55747.3,188.7,137.7,0.00091,0.006716,1.774068,65.65,1
25674,0,46630,55889,46450.96,55750.14,179.04,138.86,0.000831,0.006665,1.77018,65.75,1
25683,0,46629,55889,46454.52,55752.92,174.48,136.08,0.000754,0.006615,1.766404,65.84,1
25695,0,46636,55890,46458.15,55755.66,177.85,134.34,0.000676,0.006566,1.763538,65.91,1
25704,0,46620,55885,46461.39,55758.25,158.61,126.75,0.000606,0.00652,1.759912,66,1
25713,0,46621,55885,46464.58,55760.78,156.42,124.22,0.000538,0.006474,1.756602,66.08,1
25724,0,46617,55874,46467.63,55763.05,149.37,110.95,0.000472,0.006434,1.755032,66.12,1
25734,0,46601,55865,46470.3,55765.08,130.7,99.91,0.000415,0.006397,1.753391,66.17,1
25744,0,46594,55868,46472.77,55767.14,121.23,100.86,0.000361,0.00636,1.75072,66.23,1
25754,0,46589,55859,46475.1,55768.98,113.9,90.02,0.000311,0.006327,1.749074,66.27,1
25764,0,46586,55863,46477.32,55770.86,108.68,92.14,0.000264,0.006294,1.746689,66.33,1
25774,0,46584,55848,46479.45,55772.41,104.55,75.59,0.000218,0.006266,1.746208,66.34,1
25783,0,46586,55854,46481.58,55774.04,104.42,79.96,0.000172,0.006237,1.745169,66.37,1
25794,0,46585,55849,46483.65,55775.54,101.35,73.46,0.000127,0.00621,1.744698,66.38,1
25803,0,46581,55843,46485.6,55776.89,95.4,66.11,0.000085,0.006185,1.744613,66.38,1
25815,0,46579,55849,46487.47,55778.33,91.53,70.66,0.000045,0.00616,1.74374,66.41,1
25824,0,46575,55837,46489.22,55779.51,85.78,57.49,0.000008,0.006139,1.743858,66.4,1
25834,0,46569,55841,46490.81,55780.74,78.19,60.26,-0.000027,0.006116,1.743222,66.42,1
25843,0,46569,55829,46492.37,55781.7,76.62,47.3,-0.00006,0.006099,1.743651,66.41,1
25854,0,46570,55828,46493.92,55782.63,76.07,45.37,-0.000094,0.006083,1.7442,66.4,1
25864,0,46565,55820,46495.35,55783.37,69.65,36.63,-0.000124,0.006069,1.744985,66.38,1
25874,0,46560,55821,46496.64,55784.12,63.36,36.88,-0.000152,0.006056,1.745425,66.36,1
25883,0,46548,55810,46497.67,55784.64,50.33,25.36,-0.000174,0.006046,1.745885,66.35,1
25894,0,46530,55807,46498.32,55785.09,31.68,21.91,-0.000188,0.006038,1.74587,66.35,1
25904,0,46524,55796,46498.83,55785.31,25.17,10.69,-0.000199,0.006034,1.746022,66.35,1
25914,0,46510,55788,46499.05,55785.37,10.95,2.63,-0.000204,0.006033,1.746059,66.35,1
25923,0,46498,55782,46499.03,55785.3,-1.04,-3.3,-0.000204,0.006035,1.746048,66.35,1
25934,0,46494,55781,46498.93,55785.22,-4.93,-4.22,-0.000201,0.006036,1.746044,66.35,1
25944,0,46480,55770,46498.56,55784.91,-18.56,-14.91,-0.000193,0.006042,1.745993,66.35,1
25954,0,46469,55771,46497.97,55784.64,-28.97,-13.64,-0.000181,0.006047,1.746203,66.34,1
25963,0,46472,55762,46497.45,55784.19,-25.45,-22.19,-0.00017,0.006055,1.746032,66.35,1
25974,0,46458,55757,46496.66,55783.64,-38.66,-26.64,-0.000153,0.006064,1.746041,66.35,1
25984,0,46441,55745,46495.55,55782.87,-54.55,-37.87,-0.000129,0.006078,1.74603,66.35,1
25994,0,46430,55743,46494.24,55782.07,-64.24,-39.07,-0.0001,0.006093,1.746463,66.34,1
26003,0,46424,55744,46492.84,55781.31,-68.84,-37.31,-0.00007,0.006106,1.747316,66.32,1
26014,0,46418,55740,46491.34,55780.49,-73.34,-40.49,-0.000038,0.006121,1.74823,66.29,1
26023,0,46416,55732,46489.84,55779.52,-73.84,-47.52,-0.000006,0.006138,1.748564,66.29,1
26034,0,46412,55735,46488.28,55778.63,-76.28,-43.63,0.000028,0.006154,1.749432,66.26,1
26044,0,46401,55727,46486.53,55777.6,-85.54,-50.6,0.000065,0.006173,1.750354,66.24,1
26054,0,46394,55721,46484.68,55776.47,-90.68,-55.47,0.000105,0.006193,1.751188,66.22,1
26063,0,46377,55714,46482.53,55775.22,-105.53,-61.22,0.000151,0.006215,1.752743,66.18,1
26073,0,46363,55711,46480.14,55773.94,-117.14,-62.94,0.000203,0.006238,1.755331,66.12,1
26084,0,46343,55696,46477.4,55772.38,-134.4,-76.38,0.000262,0.006266,1.758078,66.05,1
26093,0,46332,55695,46474.5,55770.83,-142.5,-75.84,0.000324,0.006294,1.761986,65.95,1
26104,0,46329,55689,46471.58,55769.2,-142.59,-80.2,0.000387,0.006323,1.76517,65.87,1
26114,0,46319,55673,46468.53,55767.28,-149.54,-94.28,0.000453,0.006358,1.766735,65.83,1
26124,0,46311,55679,46465.38,55765.51,-154.38,-86.52,0.00052,0.006389,1.770471,65.74,1
26133,0,46299,55665,46462.05,55763.51,-163.05,-98.51,0.000592,0.006425,1.773164,65.67,1
26143,0,46286,55670,46458.53,55761.64,-172.54,-91.64,0.000668,0.006459,1.778728,65.53,1
26153,0,46271,55661,46454.79,55759.62,-183.79,-98.62,0.000748,0.006495,1.784738,65.38,1
26163,0,46260,55644,46450.89,55757.31,-190.89,-113.31,0.000832,0.006537,1.78863,65.28,1
26174,0,46245,55643,46446.78,55755.03,-201.78,-112.03,0.000921,0.006577,1.794758,65.13,1
26183,0,46239,55647,46442.62,55752.87,-203.63,-105.87,0.00101,0.006616,1.802513,64.94,1
26194,0,46229,55636,46438.35,55750.53,-209.35,-114.54,0.001102,0.006658,1.809201,64.77,1
26204,0,46227,55630,46434.12,55748.13,-207.13,-118.13,0.001193,0.006701,1.814427,64.64,1
26213,0,46229,55631,46430.02,55745.79,-201.02,-114.79,0.001282,0.006743,1.819205,64.52,1
26224,0,46214,55620,46425.71,55743.27,-211.71,-123.27,0.001375,0.006788,1.823766,64.41,1
26233,0,46216,55614,46421.51,55740.69,-205.52,-126.69,0.001465,0.006835,1.826168,64.35,1
26245,0,46205,55618,46417.19,55738.24,-212.19,-120.24,0.001558,0.006879,1.831381,64.22,1
26254,0,46199,55618,46412.82,55735.83,-213.82,-117.83,0.001652,0.006922,1.837362,64.07,1
26263,0,46198,55608,46408.53,55733.28,-210.53,-125.28,0.001745,0.006968,1.840741,63.98,1
26274,0,46199,55615,46404.34,55730.91,-205.34,-115.91,0.001835,0.00701,1.8454,63.87,1
26284,0,46187,55614,46400,55728.58,-213,-114.58,0.001929,0.007052,1.851647,63.71,1
26294,0,46191,55616,46395.82,55726.33,-204.82,-110.33,0.002019,0.007092,1.857276,63.57,1
26304,0,46195,55615,46391.8,55724.1,-196.8,-109.1,0.002105,0.007132,1.861706,63.46,1
26313,0,46201,55610,46387.98,55721.82,-186.98,-111.82,0.002187,0.007173,1.863855,63.4,1
26323,0,46193,55617,46384.08,55719.73,-191.09,-102.73,0.002272,0.007211,1.868599,63.29,1
26334,0,46200,55611,46380.41,55717.55,-180.41,-106.55,0.002351,0.00725,1.870795,63.23,1
26344,0,46207,55614,46376.94,55715.48,-169.94,-101.48,0.002426,0.007287,1.872492,63.19,1
26353,0,46207,55622,46373.54,55713.61,-166.54,-91.61,0.002499,0.007321,1.875628,63.11,1
26363,0,46217,55622,46370.41,55711.78,-153.41,-89.79,0.002566,0.007353,1.877313,63.07,1
26374,0,46217,55635,46367.35,55710.25,-150.35,-75.25,0.002633,0.007381,1.881052,62.97,1
26383,0,46223,55629,46364.46,55708.62,-141.46,-79.62,0.002695,0.00741,1.882985,62.93,1
26394,0,46232,55638,46361.81,55707.21,-129.81,-69.21,0.002752,0.007435,1.885181,62.87,1
26403,0,46229,55630,46359.16,55705.67,-130.16,-75.67,0.002809,0.007463,1.886435,62.84,1
26414,0,46225,55630,46356.47,55704.16,-131.47,-74.16,0.002867,0.00749,1.888069,62.8,1
26424,0,46213,55634,46353.6,55702.76,-140.61,-68.76,0.002929,0.007515,1.891573,62.71,1
26433,0,46213,55637,46350.8,55701.44,-137.8,-64.44,0.00299,0.007539,1.895344,62.62,1
26443,0,46210,55632,46347.98,55700.05,-137.98,-68.05,0.00305,0.007564,1.898621,62.53,1
26452,0,46213,55632,46345.28,55698.69,-132.29,-66.7,0.003108,0.007588,1.901425,62.46,1
26464,0,46219,55629,46342.76,55697.3,-123.76,-68.3,0.003163,0.007613,1.903046,62.42,1
26473,0,46212,55624,46340.14,55695.83,-128.14,-71.84,0.003219,0.00764,1.904605,62.38,1
26484,0,46206,55624,46337.46,55694.4,-131.46,-70.4,0.003277,0.007665,1.906759,62.33,1
26493,0,46206,55620,46334.83,55692.91,-128.83,-72.91,0.003334,0.007692,1.908214,62.29,1
26503,0,46203,55628,46332.19,55691.62,-129.2,-63.62,0.003391,0.007715,1.911108,62.22,1
26514,0,46210,55628,46329.75,55690.34,-119.75,-62.34,0.003444,0.007738,1.913143,62.17,1
26523,0,46218,55628,46327.51,55689.1,-109.52,-61.1,0.003492,0.007761,1.914309,62.14,1
26533,0,46246,55636,46325.89,55688.03,-79.89,-52.04,0.003527,0.00778,1.914125,62.15,1
26543,0,46266,55642,46324.69,55687.12,-58.69,-45.12,0.003553,0.007796,1.913376,62.17,1
26554,0,46286,55649,46323.92,55686.35,-37.92,-37.36,0.00357,0.00781,1.912437,62.19,1
26563,0,46304,55648,46323.52,55685.59,-19.52,-37.59,0.003578,0.007824,1.910975,62.23,1
26573,0,46317,55666,46323.39,55685.2,-6.39,-19.2,0.003581,0.007831,1.910558,62.24,1
26584,0,46325,55655,46323.42,55684.6,1.58,-29.6,0.00358,0.007841,1.909511,62.26,1
26594,0,46319,55666,46323.33,55684.23,-4.33,-18.23,0.003582,0.007848,1.909119,62.27,1
26603,0,46325,55666,46323.37,55683.86,1.63,-17.86,0.003581,0.007855,1.908725,62.28,1
26613,0,46333,55669,46323.56,55683.57,9.44,-14.57,0.003577,0.00786,1.908494,62.29,1
26622,0,46343,55668,46323.95,55683.25,19.05,-15.25,0.003569,0.007866,1.90836,62.29,1
26634,0,46353,55676,46324.53,55683.11,28.46,-7.11,0.003556,0.007868,1.908663,62.28,1
26643,0,46358,55666,46325.21,55682.77,32.79,-16.77,0.003542,0.007874,1.908804,62.28,1
26653,0,46357,55666,46325.84,55682.43,31.16,-16.43,0.003528,0.00788,1.90891,62.28,1
26663,0,46344,55655,46326.21,55681.89,17.79,-26.89,0.00352,0.00789,1.908121,62.3,1
26674,0,46328,55642,46326.24,55681.09,1.76,-39.09,0.003519,0.007905,1.906148,62.35,1
26683,0,46297,55627,46325.66,55680.01,-28.66,-53.01,0.003532,0.007924,1.902954,62.43,1
26694,0,46266,55612,46324.47,55678.65,-58.47,-66.65,0.003558,0.007948,1.899004,62.52,1
26703,0,46238,55586,46322.74,55676.8,-84.74,-90.8,0.003595,0.007982,1.892136,62.7,1
26714,0,46214,55584,46320.57,55674.94,-106.57,-90.94,0.003642,0.008015,1.887462,62.81,1
26723,0,46195,55571,46318.06,55672.87,-123.06,-101.87,0.003696,0.008052,1.882131,62.95,1
26733,0,46178,55565,46315.26,55670.71,-137.26,-105.71,0.003757,0.008091,1.877786,63.06,1
26743,0,46181,55559,46312.57,55668.48,-131.57,-109.48,0.003815,0.008131,1.871722,63.21,1
26753,0,46169,55552,46309.7,55666.15,-140.7,-114.15,0.003877,0.008173,1.86576,63.36,1
26764,0,46158,55558,46306.67,55663.99,-148.67,-105.99,0.003942,0.008212,1.863292,63.42,1
26773,0,46155,55553,46303.64,55661.77,-148.64,-108.77,0.004007,0.008252,1.860139,63.5,1
26782,0,46155,55556,46300.67,55659.66,-145.67,-103.66,0.004072,0.00829,1.857915,63.55,1
26793,0,46165,55566,46297.96,55657.78,-132.96,-91.79,0.00413,0.008323,1.85673,63.58,1
26803,0,46188,55569,46295.76,55656.01,-107.77,-87.01,0.004177,0.008355,1.853504,63.66,1
26814,0,46205,55600,46293.95,55654.89,-88.95,-54.89,0.004217,0.008375,1.853921,63.65,1
26823,0,46241,55612,46292.89,55654.03,-51.89,-42.03,0.00424,0.008391,1.853162,63.67,1
26832,0,46268,55632,46292.4,55653.59,-24.4,-21.59,0.00425,0.008398,1.852902,63.68,1
26843,0,46301,55644,46292.57,55653.4,8.43,-9.4,0.004247,0.008402,1.852816,63.68,1
26853,0,46319,55654,46293.1,55653.41,25.9,0.59,0.004235,0.008402,1.853149,63.67,1
26863,0,46343,55666,46294.1,55653.67,48.9,12.33,0.004213,0.008397,1.854199,63.65,1
26873,0,46357,55679,46295.35,55654.17,61.64,24.83,0.004186,0.008388,1.85542,63.61,1
26883,0,46375,55680,46296.95,55654.69,78.05,25.31,0.004152,0.008379,1.857847,63.55,1
26894,0,46388,55695,46298.77,55655.5,89.23,39.5,0.004113,0.008364,1.86011,63.5,1
26903,0,46419,55704,46301.18,55656.46,117.82,47.54,0.004061,0.008347,1.864689,63.38,1
26913,0,46429,55718,46303.73,55657.69,125.27,60.3,0.004005,0.008325,1.868441,63.29,1
26924,0,46447,55729,46306.6,55659.12,140.4,69.88,0.003943,0.008299,1.872725,63.18,1
26933,0,46453,55722,46309.53,55660.38,143.47,61.62,0.00388,0.008276,1.878911,63.03,1
26943,0,46453,55723,46312.39,55661.64,140.61,61.36,0.003818,0.008254,1.884667,62.88,1
26953,0,46450,55718,46315.15,55662.76,134.85,55.23,0.003759,0.008234,1.890502,62.74,1
26963,0,46458,55720,46318.01,55663.91,139.99,56.09,0.003697,0.008213,1.896971,62.58,1
26973,0,46456,55725,46320.77,55665.13,135.23,59.87,0.003638,0.008191,1.902094,62.45,1
26984,0,46456,55726,46323.48,55666.35,132.52,59.65,0.003579,0.008169,1.906836,62.33,1
26993,0,46460,55722,46326.21,55667.47,133.79,54.53,0.00352,0.008149,1.912572,62.19,1
27002,0,46466,55723,46329,55668.58,137,54.42,0.00346,0.008129,1.918796,62.03,1
27014,0,46464,55718,46331.71,55669.57,132.29,48.43,0.003401,0.008111,1.925181,61.87,1
27023,0,46447,55707,46334.01,55670.32,112.98,36.68,0.003352,0.008098,1.930362,61.74,1
27033,0,46436,55691,46336.05,55670.73,99.95,20.27,0.003308,0.00809,1.93536,61.62,1
27042,0,46420,55676,46337.73,55670.84,82.27,5.16,0.003271,0.008089,1.939125,61.52,1
27054,0,46411,55676,46339.2,55670.94,71.8,5.05,0.00324,0.008087,1.942002,61.45,1
27063,0,46395,55666,46340.32,55670.85,54.68,-4.85,0.003216,0.008088,1.943656,61.41,1
27073,0,46378,55666,46341.07,55670.75,36.93,-4.75,0.003199,0.00809,1.944387,61.39,1
27082,0,46381,55662,46341.87,55670.58,39.13,-8.58,0.003182,0.008093,1.945141,61.37,1
27094,0,46386,55666,46342.75,55670.49,43.25,-4.49,0.003163,0.008095,1.946188,61.35,1
27103,0,46383,55663,46343.56,55670.34,39.44,-7.34,0.003146,0.008098,1.947004,61.32,1
27113,0,46394,55668,46344.57,55670.29,49.43,-2.29,0.003124,0.008098,1.948442,61.29,1
27122,0,46402,55675,46345.71,55670.39,56.29,4.61,0.003099,0.008097,1.950313,61.24,1
27133,0,46407,55683,46346.94,55670.64,60.06,12.36,0.003073,0.008092,1.95226,61.19,1
27143,0,46409,55692,46348.18,55671.07,60.82,20.93,0.003046,0.008084,1.953815,61.15,1
27153,0,46415,55699,46349.52,55671.63,65.48,27.37,0.003017,0.008074,1.955233,61.12,1
27163,0,46422,55687,46350.98,55671.94,71.02,15.06,0.002986,0.008069,1.958011,61.05,1
27173,0,46411,55694,46352.17,55672.38,58.82,21.62,0.00296,0.008061,1.959399,61.02,1
27183,0,46418,55695,46353.49,55672.83,64.51,22.17,0.002931,0.008053,1.961206,60.97,1
27193,0,46410,55690,46354.62,55673.17,55.38,16.82,0.002907,0.008047,1.96268,60.93,1
27203,0,46409,55677,46355.71,55673.25,53.29,3.75,0.002883,0.008045,1.964483,60.89,1
27213,0,46403,55679,46356.66,55673.37,46.34,5.63,0.002863,0.008043,1.965818,60.85,1
27223,0,46380,55660,46357.12,55673.1,22.87,-13.1,0.002853,0.008048,1.965832,60.85,1
27234,0,46358,55649,46357.14,55672.62,0.86,-23.62,0.002853,0.008057,1.964802,60.88,1
27243,0,46344,55632,46356.88,55671.81,-12.88,-39.81,0.002858,0.008071,1.962001,60.95,1
27253,0,46321,55621,46356.17,55670.8,-35.17,-49.8,0.002874,0.008089,1.958295,61.04,1
27262,0,46297,55606,46354.99,55669.5,-57.99,-63.5,0.002899,0.008113,1.953213,61.17,1
27274,0,46268,55597,46353.25,55668.05,-85.25,-71.05,0.002937,0.008139,1.949017,61.27,1
27283,0,46246,55572,46351.11,55666.14,-105.11,-94.14,0.002983,0.008173,1.94055,61.49,1
27293,0,46212,55554,46348.33,55663.89,-136.33,-109.89,0.003043,0.008213,1.931717,61.71,1
27303,0,46180,55538,46344.96,55661.38,-164.96,-123.38,0.003115,0.008259,1.923543,61.91,1
27313,0,46147,55519,46341.01,55658.53,-194.01,-139.53,0.003201,0.00831,1.915462,62.11,1
27323,0,46130,55504,46336.79,55655.44,-206.79,-151.44,0.003292,0.008365,1.905473,62.36,1
27333,0,46107,55500,46332.19,55652.33,-225.2,-152.33,0.003391,0.008421,1.900714,62.48,1
27343,0,46093,55492,46327.41,55649.12,-234.41,-157.13,0.003494,0.008479,1.896594,62.59,1
27353,0,46085,55480,46322.56,55645.75,-237.56,-165.75,0.003599,0.008539,1.889523,62.76,1
27363,0,46070,55473,46317.51,55642.29,-247.51,-169.29,0.003708,0.008601,1.884056,62.9,1
27373,0,46067,55473,46312.5,55638.91,-245.5,-165.91,0.003816,0.008662,1.879985,63,1
27382,0,46060,55462,46307.45,55635.37,-247.45,-173.37,0.003925,0.008726,1.873353,63.17,1
27394,0,46050,55471,46302.3,55632.08,-252.3,-161.09,0.004036,0.008785,1.873752,63.16,1
27403,0,46050,55464,46297.26,55628.73,-247.26,-164.73,0.004145,0.008845,1.871336,63.22,1
27412,0,46042,55455,46292.15,55625.25,-250.15,-170.25,0.004256,0.008908,1.867539,63.31,1
27423,0,46042,55457,46287.15,55621.89,-245.15,-164.89,0.004364,0.008968,1.86489,63.38,1
27432,0,46040,55453,46282.21,55618.51,-242.21,-165.51,0.00447,0.009029,1.861466,63.46,1
27444,0,46034,55455,46277.24,55615.24,-243.24,-160.24,0.004578,0.009088,1.860407,63.49,1
27453,0,46031,55444,46272.32,55611.82,-241.32,-167.82,0.004684,0.009149,1.856234,63.59,1
27462,0,46028,55445,46267.43,55608.48,-239.43,-163.48,0.00479,0.009209,1.853421,63.66,1
27473,0,46029,55447,46262.66,55605.25,-233.66,-158.25,0.004893,0.009267,1.851307,63.72,1
27483,0,46035,55443,46258.11,55602.01,-223.11,-159.01,0.004991,0.009326,1.846932,63.83,1
27492,0,46030,55453,46253.55,55599.03,-223.55,-146.03,0.00509,0.009379,1.846856,63.83,1
27503,0,46031,55448,46249.1,55596.01,-218.1,-148.01,0.005186,0.009434,1.845173,63.87,1
27512,0,46035,55451,46244.82,55593.11,-209.82,-142.11,0.005279,0.009486,1.843753,63.91,1
27524,0,46039,55452,46240.71,55590.29,-201.71,-138.29,0.005367,0.009537,1.842034,63.95,1
27533,0,46030,55446,46236.5,55587.41,-206.5,-141.41,0.005459,0.009588,1.840333,63.99,1
27542,0,46023,55451,46232.23,55584.68,-209.23,-133.68,0.005551,0.009637,1.84119,63.97,1
27553,0,46019,55447,46227.96,55581.93,-208.96,-134.93,0.005643,0.009687,1.841661,63.96,1
27563,0,46012,55447,46223.64,55579.23,-211.64,-132.23,0.005737,0.009735,1.843255,63.92,1
27574,0,46019,55459,46219.55,55576.83,-200.55,-117.83,0.005825,0.009779,1.846369,63.84,1
27583,0,46037,55470,46215.89,55574.69,-178.89,-104.7,0.005904,0.009817,1.848897,63.78,1
27592,0,46073,55495,46213.04,55573.1,-140.04,-78.1,0.005966,0.009846,1.851031,63.72,1
27603,0,46119,55520,46211.16,55572.04,-92.16,-52.04,0.006007,0.009865,1.851905,63.7,1
27613,0,46162,55535,46210.17,55571.3,-48.17,-36.3,0.006028,0.009878,1.851594,63.71,1
27623,0,46203,55571,46210.03,55571.29,-7.03,-0.29,0.006031,0.009878,1.85162,63.71,1
27632,0,46248,55588,46210.79,55571.62,37.21,16.37,0.006015,0.009872,1.85191,63.7,1
27643,0,46286,55614,46212.29,55572.48,73.71,41.52,0.005982,0.009857,1.852438,63.69,1
27653,0,46316,55615,46214.37,55573.33,101.63,41.67,0.005937,0.009842,1.85499,63.63,1
27663,0,46341,55649,46216.9,55574.84,124.1,74.16,0.005882,0.009814,1.855913,63.6,1
27672,0,46377,55653,46220.1,55576.41,156.89,76.59,0.005813,0.009786,1.860327,63.49,1
27683,0,46402,55683,46223.74,55578.54,178.26,104.46,0.005734,0.009748,1.862629,63.43,1
27693,0,46422,55691,46227.71,55580.79,194.29,110.21,0.005649,0.009707,1.866143,63.35,1
27702,0,46448,55705,46232.12,55583.28,215.88,121.72,0.005553,0.009663,1.870577,63.24,1
27713,0,46462,55714,46236.71,55585.89,225.29,128.11,0.005454,0.009616,1.875009,63.12,1
27722,0,46482,55724,46241.62,55588.66,240.38,135.34,0.005348,0.009566,1.88027,62.99,1
27734,0,46493,55745,46246.65,55591.78,246.35,153.22,0.005239,0.00951,1.881471,62.96,1
27743,0,46521,55765,46252.14,55595.25,268.86,169.75,0.00512,0.009447,1.882027,62.95,1
27752,0,46536,55783,46257.81,55599,278.19,184,0.004998,0.00938,1.879782,63.01,1
27763,0,46565,55796,46263.96,55602.94,301.04,193.05,0.004865,0.009309,1.879466,63.01,1
27772,0,46596,55809,46270.6,55607.07,325.4,201.93,0.004721,0.009235,1.881563,62.96,1
27783,0,46607,55826,46277.33,55611.44,329.67,214.55,0.004576,0.009156,1.879984,63,1
27793,0,46626,55837,46284.3,55615.96,341.7,221.04,0.004425,0.009075,1.878897,63.03,1
27803,0,46643,55860,46291.48,55620.84,351.52,239.16,0.00427,0.008987,1.873472,63.16,1
27812,0,46667,55870,46298.99,55625.82,368.01,244.18,0.004108,0.008898,1.870351,63.24,1
27822,0,46686,55885,46306.73,55631.01,379.27,253.99,0.003941,0.008804,1.866448,63.34,1
27833,0,46710,55895,46314.8,55636.29,395.2,258.71,0.003766,0.008709,1.864747,63.38,1
27842,0,46725,55904,46323,55641.64,402,262.36,0.003589,0.008613,1.863411,63.41,1
27853,0,46738,55925,46331.3,55647.31,406.7,277.69,0.00341,0.008511,1.857891,63.55,1
27863,0,46751,55930,46339.69,55652.96,411.3,277.04,0.003229,0.00841,1.854037,63.65,1
27873,0,46762,55943,46348.14,55658.76,413.86,284.23,0.003047,0.008305,1.848661,63.78,1
27883,0,46764,55949,46356.46,55664.57,407.54,284.43,0.002867,0.008201,1.842445,63.94,1
27892,0,46768,55953,46364.69,55670.34,403.31,282.66,0.00269,0.008098,1.836484,64.09,1
27902,0,46773,55954,46372.86,55676.01,400.14,277.99,0.002514,0.007996,1.831762,64.21,1
27913,0,46772,55949,46380.84,55681.47,391.16,267.53,0.002341,0.007898,1.828694,64.28,1
27923,0,46779,55959,46388.8,55687.02,390.2,271.98,0.00217,0.007798,1.824498,64.39,1
27932,0,46775,55949,46396.53,55692.26,378.47,256.73,0.002003,0.007704,1.822519,64.44,1
27942,0,46762,55944,46403.84,55697.3,358.16,246.7,0.001846,0.007613,1.819982,64.5,1
27953,0,46746,55937,46410.69,55702.09,335.31,234.91,0.001698,0.007527,1.817018,64.57,1
27962,0,46740,55931,46417.28,55706.67,322.72,224.32,0.001556,0.007445,1.81473,64.63,1
27973,0,46729,55933,46423.51,55711.2,305.49,221.8,0.001422,0.007364,1.810948,64.73,1
27982,0,46736,55926,46429.76,55715.5,306.24,210.5,0.001287,0.007287,1.809487,64.76,1
27994,0,46744,55937,46436.05,55719.93,307.95,217.07,0.001152,0.007207,1.807069,64.82,1
28003,0,46750,55934,46442.33,55724.21,307.67,209.79,0.001017,0.00713,1.806002,64.85,1
28012,0,46760,55947,46448.68,55728.67,311.32,218.33,0.00088,0.00705,1.803857,64.9,1
28023,0,46783,55949,46455.37,55733.07,327.63,215.93,0.000736,0.006971,1.804095,64.9,1
28033,0,46796,55959,46462.19,55737.59,333.81,221.41,0.000589,0.00689,1.804081,64.9,1
28043,0,46827,55977,46469.48,55742.38,357.52,234.62,0.000432,0.006804,1.804543,64.89,1
28052,0,46855,55982,46477.19,55747.17,377.8,234.82,0.000266,0.006718,1.807532,64.81,1
28062,0,46886,56004,46485.37,55752.31,400.63,251.69,0.00009,0.006626,1.810232,64.74,1
28072,0,46907,56021,46493.8,55757.69,413.2,263.31,-0.000091,0.00653,1.812221,64.69,1
28082,0,46940,56019,46502.73,55762.91,437.27,256.09,-0.000283,0.006436,1.818856,64.53,1
28093,0,46975,56032,46512.17,55768.3,462.82,263.7,-0.000486,0.00634,1.82737,64.32,1
28102,0,47010,56047,46522.13,55773.87,487.87,273.13,-0.0007,0.00624,1.837298,64.07,1
28113,0,47037,56068,46532.43,55779.76,504.57,288.24,-0.000922,0.006134,1.846135,63.85,1
28123,0,47057,56073,46542.92,55785.62,514.08,287.38,-0.001147,0.006029,1.856044,63.6,1
28132,0,47071,56086,46553.48,55791.63,517.52,294.37,-0.001374,0.005921,1.864469,63.39,1
28143,0,47092,56092,46564.25,55797.64,527.75,294.36,-0.001605,0.005813,1.873882,63.15,1
28152,0,47107,56094,46575.11,55803.57,531.89,290.43,-0.001838,0.005707,1.884109,62.9,1
28163,0,47119,56109,46585.99,55809.67,533.01,299.32,-0.002072,0.005598,1.892191,62.7,1
28173,0,47143,56117,46597.13,55815.82,545.87,301.18,-0.002311,0.005488,1.90123,62.47,1
28182,0,47164,56123,46608.47,55821.97,555.53,301.03,-0.002554,0.005378,1.91111,62.22,1
28192,0,47173,56131,46619.76,55828.15,553.24,302.85,-0.002797,0.005267,1.91978,62.01,1
28203,0,47176,56130,46630.89,55834.19,545.11,295.81,-0.003035,0.005159,1.928211,61.79,1
28213,0,47164,56135,46641.55,55840.21,522.45,294.79,-0.003264,0.005051,1.933572,61.66,1
28222,0,47163,56133,46651.98,55846.06,511.02,286.94,-0.003487,0.004946,1.938694,61.53,1
28232,0,47156,56125,46662.06,55851.64,493.94,273.36,-0.003704,0.004846,1.943915,61.4,1
28242,0,47148,56129,46671.78,55857.19,476.22,271.81,-0.003912,0.004747,1.947271,61.32,1
28252,0,47141,56110,46681.17,55862.24,459.83,247.76,-0.004113,0.004656,1.952469,61.19,1
28263,0,47127,56110,46690.08,55867.2,436.91,242.8,-0.004304,0.004568,1.955987,61.1,1
28272,0,47118,56108,46698.64,55872.01,419.36,235.98,-0.004487,0.004481,1.958734,61.03,1
28281,0,47104,56096,46706.75,55876.5,397.25,219.5,-0.004661,0.004401,1.961645,60.96,1
28293,0,47086,56091,46714.33,55880.79,371.66,210.21,-0.004823,0.004324,1.963554,60.91,1
28302,0,47070,56083,46721.45,55884.84,348.55,198.16,-0.004975,0.004252,1.965078,60.87,1
28313,0,47040,56074,46727.82,55888.62,312.18,185.38,-0.005112,0.004184,1.965447,60.86,1
28322,0,47018,56058,46733.62,55892.01,284.38,165.98,-0.005236,0.004124,1.966016,60.85,1
28332,0,47010,56062,46739.15,55895.41,270.85,166.59,-0.005354,0.004063,1.965728,60.86,1
28343,0,46999,56051,46744.35,55898.53,254.65,152.47,-0.005465,0.004007,1.965838,60.85,1
28352,0,46990,56055,46749.26,55901.66,240.73,153.34,-0.005571,0.003951,1.965137,60.87,1
28362,0,46976,56053,46753.8,55904.69,222.2,148.31,-0.005668,0.003897,1.963964,60.9,1
28372,0,46966,56048,46758.05,55907.55,207.95,140.45,-0.005758,0.003846,1.9628,60.93,1
28382,0,46962,56049,46762.12,55910.39,199.88,138.61,-0.005846,0.003795,1.961433,60.96,1
28392,0,46955,56043,46765.98,55913.04,189.02,129.96,-0.005928,0.003748,1.960293,60.99,1
28402,0,46951,56039,46769.68,55915.56,181.32,123.44,-0.006007,0.003702,1.959331,61.02,1
28412,0,46932,56038,46772.93,55918.01,159.07,119.98,-0.006077,0.003658,1.957791,61.06,1
28422,0,46925,56031,46775.97,55920.28,149.03,110.72,-0.006142,0.003618,1.956545,61.09,1
28433,0,46915,56028,46778.75,55922.43,136.25,105.57,-0.006201,0.00358,1.955228,61.12,1
28442,0,46912,56032,46781.42,55924.62,130.58,107.38,-0.006258,0.00354,1.953623,61.16,1
28451,0,46904,56030,46783.87,55926.73,120.13,103.27,-0.00631,0.003503,1.951982,61.2,1
28463,0,46914,56035,46786.47,55928.89,127.53,106.11,-0.006366,0.003464,1.950359,61.24,1
28472,0,46917,56031,46789.08,55930.94,127.92,100.06,-0.006422,0.003427,1.949124,61.27,1
28483,0,46913,56035,46791.56,55933.02,121.44,101.98,-0.006475,0.00339,1.947579,61.31,1
28492,0,46919,56041,46794.11,55935.18,124.89,105.82,-0.006529,0.003352,1.945879,61.35,1
28503,0,46926,56053,46796.75,55937.53,129.25,115.46,-0.006586,0.003309,1.943636,61.41,1
28512,0,46918,56043,46799.17,55939.64,118.83,103.36,-0.006638,0.003272,1.941915,61.45,1
28522,0,46909,56037,46801.37,55941.59,107.63,95.41,-0.006684,0.003237,1.940389,61.49,1
28532,0,46917,56052,46803.68,55943.8,113.32,108.2,-0.006734,0.003198,1.938178,61.55,1
28541,0,46933,56052,46806.26,55945.96,126.73,106.04,-0.006789,0.003159,1.93649,61.59,1
28553,0,46943,56065,46809,55948.34,134,116.66,-0.006847,0.003116,1.934269,61.64,1
28562,0,46946,56058,46811.74,55950.54,134.26,107.46,-0.006906,0.003077,1.932713,61.68,1
28573,0,46943,56067,46814.37,55952.87,128.63,114.13,-0.006962,0.003035,1.930495,61.74,1
28582,0,46945,56051,46816.98,55954.83,128.02,96.16,-0.007018,0.003,1.929481,61.76,1
28592,0,46915,56048,46818.94,55956.7,96.06,91.3,-0.00706,0.002967,1.927877,61.8,1
28602,0,46907,56036,46820.7,55958.29,86.3,77.71,-0.007098,0.002939,1.9268,61.83,1
28612,0,46896,56033,46822.21,55959.78,73.79,73.21,-0.00713,0.002912,1.925692,61.86,1
28622,0,46877,56020,46823.31,55960.99,53.69,59.01,-0.007153,0.00289,1.924885,61.88,1
28632,0,46877,56013,46824.38,55962.03,52.62,50.97,-0.007176,0.002872,1.924354,61.89,1
28643,0,46879,56011,46825.47,55963.01,53.53,47.99,-0.007199,0.002854,1.92393,61.9,1
28652,0,46869,56009,46826.34,55963.93,42.66,45.07,-0.007218,0.002838,1.923464,61.91,1
28662,0,46858,55994,46826.98,55964.53,31.02,29.46,-0.007231,0.002827,1.923284,61.92,1
28672,0,46853,55992,46827.5,55965.08,25.5,26.91,-0.007243,0.002817,1.923114,61.92,1
28683,0,46849,55993,46827.92,55965.64,21.07,27.36,-0.007252,0.002807,1.922909,61.93,1
28692,0,46839,55986,46828.15,55966.05,10.85,19.95,-0.007256,0.0028,1.922786,61.93,1
28702,0,46846,55983,46828.51,55966.39,17.49,16.61,-0.007264,0.002794,1.922726,61.93,1
28711,0,46842,55975,46828.78,55966.56,13.22,8.44,-0.00727,0.002791,1.922719,61.93,1
28723,0,46838,55984,46828.96,55966.91,9.04,17.09,-0.007274,0.002784,1.922627,61.93,1
28732,0,46837,55977,46829.12,55967.11,7.88,9.89,-0.007277,0.002781,1.922599,61.94,1
28742,0,46838,55977,46829.3,55967.31,8.7,9.69,-0.007281,0.002777,1.922574,61.94,1
28751,0,46843,55973,46829.58,55967.43,13.42,5.57,-0.007287,0.002775,1.922582,61.94,1
28763,0,46848,55975,46829.95,55967.58,18.05,7.42,-0.007295,0.002772,1.9226,61.94,1
28772,0,46848,55978,46830.31,55967.79,17.69,10.21,-0.007303,0.002769,1.922598,61.94,1
28782,0,46844,55971,46830.58,55967.85,13.41,3.15,-0.007309,0.002768,1.922613,61.93,1
28791,0,46839,55969,46830.76,55967.87,8.24,1.12,-0.007312,0.002767,1.922617,61.93,1
28803,0,46824,55963,46830.62,55967.78,-6.63,-4.78,-0.007309,0.002769,1.922616,61.93,1
28812,0,46815,55963,46830.31,55967.69,-15.31,-4.69,-0.007303,0.002771,1.922654,61.93,1
28822,0,46807,55958,46829.85,55967.5,-22.85,-9.5,-0.007293,0.002774,1.922712,61.93,1
28831,0,46800,55965,46829.25,55967.45,-29.25,-2.45,-0.00728,0.002775,1.92287,61.93,1
28843,0,46808,55963,46828.82,55967.36,-20.82,-4.36,-0.007271,0.002776,1.922947,61.93,1
28852,0,46806,55969,46828.37,55967.39,-22.37,1.61,-0.007261,0.002776,1.923048,61.92,1
28862,0,46806,55965,46827.92,55967.35,-21.93,-2.35,-0.007252,0.002777,1.923142,61.92,1
28871,0,46808,55963,46827.53,55967.26,-19.53,-4.26,-0.007243,0.002778,1.923211,61.92,1
28882,0,46816,55963,46827.3,55967.18,-11.3,-4.18,-0.007238,0.00278,1.923231,61.92,1
28892,0,46816,55962,46827.07,55967.07,-11.07,-5.07,-0.007234,0.002782,1.923247,61.92,1
28902,0,46810,55960,46826.73,55966.93,-16.73,-6.93,-0.007226,0.002784,1.923283,61.92,1
28911,0,46816,55969,46826.51,55966.98,-10.52,2.02,-0.007222,0.002783,1.923311,61.92,1
28922,0,46814,55969,46826.26,55967.01,-12.27,1.98,-0.007216,0.002783,1.923347,61.92,1
28932,0,46809,55969,46825.92,55967.05,-16.92,1.95,-0.007209,0.002782,1.923411,61.91,1
28942,0,46808,55960,46825.57,55966.91,-17.57,-6.91,-0.007201,0.002784,1.923454,61.91,1
28951,0,46813,55970,46825.32,55966.98,-12.32,3.02,-0.007196,0.002783,1.92349,61.91,1
28962,0,46811,55972,46825.03,55967.08,-14.03,4.92,-0.00719,0.002781,1.923529,61.91,1
28972,0,46821,55974,46824.95,55967.22,-3.95,6.78,-0.007188,0.002779,1.923518,61.91,1
28982,0,46820,55975,46824.85,55967.37,-4.85,7.63,-0.007186,0.002776,1.923504,61.91,1
28991,0,46819,55966,46824.73,55967.35,-5.73,-1.35,-0.007184,0.002777,1.923513,61.91,1
29002,0,46811,55966,46824.46,55967.32,-13.46,-1.32,-0.007178,0.002777,1.923557,61.91,1
29012,0,46807,55962,46824.11,55967.21,-17.11,-5.21,-0.00717,0.002779,1.923611,61.91,1
29022,0,46789,55948,46823.41,55966.83,-34.41,-18.83,-0.007155,0.002786,1.923678,61.91,1
29033,0,46788,55954,46822.71,55966.57,-34.71,-12.57,-0.00714,0.00279,1.923854,61.9,1
29042,0,46768,55940,46821.61,55966.04,-53.61,-26.04,-0.007117,0.0028,1.924102,61.9,1
29051,0,46772,55947,46820.62,55965.66,-48.63,-18.66,-0.007096,0.002807,1.924422,61.89,1
29062,0,46766,55939,46819.53,55965.13,-53.54,-26.13,-0.007073,0.002816,1.92467,61.88,1
29071,0,46772,55943,46818.58,55964.69,-46.59,-21.69,-0.007052,0.002824,1.924888,61.88,1
29082,0,46770,55935,46817.61,55964.1,-47.61,-29.1,-0.007031,0.002835,1.924922,61.88,1
29091,0,46757,55931,46816.4,55963.44,-59.4,-32.44,-0.007006,0.002847,1.925116,61.87,1
29102,0,46751,55923,46815.09,55962.63,-64.09,-39.63,-0.006978,0.002861,1.925149,61.87,1
29112,0,46741,55927,46813.61,55961.92,-72.61,-34.92,-0.006946,0.002874,1.925632,61.86,1
29122,0,46735,55918,46812.04,55961.04,-77.04,-43.04,-0.006912,0.002889,1.925908,61.85,1
29131,0,46725,55912,46810.3,55960.06,-85.3,-48.06,-0.006875,0.002907,1.926222,61.84,1
29142,0,46721,55915,46808.52,55959.16,-87.52,-44.16,-0.006837,0.002923,1.926829,61.83,1
29152,0,46731,55912,46806.97,55958.21,-75.97,-46.21,-0.006804,0.00294,1.92691,61.83,1
29162,0,46729,55915,46805.41,55957.35,-76.41,-42.35,-0.006771,0.002955,1.927205,61.82,1
29171,0,46736,55926,46804.03,55956.73,-68.03,-30.73,-0.006741,0.002966,1.927726,61.81,1
29182,0,46747,55924,46802.89,55956.07,-55.89,-32.07,-0.006717,0.002978,1.927852,61.8,1
29192,0,46757,55939,46801.97,55955.73,-44.97,-16.73,-0.006697,0.002984,1.928172,61.8,1
29202,0,46770,55937,46801.33,55955.36,-31.33,-18.36,-0.006684,0.002991,1.92821,61.79,1
29211,0,46786,55951,46801.02,55955.27,-15.02,-4.27,-0.006677,0.002992,1.928261,61.79,1
29222,0,46786,55948,46800.72,55955.13,-14.72,-7.13,-0.006671,0.002995,1.928288,61.79,1
29232,0,46793,55942,46800.57,55954.87,-7.57,-12.87,-0.006667,0.003,1.928197,61.8,1
29242,0,46787,55944,46800.3,55954.65,-13.3,-10.65,-0.006662,0.003004,1.928173,61.8,1
29251,0,46787,55938,46800.03,55954.32,-13.03,-16.32,-0.006656,0.003009,1.928046,61.8,1
29262,0,46787,55942,46799.77,55954.07,-12.77,-12.07,-0.00665,0.003014,1.927996,61.8,1
29272,0,46791,55943,46799.59,55953.85,-8.59,-10.85,-0.006647,0.003018,1.927938,61.8,1
29282,0,46797,55949,46799.54,55953.75,-2.54,-4.75,-0.006645,0.00302,1.927924,61.8,1
29291,0,46807,55949,46799.69,55953.66,7.3,-4.66,-0.006649,0.003021,1.927914,61.8,1
29302,0,46803,55958,46799.76,55953.75,3.24,4.25,-0.00665,0.00302,1.927905,61.8,1
29312,0,46800,55953,46799.76,55953.73,0.23,-0.73,-0.00665,0.00302,1.927904,61.8,1
29322,0,46790,55944,46799.57,55953.54,-9.57,-9.54,-0.006646,0.003023,1.927867,61.8,1
29331,0,46781,55936,46799.2,55953.19,-18.2,-17.19,-0.006638,0.00303,1.927756,61.81,1
29341,0,46774,55931,46798.69,55952.75,-24.7,-21.75,-0.006627,0.003038,1.927598,61.81,1
29352,0,46762,55933,46797.96,55952.35,-35.96,-19.35,-0.006612,0.003045,1.9277,61.81,1
29362,0,46767,55923,46797.34,55951.76,-30.34,-28.77,-0.006598,0.003055,1.927373,61.82,1
29371,0,46760,55925,46796.6,55951.23,-36.6,-26.23,-0.006582,0.003065,1.927264,61.82,1
29382,0,46768,55916,46796.03,55950.53,-28.03,-34.53,-0.00657,0.003077,1.926628,61.83,1
29391,0,46771,55929,46795.53,55950.1,-24.53,-21.1,-0.00656,0.003085,1.92648,61.84,1
29402,0,46769,55926,46795,55949.62,-26,-23.62,-0.006548,0.003093,1.926269,61.84,1
29411,0,46764,55927,46794.38,55949.16,-30.38,-22.16,-0.006535,0.003102,1.926179,61.85,1
29422,0,46755,55915,46793.6,55948.48,-38.6,-33.48,-0.006518,0.003114,1.925783,61.86,1
29431,0,46764,55918,46793.01,55947.87,-29.01,-29.87,-0.006506,0.003125,1.925361,61.87,1
29442,0,46762,55924,46792.39,55947.4,-30.39,-23.4,-0.006492,0.003133,1.925226,61.87,1
29451,0,46767,55929,46791.88,55947.03,-24.88,-18.03,-0.006482,0.00314,1.925168,61.87,1
29462,0,46789,55931,46791.82,55946.71,-2.82,-15.71,-0.006481,0.003145,1.924972,61.88,1
29471,0,46805,55944,46792.09,55946.66,12.91,-2.66,-0.006486,0.003146,1.925004,61.87,1
29481,0,46815,55952,46792.55,55946.76,22.45,5.24,-0.006496,0.003145,1.925119,61.87,1
29491,0,46823,55959,46793.16,55947.01,29.84,11.99,-0.006509,0.00314,1.925261,61.87,1
29502,0,46839,55964,46794.08,55947.35,44.92,16.65,-0.006529,0.003134,1.925636,61.86,1
29511,0,46856,55978,46795.32,55947.96,60.68,30.04,-0.006555,0.003123,1.926025,61.85,1
29521,0,46871,55989,46796.83,55948.79,74.16,40.21,-0.006588,0.003108,1.926401,61.84,1
29532,0,46891,55986,46798.72,55949.53,92.28,36.47,-0.006628,0.003095,1.927953,61.8,1
29542,0,46902,55997,46800.78,55950.48,101.21,46.52,-0.006672,0.003078,1.929376,61.77,1
29551,0,46909,55994,46802.95,55951.35,106.05,42.64,-0.006718,0.003062,1.931411,61.71,1
29562,0,46921,55999,46805.31,55952.31,115.69,46.69,-0.006769,0.003045,1.933839,61.65,1
29572,0,46919,56001,46807.58,55953.28,111.41,47.72,-0.006817,0.003028,1.935884,61.6,1
29582,0,46923,56007,46809.89,55954.35,113.11,52.64,-0.006867,0.003009,1.93764,61.56,1
29591,0,46913,56012,46811.96,55955.51,101.04,56.49,-0.006911,0.002988,1.938196,61.55,1
29601,0,46914,56022,46814,55956.84,100,65.16,-0.006954,0.002964,1.937771,61.56,1
29612,0,46922,56024,46816.17,55958.18,105.83,65.82,-0.007001,0.00294,1.937666,61.56,1
29621,0,46939,56028,46818.62,55959.58,120.37,68.42,-0.007053,0.002915,1.938349,61.54,1
29632,0,46942,56027,46821.09,55960.92,120.91,66.07,-0.007106,0.002891,1.939354,61.52,1
29641,0,46953,56027,46823.73,55962.25,129.27,64.75,-0.007162,0.002868,1.94122,61.47,1
29651,0,46950,56030,46826.26,55963.6,123.74,66.39,-0.007216,0.002843,1.942421,61.44,1
29662,0,46940,56024,46828.53,55964.82,111.46,59.18,-0.007265,0.002822,1.94346,61.41,1
29672,0,46934,56020,46830.64,55965.92,103.36,54.08,-0.00731,0.002802,1.944431,61.39,1
29681,0,46915,56013,46832.33,55966.86,82.67,46.14,-0.007346,0.002785,1.944812,61.38,1
29690,0,46904,56019,46833.76,55967.91,70.23,51.09,-0.007376,0.002767,1.944093,61.4,1
29702,0,46900,56018,46835.09,55968.91,64.91,49.09,-0.007405,0.002749,1.943305,61.42,1
29711,0,46909,56023,46836.57,55969.99,72.43,53.01,-0.007436,0.002729,1.942501,61.44,1
29721,0,46917,56024,46838.18,55971.07,78.82,52.93,-0.007471,0.00271,1.942044,61.45,1
29731,0,46923,56023,46839.88,55972.11,83.12,50.89,-0.007507,0.002691,1.942035,61.45,1
29742,0,46926,56023,46841.6,55973.13,84.4,49.87,-0.007544,0.002673,1.942202,61.44,1
29751,0,46918,56015,46843.13,55973.97,74.87,41.03,-0.007576,0.002658,1.942595,61.44,1
29761,0,46893,56000,46844.12,55974.5,48.88,25.5,-0.007598,0.002649,1.942821,61.43,1
29771,0,46869,56004,46844.62,55975.08,24.38,28.91,-0.007608,0.002638,1.942214,61.44,1
29782,0,46855,55984,46844.83,55975.26,10.17,8.73,-0.007613,0.002635,1.942175,61.45,1
29791,0,46845,55980,46844.83,55975.36,0.16,4.64,-0.007613,0.002633,1.942156,61.45,1
29802,0,46852,55977,46844.98,55975.39,7.02,1.61,-0.007616,0.002633,1.942167,61.45,1
29811,0,46859,55985,46845.26,55975.58,13.74,9.41,-0.007622,0.002629,1.942145,61.45,1
29821,0,46866,55982,46845.67,55975.71,20.32,6.29,-0.007631,0.002627,1.942254,61.44,1
29831,0,46868,55986,46846.12,55975.92,21.88,10.08,-0.00764,0.002623,1.942326,61.44,1
29842,0,46880,55982,46846.8,55976.05,33.2,5.95,-0.007655,0.002621,1.942708,61.43,1
29851,0,46876,55988,46847.39,55976.29,28.61,11.71,-0.007667,0.002617,1.942878,61.43,1
29861,0,46861,55970,46847.66,55976.16,13.34,-6.16,-0.007673,0.002619,1.942894,61.43,1
29871,0,46865,55973,46848.01,55976.1,16.99,-3.1,-0.007681,0.00262,1.942986,61.43,1
29882,0,46863,55961,46848.31,55975.8,14.69,-14.8,-0.007687,0.002626,1.942811,61.43,1
29891,0,46859,55978,46848.52,55975.84,10.48,2.16,-0.007692,0.002625,1.942845,61.43,1
29901,0,46855,55971,46848.66,55975.75,6.34,-4.75,-0.007694,0.002627,1.942828,61.43,1
29911,0,46872,55988,46849.12,55976,22.87,12,-0.007704,0.002622,1.942879,61.43,1
29922,0,46883,55991,46849.8,55976.3,33.2,14.7,-0.007719,0.002617,1.943092,61.42,1
29931,0,46897,56006,46850.75,55976.89,46.25,29.11,-0.007739,0.002606,1.943029,61.42,1
29941,0,46919,56000,46852.11,55977.36,66.89,22.64,-0.007768,0.002598,1.944371,61.39,1
29950,0,46927,56016,46853.61,55978.13,73.39,37.87,-0.0078,0.002584,1.945046,61.37,1
29962,0,46943,56017,46855.4,55978.91,87.6,38.09,-0.007838,0.00257,1.946723,61.33,1
29971,0,46962,56029,46857.53,55979.91,104.47,49.09,-0.007884,0.002552,1.948716,61.28,1
29981,0,46972,56042,46859.82,55981.15,112.18,60.85,-0.007933,0.00253,1.949907,61.25,1
29990,0,46981,56050,46862.25,55982.53,118.75,67.47,-0.007985,0.002505,1.950757,61.23,1
30002,0,47005,56055,46865.11,55983.98,139.89,71.02,-0.008046,0.002479,1.953493,61.16,1
30011,0,47024,56068,46868.29,55985.66,155.71,82.34,-0.008113,0.002449,1.956222,61.09,1
30022,0,47053,56083,46871.98,55987.61,181.02,95.39,-0.008192,0.002415,1.959957,61,1
30031,0,47068,56089,46875.91,55989.64,192.09,99.36,-0.008276,0.002378,1.964557,60.89,1
30042,0,47081,56100,46880.01,55991.85,200.99,108.15,-0.008363,0.002339,1.968416,60.79,1
30052,0,47089,56101,46884.19,55994.03,204.8,106.96,-0.008453,0.0023,1.973192,60.67,1
30061,0,47095,56097,46888.41,55996.1,206.59,100.9,-0.008543,0.002263,1.979729,60.51,1
30071,0,47091,56095,46892.46,55998.07,198.54,96.93,-0.008629,0.002228,1.985665,60.36,1
30082,0,47084,56085,46896.3,55999.81,187.7,85.19,-0.008711,0.002197,1.992283,60.19,1
30092,0,47083,56089,46900.03,56001.6,182.97,87.4,-0.00879,0.002165,1.997584,60.06,1
30101,0,47082,56081,46903.67,56003.19,178.33,77.81,-0.008868,0.002136,2.004046,59.9,1
30112,0,47083,56089,46907.26,56004.91,175.74,84.09,-0.008944,0.002106,2.008788,59.78,1
30121,0,47088,56087,46910.87,56006.55,177.13,80.45,-0.009021,0.002077,2.014442,59.64,1
30131,0,47092,56086,46914.5,56008.14,177.5,77.86,-0.009099,0.002048,2.020617,59.48,1
30142,0,47097,56092,46918.15,56009.82,178.85,82.18,-0.009177,0.002018,2.026077,59.35,1
30151,0,47097,56089,46921.73,56011.4,175.27,77.6,-0.009253,0.00199,2.031858,59.2,1
30161,0,47099,56081,46925.28,56012.8,173.72,68.2,-0.009328,0.001965,2.039103,59.02,1
30171,0,47098,56085,46928.73,56014.24,169.27,70.76,-0.009402,0.001939,2.045184,58.87,1
30182,0,47100,56082,46932.16,56015.6,167.84,66.4,-0.009475,0.001915,2.051793,58.71,1
30191,0,47098,56072,46935.48,56016.73,162.52,55.27,-0.009546,0.001895,2.059369,58.52,1
30200,0,47097,56074,46938.71,56017.87,158.29,56.13,-0.009615,0.001874,2.06621,58.34,1
30212,0,47099,56078,46941.92,56019.08,157.08,58.92,-0.009683,0.001853,2.072446,58.19,1
30221,0,47104,56074,46945.16,56020.18,158.84,53.82,-0.009752,0.001833,2.079686,58.01,1
30232,0,47110,56085,46948.46,56021.48,161.54,63.52,-0.009822,0.00181,2.085757,57.86,1
30241,0,47125,56081,46951.99,56022.67,173.01,58.33,-0.009898,0.001789,2.094371,57.64,1
30252,0,47127,56096,46955.49,56024.13,171.51,71.87,-0.009972,0.001763,2.100299,57.49,1
30261,0,47140,56094,46959.18,56025.53,180.82,68.47,-0.010051,0.001738,2.108302,57.29,1
30271,0,47143,56101,46962.86,56027.04,180.14,73.96,-0.010129,0.001711,2.115055,57.12,1
30281,0,47154,56102,46966.68,56028.54,187.32,73.46,-0.01021,0.001684,2.123025,56.92,1
30290,0,47148,56094,46970.31,56029.85,177.69,64.15,-0.010288,0.00166,2.131186,56.72,1
30302,0,47155,56090,46974,56031.05,181,58.95,-0.010366,0.001639,2.140746,56.48,1
30311,0,47150,56075,46977.52,56031.93,172.48,43.07,-0.010441,0.001623,2.15127,56.22,1
30322,0,47138,56079,46980.73,56032.87,157.27,46.13,-0.01051,0.001607,2.159162,56.02,1
30331,0,47129,56074,46983.7,56033.7,145.3,40.3,-0.010573,0.001592,2.166182,55.85,1
30341,0,47119,56063,46986.41,56034.29,132.59,28.71,-0.01063,0.001581,2.172823,55.68,1
30351,0,47095,56054,46988.58,56034.68,106.42,19.32,-0.010677,0.001574,2.177346,55.57,1
30361,0,47082,56043,46990.45,56034.85,91.55,8.15,-0.010716,0.001571,2.181024,55.47,1
30371,0,47076,56045,46992.16,56035.05,83.84,9.95,-0.010753,0.001568,2.184063,55.4,1
30381,0,47076,56039,46993.83,56035.14,82.16,3.86,-0.010788,0.001566,2.187128,55.32,1
30392,0,47076,56050,46995.48,56035.43,80.52,14.57,-0.010823,0.001561,2.189788,55.26,1
30401,0,47084,56046,46997.25,56035.65,86.75,10.35,-0.010861,0.001557,2.193126,55.17,1
30411,0,47096,56055,46999.23,56036.04,96.77,18.96,-0.010903,0.00155,2.196961,55.08,1
30420,0,47090,56038,47001.04,56036.08,88.96,1.92,-0.010942,0.001549,2.200702,54.98,1
30432,0,47097,56050,47002.96,56036.36,94.04,13.64,-0.010983,0.001544,2.204628,54.88,1
30441,0,47091,56050,47004.73,56036.64,86.27,13.36,-0.01102,0.001539,2.207917,54.8,1
30451,0,47090,56055,47006.43,56037.01,83.57,17.99,-0.011056,0.001533,2.210764,54.73,1
30460,0,47090,56047,47008.1,56037.21,81.89,9.79,-0.011092,0.001529,2.213882,54.65,1
30472,0,47098,56057,47009.91,56037.61,88.09,19.39,-0.01113,0.001522,2.217072,54.57,1
30481,0,47100,56058,47011.71,56038.02,88.29,19.98,-0.011169,0.001515,2.220262,54.49,1
30491,0,47109,56067,47013.66,56038.6,95.34,28.4,-0.01121,0.001504,2.223413,54.41,1
30501,0,47118,56061,47015.74,56039.05,102.26,21.95,-0.011255,0.001496,2.22786,54.3,1
30512,0,47123,56067,47017.89,56039.61,105.11,27.39,-0.0113,0.001486,2.232156,54.2,1
30521,0,47120,56075,47019.93,56040.32,100.07,34.68,-0.011344,0.001474,2.235115,54.12,1
30530,0,47119,56074,47021.91,56040.99,97.09,33.01,-0.011386,0.001462,2.23799,54.05,1
30541,0,47119,56076,47023.85,56041.69,95.14,34.31,-0.011427,0.001449,2.240522,53.99,1
30551,0,47120,56076,47025.78,56042.38,94.22,33.62,-0.011468,0.001437,2.243063,53.92,1
30562,0,47131,56084,47027.88,56043.21,103.12,40.79,-0.011513,0.001422,2.245539,53.86,1
30571,0,47140,56088,47030.12,56044.11,109.87,43.89,-0.01156,0.001406,2.248291,53.79,1
30581,0,47149,56098,47032.5,56045.19,116.5,52.81,-0.011611,0.001387,2.250195,53.75,1
30590,0,47156,56094,47034.98,56046.16,121.02,47.84,-0.011663,0.001369,2.253648,53.66,1
30602,0,47165,56105,47037.58,56047.34,127.42,57.66,-0.011719,0.001348,2.255944,53.6,1
30611,0,47154,56100,47039.91,56048.4,114.09,51.6,-0.011768,0.00133,2.257779,53.56,1
30620,0,47140,56090,47041.91,56049.23,98.09,40.77,-0.011811,0.001315,2.259733,53.51,1
30631,0,47120,56076,47043.47,56049.76,76.53,26.23,-0.011844,0.001305,2.26156,53.46,1
30641,0,47099,56073,47044.58,56050.23,54.41,22.77,-0.011868,0.001297,2.262139,53.45,1
30651,0,47093,56064,47045.55,56050.51,47.45,13.49,-0.011888,0.001292,2.263007,53.42,1
30661,0,47088,56062,47046.41,56050.74,41.59,11.26,-0.011907,0.001288,2.263703,53.41,1
30671,0,47081,56060,47047.1,56050.92,33.9,9.08,-0.011921,0.001284,2.264168,53.4,1
30681,0,47077,56054,47047.7,56050.98,29.3,3.02,-0.011934,0.001283,2.264623,53.38,1
30692,0,47080,56053,47048.35,56051.02,31.65,1.98,-0.011948,0.001283,2.265175,53.37,1
30701,0,47062,56035,47048.62,56050.7,13.38,-15.7,-0.011954,0.001288,2.264726,53.38,1
30711,0,47052,56029,47048.69,56050.27,3.31,-21.27,-0.011955,0.001296,2.263731,53.41,1
30721,0,47033,56021,47048.37,56049.69,-15.38,-28.69,-0.011948,0.001306,2.262066,53.45,1
30732,0,47006,56013,47047.53,56048.96,-41.53,-35.96,-0.01193,0.00132,2.260284,53.49,1
30741,0,46985,56001,47046.28,56048,-61.28,-47,-0.011904,0.001337,2.257727,53.56,1
30750,0,46970,56003,47044.75,56047.1,-74.75,-44.1,-0.011871,0.001353,2.256899,53.58,1
30761,0,46962,55995,47043.1,56046.06,-81.1,-51.06,-0.011836,0.001371,2.255207,53.62,1
30771,0,46952,55988,47041.28,56044.9,-89.28,-56.9,-0.011797,0.001392,2.252978,53.68,1
30781,0,46947,55981,47039.39,56043.62,-92.39,-62.62,-0.011757,0.001415,2.249575,53.76,1
30790,0,46926,55970,47037.13,56042.15,-111.13,-72.15,-0.011709,0.001441,2.245725,53.86,1
30801,0,46915,55954,47034.69,56040.38,-119.69,-86.38,-0.011657,0.001473,2.238134,54.05,1
30811,0,46889,55926,47031.78,56038.1,-142.78,-112.1,-0.011595,0.001513,2.223313,54.42,1
30822,0,46857,55922,47028.28,56035.78,-171.29,-113.78,-0.011521,0.001555,2.213712,54.66,1
30831,0,46842,55908,47024.56,56033.22,-182.56,-125.22,-0.011442,0.0016,2.201191,54.97,1
30840,0,46821,55895,47020.49,56030.46,-199.49,-135.46,-0.011355,0.00165,2.187701,55.31,1
30852,0,46801,55893,47016.1,56027.71,-215.1,-134.71,-0.011262,0.001699,2.179098,55.52,1
30861,0,46786,55878,47011.5,56024.71,-225.5,-146.71,-0.011164,0.001752,2.167142,55.82,1
30870,0,46783,55872,47006.92,56021.66,-223.93,-149.66,-0.011067,0.001807,2.15389,56.15,1
30881,0,46782,55873,47002.43,56018.69,-220.43,-145.69,-0.010971,0.00186,2.142644,56.43,1
30891,0,46771,55859,46997.8,56015.5,-226.8,-156.5,-0.010873,0.001917,2.127938,56.8,1
30902,0,46756,55856,46992.97,56012.31,-236.97,-156.31,-0.01077,0.001974,2.116697,57.08,1
30911,0,46752,55847,46988.15,56009,-236.15,-162,-0.010667,0.002033,2.103038,57.42,1
30920,0,46737,55846,46983.12,56005.74,-246.13,-159.74,-0.01056,0.002091,2.093753,57.66,1
30931,0,46726,55835,46977.98,56002.33,-251.98,-167.33,-0.010451,0.002152,2.082752,57.93,1
30941,0,46716,55819,46972.75,55998.66,-256.75,-179.66,-0.01034,0.002217,2.067478,58.31,1
30950,0,46701,55820,46967.31,55995.08,-266.31,-175.09,-0.010224,0.002281,2.05781,58.55,1
30961,0,46703,55809,46962.03,55991.36,-259.03,-182.36,-0.010111,0.002348,2.043615,58.91,1
30970,0,46677,55794,46956.33,55987.41,-279.33,-193.41,-0.00999,0.002418,2.029902,59.25,1
30982,0,46666,55805,46950.52,55983.77,-284.52,-178.77,-0.009866,0.002483,2.025084,59.37,1
30991,0,46655,55791,46944.62,55979.91,-289.62,-188.91,-0.009741,0.002552,2.017374,59.57,1
31000,0,46641,55778,46938.55,55975.87,-297.55,-197.88,-0.009611,0.002624,2.00812,59.8,1
31011,0,46628,55774,46932.33,55971.84,-304.34,-197.84,-0.009479,0.002696,2.00114,59.97,1
31021,0,46624,55772,46926.17,55967.84,-302.17,-195.84,-0.009348,0.002768,1.994988,60.13,1
31030,0,46607,55772,46919.79,55963.93,-312.79,-191.93,-0.009212,0.002838,1.993205,60.17,1
31041,0,46618,55767,46913.75,55959.99,-295.75,-192.99,-0.009083,0.002908,1.987418,60.31,1
31050,0,46616,55769,46907.8,55956.17,-291.8,-187.17,-0.008956,0.002976,1.983308,60.42,1
31062,0,46620,55778,46902.04,55952.61,-282.04,-174.61,-0.008833,0.00304,1.981804,60.45,1
31071,0,46632,55781,46896.64,55949.18,-264.64,-168.18,-0.008718,0.003101,1.979204,60.52,1
31080,0,46631,55775,46891.33,55945.69,-260.33,-170.7,-0.008605,0.003164,1.975178,60.62,1
31091,0,46630,55778,46886.11,55942.34,-256.11,-164.34,-0.008493,0.003224,1.972515,60.69,1
31100,0,46617,55772,46880.73,55938.93,-263.73,-166.93,-0.008379,0.003284,1.970483,60.74,1
31112,0,46625,55772,46875.61,55935.6,-250.61,-163.6,-0.00827,0.003344,1.967327,60.82,1
31121,0,46616,55764,46870.42,55932.17,-254.42,-168.17,-0.008159,0.003405,1.963596,60.91,1
31130,0,46603,55752,46865.07,55928.57,-262.07,-176.57,-0.008045,0.00347,1.958806,61.03,1
31141,0,46585,55756,46859.47,55925.12,-274.47,-169.12,-0.007925,0.003531,1.958392,61.04,1
31151,0,46583,55756,46853.94,55921.74,-270.95,-165.74,-0.007807,0.003592,1.958337,61.04,1
31160,0,46575,55753,46848.37,55918.36,-273.37,-165.36,-0.007688,0.003652,1.958785,61.03,1
31171,0,46562,55736,46842.64,55914.71,-280.64,-178.71,-0.007566,0.003718,1.95676,61.08,1
31180,0,46547,55735,46836.73,55911.12,-289.73,-176.12,-0.00744,0.003782,1.957052,61.07,1
31192,0,46542,55737,46830.83,55907.64,-288.84,-170.64,-0.007314,0.003844,1.958656,61.03,1
31201,0,46534,55735,46824.9,55904.18,-290.9,-169.18,-0.007187,0.003906,1.960924,60.98,1
31210,0,46523,55725,46818.86,55900.6,-295.86,-175.6,-0.007058,0.00397,1.962262,60.94,1
31221,0,46519,55719,46812.87,55896.97,-293.87,-177.97,-0.00693,0.004035,1.962608,60.93,1
31230,0,46511,55710,46806.83,55893.23,-295.83,-183.23,-0.006801,0.004102,1.961869,60.95,1
31241,0,46503,55712,46800.75,55889.6,-297.75,-177.61,-0.006671,0.004167,1.962933,60.93,1
31251,0,46491,55707,46794.55,55885.95,-303.55,-178.95,-0.006539,0.004232,1.964543,60.89,1
31260,0,46471,55693,46788.08,55882.09,-317.09,-189.09,-0.006401,0.004301,1.96566,60.86,1
31270,0,46451,55681,46781.34,55878.07,-330.34,-197.07,-0.006257,0.004373,1.966801,60.83,1
31281,0,46439,55665,46774.5,55873.82,-335.5,-208.82,-0.00611,0.004449,1.965528,60.86,1
31291,0,46431,55666,46767.63,55869.66,-336.63,-203.66,-0.005963,0.004524,1.96592,60.85,1
31301,0,46413,55662,46760.54,55865.51,-347.54,-203.51,-0.005812,0.004598,1.968145,60.8,1
31310,0,46410,55655,46753.53,55861.3,-343.53,-206.3,-0.005662,0.004673,1.968884,60.78,1
31321,0,46411,55661,46746.68,55857.29,-335.68,-196.29,-0.005515,0.004745,1.970901,60.73,1
31331,0,46399,55650,46739.73,55853.15,-340.73,-203.15,-0.005366,0.004819,1.971919,60.7,1
31341,0,46404,55647,46733.01,55849.03,-329.01,-202.03,-0.005223,0.004893,1.971406,60.71,1
31350,0,46399,55649,46726.33,55845.03,-327.33,-196.03,-0.00508,0.004965,1.972118,60.7,1
31361,0,46391,55642,46719.62,55840.97,-328.63,-198.97,-0.004936,0.005037,1.972302,60.69,1
31371,0,46384,55648,46712.91,55837.11,-328.91,-189.11,-0.004793,0.005106,1.974782,60.63,1
31380,0,46392,55641,46706.5,55833.19,-314.5,-192.19,-0.004655,0.005177,1.974507,60.64,1
31391,0,46402,55654,46700.41,55829.6,-298.41,-175.61,-0.004525,0.005241,1.975678,60.61,1
31400,0,46412,55655,46694.64,55826.12,-282.64,-171.12,-0.004401,0.005303,1.97578,60.61,1
31410,0,46419,55662,46689.12,55822.83,-270.13,-160.84,-0.004283,0.005362,1.976382,60.59,1
31421,0,46419,55663,46683.72,55819.64,-264.72,-156.64,-0.004168,0.005419,1.977128,60.57,1
31430,0,46421,55663,46678.47,55816.51,-257.47,-153.51,-0.004055,0.005475,1.977625,60.56,1
31440,0,46417,55669,46673.24,55813.56,-256.24,-144.56,-0.003943,0.005528,1.979499,60.51,1
31451,0,46428,55681,46668.33,55810.91,-240.34,-129.91,-0.003838,0.005576,1.981992,60.45,1
31460,0,46437,55672,46663.71,55808.14,-226.71,-136.14,-0.003739,0.005625,1.982192,60.45,1
31471,0,46433,55695,46659.09,55805.87,-226.09,-110.87,-0.00364,0.005666,1.985895,60.35,1
31480,0,46443,55687,46654.77,55803.5,-211.77,-116.5,-0.003547,0.005709,1.987533,60.31,1
31490,0,46466,55700,46651,55801.42,-185,-101.43,-0.003466,0.005746,1.988829,60.28,1
31501,0,46473,55701,46647.44,55799.42,-174.44,-98.42,-0.00339,0.005782,1.989671,60.26,1
31510,0,46479,55699,46644.07,55797.41,-165.07,-98.41,-0.003318,0.005818,1.989838,60.25,1
31521,0,46480,55706,46640.79,55795.58,-160.79,-89.59,-0.003248,0.00585,1.990681,60.23,1
31531,0,46475,55701,46637.48,55793.69,-162.48,-92.7,-0.003176,0.005884,1.991306,60.22,1
31541,0,46470,55702,46634.12,55791.86,-164.13,-89.86,-0.003105,0.005917,1.992354,60.19,1
31550,0,46472,55693,46630.89,55789.89,-158.89,-96.89,-0.003035,0.005952,1.992253,60.19,1
31560,0,46471,55697,46627.69,55788.03,-156.69,-91.03,-0.002967,0.005986,1.992661,60.18,1
31570,0,46468,55683,46624.5,55785.93,-156.5,-102.93,-0.002898,0.006023,1.991668,60.21,1
31580,0,46470,55691,46621.41,55784.03,-151.41,-93.04,-0.002832,0.006057,1.991503,60.21,1
31591,0,46471,55688,46618.4,55782.12,-147.4,-94.12,-0.002767,0.006092,1.990951,60.23,1
31600,0,46475,55678,46615.53,55780.03,-140.54,-102.04,-0.002706,0.006129,1.989016,60.27,1
31611,0,46472,55683,46612.67,55778.09,-140.67,-95.09,-0.002644,0.006164,1.987928,60.3,1
31621,0,46473,55678,46609.87,55776.09,-136.88,-98.09,-0.002584,0.0062,1.986249,60.34,1
31630,0,46470,55681,46607.08,55774.19,-137.08,-93.19,-0.002524,0.006234,1.98516,60.37,1
31640,0,46466,55675,46604.26,55772.21,-138.26,-97.21,-0.002464,0.006269,1.983674,60.41,1
31650,0,46457,55674,46601.31,55770.25,-144.31,-96.25,-0.002401,0.006305,1.982693,60.43,1
31661,0,46464,55677,46598.57,55768.38,-134.57,-91.38,-0.002342,0.006338,1.981659,60.46,1
31670,0,46471,55659,46596.02,55766.19,-125.02,-107.2,-0.002287,0.006377,1.978097,60.55,1
31681,0,46463,55670,46593.37,55764.27,-130.37,-94.27,-0.00223,0.006412,1.976485,60.59,1
31690,0,46466,55669,46590.82,55762.36,-124.82,-93.36,-0.002176,0.006446,1.97465,60.63,1
31700,0,46475,55667,46588.5,55760.46,-113.5,-93.46,-0.002126,0.00648,1.972174,60.7,1
31711,0,46462,55663,46585.97,55758.51,-123.97,-95.51,-0.002071,0.006515,1.970038,60.75,1
31720,0,46463,55666,46583.51,55756.66,-120.52,-90.66,-0.002019,0.006548,1.968274,60.79,1
31730,0,46444,55654,46580.73,55754.61,-136.73,-100.61,-0.001959,0.006585,1.96629,60.84,1
31740,0,46445,55649,46578.01,55752.5,-133.01,-103.5,-0.001901,0.006623,1.963697,60.91,1
31751,0,46437,55656,46575.19,55750.57,-138.19,-94.57,-0.00184,0.006657,1.962574,60.94,1
31760,0,46434,55649,46572.37,55748.54,-138.37,-99.54,-0.001779,0.006694,1.960845,60.98,1
31769,0,46443,55660,46569.78,55746.77,-126.78,-86.77,-0.001724,0.006726,1.959907,61,1
31780,0,46448,55657,46567.35,55744.98,-119.35,-87.98,-0.001672,0.006758,1.958387,61.04,1
31790,0,46458,55661,46565.16,55743.3,-107.16,-82.3,-0.001625,0.006788,1.956817,61.08,1
31801,0,46462,55662,46563.1,55741.67,-101.1,-79.67,-0.00158,0.006817,1.955208,61.12,1
31810,0,46468,55663,46561.19,55740.1,-93.2,-77.1,-0.001539,0.006845,1.953479,61.16,1
31820,0,46472,55664,46559.41,55738.58,-87.41,-74.58,-0.001501,0.006872,1.951733,61.21,1
31830,0,46476,55665,46557.75,55737.11,-81.75,-72.11,-0.001465,0.006899,1.949979,61.25,1
31841,0,46473,55673,46556.05,55735.83,-83.05,-62.83,-0.001429,0.006922,1.94911,61.27,1
31850,0,46476,55666,46554.45,55734.44,-78.45,-68.44,-0.001395,0.006947,1.94755,61.31,1
31860,0,46481,55679,46552.98,55733.33,-71.98,-54.33,-0.001363,0.006967,1.946904,61.33,1
31870,0,46492,55683,46551.76,55732.32,-59.77,-49.32,-0.001337,0.006985,1.946185,61.35,1
31881,0,46488,55691,46550.49,55731.5,-62.49,-40.5,-0.00131,0.007,1.946098,61.35,1
31890,0,46492,55678,46549.32,55730.43,-57.32,-52.43,-0.001284,0.007019,1.945071,61.37,1
31899,0,46501,55700,46548.36,55729.82,-47.36,-29.82,-0.001264,0.00703,1.945063,61.37,1
31910,0,46501,55696,46547.41,55729.15,-46.41,-33.15,-0.001243,0.007042,1.944881,61.38,1
31920,0,46513,55700,46546.73,55728.57,-33.73,-28.57,-0.001229,0.007052,1.944616,61.38,1
31930,0,46524,55712,46546.27,55728.23,-22.27,-16.23,-0.001219,0.007058,1.944569,61.39,1
31939,0,46525,55713,46545.85,55727.93,-20.85,-14.93,-0.00121,0.007064,1.944535,61.39,1
31950,0,46527,55717,46545.47,55727.71,-18.47,-10.71,-0.001202,0.007068,1.944553,61.39,1
31960,0,46522,55705,46545,55727.26,-23,-22.26,-0.001192,0.007076,1.944339,61.39,1
31971,0,46525,55706,46544.6,55726.84,-19.6,-20.84,-0.001183,0.007083,1.944126,61.4,1
31980,0,46526,55712,46544.23,55726.54,-18.23,-14.54,-0.001175,0.007089,1.944067,61.4,1
31990,0,46529,55720,46543.92,55726.41,-14.93,-6.41,-0.001169,0.007091,1.944108,61.4,1
32000,0,46538,55722,46543.81,55726.32,-5.81,-4.32,-0.001166,0.007092,1.944106,61.4,1
32011,0,46539,55722,46543.71,55726.24,-4.71,-4.24,-0.001164,0.007094,1.944099,61.4,1
32020,0,46542,55721,46543.68,55726.13,-1.68,-5.13,-0.001163,0.007096,1.944077,61.4,1
32030,0,46535,55723,46543.51,55726.07,-8.51,-3.07,-0.00116,0.007097,1.944096,61.4,1
32039,0,46532,55716,46543.28,55725.87,-11.28,-9.87,-0.001155,0.007101,1.94406,61.4,1
32050,0,46530,55713,46543.01,55725.62,-13.02,-12.62,-0.001149,0.007105,1.943985,61.4,1
32060,0,46522,55724,46542.6,55725.58,-20.6,-1.59,-0.00114,0.007106,1.944131,61.4,1
32070,0,46526,55733,46542.26,55725.73,-16.27,7.27,-0.001133,0.007103,1.944189,61.4,1
32079,0,46529,55723,46542,55725.68,-13,-2.68,-0.001127,0.007104,1.944245,61.39,1
32090,0,46526,55716,46541.68,55725.49,-15.68,-9.49,-0.00112,0.007107,1.944255,61.39,1
32100,0,46532,55722,46541.49,55725.42,-9.49,-3.43,-0.001116,0.007109,1.94428,61.39,1
32110,0,46515,55719,46540.96,55725.3,-25.96,-6.3,-0.001105,0.007111,1.944482,61.39,1
32119,0,46517,55712,46540.48,55725.03,-23.48,-13.03,-0.001095,0.007116,1.944527,61.39,1
32130,0,46499,55713,46539.66,55724.79,-40.66,-11.79,-0.001077,0.00712,1.944979,61.38,1
32140,0,46505,55718,46538.96,55724.66,-33.96,-6.66,-0.001062,0.007122,1.94535,61.37,1
32150,0,46515,55719,46538.49,55724.54,-23.49,-5.54,-0.001052,0.007124,1.945525,61.36,1
32159,0,46514,55724,46538,55724.53,-24,-0.54,-0.001041,0.007125,1.945741,61.36,1
32171,0,46520,55728,46537.64,55724.6,-17.64,3.39,-0.001033,0.007123,1.945855,61.35,1
32180,0,46527,55725,46537.43,55724.61,-10.43,0.39,-0.001029,0.007123,1.945902,61.35,1
32190,0,46513,55725,46536.94,55724.62,-23.95,0.38,-0.001018,0.007123,1.946124,61.35,1
32199,0,46503,55712,46536.26,55724.37,-33.27,-12.37,-0.001004,0.007128,1.946393,61.34,1
32210,0,46485,55693,46535.24,55723.74,-50.24,-30.74,-0.000982,0.007139,1.946424,61.34,1
32220,0,46460,55684,46533.74,55722.95,-73.74,-38.95,-0.00095,0.007153,1.946975,61.33,1
32230,0,46446,55673,46531.98,55721.95,-85.98,-48.95,-0.000912,0.007171,1.947399,61.32,1
32239,0,46435,55667,46530.04,55720.85,-95.04,-53.86,-0.00087,0.007191,1.947941,61.3,1
32250,0,46431,55669,46528.06,55719.82,-97.06,-50.82,-0.000828,0.007209,1.948944,61.28,1
32260,0,46423,55661,46525.96,55718.64,-102.96,-57.64,-0.000783,0.00723,1.94966,61.26,1
32270,0,46435,55670,46524.14,55717.67,-89.14,-47.67,-0.000743,0.007248,1.950422,61.24,1
32280,0,46438,55668,46522.42,55716.67,-84.43,-48.68,-0.000706,0.007266,1.950777,61.23,1
32290,0,46445,55675,46520.87,55715.84,-75.87,-40.84,-0.000673,0.007281,1.951319,61.22,1
32300,0,46454,55683,46519.53,55715.19,-65.54,-32.19,-0.000644,0.007292,1.951945,61.2,1
32311,0,46484,55702,46518.82,55714.92,-34.82,-12.93,-0.000629,0.007297,1.952263,61.19,1
32320,0,46507,55704,46518.59,55714.71,-11.59,-10.71,-0.000624,0.007301,1.952198,61.2,1
32330,0,46528,55727,46518.78,55714.95,9.22,12.05,-0.000628,0.007297,1.95208,61.2,1
32339,0,46561,55742,46519.62,55715.5,41.38,26.5,-0.000646,0.007287,1.952003,61.2,1
32351,0,46593,55752,46521.09,55716.23,71.91,35.77,-0.000678,0.007274,1.952679,61.18,1
32360,0,46609,55754,46522.85,55716.98,86.15,37.02,-0.000716,0.00726,1.954163,61.15,1
32370,0,46627,55762,46524.93,55717.88,102.07,44.12,-0.00076,0.007244,1.956243,61.09,1
32379,0,46641,55773,46527.25,55718.98,113.75,54.02,-0.00081,0.007224,1.958298,61.04,1
32390,0,46649,55774,46529.69,55720.08,119.31,53.91,-0.000863,0.007204,1.9609,60.98,1
32400,0,46654,55777,46532.17,55721.22,121.82,55.78,-0.000916,0.007184,1.963531,60.91,1
32409,0,46663,55778,46534.79,55722.36,128.21,55.64,-0.000972,0.007164,1.966841,60.83,1
32420,0,46676,55783,46537.62,55723.57,138.38,59.43,-0.001033,0.007142,1.970791,60.73,1
32430,0,46678,55784,46540.42,55724.78,137.57,59.21,-0.001093,0.00712,1.974675,60.63,1
32440,0,46686,55789,46543.33,55726.07,142.66,62.93,-0.001156,0.007097,1.978636,60.53,1
32450,0,46690,55792,46546.27,55727.39,143.73,64.61,-0.001219,0.007073,1.982472,60.44,1
32460,0,46692,55791,46549.18,55728.66,142.82,62.34,-0.001282,0.00705,1.986527,60.34,1
32470,0,46690,55788,46552,55729.85,138,58.14,-0.001342,0.007029,1.990595,60.24,1
32479,0,46684,55791,46554.64,55731.08,129.36,59.92,-0.001399,0.007007,1.993437,60.16,1
32490,0,46678,55780,46557.1,55732.06,120.89,47.94,-0.001452,0.00699,1.996911,60.08,1
32499,0,46670,55774,46559.36,55732.9,110.64,41.1,-0.0015,0.006974,2.000106,60,1
32510,0,46670,55777,46561.57,55733.78,108.43,43.22,-0.001548,0.006959,2.002891,59.93,1
32520,0,46673,55775,46563.8,55734.6,109.2,40.39,-0.001596,0.006944,2.006048,59.85,1
32530,0,46678,55783,46566.09,55735.57,111.91,47.43,-0.001645,0.006926,2.00872,59.78,1
32539,0,46685,55781,46568.47,55736.48,116.53,44.52,-0.001696,0.00691,2.012197,59.7,1
32550,0,46689,55787,46570.88,55737.49,118.12,49.51,-0.001748,0.006892,2.01526,59.62,1
32560,0,46685,55783,46573.16,55738.4,111.84,44.6,-0.001797,0.006876,2.018275,59.54,1
32569,0,46683,55789,46575.36,55739.42,107.64,49.58,-0.001844,0.006857,2.020288,59.49,1
32580,0,46673,55768,46577.32,55739.99,95.68,28.01,-0.001886,0.006847,2.023369,59.42,1
32589,0,46661,55769,46578.99,55740.57,82.01,28.43,-0.001922,0.006837,2.025339,59.37,1
32600,0,46645,55764,46580.31,55741.04,64.69,22.96,-0.00195,0.006828,2.026535,59.34,1
32609,0,46634,55757,46581.38,55741.36,52.62,15.64,-0.001973,0.006823,2.027463,59.31,1
32620,0,46631,55756,46582.38,55741.66,48.62,14.34,-0.001994,0.006817,2.028265,59.29,1
32629,0,46626,55758,46583.25,55741.98,42.75,16.02,-0.002013,0.006811,2.028757,59.28,1
32640,0,46624,55752,46584.07,55742.18,39.93,9.82,-0.002031,0.006808,2.029361,59.27,1
32649,0,46625,55750,46584.89,55742.34,40.11,7.66,-0.002048,0.006805,2.030028,59.25,1
32660,0,46622,55749,46585.63,55742.47,36.37,6.53,-0.002064,0.006803,2.030587,59.24,1
32669,0,46617,55746,46586.26,55742.55,30.74,3.45,-0.002078,0.006801,2.031012,59.22,1
32679,0,46603,55738,46586.6,55742.46,16.4,-4.46,-0.002085,0.006803,2.0311,59.22,1
32689,0,46598,55737,46586.83,55742.35,11.17,-5.35,-0.00209,0.006805,2.031107,59.22,1
32700,0,46580,55733,46586.69,55742.16,-6.7,-9.16,-0.002087,0.006808,2.031006,59.22,1
32709,0,46585,55738,46586.66,55742.08,-1.66,-4.08,-0.002086,0.00681,2.030981,59.23,1
32719,0,46578,55730,46586.49,55741.84,-8.49,-11.84,-0.002083,0.006814,2.030807,59.23,1
32730,0,46590,55740,46586.56,55741.8,3.44,-1.8,-0.002084,0.006815,2.030805,59.23,1
32739,0,46595,55730,46586.73,55741.57,8.27,-11.57,-0.002088,0.006819,2.030621,59.23,1
32750,0,46595,55747,46586.89,55741.68,8.11,5.32,-0.002091,0.006817,2.030609,59.23,1
