t_ms,trial_id,t_trial_ms,phase,red_raw,ir_raw,red_dc,ir_dc,red_ac,ir_ac,R,spo2,spo2_valid
824204,1,0,0,51593,53304,51391.21,53105.00,201.79,199.00,0.424118,99.42,1
824244,1,40,0,51477,53008,51391.38,53104.80,85.62,-96.80,0.424188,99.42,1
824284,1,80,0,51368,52829,51391.33,53104.25,-23.33,-275.25,0.424256,99.42,1
824324,1,120,0,51334,52794,51391.22,53103.64,-57.22,-309.64,0.424323,99.41,1
824364,1,160,0,51344,52820,51391.12,53103.07,-47.13,-283.07,0.424389,99.41,1
824404,1,200,0,51362,52872,51391.07,53102.61,-29.07,-230.61,0.424454,99.41,1
824444,1,240,0,51386,52935,51391.06,53102.28,-5.06,-167.28,0.424518,99.41,1
824484,1,280,0,51413,52959,51391.11,53101.99,21.89,-142.99,0.424582,99.41,1
824524,1,320,0,51415,52950,51391.16,53101.69,23.84,-151.69,0.424646,99.41,1
824564,1,360,0,51407,52956,51391.19,53101.40,15.81,-145.40,0.424709,99.41,1
824604,1,400,0,51413,52992,51391.23,53101.18,21.77,-109.18,0.424772,99.41,1
824645,1,441,0,51433,53048,51391.32,53101.08,41.68,-53.08,0.424834,99.41,1
824685,1,481,0,51464,53117,51391.47,53101.11,72.53,15.89,0.424897,99.41,1
824725,1,521,0,51488,53192,51391.66,53101.30,96.34,90.70,0.424960,99.41,1
824765,1,561,0,51520,53259,51391.92,53101.61,128.08,157.39,0.425024,99.41,1
824805,1,601,0,51546,53319,51392.23,53102.05,153.77,216.95,0.425089,99.40,1
824845,1,641,0,51572,53371,51392.59,53102.59,179.41,268.41,0.425156,99.40,1
824885,1,681,0,51567,53232,51392.94,53102.85,174.06,129.15,0.425224,99.40,1
824925,1,721,0,51456,52933,51393.07,53102.51,62.93,-169.51,0.425291,99.40,1
824965,1,761,0,51349,52746,51392.98,53101.80,-43.98,-355.80,0.425357,99.40,1
825005,1,801,0,51311,52707,51392.82,53101.01,-81.82,-394.01,0.425421,99.40,1
825045,1,841,0,51311,52735,51392.66,53100.28,-81.66,-365.28,0.425483,99.40,1
825085,1,881,0,51332,52797,51392.54,53099.68,-60.54,-302.68,0.425544,99.40,1
825125,1,921,0,51366,52869,51392.48,53099.21,-26.48,-230.21,0.425604,99.40,1
825165,1,961,0,51390,52913,51392.48,53098.84,-2.48,-185.84,0.425663,99.39,1
825205,1,1001,0,51398,52911,51392.49,53098.47,5.51,-187.47,0.425722,99.39,1
825245,1,1041,0,51393,52921,51392.50,53098.11,0.50,-177.11,0.425779,99.39,1
825286,1,1082,0,51403,52951,51392.52,53097.82,10.48,-146.82,0.425837,99.39,1
825326,1,1122,0,51423,53016,51392.58,53097.66,30.42,-81.66,0.425894,99.39,1
825366,1,1162,0,51451,53090,51392.70,53097.64,58.30,-7.64,0.425951,99.39,1
825406,1,1202,0,51478,53156,51392.87,53097.76,85.13,58.24,0.426009,99.39,1
825446,1,1242,0,51511,53219,51393.11,53098.00,117.89,121.00,0.426067,99.39,1
825486,1,1282,0,51536,53281,51393.40,53098.37,142.60,182.63,0.426126,99.39,1
825526,1,1322,0,51555,53337,51393.72,53098.85,161.28,238.15,0.426187,99.38,1
825566,1,1362,0,51580,53323,51394.10,53099.30,185.90,223.70,0.426250,99.38,1
825606,1,1402,0,51522,53077,51394.36,53099.25,127.64,-22.25,0.426314,99.38,1
825646,1,1442,0,51399,52812,51394.37,53098.68,4.63,-286.68,0.426377,99.38,1
825686,1,1482,0,51318,52719,51394.21,53097.92,-76.21,-378.92,0.426437,99.38,1
825726,1,1522,0,51305,52734,51394.04,53097.20,-89.04,-363.20,0.426495,99.38,1
825766,1,1562,0,51328,52779,51393.91,53096.56,-65.91,-317.56,0.426552,99.38,1
825806,1,1602,0,51357,52855,51393.84,53096.08,-36.84,-241.08,0.426608,99.38,1
825846,1,1642,0,51384,52909,51393.82,53095.71,-9.82,-186.71,0.426664,99.37,1
825886,1,1682,0,51397,52922,51393.82,53095.36,3.18,-173.36,0.426718,99.37,1
825927,1,1723,0,51395,52922,51393.83,53095.02,1.17,-173.02,0.426772,99.37,1
825967,1,1763,0,51398,52944,51393.84,53094.71,4.16,-150.71,0.426825,99.37,1
826007,1,1803,0,51414,53011,51393.88,53094.55,20.12,-83.55,0.426878,99.37,1
826047,1,1843,0,51443,53082,51393.98,53094.52,49.02,-12.52,0.426931,99.37,1
826087,1,1883,0,51474,53156,51394.14,53094.65,79.86,61.35,0.426984,99.37,1
826127,1,1923,0,51507,53231,51394.36,53094.92,112.64,136.08,0.427038,99.37,1
826167,1,1963,0,51533,53301,51394.64,53095.34,138.36,205.66,0.427093,99.36,1
826207,1,2003,0,51568,53367,51394.99,53095.88,173.01,271.12,0.427150,99.36,1
826247,1,2043,0,51591,53332,51395.38,53096.35,195.62,235.65,0.427209,99.36,1
826287,1,2083,0,51523,53078,51395.64,53096.32,127.36,-18.32,0.427270,99.36,1
826327,1,2123,0,51396,52829,51395.64,53095.78,0.36,-266.78,0.427330,99.36,1
826367,1,2163,0,51323,52748,51395.50,53095.09,-72.50,-347.09,0.427387,99.36,1
826407,1,2203,0,51324,52775,51395.36,53094.45,-71.36,-319.45,0.427443,99.36,1
826447,1,2243,0,51346,52836,51395.26,53093.93,-49.26,-257.93,0.427497,99.36,1
826487,1,2283,0,51377,52918,51395.23,53093.58,-18.23,-175.58,0.427551,99.35,1
826527,1,2323,0,51411,52971,51395.26,53093.34,15.74,-122.34,0.427604,99.35,1
826567,1,2363,0,51419,52970,51395.30,53093.09,23.70,-123.09,0.427657,99.35,1
826608,1,2404,0,51417,52958,51395.35,53092.82,21.65,-134.82,0.427709,99.35,1
826648,1,2444,0,51417,52971,51395.39,53092.58,21.61,-121.58,0.427761,99.35,1
826688,1,2484,0,51424,53024,51395.45,53092.44,28.55,-68.44,0.427812,99.35,1
826728,1,2524,0,51452,53084,51395.56,53092.43,56.44,-8.43,0.427864,99.35,1
826768,1,2564,0,51479,53150,51395.73,53092.54,83.27,57.46,0.427916,99.34,1
826808,1,2604,0,51508,53216,51395.96,53092.79,112.04,123.21,0.427970,99.34,1
826848,1,2644,0,51540,53281,51396.25,53093.17,143.75,187.83,0.428025,99.34,1
826888,1,2684,0,51568,53324,51396.59,53093.64,171.41,230.36,0.428082,99.34,1
826928,1,2724,0,51559,53163,51396.91,53093.78,162.09,69.22,0.428142,99.34,1
826968,1,2764,0,51437,52853,51397.00,53093.30,40.00,-240.30,0.428201,99.34,1
827008,1,2804,0,51321,52674,51396.84,53092.46,-75.84,-418.46,0.428256,99.34,1
827048,1,2844,0,51286,52652,51396.62,53091.58,-110.62,-439.58,0.428308,99.34,1
827088,1,2884,0,51304,52690,51396.44,53090.78,-92.44,-400.78,0.428357,99.33,1
827128,1,2924,0,51326,52753,51396.30,53090.11,-70.30,-337.11,0.428404,99.33,1
827168,1,2964,0,51359,52836,51396.23,53089.60,-37.23,-253.60,0.428450,99.33,1
827208,1,3004,0,51389,52882,51396.21,53089.18,-7.21,-207.18,0.428494,99.33,1
827249,1,3045,0,51399,52880,51396.22,53088.77,2.78,-208.77,0.428537,99.33,1
827289,1,3085,0,51401,52895,51396.23,53088.38,4.77,-193.38,0.428580,99.33,1
827329,1,3125,0,51413,52944,51396.27,53088.09,16.73,-144.09,0.428621,99.33,1
827369,1,3165,0,51439,53012,51396.36,53087.94,42.64,-75.94,0.428663,99.32,1
827409,1,3205,0,51476,53086,51396.52,53087.93,79.48,-1.93,0.428705,99.32,1
827449,1,3245,0,51506,53162,51396.73,53088.08,109.27,73.92,0.428748,99.32,1
827489,1,3285,0,51540,53236,51397.02,53088.38,142.98,147.62,0.428794,99.32,1
827529,1,3325,0,51573,53302,51397.37,53088.81,175.62,213.19,0.428843,99.32,1
827569,1,3365,0,51601,53338,51397.79,53089.31,203.21,248.69,0.428895,99.32,1
827609,1,3405,0,51582,53155,51398.16,53089.44,183.84,65.56,0.428953,99.32,1
827649,1,3445,0,51461,52847,51398.29,53088.96,62.71,-241.96,0.429009,99.32,1
827689,1,3485,0,51351,52676,51398.19,53088.13,-47.19,-412.13,0.429060,99.31,1
827729,1,3525,0,51325,52655,51398.05,53087.27,-73.05,-432.27,0.429107,99.31,1
827769,1,3565,0,51333,52682,51397.92,53086.46,-64.92,-404.46,0.429151,99.31,1
827809,1,3605,0,51355,52744,51397.83,53085.78,-42.83,-341.78,0.429191,99.31,1
827849,1,3645,0,51387,52828,51397.81,53085.26,-10.81,-257.26,0.429229,99.31,1
827890,1,3686,0,51416,52869,51397.85,53084.83,18.15,-215.83,0.429266,99.31,1
827930,1,3726,0,51428,52875,51397.91,53084.41,30.09,-209.41,0.429302,99.31,1
827970,1,3766,0,51430,52893,51397.98,53084.03,32.02,-191.03,0.429337,99.31,1
828010,1,3806,0,51441,52943,51398.07,53083.75,42.93,-140.75,0.429372,99.30,1
828050,1,3846,0,51467,53011,51398.21,53083.61,68.79,-72.61,0.429407,99.30,1
828090,1,3886,0,51507,53093,51398.43,53083.62,108.57,9.38,0.429443,99.30,1
828130,1,3926,0,51543,53169,51398.71,53083.80,144.29,85.20,0.429483,99.30,1
828170,1,3966,0,51572,53235,51399.06,53084.10,172.94,150.90,0.429527,99.30,1
828210,1,4006,0,51610,53298,51399.48,53084.53,210.52,213.47,0.429576,99.30,1
828250,1,4046,0,51633,53356,51399.95,53085.07,233.05,270.93,0.429631,99.30,1
828290,1,4086,0,51657,53410,51400.47,53085.73,256.53,324.27,0.429693,99.30,1
828330,1,4126,0,51669,53366,51401.01,53086.29,267.99,279.71,0.429765,99.30,1
828370,1,4166,0,51598,53086,51401.40,53086.29,196.60,-0.29,0.429842,99.29,1
828410,1,4206,0,51465,52812,51401.53,53085.74,63.47,-273.74,0.429917,99.29,1
828450,1,4246,0,51391,52721,51401.51,53085.02,-10.51,-364.02,0.429988,99.29,1
828490,1,4286,0,51383,52727,51401.48,53084.30,-18.48,-357.30,0.430054,99.29,1
828530,1,4326,0,51394,52766,51401.46,53083.66,-7.46,-317.66,0.430118,99.29,1
828571,1,4367,0,51421,52843,51401.50,53083.18,19.50,-240.18,0.430179,99.29,1
828611,1,4407,0,51451,52914,51401.61,53082.85,49.39,-168.85,0.430240,99.29,1
828651,1,4447,0,51477,52941,51401.76,53082.57,75.24,-141.57,0.430300,99.29,1
828691,1,4487,0,51481,52942,51401.92,53082.29,79.08,-140.29,0.430362,99.28,1
828731,1,4527,0,51493,52976,51402.10,53082.07,90.90,-106.07,0.430423,99.28,1
828771,1,4567,0,51511,53039,51402.32,53081.99,108.68,-42.99,0.430487,99.28,1
828811,1,4607,0,51547,53118,51402.61,53082.06,144.39,35.94,0.430554,99.28,1
828851,1,4647,0,51585,53198,51402.98,53082.30,182.02,115.70,0.430626,99.28,1
828891,1,4687,0,51623,53275,51403.42,53082.68,219.58,192.32,0.430705,99.28,1
828931,1,4727,0,51656,53343,51403.93,53083.21,252.07,259.79,0.430793,99.28,1
828971,1,4767,0,51682,53407,51404.48,53083.86,277.52,323.14,0.430890,99.27,1
829011,1,4807,0,51706,53453,51405.09,53084.59,300.91,368.41,0.430998,99.27,1
829051,1,4847,0,51726,53498,51405.73,53085.42,320.27,412.58,0.431118,99.27,1
829091,1,4887,0,51743,53546,51406.41,53086.34,336.59,459.66,0.431248,99.27,1
829131,1,4927,0,51759,53601,51407.12,53087.37,351.88,513.62,0.431390,99.27,1
829171,1,4967,0,51772,53532,51407.85,53088.27,364.15,443.73,0.431547,99.27,1
829212,1,5008,0,51689,53238,51408.41,53088.57,280.59,149.43,0.431716,99.26,1
829252,1,5048,0,51555,52986,51408.70,53088.36,146.30,-102.36,0.431887,99.26,1
829292,1,5088,0,51489,52908,51408.86,53088.00,80.14,-180.00,0.432058,99.26,1
829332,1,5128,0,51486,52927,51409.02,53087.68,76.98,-160.68,0.432228,99.26,1
829372,1,5168,0,51501,52974,51409.20,53087.46,91.80,-113.46,0.432398,99.26,1
829412,1,5208,0,51532,53051,51409.45,53087.39,122.55,-36.39,0.432571,99.25,1
829452,1,5248,0,51563,53104,51409.76,53087.42,153.24,16.58,0.432747,99.25,1
829492,1,5288,0,51577,53116,51410.09,53087.48,166.91,28.52,0.432927,99.25,1
829532,1,5328,0,51581,53117,51410.44,53087.54,170.56,29.46,0.433113,99.25,1
829572,1,5368,0,51587,53141,51410.79,53087.65,176.21,53.35,0.433303,99.25,1
829612,1,5408,0,51606,53199,51411.18,53087.87,194.82,111.13,0.433498,99.24,1
829652,1,5448,0,51634,53269,51411.63,53088.23,222.37,180.77,0.433701,99.24,1
829692,1,5488,0,51668,53340,51412.14,53088.74,255.86,251.26,0.433912,99.24,1
829732,1,5528,0,51697,53409,51412.71,53089.38,284.29,319.62,0.434133,99.23,1
829772,1,5568,0,51724,53477,51413.34,53090.16,310.66,386.84,0.434364,99.23,1
829812,1,5608,0,51747,53533,51414.01,53091.04,332.99,441.96,0.434605,99.23,1
829853,1,5649,0,51767,53581,51414.71,53092.02,352.29,488.98,0.434858,99.23,1
829893,1,5689,0,51782,53617,51415.45,53093.07,366.55,523.93,0.435120,99.22,1
829933,1,5729,0,51798,53671,51416.21,53094.23,381.79,576.77,0.435392,99.22,1
829973,1,5769,0,51816,53717,51417.02,53095.48,398.98,621.52,0.435674,99.22,1
830013,1,5809,0,51841,53771,51417.86,53096.83,423.14,674.17,0.435964,99.21,1
830053,1,5849,0,51865,53809,51418.76,53098.25,446.24,710.75,0.436264,99.21,1
830093,1,5889,0,51840,53640,51419.60,53099.34,420.40,540.66,0.436579,99.21,1
830133,1,5929,0,51726,53318,51420.21,53099.78,305.79,218.22,0.436905,99.20,1
830173,1,5969,0,51620,53124,51420.62,53099.83,199.38,24.17,0.437237,99.20,1
830213,1,6009,0,51581,53091,51420.94,53099.81,160.06,-8.81,0.437571,99.19,1
830253,1,6049,0,51588,53121,51421.27,53099.86,166.73,21.14,0.437909,99.19,1
830293,1,6089,0,51601,53176,51421.63,53100.01,179.37,75.99,0.438251,99.19,1
830333,1,6129,0,51633,53236,51422.06,53100.28,210.94,135.72,0.438599,99.18,1
830373,1,6169,0,51652,53251,51422.52,53100.59,229.48,150.41,0.438953,99.18,1
830413,1,6209,0,51649,53234,51422.97,53100.86,226.03,133.14,0.439313,99.17,1
830453,1,6249,0,51635,53227,51423.40,53101.11,211.60,125.89,0.439679,99.17,1
830494,1,6290,0,51641,53246,51423.84,53101.40,217.16,144.60,0.440051,99.16,1
830534,1,6330,0,51657,53303,51424.30,53101.81,232.70,201.19,0.440428,99.16,1
830574,1,6370,0,51684,53376,51424.82,53102.36,259.18,273.64,0.440812,99.15,1
830614,1,6410,0,51711,53447,51425.40,53103.05,285.60,343.95,0.441203,99.15,1
830654,1,6450,0,51738,53511,51426.02,53103.87,311.98,407.13,0.441600,99.14,1
830694,1,6490,0,51769,53570,51426.71,53104.80,342.29,465.20,0.442004,99.13,1
830734,1,6530,0,51789,53621,51427.44,53105.84,361.56,515.16,0.442415,99.13,1
830774,1,6570,0,51808,53670,51428.20,53106.96,379.80,563.04,0.442831,99.12,1
830814,1,6610,0,51830,53714,51429.00,53108.18,401.00,605.82,0.443254,99.12,1
830854,1,6650,0,51847,53717,51429.84,53109.40,417.16,607.60,0.443684,99.11,1
830894,1,6690,0,51808,53501,51430.60,53110.18,377.40,390.82,0.444127,99.10,1
830934,1,6730,0,51685,53206,51431.11,53110.37,253.89,95.62,0.444579,99.10,1
830974,1,6770,0,51580,53044,51431.41,53110.24,148.59,-66.24,0.445032,99.09,1
831014,1,6810,0,51556,53019,51431.66,53110.06,124.34,-91.06,0.445486,99.08,1
831054,1,6850,0,51559,53050,51431.92,53109.95,127.08,-59.95,0.445941,99.08,1
831094,1,6890,0,51573,53101,51432.20,53109.93,140.80,-8.93,0.446397,99.07,1
831134,1,6930,0,51600,53164,51432.54,53110.04,167.46,53.96,0.446857,99.06,1
831175,1,6971,0,51618,53200,51432.91,53110.22,185.09,89.78,0.447321,99.05,1
831215,1,7011,0,51626,53204,51433.30,53110.41,192.70,93.59,0.447788,99.05,1
831255,1,7051,0,51624,53209,51433.68,53110.61,190.32,98.39,0.448260,99.04,1
831295,1,7091,0,51634,53247,51434.08,53110.88,199.92,136.12,0.448736,99.03,1
831335,1,7131,0,51658,53308,51434.53,53111.27,223.47,196.73,0.449217,99.02,1
831375,1,7171,0,51685,53391,51435.04,53111.84,249.96,279.16,0.449702,99.02,1
831415,1,7211,0,51724,53463,51435.61,53112.54,288.39,350.46,0.450192,99.01,1
831455,1,7251,0,51757,53525,51436.26,53113.37,320.74,411.63,0.450688,99.00,1
831495,1,7291,0,51780,53590,51436.95,53114.32,343.05,475.68,0.451188,98.99,1
831535,1,7331,0,51805,53654,51437.68,53115.40,367.32,538.60,0.451693,98.98,1
831575,1,7371,0,51826,53681,51438.46,53116.54,387.54,564.46,0.452201,98.97,1
831615,1,7411,0,51810,53518,51439.21,53117.34,370.79,400.66,0.452721,98.97,1
831655,1,7451,0,51696,53212,51439.72,53117.53,256.28,94.47,0.453249,98.96,1
831695,1,7491,0,51579,53015,51440.00,53117.33,139.00,-102.33,0.453778,98.95,1
831735,1,7531,0,51533,52976,51440.19,53117.05,92.81,-141.05,0.454306,98.94,1
831776,1,7572,0,51538,53009,51440.39,53116.83,97.61,-107.83,0.454832,98.93,1
831816,1,7612,0,51555,53068,51440.62,53116.73,114.38,-48.73,0.455360,98.92,1
831856,1,7652,0,51585,53151,51440.91,53116.80,144.09,34.20,0.455889,98.91,1
831896,1,7692,0,51613,53201,51441.25,53116.97,171.75,84.03,0.456421,98.90,1
831936,1,7732,0,51631,53212,51441.63,53117.16,189.37,94.84,0.456957,98.89,1
831976,1,7772,0,51624,53215,51442.00,53117.36,182.00,97.64,0.457496,98.88,1
832016,1,7812,0,51634,53244,51442.38,53117.61,191.62,126.39,0.458039,98.87,1
832056,1,7852,0,51656,53300,51442.81,53117.98,213.19,182.02,0.458586,98.86,1
832096,1,7892,0,51694,53376,51443.32,53118.50,250.68,257.50,0.459138,98.85,1
832136,1,7932,0,51721,53452,51443.87,53119.16,277.12,332.84,0.459694,98.84,1
832176,1,7972,0,51752,53512,51444.49,53119.95,307.51,392.05,0.460254,98.83,1
832216,1,8012,0,51775,53574,51445.16,53120.86,329.84,453.14,0.460818,98.82,1
832256,1,8052,0,51795,53630,51445.86,53121.88,349.14,508.12,0.461383,98.81,1
832296,1,8092,0,51817,53681,51446.60,53123.00,370.40,558.00,0.461949,98.80,1
832337,1,8133,0,51823,53610,51447.35,53123.98,375.65,486.02,0.462521,98.79,1
832377,1,8173,0,51736,53322,51447.93,53124.37,288.07,197.62,0.463103,98.78,1
832417,1,8213,0,51612,53066,51448.26,53124.26,163.74,-58.26,0.463687,98.77,1
832457,1,8253,0,51533,52984,51448.43,53123.98,84.57,-139.98,0.464269,98.75,1
832497,1,8293,0,51535,53013,51448.61,53123.76,86.39,-110.76,0.464850,98.74,1
832537,1,8333,0,51555,53071,51448.82,53123.66,106.18,-52.66,0.465431,98.73,1
832577,1,8373,0,51584,53155,51449.09,53123.72,134.91,31.28,0.466013,98.72,1
832617,1,8413,0,51620,53211,51449.44,53123.89,170.56,87.11,0.466598,98.71,1
832657,1,8453,0,51638,53223,51449.82,53124.09,188.18,98.91,0.467187,98.70,1
832697,1,8493,0,51637,53215,51450.19,53124.28,186.81,90.72,0.467780,98.69,1
832737,1,8533,0,51634,53231,51450.56,53124.49,183.44,106.51,0.468376,98.67,1
832777,1,8573,0,51652,53275,51450.96,53124.79,201.04,150.21,0.468975,98.66,1
832817,1,8613,0,51677,53340,51451.41,53125.23,225.59,214.77,0.469579,98.65,1
832857,1,8653,0,51700,53410,51451.91,53125.80,248.09,284.20,0.470185,98.64,1
832897,1,8693,0,51729,53479,51452.47,53126.50,276.53,352.50,0.470795,98.63,1
832937,1,8733,0,51756,53542,51453.08,53127.34,302.92,414.66,0.471405,98.61,1
832978,1,8774,0,51779,53594,51453.73,53128.27,325.27,465.73,0.472017,98.60,1
833018,1,8814,0,51799,53643,51454.42,53129.30,344.58,513.70,0.472627,98.59,1
833058,1,8854,0,51814,53693,51455.14,53130.43,358.86,562.57,0.473234,98.58,1
833098,1,8894,0,51820,53620,51455.87,53131.41,364.13,488.59,0.473845,98.56,1
833138,1,8934,0,51739,53339,51456.44,53131.83,282.56,207.17,0.474465,98.55,1
833178,1,8974,0,51612,53088,51456.75,53131.74,155.25,-43.74,0.475087,98.54,1
833218,1,9014,0,51543,53013,51456.93,53131.51,86.07,-118.51,0.475707,98.52,1
833258,1,9054,0,51545,53039,51457.10,53131.32,87.90,-92.32,0.476326,98.51,1
833298,1,9094,0,51570,53091,51457.33,53131.25,112.67,-40.25,0.476945,98.50,1
833338,1,9134,0,51597,53168,51457.61,53131.32,139.39,36.68,0.477566,98.49,1
833378,1,9174,0,51622,53207,51457.94,53131.47,164.06,75.53,0.478189,98.47,1
833418,1,9214,0,51630,53205,51458.29,53131.62,171.71,73.38,0.478815,98.46,1
833458,1,9254,0,51624,53186,51458.62,53131.73,165.38,54.27,0.479445,98.45,1
833498,1,9294,0,51618,53200,51458.94,53131.87,159.06,68.13,0.480076,98.43,1
833538,1,9334,0,51632,53243,51459.29,53132.09,172.71,110.91,0.480711,98.42,1
833578,1,9374,0,51649,53302,51459.66,53132.43,189.34,169.57,0.481347,98.40,1
833619,1,9415,0,51674,53365,51460.09,53132.89,213.91,232.11,0.481986,98.39,1
833659,1,9455,0,51706,53432,51460.59,53133.49,245.41,298.51,0.482627,98.38,1
833699,1,9495,0,51728,53495,51461.12,53134.21,266.88,360.79,0.483268,98.36,1
833739,1,9535,0,51747,53542,51461.70,53135.03,285.30,406.97,0.483908,98.35,1
833779,1,9575,0,51769,53590,51462.31,53135.94,306.69,454.06,0.484546,98.34,1
833819,1,9615,0,51789,53639,51462.97,53136.95,326.03,502.05,0.485181,98.32,1
833859,1,9655,0,51802,53603,51463.65,53137.88,338.35,465.12,0.485817,98.31,1
833899,1,9695,0,51737,53341,51464.20,53138.29,272.80,202.71,0.486461,98.29,1
833939,1,9735,0,51610,53052,51464.49,53138.12,145.51,-86.12,0.487107,98.28,1
833979,1,9775,0,51526,52949,51464.61,53137.74,61.39,-188.74,0.487748,98.27,1
834019,1,9815,0,51512,52957,51464.71,53137.38,47.29,-180.38,0.488385,98.25,1
834059,1,9855,0,51523,52997,51464.83,53137.10,58.17,-140.10,0.489019,98.24,1
834099,1,9895,0,51545,53056,51464.99,53136.94,80.01,-80.94,0.489652,98.22,1
834139,1,9935,0,51572,53103,51465.20,53136.87,106.80,-33.88,0.490284,98.21,1
834179,1,9975,0,51581,53103,51465.44,53136.81,115.56,-33.81,0.490918,98.19,1
834219,1,10015,0,51572,53084,51465.65,53136.70,106.35,-52.70,0.491551,98.18,1
834260,1,10056,0,51567,53091,51465.86,53136.61,101.14,-45.61,0.492185,98.16,1
834300,1,10096,0,51576,53140,51466.08,53136.62,109.92,3.38,0.492819,98.15,1
834340,1,10136,0,51604,53215,51466.36,53136.78,137.64,78.22,0.493454,98.14,1
834380,1,10176,0,51631,53280,51466.69,53137.07,164.31,142.93,0.494091,98.12,1
834420,1,10216,0,51664,53358,51467.08,53137.51,196.92,220.49,0.494729,98.11,1
834460,1,10256,0,51696,53418,51467.54,53138.07,228.46,279.93,0.495368,98.09,1
834500,1,10296,0,51720,53478,51468.05,53138.75,251.95,339.25,0.496008,98.08,1
834540,1,10336,0,51747,53523,51468.61,53139.52,278.39,383.48,0.496647,98.06,1
834580,1,10376,0,51768,53569,51469.21,53140.38,298.79,428.62,0.497285,98.05,1
834620,1,10416,0,51774,53526,51469.82,53141.15,304.18,384.85,0.497925,98.03,1
834660,1,10456,0,51702,53246,51470.29,53141.36,231.71,104.64,0.498573,98.02,1
834700,1,10496,0,51570,52966,51470.48,53141.02,99.52,-175.02,0.499219,98.00,1
834740,1,10536,0,51489,52857,51470.52,53140.45,18.48,-283.45,0.499854,97.99,1
834780,1,10576,0,51468,52856,51470.52,53139.88,-2.52,-283.88,0.500480,97.97,1
834820,1,10616,0,51478,52888,51470.54,53139.38,7.46,-251.38,0.501098,97.96,1
834861,1,10657,0,51493,52947,51470.58,53139.00,22.42,-192.00,0.501710,97.94,1
834901,1,10697,0,51523,53014,51470.69,53138.75,52.31,-124.75,0.502320,97.93,1
834941,1,10737,0,51537,53036,51470.82,53138.54,66.18,-102.54,0.502928,97.91,1
834981,1,10777,0,51546,53034,51470.97,53138.34,75.03,-104.34,0.503534,97.90,1
835021,1,10817,0,51547,53051,51471.12,53138.16,75.87,-87.16,0.504139,97.88,1
835061,1,10857,0,51559,53102,51471.30,53138.09,87.70,-36.09,0.504743,97.87,1
835101,1,10897,0,51589,53169,51471.54,53138.16,117.46,30.84,0.505349,97.85,1
835141,1,10937,0,51625,53244,51471.85,53138.37,153.15,105.63,0.505956,97.84,1
835181,1,10977,0,51655,53314,51472.21,53138.72,182.79,175.28,0.506566,97.82,1
835221,1,11017,0,51684,53383,51472.64,53139.21,211.36,243.79,0.507178,97.81,1
835261,1,11057,0,51707,53436,51473.11,53139.80,233.89,296.20,0.507792,97.79,1
835301,1,11097,0,51732,53482,51473.63,53140.49,258.37,341.51,0.508405,97.78,1
835341,1,11137,0,51750,53530,51474.18,53141.27,275.82,388.73,0.509018,97.76,1
835381,1,11177,0,51768,53567,51474.77,53142.12,293.23,424.87,0.509629,97.75,1
835421,1,11217,0,51763,53453,51475.35,53142.75,287.65,310.25,0.510246,97.73,1
835462,1,11258,0,51660,53148,51475.72,53142.76,184.28,5.24,0.510869,97.72,1
835502,1,11298,0,51529,52917,51475.83,53142.31,53.17,-225.31,0.511486,97.70,1
835542,1,11338,0,51465,52849,51475.81,53141.73,-10.81,-292.73,0.512091,97.69,1
835582,1,11378,0,51462,52863,51475.79,53141.17,-13.79,-278.17,0.512686,97.67,1
835622,1,11418,0,51479,52911,51475.79,53140.71,3.21,-229.71,0.513273,97.66,1
835662,1,11458,0,51504,52982,51475.85,53140.40,28.15,-158.40,0.513857,97.64,1
835702,1,11498,0,51537,53037,51475.98,53140.19,61.02,-103.19,0.514438,97.63,1
835742,1,11538,0,51551,53038,51476.13,53139.99,74.87,-101.99,0.515018,97.61,1
835782,1,11578,0,51548,53030,51476.27,53139.77,71.73,-109.77,0.515596,97.60,1
835822,1,11618,0,51550,53047,51476.42,53139.59,73.58,-92.59,0.516172,97.58,1
835862,1,11658,0,51563,53102,51476.60,53139.51,86.40,-37.51,0.516748,97.57,1
835902,1,11698,0,51597,53159,51476.84,53139.55,120.16,19.45,0.517326,97.55,1
835942,1,11738,0,51621,53230,51477.13,53139.73,143.87,90.27,0.517907,97.54,1
835982,1,11778,0,51649,53302,51477.47,53140.06,171.53,161.94,0.518490,97.52,1
836022,1,11818,0,51675,53368,51477.87,53140.52,197.13,227.48,0.519074,97.51,1
836062,1,11858,0,51699,53418,51478.31,53141.07,220.69,276.93,0.519660,97.49,1
836103,1,11899,0,51720,53464,51478.80,53141.72,241.20,322.28,0.520246,97.48,1
836143,1,11939,0,51734,53511,51479.31,53142.46,254.69,368.54,0.520830,97.46,1
836183,1,11979,0,51750,53557,51479.85,53143.29,270.15,413.71,0.521410,97.45,1
836223,1,12019,0,51770,53602,51480.43,53144.21,289.57,457.79,0.521985,97.43,1
836263,1,12059,0,51796,53662,51481.07,53145.24,314.93,516.76,0.522551,97.42,1
836303,1,12099,0,51810,53635,51481.73,53146.22,328.27,488.78,0.523114,97.40,1
836343,1,12139,0,51740,53361,51482.25,53146.65,257.75,214.35,0.523686,97.39,1
836383,1,12179,0,51615,53063,51482.51,53146.49,132.49,-83.49,0.524260,97.37,1
836423,1,12219,0,51527,52929,51482.60,53146.05,44.40,-217.05,0.524827,97.36,1
836463,1,12259,0,51497,52920,51482.63,53145.61,14.37,-225.61,0.525386,97.34,1
836503,1,12299,0,51500,52956,51482.67,53145.23,17.33,-189.23,0.525940,97.33,1
836543,1,12339,0,51520,53007,51482.74,53144.95,37.26,-137.95,0.526491,97.31,1
836583,1,12379,0,51547,53058,51482.87,53144.78,64.13,-86.78,0.527040,97.30,1
836623,1,12419,0,51557,53066,51483.02,53144.62,73.98,-78.62,0.527587,97.28,1
836663,1,12459,0,51552,53049,51483.16,53144.43,68.84,-95.43,0.528134,97.27,1
836704,1,12500,0,51544,53054,51483.28,53144.25,60.72,-90.25,0.528678,97.25,1
836744,1,12540,0,51553,53090,51483.42,53144.15,69.58,-54.15,0.529222,97.24,1
836784,1,12580,0,51573,53154,51483.60,53144.17,89.40,9.83,0.529766,97.23,1
836824,1,12620,0,51601,53223,51483.84,53144.33,117.16,78.67,0.530312,97.21,1
836864,1,12660,0,51627,53285,51484.12,53144.61,142.87,140.39,0.530858,97.20,1
836904,1,12700,0,51656,53352,51484.47,53145.03,171.53,206.97,0.531406,97.18,1
836944,1,12740,0,51681,53406,51484.86,53145.55,196.14,260.45,0.531953,97.17,1
836984,1,12780,0,51709,53458,51485.31,53146.18,223.69,311.82,0.532499,97.15,1
837024,1,12820,0,51729,53494,51485.80,53146.87,243.20,347.13,0.533044,97.14,1
837064,1,12860,0,51745,53524,51486.32,53147.62,258.68,376.37,0.533588,97.12,1
837104,1,12900,0,51756,53567,51486.86,53148.46,269.14,418.54,0.534127,97.11,1
837144,1,12940,0,51770,53601,51487.43,53149.37,282.57,451.63,0.534659,97.10,1
837184,1,12980,0,51789,53638,51488.03,53150.35,300.97,487.65,0.535185,97.08,1
837224,1,13020,0,51775,53489,51488.61,53151.03,286.39,337.97,0.535716,97.07,1
837264,1,13060,0,51664,53170,51488.96,53151.07,175.04,18.93,0.536253,97.05,1
837304,1,13100,0,51532,52939,51489.04,53150.65,42.96,-211.65,0.536784,97.04,1
837345,1,13141,0,51470,52881,51489.01,53150.11,-19.01,-269.11,0.537304,97.03,1
837385,1,13181,0,51468,52906,51488.97,53149.62,-20.97,-243.62,0.537816,97.01,1
837425,1,13221,0,51481,52957,51488.95,53149.24,-7.95,-192.24,0.538321,97.00,1
837465,1,13261,0,51508,53013,51488.99,53148.97,19.01,-135.97,0.538823,96.98,1
837505,1,13301,0,51529,53036,51489.07,53148.75,39.93,-112.75,0.539323,96.97,1
837545,1,13341,0,51524,53020,51489.14,53148.49,34.86,-128.49,0.539819,96.95,1
837585,1,13381,0,51519,53008,51489.21,53148.21,29.79,-140.21,0.540312,96.94,1
837625,1,13421,0,51523,53027,51489.28,53147.96,33.72,-120.96,0.540801,96.93,1
837665,1,13461,0,51538,53068,51489.37,53147.80,48.63,-79.80,0.541289,96.91,1
837705,1,13501,0,51563,53135,51489.52,53147.78,73.48,-12.78,0.541777,96.90,1
837745,1,13541,0,51590,53201,51489.73,53147.89,100.27,53.11,0.542266,96.89,1
837785,1,13581,0,51614,53262,51489.98,53148.12,124.02,113.88,0.542756,96.87,1
837825,1,13621,0,51645,53311,51490.29,53148.45,154.71,162.55,0.543248,96.86,1
837865,1,13661,0,51660,53352,51490.63,53148.86,169.37,203.14,0.543740,96.85,1
837905,1,13701,0,51670,53386,51490.99,53149.34,179.01,236.66,0.544233,96.83,1
837945,1,13741,0,51683,53421,51491.37,53149.88,191.62,271.12,0.544725,96.82,1
837986,1,13782,0,51700,53463,51491.79,53150.51,208.21,312.49,0.545215,96.80,1
838026,1,13822,0,51707,53411,51492.23,53151.03,214.77,259.97,0.545708,96.79,1
838066,1,13862,0,51625,53145,51492.49,53151.02,132.51,-6.02,0.546203,96.78,1
838106,1,13902,0,51494,52870,51492.50,53150.46,1.50,-280.46,0.546687,96.76,1
838146,1,13942,0,51419,52773,51492.35,53149.70,-73.35,-376.70,0.547152,96.75,1
838186,1,13982,0,51401,52785,51492.17,53148.98,-91.17,-363.98,0.547601,96.74,1
838226,1,14022,0,51420,52819,51492.03,53148.32,-72.03,-329.32,0.548036,96.72,1
838266,1,14062,0,51441,52873,51491.93,53147.77,-50.93,-274.77,0.548461,96.71,1
838306,1,14102,0,51471,52926,51491.89,53147.32,-20.89,-221.32,0.548878,96.70,1
838346,1,14142,0,51484,52943,51491.87,53146.92,-7.87,-203.92,0.549289,96.69,1
838386,1,14182,0,51483,52943,51491.86,53146.51,-8.86,-203.51,0.549693,96.67,1
838426,1,14222,0,51482,52955,51491.84,53146.13,-9.84,-191.13,0.550091,96.66,1
838466,1,14262,0,51501,53000,51491.86,53145.84,9.14,-145.84,0.550485,96.65,1
838506,1,14302,0,51522,53064,51491.92,53145.68,30.08,-81.68,0.550878,96.64,1
838546,1,14342,0,51549,53147,51492.04,53145.68,56.96,1.32,0.551270,96.62,1
838587,1,14383,0,51584,53217,51492.22,53145.82,91.78,71.18,0.551663,96.61,1
838627,1,14423,0,51609,53280,51492.45,53146.09,116.55,133.91,0.552057,96.60,1
838667,1,14463,0,51635,53346,51492.74,53146.50,142.26,199.50,0.552450,96.59,1
838707,1,14503,0,51656,53392,51493.07,53146.99,162.93,245.01,0.552842,96.57,1
838747,1,14543,0,51677,53444,51493.44,53147.58,183.56,296.42,0.553232,96.56,1
838787,1,14583,0,51699,53496,51493.85,53148.28,205.15,347.72,0.553617,96.55,1
838827,1,14623,0,51707,53442,51494.28,53148.87,212.72,293.13,0.554003,96.54,1
838867,1,14663,0,51629,53169,51494.55,53148.91,134.45,20.09,0.554394,96.53,1
838907,1,14703,0,51508,52906,51494.57,53148.43,13.43,-242.43,0.554775,96.51,1
838947,1,14743,0,51435,52807,51494.46,53147.75,-59.46,-340.75,0.555141,96.50,1
838987,1,14783,0,51418,52807,51494.30,53147.07,-76.30,-340.07,0.555492,96.49,1
839027,1,14823,0,51426,52842,51494.17,53146.46,-68.17,-304.46,0.555831,96.48,1
839067,1,14863,0,51446,52899,51494.07,53145.97,-48.07,-246.97,0.556162,96.47,1
839107,1,14903,0,51472,52957,51494.03,53145.59,-22.03,-188.59,0.556487,96.46,1
839147,1,14943,0,51485,52977,51494.02,53145.26,-9.02,-168.26,0.556808,96.44,1
839187,1,14983,0,51482,52972,51493.99,53144.91,-11.99,-172.91,0.557124,96.43,1
839228,1,15024,0,51484,52987,51493.97,53144.60,-9.97,-157.60,0.557435,96.42,1
839268,1,15064,0,51499,53029,51493.98,53144.37,5.02,-115.37,0.557744,96.41,1
839308,1,15104,0,51519,53100,51494.04,53144.29,24.96,-44.29,0.558052,96.40,1
839348,1,15144,0,51547,53174,51494.14,53144.35,52.86,29.65,0.558359,96.39,1
839388,1,15184,0,51585,53247,51494.32,53144.55,90.68,102.45,0.558667,96.38,1
839428,1,15224,0,51613,53318,51494.56,53144.90,118.44,173.10,0.558975,96.37,1
839468,1,15264,0,51642,53381,51494.86,53145.37,147.14,235.62,0.559281,96.36,1
839508,1,15304,0,51664,53437,51495.20,53145.96,168.80,291.04,0.559585,96.35,1
839548,1,15344,0,51690,53481,51495.59,53146.63,194.41,334.37,0.559885,96.34,1
839588,1,15384,0,51712,53525,51496.02,53147.39,215.98,377.61,0.560180,96.33,1
839628,1,15424,0,51729,53553,51496.49,53148.20,232.51,404.80,0.560470,96.32,1
839668,1,15464,0,51703,53381,51496.91,53148.67,206.09,232.33,0.560766,96.31,1
839708,1,15504,0,51587,53070,51497.09,53148.52,89.91,-78.52,0.561063,96.30,1
839748,1,15544,0,51475,52879,51497.04,53147.98,-22.04,-268.98,0.561349,96.29,1
839788,1,15584,0,51429,52841,51496.91,53147.36,-67.91,-306.36,0.561623,96.28,1
839828,1,15624,0,51425,52861,51496.77,53146.79,-71.77,-285.79,0.561887,96.27,1
839869,1,15665,0,51436,52906,51496.65,53146.31,-60.65,-240.31,0.562144,96.26,1
839909,1,15705,0,51463,52968,51496.58,53145.96,-33.58,-177.96,0.562396,96.25,1
839949,1,15745,0,51482,53004,51496.55,53145.68,-14.55,-141.68,0.562645,96.24,1
839989,1,15785,0,51488,52999,51496.54,53145.38,-8.54,-146.38,0.562890,96.23,1
840029,1,15825,0,51489,53001,51496.52,53145.09,-7.52,-144.09,0.563131,96.22,1
840069,1,15865,0,51498,53034,51496.53,53144.87,1.47,-110.87,0.563371,96.21,1
840109,1,15905,0,51519,53098,51496.57,53144.78,22.43,-46.78,0.563609,96.20,1
840149,1,15945,0,51551,53166,51496.68,53144.82,54.32,21.18,0.563847,96.19,1
840189,1,15985,0,51585,53238,51496.86,53145.01,88.14,92.99,0.564087,96.18,1
840229,1,16025,0,51618,53306,51497.11,53145.33,120.89,160.67,0.564327,96.18,1
840269,1,16065,0,51642,53368,51497.40,53145.78,144.60,222.22,0.564568,96.17,1
840309,1,16105,0,51665,53414,51497.73,53146.32,167.27,267.68,0.564807,96.16,1
840349,1,16145,0,51685,53454,51498.11,53146.93,186.89,307.07,0.565045,96.15,1
840389,1,16185,0,51700,53497,51498.52,53147.64,201.48,349.36,0.565280,96.14,1
840429,1,16225,0,51714,53543,51498.95,53148.43,215.05,394.57,0.565510,96.13,1
840469,1,16265,0,51732,53551,51499.42,53149.23,232.58,401.77,0.565735,96.12,1
840510,1,16306,0,51693,53340,51499.80,53149.62,193.20,190.38,0.565968,96.12,1
840550,1,16346,0,51566,53034,51499.94,53149.39,66.06,-115.39,0.566201,96.11,1
840590,1,16386,0,51457,52858,51499.85,53148.80,-42.85,-290.80,0.566421,96.10,1
840630,1,16426,0,51416,52826,51499.68,53148.16,-83.68,-322.16,0.566629,96.09,1
840670,1,16466,0,51423,52854,51499.53,53147.57,-76.53,-293.57,0.566826,96.08,1
840710,1,16506,0,51439,52908,51499.41,53147.10,-60.41,-239.10,0.567017,96.08,1
840750,1,16546,0,51466,52974,51499.34,53146.75,-33.34,-172.75,0.567203,96.07,1
840790,1,16586,0,51490,52994,51499.33,53146.45,-9.33,-152.45,0.567386,96.06,1
840830,1,16626,0,51495,52972,51499.32,53146.10,-4.32,-174.10,0.567564,96.05,1
840870,1,16666,0,51487,52966,51499.30,53145.74,-12.30,-179.74,0.567737,96.05,1
840910,1,16706,0,51490,52996,51499.28,53145.45,-9.28,-149.45,0.567906,96.04,1
840950,1,16746,0,51510,53049,51499.30,53145.25,10.70,-96.25,0.568074,96.03,1
840990,1,16786,0,51537,53107,51499.38,53145.18,37.62,-38.18,0.568241,96.02,1
841030,1,16826,0,51562,53170,51499.51,53145.23,62.49,24.77,0.568409,96.02,1
841070,1,16866,0,51584,53227,51499.68,53145.39,84.32,81.61,0.568579,96.01,1
841110,1,16906,0,51605,53279,51499.89,53145.66,105.11,133.34,0.568750,96.00,1
841151,1,16947,0,51624,53316,51500.14,53146.01,123.86,169.99,0.568922,96.00,1
841191,1,16987,0,51636,53353,51500.41,53146.42,135.59,206.58,0.569095,95.99,1
841231,1,17027,0,51647,53389,51500.71,53146.91,146.29,242.09,0.569267,95.98,1
841271,1,17067,0,51667,53435,51501.04,53147.49,165.96,287.51,0.569438,95.98,1
841311,1,17107,0,51686,53450,51501.41,53148.09,184.59,301.91,0.569608,95.97,1
841351,1,17147,0,51652,53253,51501.71,53148.30,150.29,104.70,0.569785,95.96,1
841391,1,17187,0,51530,52947,51501.77,53147.90,28.23,-200.90,0.569956,95.96,1
841431,1,17227,0,51426,52774,51501.62,53147.16,-75.62,-373.16,0.570109,95.95,1
841471,1,17267,0,51390,52747,51501.40,53146.36,-111.40,-399.36,0.570243,95.95,1
841511,1,17307,0,51406,52775,51501.21,53145.61,-95.21,-370.61,0.570361,95.94,1
841551,1,17347,0,51421,52829,51501.05,53144.98,-80.05,-315.98,0.570467,95.93,1
841591,1,17387,0,51442,52878,51500.93,53144.45,-58.93,-266.45,0.570565,95.93,1
841631,1,17427,0,51460,52897,51500.85,53143.96,-40.85,-246.96,0.570654,95.92,1
841671,1,17467,0,51458,52882,51500.76,53143.43,-42.76,-261.43,0.570735,95.92,1
841711,1,17507,0,51445,52882,51500.65,53142.91,-55.65,-260.91,0.570808,95.91,1
841751,1,17547,0,51455,52920,51500.56,53142.46,-45.56,-222.46,0.570875,95.90,1
841792,1,17588,0,51476,52980,51500.52,53142.14,-24.52,-162.14,0.570938,95.90,1
841832,1,17628,0,51506,53049,51500.53,53141.96,5.47,-92.96,0.571000,95.89,1
841872,1,17668,0,51534,53126,51500.59,53141.93,33.41,-15.93,0.571062,95.89,1
841912,1,17708,0,51565,53193,51500.72,53142.03,64.28,50.97,0.571125,95.88,1
841952,1,17748,0,51596,53252,51500.91,53142.25,95.09,109.75,0.571191,95.88,1
841992,1,17788,0,51618,53309,51501.15,53142.59,116.85,166.41,0.571258,95.87,1
842032,1,17828,0,51637,53353,51501.42,53143.01,135.58,209.99,0.571326,95.87,1
842072,1,17868,0,51662,53401,51501.75,53143.53,160.25,257.47,0.571396,95.86,1
842112,1,17908,0,51683,53443,51502.11,53144.13,180.89,298.87,0.571467,95.86,1
842152,1,17948,0,51702,53421,51502.51,53144.68,199.49,276.32,0.571544,95.86,1
842192,1,17988,0,51639,53168,51502.79,53144.73,136.21,23.27,0.571628,95.85,1
842232,1,18028,0,51505,52862,51502.79,53144.17,2.21,-282.17,0.571701,95.85,1
842272,1,18068,0,51404,52707,51502.59,53143.30,-98.59,-436.30,0.571750,95.84,1
842312,1,18108,0,51367,52688,51502.32,53142.39,-135.32,-454.39,0.571780,95.84,1
842352,1,18148,0,51373,52714,51502.07,53141.53,-129.07,-427.53,0.571792,95.83,1
842392,1,18188,0,51386,52761,51501.84,53140.77,-115.84,-379.77,0.571791,95.83,1
842433,1,18229,0,51416,52820,51501.66,53140.13,-85.66,-320.13,0.571781,95.83,1
842473,1,18269,0,51433,52853,51501.53,53139.56,-68.53,-286.56,0.571762,95.82,1
842513,1,18309,0,51438,52857,51501.40,53139.00,-63.40,-282.00,0.571735,95.82,1
842553,1,18349,0,51435,52861,51501.27,53138.44,-66.27,-277.44,0.571700,95.82,1
842593,1,18389,0,51449,52909,51501.17,53137.98,-52.17,-228.98,0.571660,95.81,1
842633,1,18429,0,51472,52975,51501.11,53137.66,-29.11,-162.66,0.571617,95.81,1
842673,1,18469,0,51505,53053,51501.12,53137.49,3.88,-84.49,0.571574,95.81,1
842713,1,18509,0,51549,53121,51501.21,53137.46,47.79,-16.46,0.571531,95.80,1
842753,1,18549,0,51577,53187,51501.37,53137.56,75.63,49.44,0.571491,95.80,1
842793,1,18589,0,51600,53249,51501.57,53137.79,98.43,111.21,0.571454,95.80,1
842833,1,18629,0,51622,53301,51501.81,53138.11,120.19,162.89,0.571419,95.80,1
842873,1,18669,0,51644,53340,51502.09,53138.52,141.91,201.48,0.571389,95.79,1
842913,1,18709,0,51661,53381,51502.41,53139.01,158.59,241.99,0.571362,95.79,1
842953,1,18749,0,51683,53430,51502.78,53139.59,180.22,290.41,0.571338,95.79,1
842993,1,18789,0,51696,53429,51503.16,53140.17,192.84,288.83,0.571319,95.79,1
843033,1,18829,0,51649,53191,51503.46,53140.27,145.54,50.73,0.571310,95.79,1
843074,1,18870,0,51514,52874,51503.48,53139.74,10.52,-265.74,0.571291,95.78,1
843114,1,18910,0,51403,52712,51503.28,53138.89,-100.28,-426.89,0.571253,95.78,1
843154,1,18950,0,51371,52692,51503.02,53138.00,-132.02,-446.00,0.571198,95.78,1
843194,1,18990,0,51377,52723,51502.77,53137.17,-125.77,-414.17,0.571129,95.78,1
843234,1,19030,0,51394,52780,51502.55,53136.45,-108.55,-356.45,0.571049,95.78,1
843274,1,19070,0,51426,52852,51502.40,53135.89,-76.40,-283.89,0.570963,95.77,1
843314,1,19110,0,51452,52885,51502.30,53135.39,-50.30,-250.39,0.570870,95.77,1
843354,1,19150,0,51459,52885,51502.22,53134.89,-43.22,-249.89,0.570771,95.77,1
843394,1,19190,0,51459,52886,51502.13,53134.39,-43.13,-248.39,0.570666,95.77,1
843434,1,19230,0,51472,52922,51502.07,53133.97,-30.07,-211.97,0.570557,95.77,1
843474,1,19270,0,51492,52990,51502.05,53133.68,-10.05,-143.68,0.570445,95.77,1
843514,1,19310,0,51519,53059,51502.09,53133.54,16.91,-74.54,0.570333,95.77,1
843554,1,19350,0,51552,53133,51502.19,53133.54,49.81,-0.54,0.570223,95.77,1
843594,1,19390,0,51582,53197,51502.35,53133.66,79.65,63.34,0.570115,95.77,1
843634,1,19430,0,51610,53254,51502.57,53133.91,107.43,120.09,0.570012,95.77,1
843674,1,19470,0,51630,53306,51502.82,53134.25,127.18,171.75,0.569912,95.77,1
843715,1,19511,0,51647,53345,51503.11,53134.67,143.89,210.33,0.569816,95.77,1
843755,1,19551,0,51662,53394,51503.43,53135.19,158.57,258.81,0.569724,95.77,1
843795,1,19591,0,51677,53441,51503.78,53135.80,173.22,305.20,0.569635,95.76,1
843835,1,19631,0,51700,53488,51504.18,53136.51,195.82,351.49,0.569547,95.76,1
843875,1,19671,0,51697,53360,51504.56,53136.96,192.44,223.04,0.569471,95.76,1
843915,1,19711,0,51592,53040,51504.74,53136.77,87.26,-96.77,0.569396,95.76,1
843955,1,19751,0,51459,52807,51504.65,53136.11,-45.65,-329.11,0.569310,95.76,1
843995,1,19791,0,51402,52737,51504.45,53135.32,-102.45,-398.32,0.569209,95.77,1
844035,1,19831,0,51405,52758,51504.25,53134.56,-99.25,-376.56,0.569095,95.77,1
844075,1,19871,0,51424,52808,51504.09,53133.91,-80.09,-325.91,0.568973,95.77,1
844115,1,19911,0,51445,52876,51503.97,53133.39,-58.97,-257.39,0.568844,95.77,1
844155,1,19951,0,51468,52908,51503.90,53132.95,-35.90,-224.95,0.568710,95.77,1
844195,1,19991,0,51477,52900,51503.85,53132.48,-26.85,-232.48,0.568571,95.77,1
844235,1,20031,0,51466,52887,51503.77,53131.99,-37.77,-244.99,0.568426,95.77,1
844275,1,20071,0,51466,52901,51503.70,53131.53,-37.70,-230.53,0.568275,95.77,1
844315,1,20111,0,51474,52949,51503.64,53131.17,-29.64,-182.17,0.568122,95.77,1
844356,1,20152,0,51502,53008,51503.64,53130.92,-1.64,-122.92,0.567967,95.77,1
844396,1,20192,0,51527,53075,51503.69,53130.81,23.31,-55.81,0.567813,95.77,1
844436,1,20232,0,51554,53141,51503.79,53130.84,50.21,10.16,0.567660,95.77,1
844476,1,20272,0,51576,53204,51503.93,53130.98,72.07,73.02,0.567510,95.77,1
844516,1,20312,0,51605,53251,51504.14,53131.23,100.86,119.77,0.567363,95.77,1
844556,1,20352,0,51622,53289,51504.37,53131.54,117.62,157.46,0.567220,95.78,1
844596,1,20392,0,51639,53329,51504.64,53131.94,134.36,197.06,0.567082,95.78,1
844636,1,20432,0,51657,53369,51504.95,53132.41,152.05,236.59,0.566948,95.78,1
844676,1,20472,0,51677,53411,51505.29,53132.97,171.71,278.03,0.566820,95.78,1
844716,1,20512,0,51689,53340,51505.66,53133.39,183.34,206.61,0.566703,95.78,1
844756,1,20552,0,51602,53044,51505.86,53133.21,96.14,-89.21,0.566589,95.78,1
844796,1,20592,0,51458,52761,51505.76,53132.47,-47.76,-371.47,0.566460,95.79,1
844836,1,20632,0,51377,52659,51505.50,53131.52,-128.50,-472.52,0.566311,95.79,1
844876,1,20672,0,51370,52673,51505.23,53130.61,-135.23,-457.61,0.566147,95.79,1
844916,1,20712,0,51387,52722,51505.00,53129.79,-118.00,-407.79,0.565971,95.79,1
844956,1,20752,0,51407,52782,51504.80,53129.10,-97.80,-347.10,0.565786,95.79,1
844996,1,20792,0,51432,52824,51504.66,53128.49,-72.66,-304.49,0.565594,95.79,1
845037,1,20833,0,51436,52805,51504.52,53127.84,-68.52,-322.84,0.565393,95.80,1
845077,1,20873,0,51421,52776,51504.36,53127.14,-83.36,-351.14,0.565183,95.80,1
845117,1,20913,0,51410,52786,51504.17,53126.46,-94.17,-340.46,0.564965,95.80,1
845157,1,20953,0,51423,52827,51504.01,53125.86,-81.01,-298.86,0.564741,95.80,1
845197,1,20993,0,51448,52893,51503.90,53125.40,-55.90,-232.40,0.564513,95.81,1
845237,1,21033,0,51480,52967,51503.86,53125.08,-23.86,-158.08,0.564284,95.81,1
845277,1,21073,0,51508,53035,51503.86,53124.90,4.14,-89.90,0.564055,95.81,1
845317,1,21113,0,51537,53099,51503.93,53124.85,33.07,-25.85,0.563826,95.81,1
845357,1,21153,0,51566,53144,51504.05,53124.89,61.95,19.11,0.563601,95.82,1
845397,1,21193,0,51584,53178,51504.21,53125.00,79.79,53.00,0.563378,95.82,1
845437,1,21233,0,51593,53215,51504.39,53125.18,88.61,89.82,0.563160,95.82,1
845477,1,21273,0,51613,53260,51504.61,53125.45,108.39,134.55,0.562946,95.83,1
845517,1,21313,0,51630,53269,51504.87,53125.74,125.13,143.26,0.562738,95.83,1
845557,1,21353,0,51594,53056,51505.05,53125.60,88.95,-69.60,0.562534,95.83,1
845597,1,21393,0,51461,52729,51504.96,53124.81,-43.96,-395.81,0.562313,95.84,1
845637,1,21433,0,51340,52547,51504.63,53123.66,-164.63,-576.66,0.562070,95.84,1
845678,1,21474,0,51304,52520,51504.23,53122.45,-200.23,-602.45,0.561810,95.84,1
845718,1,21514,0,51308,52553,51503.84,53121.31,-195.84,-568.31,0.561536,95.85,1
845758,1,21554,0,51321,52614,51503.48,53120.30,-182.48,-506.30,0.561255,95.85,1
845798,1,21594,0,51355,52689,51503.18,53119.44,-148.18,-430.44,0.560966,95.85,1
845838,1,21634,0,51382,52727,51502.94,53118.66,-120.94,-391.66,0.560672,95.86,1
845878,1,21674,0,51389,52732,51502.71,53117.88,-113.71,-385.88,0.560370,95.86,1
845918,1,21714,0,51384,52738,51502.48,53117.12,-118.48,-379.12,0.560063,95.87,1
845958,1,21754,0,51401,52776,51502.28,53116.45,-101.28,-340.45,0.559751,95.87,1
845998,1,21794,0,51425,52836,51502.12,53115.89,-77.12,-279.89,0.559436,95.87,1
846038,1,21834,0,51459,52909,51502.04,53115.47,-43.04,-206.47,0.559119,95.88,1
846078,1,21874,0,51487,52987,51502.01,53115.22,-15.01,-128.22,0.558802,95.88,1
846118,1,21914,0,51518,53053,51502.05,53115.09,15.95,-62.09,0.558486,95.89,1
846158,1,21954,0,51548,53115,51502.14,53115.09,45.86,-0.09,0.558171,95.89,1
846198,1,21994,0,51567,53155,51502.27,53115.18,64.73,39.82,0.557859,95.90,1
846238,1,22034,0,51580,53196,51502.43,53115.34,77.57,80.66,0.557550,95.90,1
846278,1,22074,0,51598,53243,51502.62,53115.60,95.38,127.40,0.557245,95.91,1
846318,1,22114,0,51614,53285,51502.84,53115.94,111.16,169.06,0.556944,95.91,1
846359,1,22155,0,51631,53257,51503.10,53116.22,127.90,140.78,0.556650,95.92,1
846399,1,22195,0,51563,52992,51503.22,53115.98,59.78,-123.98,0.556357,95.92,1
846439,1,22235,0,51417,52682,51503.05,53115.11,-86.05,-433.11,0.556051,95.93,1
846479,1,22275,0,51320,52545,51502.69,53113.97,-182.69,-568.97,0.555732,95.93,1
846519,1,22315,0,51301,52545,51502.29,53112.83,-201.29,-567.83,0.555405,95.94,1
846559,1,22355,0,51315,52588,51501.91,53111.79,-186.91,-523.79,0.555071,95.94,1
846599,1,22395,0,51340,52649,51501.59,53110.86,-161.59,-461.86,0.554733,95.95,1
846639,1,22435,0,51365,52712,51501.31,53110.06,-136.31,-398.06,0.554391,95.96,1
846679,1,22475,0,51392,52730,51501.09,53109.30,-109.09,-379.30,0.554043,95.96,1
846719,1,22515,0,51392,52715,51500.87,53108.52,-108.87,-393.52,0.553690,95.97,1
846759,1,22555,0,51388,52722,51500.65,53107.74,-112.65,-385.74,0.553331,95.97,1
846799,1,22595,0,51399,52766,51500.45,53107.06,-101.45,-341.06,0.552970,95.98,1
846839,1,22635,0,51420,52822,51500.29,53106.49,-80.29,-284.49,0.552606,95.99,1
846879,1,22675,0,51448,52897,51500.19,53106.07,-52.19,-209.07,0.552241,95.99,1
846919,1,22715,0,51477,52964,51500.14,53105.79,-23.14,-141.79,0.551875,96.00,1
846959,1,22755,0,51502,53026,51500.14,53105.63,1.86,-79.63,0.551510,96.00,1
847000,1,22796,0,51527,53085,51500.20,53105.59,26.80,-20.59,0.551147,96.01,1
847040,1,22836,0,51546,53126,51500.29,53105.63,45.71,20.37,0.550786,96.02,1
847080,1,22876,0,51563,53175,51500.42,53105.77,62.58,69.23,0.550427,96.02,1
847120,1,22916,0,51576,53216,51500.57,53106.00,75.43,110.00,0.550071,96.03,1
847160,1,22956,0,51599,53253,51500.77,53106.29,98.23,146.71,0.549718,96.04,1
847200,1,22996,0,51590,53102,51500.95,53106.29,89.05,-4.29,0.549371,96.04,1
847240,1,23036,0,51470,52781,51500.89,53105.64,-30.89,-324.64,0.549016,96.05,1
847280,1,23076,0,51343,52555,51500.57,53104.54,-157.57,-549.54,0.548649,96.06,1
847320,1,23116,0,51296,52504,51500.17,53103.34,-204.17,-599.34,0.548275,96.07,1
847360,1,23156,0,51299,52534,51499.77,53102.20,-200.77,-568.20,0.547895,96.07,1
847400,1,23196,0,51312,52583,51499.39,53101.16,-187.39,-518.16,0.547513,96.08,1
847440,1,23236,0,51342,52652,51499.08,53100.27,-157.08,-448.27,0.547128,96.09,1
847480,1,23276,0,51367,52693,51498.82,53099.45,-131.82,-406.45,0.546740,96.09,1
847520,1,23316,0,51374,52700,51498.57,53098.66,-124.57,-398.66,0.546348,96.10,1
847560,1,23356,0,51370,52694,51498.31,53097.85,-128.31,-403.85,0.545954,96.11,1
847600,1,23396,0,51370,52717,51498.06,53097.09,-128.06,-380.09,0.545557,96.12,1
847641,1,23437,0,51392,52774,51497.85,53096.44,-105.85,-322.44,0.545160,96.12,1
847681,1,23477,0,51420,52848,51497.69,53095.95,-77.69,-247.95,0.544762,96.13,1
847721,1,23517,0,51451,52927,51497.60,53095.61,-46.60,-168.61,0.544364,96.14,1
847761,1,23557,0,51480,52999,51497.56,53095.42,-17.56,-96.42,0.543967,96.15,1
847801,1,23597,0,51511,53062,51497.59,53095.35,13.41,-33.35,0.543572,96.16,1
847841,1,23637,0,51531,53122,51497.66,53095.41,33.34,26.59,0.543177,96.16,1
847881,1,23677,0,51556,53169,51497.77,53095.55,58.23,73.45,0.542786,96.17,1
847921,1,23717,0,51576,53216,51497.93,53095.80,78.07,120.20,0.542397,96.18,1
847961,1,23757,0,51601,53266,51498.14,53096.14,102.86,169.86,0.542011,96.19,1
848001,1,23797,0,51623,53277,51498.39,53096.50,124.61,180.50,0.541632,96.20,1
848041,1,23837,0,51583,53061,51498.56,53096.43,84.44,-35.43,0.541257,96.20,1
848081,1,23877,0,51449,52734,51498.46,53095.71,-49.46,-361.71,0.540874,96.21,1
848121,1,23917,0,51332,52549,51498.13,53094.61,-166.13,-545.61,0.540484,96.22,1
848161,1,23957,0,51293,52525,51497.72,53093.48,-204.72,-568.48,0.540090,96.23,1
848201,1,23997,0,51305,52559,51497.34,53092.41,-192.34,-533.41,0.539695,96.24,1
848241,1,24037,0,51318,52604,51496.98,53091.43,-178.98,-487.43,0.539298,96.25,1
848282,1,24078,0,51343,52671,51496.68,53090.59,-153.68,-419.59,0.538901,96.25,1
848322,1,24118,0,51363,52704,51496.41,53089.82,-133.41,-385.82,0.538503,96.26,1
848362,1,24158,0,51370,52711,51496.16,53089.06,-126.16,-378.06,0.538104,96.27,1
848402,1,24198,0,51368,52716,51495.91,53088.32,-127.91,-372.32,0.537704,96.28,1
848442,1,24238,0,51379,52761,51495.67,53087.66,-116.67,-326.66,0.537304,96.29,1
848482,1,24278,0,51402,52839,51495.48,53087.17,-93.48,-248.17,0.536904,96.30,1
848522,1,24318,0,51438,52921,51495.37,53086.84,-57.37,-165.84,0.536506,96.31,1
848562,1,24358,0,51479,53009,51495.34,53086.68,-16.34,-77.68,0.536108,96.31,1
848602,1,24398,0,51515,53079,51495.38,53086.66,19.62,-7.66,0.535712,96.32,1
848642,1,24438,0,51545,53147,51495.48,53086.79,49.52,60.21,0.535317,96.33,1
848682,1,24478,0,51567,53206,51495.62,53087.02,71.37,118.98,0.534926,96.34,1
848722,1,24518,0,51594,53253,51495.82,53087.36,98.18,165.64,0.534537,96.35,1
848762,1,24558,0,51613,53299,51496.06,53087.78,116.94,211.22,0.534153,96.36,1
848802,1,24598,0,51631,53354,51496.33,53088.32,134.67,265.68,0.533773,96.37,1
848842,1,24638,0,51653,53394,51496.64,53088.93,156.36,305.07,0.533399,96.38,1
848883,1,24679,0,51635,53226,51496.92,53089.21,138.08,136.79,0.533032,96.39,1
848923,1,24719,0,51511,52897,51496.95,53088.82,14.05,-191.82,0.532664,96.39,1
848963,1,24759,0,51385,52687,51496.73,53088.02,-111.73,-401.02,0.532292,96.40,1
849003,1,24799,0,51336,52638,51496.41,53087.12,-160.41,-449.12,0.531918,96.41,1
849043,1,24839,0,51342,52662,51496.10,53086.28,-154.10,-424.28,0.531544,96.42,1
849083,1,24879,0,51356,52715,51495.82,53085.54,-139.82,-370.54,0.531170,96.43,1
849123,1,24919,0,51383,52782,51495.60,53084.93,-112.60,-302.93,0.530796,96.44,1
849163,1,24959,0,51419,52833,51495.45,53084.43,-76.45,-251.43,0.530421,96.45,1
849203,1,24999,0,51428,52845,51495.32,53083.95,-67.32,-238.95,0.530046,96.46,1
849243,1,25039,0,51430,52847,51495.19,53083.48,-65.19,-236.48,0.529670,96.47,1
849283,1,25079,0,51436,52880,51495.07,53083.07,-59.07,-203.07,0.529294,96.48,1
849323,1,25119,0,51457,52932,51495.00,53082.77,-38.00,-150.77,0.528919,96.48,1
849363,1,25159,0,51484,52999,51494.98,53082.60,-10.98,-83.60,0.528543,96.49,1
849403,1,25199,0,51515,53085,51495.02,53082.61,19.98,2.39,0.528170,96.50,1
849443,1,25239,0,51546,53158,51495.12,53082.76,50.88,75.24,0.527798,96.51,1
849484,1,25280,0,51574,53217,51495.28,53083.03,78.72,133.97,0.527428,96.52,1
849524,1,25320,0,51593,53271,51495.48,53083.41,97.52,187.59,0.527062,96.53,1
849564,1,25360,0,51618,53328,51495.72,53083.90,122.28,244.10,0.526700,96.54,1
849604,1,25400,0,51634,53373,51496.00,53084.48,138.00,288.52,0.526341,96.55,1
849644,1,25440,0,51656,53427,51496.32,53085.17,159.68,341.83,0.525987,96.56,1
849684,1,25480,0,51681,53480,51496.69,53085.96,184.31,394.04,0.525638,96.57,1
849724,1,25520,0,51684,53390,51497.07,53086.57,186.93,303.43,0.525299,96.58,1
849764,1,25560,0,51592,53093,51497.26,53086.59,94.74,6.41,0.524966,96.58,1
849804,1,25600,0,51468,52830,51497.20,53086.07,-29.20,-256.07,0.524628,96.59,1
849844,1,25640,0,51403,52744,51497.01,53085.39,-94.01,-341.39,0.524288,96.60,1
849884,1,25680,0,51392,52772,51496.80,53084.77,-104.80,-312.77,0.523946,96.61,1
849924,1,25720,0,51409,52818,51496.63,53084.23,-87.63,-266.23,0.523604,96.62,1
849964,1,25760,0,51436,52883,51496.51,53083.83,-60.51,-200.83,0.523262,96.63,1
850004,1,25800,0,51457,52927,51496.43,53083.52,-39.43,-156.52,0.522920,96.64,1
850044,1,25840,0,51469,52933,51496.37,53083.22,-27.37,-150.22,0.522577,96.65,1
850085,1,25881,0,51466,52918,51496.32,53082.89,-30.32,-164.89,0.522234,96.66,1
850125,1,25921,0,51461,52935,51496.25,53082.60,-35.25,-147.60,0.521891,96.66,1
850165,1,25961,0,51476,52990,51496.21,53082.41,-20.21,-92.41,0.521548,96.67,1
850205,1,26001,0,51503,53057,51496.22,53082.36,6.78,-25.36,0.521206,96.68,1
850245,1,26041,0,51533,53137,51496.30,53082.47,36.70,54.53,0.520866,96.69,1
850285,1,26081,0,51568,53220,51496.44,53082.75,71.56,137.25,0.520528,96.70,1
850325,1,26121,0,51601,53285,51496.65,53083.16,104.35,201.84,0.520193,96.71,1
850365,1,26161,0,51630,53344,51496.92,53083.68,133.08,260.32,0.519863,96.72,1
850405,1,26201,0,51657,53389,51497.24,53084.29,159.76,304.71,0.519539,96.73,1
850445,1,26241,0,51674,53436,51497.60,53085.00,176.40,351.00,0.519221,96.74,1
850485,1,26281,0,51690,53487,51497.98,53085.80,192.02,401.20,0.518910,96.74,1
850525,1,26321,0,51713,53524,51498.41,53086.68,214.59,437.32,0.518606,96.75,1
850565,1,26361,0,51702,53364,51498.82,53087.23,203.18,276.77,0.518317,96.76,1
850605,1,26401,0,51587,53052,51499.00,53087.16,88.00,-35.16,0.518032,96.77,1
850645,1,26441,0,51460,52834,51498.92,53086.66,-38.92,-252.66,0.517743,96.78,1
850685,1,26481,0,51410,52789,51498.75,53086.07,-88.75,-297.07,0.517452,96.79,1
850726,1,26522,0,51414,52822,51498.58,53085.54,-84.58,-263.54,0.517160,96.80,1
850766,1,26562,0,51433,52888,51498.45,53085.14,-65.45,-197.14,0.516868,96.80,1
850806,1,26602,0,51461,52965,51498.37,53084.91,-37.38,-119.91,0.516576,96.81,1
850846,1,26642,0,51489,53003,51498.36,53084.74,-9.36,-81.74,0.516285,96.82,1
850886,1,26682,0,51496,53007,51498.36,53084.59,-2.36,-77.59,0.515994,96.83,1
850926,1,26722,0,51494,53006,51498.35,53084.43,-4.35,-78.43,0.515703,96.84,1
850966,1,26762,0,51496,53041,51498.34,53084.35,-2.34,-43.35,0.515413,96.85,1
851006,1,26802,0,51526,53104,51498.40,53084.39,27.60,19.61,0.515125,96.85,1
851046,1,26842,0,51561,53173,51498.52,53084.57,62.48,88.43,0.514838,96.86,1
851086,1,26882,0,51592,53249,51498.71,53084.90,93.29,164.10,0.514555,96.87,1
851126,1,26922,0,51622,53320,51498.96,53085.37,123.04,234.63,0.514275,96.88,1
851166,1,26962,0,51647,53383,51499.25,53085.97,147.75,297.03,0.514000,96.89,1
851206,1,27002,0,51677,53437,51499.61,53086.67,177.39,350.33,0.513731,96.90,1
851246,1,27042,0,51694,53478,51500.00,53087.46,194.00,390.54,0.513468,96.90,1
851286,1,27082,0,51709,53528,51500.42,53088.34,208.58,439.66,0.513212,96.91,1
851326,1,27122,0,51730,53576,51500.88,53089.32,229.12,486.68,0.512962,96.92,1
851367,1,27163,0,51748,53621,51501.37,53090.38,246.62,530.62,0.512718,96.93,1
851407,1,27203,0,51749,53520,51501.87,53091.24,247.13,428.76,0.512487,96.94,1
851447,1,27243,0,51649,53221,51502.17,53091.50,146.83,129.50,0.512266,96.94,1
851487,1,27283,0,51520,52978,51502.20,53091.28,17.80,-113.28,0.512044,96.95,1
851527,1,27323,0,51462,52908,51502.12,53090.91,-40.13,-182.91,0.511821,96.96,1
851567,1,27363,0,51458,52937,51502.04,53090.61,-44.04,-153.61,0.511598,96.97,1
851607,1,27403,0,51480,52996,51502.00,53090.42,-22.00,-94.42,0.511374,96.97,1
851647,1,27443,0,51514,53065,51502.02,53090.37,11.98,-25.37,0.511152,96.98,1
851687,1,27483,0,51546,53109,51502.11,53090.41,43.89,18.59,0.510931,96.99,1
851727,1,27523,0,51555,53109,51502.21,53090.45,52.79,18.55,0.510711,97.00,1
851767,1,27563,0,51546,53103,51502.30,53090.48,43.70,12.52,0.510494,97.00,1
851807,1,27603,0,51550,53116,51502.40,53090.53,47.60,25.47,0.510278,97.01,1
851847,1,27643,0,51564,53166,51502.53,53090.68,61.47,75.32,0.510064,97.02,1
851887,1,27683,0,51586,53233,51502.70,53090.96,83.30,142.04,0.509853,97.02,1
851927,1,27723,0,51617,53307,51502.93,53091.40,114.07,215.60,0.509644,97.03,1
851967,1,27763,0,51644,53373,51503.21,53091.96,140.79,281.04,0.509438,97.04,1
852008,1,27804,0,51672,53437,51503.55,53092.66,168.45,344.34,0.509237,97.05,1
852048,1,27844,0,51694,53491,51503.93,53093.45,190.07,397.55,0.509039,97.05,1
852088,1,27884,0,51714,53539,51504.36,53094.34,209.64,444.66,0.508846,97.06,1
852128,1,27924,0,51733,53581,51504.81,53095.32,228.19,485.68,0.508657,97.07,1
852168,1,27964,0,51755,53638,51505.31,53096.41,249.69,541.59,0.508471,97.07,1
852208,1,28004,0,51774,53664,51505.85,53097.54,268.15,566.46,0.508292,97.08,1
852248,1,28044,0,51752,53500,51506.34,53098.35,245.66,401.65,0.508125,97.09,1
852288,1,28084,0,51644,53202,51506.62,53098.55,137.38,103.45,0.507967,97.09,1
852328,1,28124,0,51536,53016,51506.68,53098.39,29.32,-82.39,0.507808,97.10,1
852368,1,28164,0,51494,52978,51506.66,53098.15,-12.66,-120.15,0.507649,97.10,1
852408,1,28204,0,51500,53021,51506.64,53098.00,-6.64,-77.00,0.507490,97.11,1
852448,1,28244,0,51524,53081,51506.68,53097.97,17.32,-16.97,0.507331,97.12,1
852488,1,28284,0,51553,53148,51506.77,53098.07,46.23,49.93,0.507174,97.12,1
852528,1,28324,0,51572,53179,51506.91,53098.23,65.09,80.77,0.507018,97.13,1
852568,1,28364,0,51574,53179,51507.04,53098.40,66.96,80.60,0.506865,97.14,1
852609,1,28405,0,51572,53174,51507.18,53098.55,64.82,75.45,0.506713,97.14,1
852649,1,28445,0,51577,53207,51507.32,53098.77,69.68,108.23,0.506563,97.15,1
852689,1,28485,0,51592,53273,51507.49,53099.12,84.51,173.88,0.506414,97.15,1
852729,1,28525,0,51621,53340,51507.71,53099.61,113.29,240.39,0.506266,97.16,1
852769,1,28565,0,51654,53414,51508.01,53100.23,145.99,313.77,0.506119,97.16,1
852809,1,28605,0,51683,53494,51508.36,53101.02,174.64,392.98,0.505973,97.17,1
852849,1,28645,0,51714,53560,51508.77,53101.94,205.23,458.06,0.505828,97.18,1
852889,1,28685,0,51741,53615,51509.24,53102.97,231.76,512.03,0.505684,97.18,1
852929,1,28725,0,51764,53660,51509.75,53104.09,254.25,555.91,0.505542,97.19,1
852969,1,28765,0,51784,53708,51510.30,53105.30,273.70,602.70,0.505401,97.19,1
853009,1,28805,0,51807,53751,51510.89,53106.59,296.11,644.41,0.505264,97.20,1
853049,1,28845,0,51802,53648,51511.48,53107.68,290.52,540.32,0.505137,97.20,1
853089,1,28885,0,51709,53361,51511.87,53108.18,197.13,252.82,0.505020,97.21,1
853129,1,28925,0,51588,53142,51512.02,53108.25,75.98,33.75,0.504906,97.21,1
853169,1,28965,0,51532,53081,51512.07,53108.20,19.93,-27.20,0.504792,97.22,1
853209,1,29005,0,51529,53103,51512.10,53108.19,16.90,-5.19,0.504679,97.22,1
853250,1,29046,0,51544,53148,51512.17,53108.27,31.83,39.73,0.504566,97.23,1
853290,1,29086,0,51563,53210,51512.27,53108.48,50.73,101.52,0.504454,97.23,1
853330,1,29126,0,51587,53260,51512.42,53108.78,74.58,151.22,0.504342,97.24,1
853370,1,29166,0,51590,53263,51512.58,53109.09,77.42,153.91,0.504231,97.24,1
853410,1,29206,0,51595,53260,51512.75,53109.39,82.25,150.61,0.504122,97.25,1
853450,1,29246,0,51600,53287,51512.92,53109.75,87.08,177.25,0.504013,97.25,1
853490,1,29286,0,51616,53347,51513.13,53110.23,102.87,236.77,0.503904,97.26,1
853530,1,29326,0,51648,53416,51513.40,53110.84,134.60,305.16,0.503795,97.26,1
853570,1,29366,0,51684,53490,51513.74,53111.60,170.26,378.40,0.503686,97.26,1
853610,1,29406,0,51718,53556,51514.15,53112.49,203.85,443.51,0.503578,97.27,1
853650,1,29446,0,51740,53617,51514.61,53113.50,225.39,503.50,0.503470,97.27,1
853690,1,29486,0,51757,53669,51515.09,53114.61,241.91,554.39,0.503361,97.28,1
853730,1,29526,0,51783,53712,51515.63,53115.81,267.37,596.19,0.503251,97.28,1
853770,1,29566,0,51796,53755,51516.19,53117.09,279.81,637.91,0.503139,97.29,1
853810,1,29606,0,51816,53784,51516.79,53118.43,299.21,665.57,0.503028,97.29,1
853850,1,29646,0,51788,53626,51517.34,53119.44,270.66,506.56,0.502924,97.29,1
853891,1,29687,0,51683,53340,51517.67,53119.88,165.33,220.12,0.502827,97.30,1
853931,1,29727,0,51574,53162,51517.78,53119.97,56.22,42.03,0.502730,97.30,1
853971,1,29767,0,51534,53130,51517.82,53119.99,16.18,10.01,0.502634,97.31,1
854011,1,29807,0,51534,53152,51517.85,53120.05,16.15,31.95,0.502539,97.31,1
854051,1,29847,0,51548,53196,51517.91,53120.21,30.09,75.79,0.502443,97.31,1
854091,1,29887,0,51573,53262,51518.03,53120.49,54.97,141.51,0.502348,97.32,1
854131,1,29927,0,51596,53303,51518.18,53120.86,77.82,182.14,0.502252,97.32,1
854171,1,29967,0,51601,53305,51518.35,53121.23,82.65,183.77,0.502157,97.33,1
854211,1,30007,1,51608,53306,51518.53,53121.60,89.47,184.40,0.502062,97.33,1
854251,1,30047,1,51614,53333,51518.72,53122.03,95.28,210.97,0.501968,97.33,1
854291,1,30087,1,51632,53388,51518.95,53122.56,113.05,265.44,0.501873,97.34,1
854331,1,30127,1,51654,53453,51519.22,53123.23,134.78,329.77,0.501776,97.34,1
854371,1,30167,1,51682,53516,51519.55,53124.01,162.45,391.99,0.501678,97.34,1
854411,1,30207,1,51715,53583,51519.94,53124.93,195.06,458.07,0.501579,97.35,1
854451,1,30247,1,51733,53634,51520.36,53125.95,212.64,508.05,0.501477,97.35,1
854491,1,30287,1,51753,53689,51520.83,53127.08,232.17,561.92,0.501371,97.35,1
854532,1,30328,1,51773,53734,51521.33,53128.29,251.67,605.71,0.501261,97.36,1
854572,1,30368,1,51788,53780,51521.87,53129.60,266.13,650.40,0.501147,97.36,1
854612,1,30408,1,51803,53796,51522.43,53130.93,280.57,665.07,0.501030,97.36,1
854652,1,30448,1,51763,53609,51522.91,53131.89,240.09,477.11,0.500917,97.37,1
854692,1,30488,1,51654,53338,51523.18,53132.30,130.82,205.70,0.500807,97.37,1
854732,1,30528,1,51559,53192,51523.25,53132.43,35.75,59.57,0.500698,97.37,1
854772,1,30568,1,51529,53166,51523.26,53132.50,5.74,33.50,0.500589,97.38,1
854812,1,30608,1,51532,53188,51523.28,53132.61,8.72,55.39,0.500480,97.38,1
854852,1,30648,1,51546,53220,51523.33,53132.79,22.67,87.21,0.500371,97.38,1
854892,1,30688,1,51569,53272,51523.42,53133.07,45.58,138.93,0.500262,97.39,1
854932,1,30728,1,51588,53300,51523.55,53133.40,64.45,166.60,0.500153,97.39,1
854972,1,30768,1,51587,53299,51523.68,53133.73,63.32,165.27,0.500043,97.39,1
855012,1,30808,1,51584,53298,51523.80,53134.06,60.20,163.94,0.499933,97.40,1
855052,1,30848,1,51593,53330,51523.94,53134.46,69.06,195.54,0.499823,97.40,1
855092,1,30888,1,51608,53391,51524.11,53134.97,83.89,256.03,0.499710,97.40,1
855132,1,30928,1,51634,53461,51524.33,53135.62,109.67,325.37,0.499595,97.41,1
855173,1,30969,1,51659,53521,51524.60,53136.40,134.40,384.60,0.499476,97.41,1
855213,1,31009,1,51689,53587,51524.93,53137.30,164.07,449.70,0.499353,97.41,1
855253,1,31049,1,51706,53641,51525.30,53138.31,180.70,502.69,0.499225,97.42,1
855293,1,31089,1,51719,53689,51525.69,53139.41,193.31,549.59,0.499089,97.42,1
855333,1,31129,1,51743,53738,51526.12,53140.61,216.87,597.39,0.498947,97.42,1
855373,1,31169,1,51759,53788,51526.59,53141.91,232.41,646.09,0.498797,97.43,1
855413,1,31209,1,51768,53743,51527.08,53143.11,240.92,599.89,0.498644,97.43,1
855453,1,31249,1,51703,53525,51527.43,53143.87,175.57,381.12,0.498492,97.43,1
855493,1,31289,1,51604,53321,51527.59,53144.23,76.41,176.77,0.498341,97.44,1
855533,1,31329,1,51549,53239,51527.63,53144.42,21.37,94.58,0.498190,97.44,1
855573,1,31369,1,51534,53231,51527.64,53144.60,6.36,86.40,0.498040,97.44,1
855613,1,31409,1,51531,53247,51527.65,53144.80,3.35,102.20,0.497888,97.45,1
855653,1,31449,1,51550,53285,51527.70,53145.09,22.30,139.91,0.497737,97.45,1
855693,1,31489,1,51563,53329,51527.77,53145.46,35.23,183.54,0.497584,97.45,1
855733,1,31529,1,51572,53344,51527.86,53145.86,44.14,198.14,0.497430,97.46,1
855773,1,31569,1,51573,53351,51527.95,53146.27,45.05,204.73,0.497274,97.46,1
855814,1,31610,1,51579,53369,51528.05,53146.71,50.95,222.29,0.497116,97.46,1
855854,1,31650,1,51587,53420,51528.17,53147.26,58.83,272.74,0.496956,97.47,1
855894,1,31690,1,51610,53494,51528.34,53147.95,81.66,346.05,0.496790,97.47,1
855934,1,31730,1,51637,53569,51528.55,53148.80,108.45,420.20,0.496618,97.47,1
855974,1,31770,1,51673,53639,51528.84,53149.78,144.16,489.22,0.496439,97.48,1
856014,1,31810,1,51694,53709,51529.18,53150.90,164.82,558.10,0.496251,97.48,1
856054,1,31850,1,51721,53773,51529.56,53152.14,191.44,620.86,0.496053,97.48,1
856094,1,31890,1,51749,53831,51530.00,53153.50,219.00,677.50,0.495845,97.49,1
856134,1,31930,1,51772,53887,51530.49,53154.97,241.51,732.03,0.495628,97.49,1
856174,1,31970,1,51796,53926,51531.02,53156.52,264.98,769.48,0.495402,97.49,1
856214,1,32010,1,51782,53822,51531.52,53157.85,250.48,664.15,0.495174,97.50,1
856254,1,32050,1,51697,53621,51531.86,53158.77,165.14,462.23,0.494944,97.50,1
856294,1,32090,1,51623,53490,51532.04,53159.44,90.96,330.56,0.494712,97.51,1
856334,1,32130,1,51590,53456,51532.16,53160.03,57.84,295.97,0.494478,97.51,1
856374,1,32170,1,51585,53469,51532.26,53160.65,52.74,308.35,0.494240,97.51,1
856414,1,32210,1,51595,53492,51532.39,53161.32,62.61,330.68,0.493999,97.52,1
856455,1,32251,1,51605,53537,51532.54,53162.07,72.46,374.93,0.493753,97.52,1
856495,1,32291,1,51624,53569,51532.72,53162.89,91.28,406.11,0.493503,97.53,1
856535,1,32331,1,51625,53580,51532.91,53163.72,92.09,416.28,0.493247,97.53,1
856575,1,32371,1,51623,53594,51533.09,53164.59,89.91,429.41,0.492986,97.53,1
856615,1,32411,1,51633,53627,51533.29,53165.51,99.71,461.49,0.492719,97.54,1
856655,1,32451,1,51658,53687,51533.54,53166.55,124.46,520.45,0.492445,97.54,1
856695,1,32491,1,51679,53759,51533.83,53167.74,145.17,591.26,0.492162,97.55,1
856735,1,32531,1,51709,53830,51534.18,53169.07,174.82,660.93,0.491870,97.55,1
856775,1,32571,1,51738,53886,51534.59,53170.50,203.41,715.50,0.491569,97.56,1
856815,1,32611,1,51759,53940,51535.04,53172.04,223.96,767.96,0.491259,97.56,1
856855,1,32651,1,51778,53989,51535.53,53173.68,242.47,815.32,0.490940,97.57,1
856895,1,32691,1,51796,54038,51536.05,53175.41,259.95,862.59,0.490613,97.57,1
856935,1,32731,1,51811,54084,51536.60,53177.23,274.40,906.77,0.490277,97.58,1
856975,1,32771,1,51828,54069,51537.19,53179.01,290.81,889.99,0.489937,97.58,1
857015,1,32811,1,51781,53908,51537.68,53180.47,243.32,727.53,0.489594,97.59,1
857055,1,32851,1,51688,53734,51537.98,53181.58,150.02,552.42,0.489249,97.59,1
857095,1,32891,1,51632,53663,51538.16,53182.55,93.84,480.45,0.488899,97.60,1
857136,1,32932,1,51622,53652,51538.33,53183.49,83.67,468.51,0.488545,97.60,1
857176,1,32972,1,51628,53670,51538.51,53184.46,89.49,485.54,0.488186,97.61,1
857216,1,33012,1,51630,53712,51538.70,53185.52,91.30,526.48,0.487822,97.62,1
857256,1,33052,1,51651,53745,51538.92,53186.64,112.08,558.36,0.487453,97.62,1
857296,1,33092,1,51664,53763,51539.17,53187.79,124.83,575.21,0.487078,97.63,1
857336,1,33132,1,51664,53771,51539.42,53188.96,124.58,582.04,0.486698,97.63,1
857376,1,33172,1,51661,53790,51539.67,53190.16,121.33,599.84,0.486312,97.64,1
857416,1,33212,1,51683,53830,51539.96,53191.44,143.04,638.56,0.485920,97.65,1
857456,1,33252,1,51707,53884,51540.29,53192.83,166.71,691.17,0.485523,97.65,1
857496,1,33292,1,51728,53943,51540.67,53194.33,187.33,748.67,0.485119,97.66,1
857536,1,33332,1,51747,54000,51541.08,53195.94,205.92,804.06,0.484709,97.67,1
857576,1,33372,1,51769,54052,51541.54,53197.66,227.46,854.34,0.484294,97.67,1
857616,1,33412,1,51791,54094,51542.04,53199.45,248.96,894.55,0.483873,97.68,1
857656,1,33452,1,51802,54138,51542.56,53201.33,259.44,936.67,0.483447,97.69,1
857696,1,33492,1,51815,54183,51543.11,53203.29,271.89,979.71,0.483016,97.69,1
857736,1,33532,1,51836,54218,51543.69,53205.32,292.31,1012.68,0.482580,97.70,1
857777,1,33573,1,51832,54158,51544.27,53207.23,287.73,950.77,0.482143,97.71,1
857817,1,33613,1,51766,53978,51544.71,53208.77,221.29,769.23,0.481705,97.72,1
857857,1,33653,1,51682,53834,51544.99,53210.02,137.01,623.98,0.481264,97.72,1
857897,1,33693,1,51642,53784,51545.19,53211.17,96.81,572.83,0.480819,97.73,1
857937,1,33733,1,51644,53784,51545.39,53212.32,98.61,571.68,0.480370,97.74,1
857977,1,33773,1,51646,53808,51545.59,53213.51,100.41,594.49,0.479918,97.75,1
858017,1,33813,1,51658,53850,51545.82,53214.79,112.18,635.21,0.479462,97.76,1
858057,1,33853,1,51681,53878,51546.09,53216.11,134.91,661.89,0.479001,97.76,1
858097,1,33893,1,51688,53878,51546.37,53217.44,141.62,660.56,0.478538,97.77,1
858137,1,33933,1,51684,53879,51546.65,53218.76,137.35,660.24,0.478071,97.78,1
858177,1,33973,1,51689,53899,51546.94,53220.12,142.06,678.87,0.477601,97.79,1
858217,1,34013,1,51701,53944,51547.25,53221.57,153.75,722.43,0.477127,97.80,1
858257,1,34053,1,51717,53996,51547.59,53223.12,169.41,772.87,0.476648,97.81,1
858297,1,34093,1,51740,54050,51547.97,53224.78,192.03,825.22,0.476166,97.81,1
858337,1,34133,1,51759,54104,51548.39,53226.54,210.61,877.46,0.475681,97.82,1
858377,1,34173,1,51776,54147,51548.85,53228.39,227.15,918.61,0.475191,97.83,1
858418,1,34214,1,51793,54186,51549.34,53230.30,243.66,955.70,0.474699,97.84,1
858458,1,34254,1,51812,54226,51549.87,53232.30,262.13,993.70,0.474205,97.85,1
858498,1,34294,1,51823,54277,51550.41,53234.39,272.59,1042.61,0.473708,97.86,1
858538,1,34334,1,51840,54319,51551.00,53236.56,289.00,1082.44,0.473209,97.87,1
858578,1,34374,1,51840,54239,51551.57,53238.57,288.43,1000.43,0.472710,97.88,1
858618,1,34414,1,51773,54065,51552.02,53240.22,220.98,824.78,0.472211,97.89,1
858658,1,34454,1,51703,53950,51552.32,53241.64,150.68,708.36,0.471711,97.90,1
858698,1,34494,1,51671,53920,51552.56,53243.00,118.44,677.00,0.471207,97.91,1
858738,1,34534,1,51677,53929,51552.81,53244.37,124.19,684.62,0.470701,97.92,1
858778,1,34574,1,51689,53945,51553.09,53245.78,135.91,699.22,0.470192,97.93,1
858818,1,34614,1,51705,53981,51553.39,53247.25,151.61,733.75,0.469681,97.94,1
858858,1,34654,1,51716,54005,51553.72,53248.77,162.28,756.23,0.469169,97.95,1
858898,1,34694,1,51721,54003,51554.05,53250.28,166.95,752.72,0.468654,97.96,1
858938,1,34734,1,51716,53998,51554.38,53251.77,161.62,746.23,0.468138,97.97,1
858978,1,34774,1,51715,54023,51554.70,53253.32,160.30,769.68,0.467620,97.98,1
859018,1,34814,1,51730,54061,51555.05,53254.93,174.95,806.07,0.467099,97.99,1
859058,1,34854,1,51744,54109,51555.43,53256.64,188.57,852.36,0.466577,98.00,1
859099,1,34895,1,51765,54156,51555.86,53258.45,209.14,897.55,0.466053,98.01,1
859139,1,34935,1,51786,54213,51556.32,53260.36,229.68,952.64,0.465527,98.02,1
859179,1,34975,1,51805,54259,51556.82,53262.36,248.18,996.64,0.465000,98.03,1
859219,1,35015,1,51821,54300,51557.35,53264.43,263.65,1035.57,0.464473,98.04,1
859259,1,35055,1,51842,54342,51557.92,53266.59,284.08,1075.41,0.463945,98.05,1
859299,1,35095,1,51857,54387,51558.52,53268.83,298.48,1118.17,0.463418,98.06,1
859339,1,35135,1,51882,54426,51559.16,53271.15,322.84,1154.85,0.462893,98.07,1
859379,1,35175,1,51873,54331,51559.79,53273.27,313.21,1057.73,0.462371,98.08,1
859419,1,35215,1,51804,54148,51560.28,53275.02,243.72,872.98,0.461850,98.10,1
859459,1,35255,1,51739,54039,51560.64,53276.55,178.36,762.45,0.461330,98.11,1
859499,1,35295,1,51718,54021,51560.96,53278.04,157.04,742.96,0.460808,98.12,1
859539,1,35335,1,51717,54030,51561.27,53279.55,155.73,750.45,0.460285,98.13,1
859579,1,35375,1,51727,54055,51561.60,53281.10,165.40,773.90,0.459761,98.14,1
859619,1,35415,1,51738,54085,51561.96,53282.71,176.04,802.29,0.459236,98.15,1
859659,1,35455,1,51745,54099,51562.32,53284.34,182.68,814.66,0.458711,98.16,1
859700,1,35496,1,51743,54093,51562.69,53285.96,180.31,807.04,0.458185,98.17,1
859740,1,35536,1,51739,54091,51563.04,53287.57,175.96,803.43,0.457658,98.19,1
859780,1,35576,1,51745,54115,51563.41,53289.23,181.59,825.77,0.457130,98.20,1
859820,1,35616,1,51755,54163,51563.79,53290.98,191.21,872.02,0.456601,98.21,1
859860,1,35656,1,51778,54208,51564.22,53292.81,213.78,915.19,0.456072,98.22,1
859900,1,35696,1,51803,54259,51564.70,53294.75,238.30,964.25,0.455543,98.23,1
859940,1,35736,1,51823,54318,51565.22,53296.79,257.78,1021.21,0.455014,98.24,1
859980,1,35776,1,51845,54364,51565.79,53298.93,279.21,1065.07,0.454486,98.26,1
860020,1,35816,1,51870,54397,51566.39,53301.13,303.61,1095.87,0.453960,98.27,1
860060,1,35856,1,51884,54437,51567.03,53303.40,316.97,1133.60,0.453437,98.28,1
860100,1,35896,1,51902,54478,51567.70,53305.75,334.30,1172.25,0.452916,98.29,1
860140,1,35936,1,51918,54517,51568.41,53308.18,349.59,1208.82,0.452399,98.30,1
860180,1,35976,1,51927,54463,51569.12,53310.49,357.87,1152.51,0.451887,98.32,1
860220,1,36016,1,51863,54287,51569.71,53312.45,293.29,974.55,0.451379,98.33,1
860260,1,36056,1,51792,54153,51570.16,53314.13,221.84,838.87,0.450871,98.34,1
860300,1,36096,1,51756,54111,51570.53,53315.72,185.47,795.28,0.450364,98.35,1
860340,1,36136,1,51753,54117,51570.90,53317.33,182.10,799.67,0.449857,98.36,1
860381,1,36177,1,51756,54133,51571.27,53318.96,184.73,814.04,0.449349,98.38,1
860421,1,36217,1,51770,54170,51571.67,53320.66,198.33,849.34,0.448842,98.39,1
860461,1,36257,1,51777,54189,51572.08,53322.40,204.92,866.60,0.448334,98.40,1
860501,1,36297,1,51781,54188,51572.50,53324.14,208.50,863.86,0.447827,98.41,1
860541,1,36337,1,51775,54181,51572.90,53325.85,202.10,855.15,0.447320,98.42,1
860581,1,36377,1,51782,54203,51573.32,53327.61,208.68,875.39,0.446813,98.44,1
860621,1,36417,1,51795,54240,51573.77,53329.43,221.23,910.57,0.446306,98.45,1
860661,1,36457,1,51814,54282,51574.25,53331.34,239.75,950.66,0.445800,98.46,1
860701,1,36497,1,51840,54327,51574.78,53333.33,265.22,993.67,0.445296,98.47,1
860741,1,36537,1,51862,54374,51575.35,53335.41,286.65,1038.59,0.444793,98.49,1
860781,1,36577,1,51880,54417,51575.96,53337.57,304.04,1079.43,0.444293,98.50,1
860821,1,36617,1,51892,54452,51576.59,53339.80,315.41,1112.20,0.443795,98.51,1
860861,1,36657,1,51909,54483,51577.26,53342.09,331.74,1140.91,0.443301,98.52,1
860901,1,36697,1,51921,54516,51577.95,53344.44,343.05,1171.56,0.442810,98.53,1
860941,1,36737,1,51934,54551,51578.66,53346.86,355.34,1204.14,0.442323,98.55,1
860981,1,36777,1,51934,54491,51579.37,53349.14,354.62,1141.86,0.441840,98.56,1
861022,1,36818,1,51872,54307,51579.96,53351.06,292.04,955.94,0.441360,98.57,1
861062,1,36858,1,51795,54164,51580.39,53352.69,214.61,811.31,0.440881,98.58,1
861102,1,36898,1,51760,54125,51580.75,53354.24,179.25,770.76,0.440403,98.60,1
861142,1,36938,1,51758,54134,51581.11,53355.80,176.89,778.20,0.439925,98.61,1
861182,1,36978,1,51768,54150,51581.48,53357.39,186.52,792.61,0.439447,98.62,1
861222,1,37018,1,51783,54190,51581.89,53359.06,201.11,830.94,0.438969,98.63,1
861262,1,37058,1,51795,54213,51582.31,53360.77,212.69,852.23,0.438493,98.64,1
861302,1,37098,1,51803,54205,51582.75,53362.46,220.25,842.54,0.438017,98.66,1
861342,1,37138,1,51798,54187,51583.19,53364.11,214.81,822.89,0.437542,98.67,1
861382,1,37178,1,51806,54202,51583.63,53365.79,222.37,836.21,0.437069,98.68,1
861422,1,37218,1,51814,54234,51584.09,53367.53,229.91,866.47,0.436597,98.69,1
861462,1,37258,1,51827,54271,51584.58,53369.34,242.42,901.66,0.436126,98.70,1
861502,1,37298,1,51849,54318,51585.11,53371.23,263.89,946.77,0.435658,98.72,1
861542,1,37338,1,51870,54359,51585.68,53373.21,284.32,985.79,0.435191,98.73,1
861582,1,37378,1,51879,54400,51586.27,53375.27,292.73,1024.73,0.434727,98.74,1
861622,1,37418,1,51896,54433,51586.89,53377.38,309.11,1055.62,0.434265,98.75,1
861662,1,37458,1,51909,54461,51587.54,53379.55,321.46,1081.45,0.433807,98.77,1
861703,1,37499,1,51926,54493,51588.22,53381.78,337.78,1111.22,0.433352,98.78,1
861743,1,37539,1,51934,54526,51588.91,53384.07,345.09,1141.93,0.432900,98.79,1
861783,1,37579,1,51931,54462,51589.59,53386.22,341.41,1075.78,0.432452,98.80,1
861823,1,37619,1,51870,54278,51590.16,53388.01,279.84,889.99,0.432008,98.81,1
861863,1,37659,1,51802,54135,51590.58,53389.50,211.42,745.50,0.431565,98.83,1
861903,1,37699,1,51767,54098,51590.94,53390.92,176.06,707.08,0.431123,98.84,1
861943,1,37739,1,51765,54102,51591.29,53392.34,173.71,709.66,0.430681,98.85,1
861983,1,37779,1,51775,54119,51591.65,53393.80,183.35,725.20,0.430241,98.86,1
862023,1,37819,1,51795,54147,51592.06,53395.30,202.94,751.70,0.429801,98.87,1
862063,1,37859,1,51806,54157,51592.49,53396.83,213.51,760.17,0.429363,98.88,1
862103,1,37899,1,51803,54144,51592.91,53398.32,210.09,745.68,0.428927,98.90,1
862143,1,37939,1,51792,54133,51593.31,53399.80,198.69,733.20,0.428492,98.91,1
862183,1,37979,1,51797,54131,51593.72,53401.26,203.28,729.74,0.428058,98.92,1
862223,1,38019,1,51805,54161,51594.14,53402.78,210.86,758.22,0.427625,98.93,1
862263,1,38059,1,51819,54203,51594.59,53404.38,224.41,798.62,0.427195,98.94,1
862303,1,38099,1,51834,54247,51595.07,53406.07,238.93,840.93,0.426766,98.95,1
862344,1,38140,1,51854,54286,51595.59,53407.83,258.41,878.17,0.426338,98.97,1
862384,1,38180,1,51873,54327,51596.15,53409.67,276.85,917.33,0.425914,98.98,1
862424,1,38220,1,51885,54363,51596.73,53411.58,288.27,951.42,0.425492,98.99,1
862464,1,38260,1,51899,54400,51597.33,53413.55,301.67,986.45,0.425073,99.00,1
862504,1,38300,1,51917,54435,51597.97,53415.60,319.03,1019.40,0.424657,99.01,1
862544,1,38340,1,51930,54466,51598.64,53417.70,331.36,1048.30,0.424244,99.02,1
862584,1,38380,1,51933,54409,51599.31,53419.68,333.69,989.32,0.423836,99.04,1
862624,1,38420,1,51873,54213,51599.86,53421.27,273.14,791.73,0.423432,99.05,1
862664,1,38460,1,51797,54052,51600.25,53422.54,196.75,629.46,0.423029,99.06,1
862704,1,38500,1,51758,53989,51600.57,53423.67,157.43,565.33,0.422628,99.07,1
862744,1,38540,1,51753,53990,51600.87,53424.80,152.13,565.20,0.422228,99.08,1
862784,1,38580,1,51752,54003,51601.18,53425.96,150.82,577.04,0.421828,99.09,1
862824,1,38620,1,51767,54027,51601.51,53427.16,165.49,599.84,0.421430,99.10,1
862864,1,38660,1,51774,54035,51601.86,53428.38,172.14,606.62,0.421033,99.11,1
862904,1,38700,1,51770,54019,51602.19,53429.56,167.81,589.44,0.420637,99.13,1
862944,1,38740,1,51765,54003,51602.52,53430.71,162.48,572.29,0.420243,99.14,1
862985,1,38781,1,51759,54001,51602.83,53431.85,156.17,569.15,0.419849,99.15,1
863025,1,38821,1,51763,54033,51603.15,53433.05,159.85,599.95,0.419457,99.16,1
863065,1,38861,1,51778,54071,51603.50,53434.33,174.50,636.67,0.419066,99.17,1
863105,1,38901,1,51797,54124,51603.89,53435.71,193.11,688.29,0.418676,99.18,1
863145,1,38941,1,51823,54169,51604.33,53437.18,218.67,731.82,0.418288,99.19,1
863185,1,38981,1,51837,54212,51604.80,53438.73,232.20,773.27,0.417901,99.20,1
863225,1,39021,1,51854,54256,51605.30,53440.37,248.70,815.63,0.417517,99.21,1
863265,1,39061,1,51873,54290,51605.83,53442.07,267.17,847.93,0.417135,99.22,1
863305,1,39101,1,51891,54325,51606.40,53443.83,284.60,881.17,0.416756,99.23,1
863345,1,39141,1,51909,54357,51607.01,53445.66,301.99,911.34,0.416381,99.24,1
863385,1,39181,1,51911,54289,51607.62,53447.35,303.38,841.65,0.416010,99.26,1
863425,1,39221,1,51842,54080,51608.09,53448.61,233.91,631.39,0.415642,99.27,1
863465,1,39261,1,51756,53895,51608.38,53449.51,147.62,445.49,0.415275,99.28,1
863505,1,39301,1,51710,53832,51608.59,53450.27,101.41,381.73,0.414910,99.29,1
863545,1,39341,1,51700,53828,51608.77,53451.03,91.23,376.97,0.414545,99.30,1
863585,1,39381,1,51702,53843,51608.96,53451.82,93.04,391.18,0.414182,99.31,1
863626,1,39422,1,51718,53873,51609.18,53452.66,108.82,420.34,0.413819,99.32,1
863666,1,39462,1,51725,53888,51609.41,53453.53,115.59,434.47,0.413457,99.33,1
863706,1,39502,1,51728,53876,51609.65,53454.38,118.35,421.62,0.413096,99.34,1
863746,1,39542,1,51713,53862,51609.86,53455.20,103.14,406.80,0.412736,99.35,1
863786,1,39582,1,51714,53873,51610.07,53456.03,103.93,416.97,0.412377,99.36,1
863826,1,39622,1,51729,53907,51610.30,53456.93,118.70,450.07,0.412019,99.37,1
863866,1,39662,1,51747,53961,51610.58,53457.94,136.42,503.06,0.411661,99.38,1
863906,1,39702,1,51773,54010,51610.91,53459.05,162.09,550.95,0.411305,99.39,1
863946,1,39742,1,51794,54059,51611.27,53460.25,182.73,598.75,0.410951,99.40,1
863986,1,39782,1,51823,54107,51611.70,53461.54,211.30,645.46,0.410598,99.41,1
864026,1,39822,1,51837,54141,51612.15,53462.90,224.85,678.10,0.410248,99.42,1
864066,1,39862,1,51845,54173,51612.62,53464.32,232.38,708.68,0.409901,99.43,1
864106,1,39902,1,51862,54205,51613.12,53465.81,248.88,739.19,0.409556,99.44,1
864146,1,39942,1,51875,54237,51613.64,53467.35,261.36,769.65,0.409214,99.45,1
864186,1,39982,1,51876,54183,51614.17,53468.79,261.83,714.21,0.408876,99.46,1
864226,1,40022,1,51813,53971,51614.57,53469.79,198.43,501.21,0.408541,99.47,1
864267,1,40063,1,51718,53775,51614.78,53470.40,103.22,304.60,0.408207,99.48,1
864307,1,40103,1,51665,53698,51614.88,53470.86,50.12,227.14,0.407874,99.49,1
864347,1,40143,1,51653,53696,51614.96,53471.31,38.04,224.69,0.407541,99.50,1
864387,1,40183,1,51660,53714,51615.05,53471.80,44.95,242.20,0.407209,99.51,1
864427,1,40223,1,51676,53747,51615.17,53472.35,60.83,274.65,0.406879,99.52,1
864467,1,40263,1,51693,53776,51615.33,53472.96,77.67,303.04,0.406548,99.53,1
864507,1,40303,1,51691,53773,51615.48,53473.56,75.52,299.44,0.406219,99.54,1
864547,1,40343,1,51693,53765,51615.64,53474.15,77.36,290.85,0.405891,99.55,1
864587,1,40383,1,51697,53775,51615.80,53474.75,81.20,300.25,0.405563,99.56,1
864627,1,40423,1,51713,53800,51616.00,53475.40,97.00,324.60,0.405237,99.57,1
864667,1,40463,1,51728,53856,51616.22,53476.16,111.78,379.84,0.404912,99.57,1
864707,1,40503,1,51749,53908,51616.49,53477.03,132.51,430.97,0.404587,99.58,1
864747,1,40543,1,51774,53956,51616.80,53477.99,157.20,478.01,0.404265,99.59,1
864787,1,40583,1,51792,54004,51617.16,53479.04,174.84,524.96,0.403944,99.60,1
864827,1,40623,1,51806,54041,51617.54,53480.17,188.46,560.83,0.403626,99.61,1
864867,1,40663,1,51820,54076,51617.94,53481.36,202.06,594.64,0.403309,99.62,1
864908,1,40704,1,51834,54107,51618.37,53482.61,215.62,624.39,0.402995,99.63,1
864948,1,40744,1,51848,54148,51618.84,53483.95,229.16,664.05,0.402684,99.64,1
864988,1,40784,1,51851,54110,51619.30,53485.20,231.70,624.80,0.402376,99.65,1
865028,1,40824,1,51796,53902,51619.66,53486.04,176.34,415.96,0.402071,99.66,1
865068,1,40864,1,51703,53689,51619.82,53486.44,83.18,202.56,0.401767,99.67,1
865108,1,40904,1,51644,53611,51619.87,53486.69,24.12,124.31,0.401464,99.68,1
865148,1,40944,1,51630,53612,51619.90,53486.95,10.10,125.05,0.401161,99.68,1
865188,1,40984,1,51640,53631,51619.94,53487.23,20.06,143.77,0.400860,99.69,1
865228,1,41024,1,51657,53667,51620.02,53487.59,36.98,179.41,0.400559,99.70,1
865268,1,41064,1,51674,53689,51620.12,53488.00,53.88,201.00,0.400259,99.71,1
865308,1,41104,1,51678,53685,51620.24,53488.39,57.76,196.61,0.399960,99.72,1
865348,1,41144,1,51673,53671,51620.35,53488.76,52.65,182.24,0.399662,99.73,1
865388,1,41184,1,51673,53675,51620.45,53489.13,52.55,185.87,0.399364,99.74,1
865428,1,41224,1,51679,53714,51620.57,53489.58,58.43,224.42,0.399068,99.74,1
865468,1,41264,1,51701,53764,51620.73,53490.13,80.27,273.87,0.398772,99.75,1
865508,1,41304,1,51719,53815,51620.93,53490.79,98.07,324.21,0.398478,99.76,1
865549,1,41345,1,51739,53863,51621.17,53491.53,117.83,371.47,0.398184,99.77,1
865589,1,41385,1,51760,53911,51621.45,53492.37,138.55,418.63,0.397892,99.77,1
865629,1,41425,1,51774,53961,51621.75,53493.31,152.25,467.69,0.397602,99.78,1
865669,1,41465,1,51788,53996,51622.09,53494.32,165.91,501.68,0.397313,99.79,1
865709,1,41505,1,51807,54038,51622.46,53495.41,184.54,542.59,0.397026,99.79,1
865749,1,41545,1,51825,54083,51622.86,53496.58,202.14,586.42,0.396742,99.80,1
865789,1,41585,1,51841,54084,51623.30,53497.76,217.70,586.24,0.396460,99.81,1
865829,1,41625,1,51804,53906,51623.66,53498.57,180.34,407.43,0.396182,99.81,1
865869,1,41665,1,51712,53676,51623.84,53498.93,88.16,177.07,0.395905,99.82,1
865909,1,41705,1,51642,53558,51623.88,53499.05,18.12,58.95,0.395629,99.82,1
865949,1,41745,1,51623,53541,51623.88,53499.14,-0.88,41.86,0.395354,99.83,1
865989,1,41785,1,51623,53552,51623.88,53499.24,-0.88,52.76,0.395080,99.83,1
866029,1,41825,1,51632,53583,51623.90,53499.41,8.10,83.59,0.394806,99.84,1
866069,1,41865,1,51646,53618,51623.95,53499.65,22.05,118.35,0.394533,99.84,1
866109,1,41905,1,51648,53620,51624.00,53499.89,24.00,120.11,0.394261,99.85,1
866149,1,41945,1,51646,53601,51624.04,53500.09,21.96,100.91,0.393990,99.85,1
866190,1,41986,1,51643,53610,51624.08,53500.32,18.92,109.68,0.393719,99.86,1
866230,1,42026,1,51646,53640,51624.13,53500.60,21.87,139.40,0.393449,99.86,1
866270,1,42066,1,51672,53696,51624.23,53500.99,47.77,195.01,0.393180,99.86,1
866310,1,42106,1,51693,53754,51624.37,53501.50,68.63,252.50,0.392911,99.87,1
866350,1,42146,1,51719,53811,51624.56,53502.12,94.44,308.88,0.392644,99.87,1
866390,1,42186,1,51739,53865,51624.79,53502.84,114.21,362.16,0.392377,99.88,1
866430,1,42226,1,51759,53919,51625.06,53503.68,133.94,415.32,0.392112,99.88,1
866470,1,42266,1,51782,53956,51625.37,53504.58,156.62,451.42,0.391848,99.88,1
866510,1,42306,1,51799,53990,51625.72,53505.55,173.28,484.45,0.391587,99.89,1
866550,1,42346,1,51816,54028,51626.11,53506.60,189.89,521.40,0.391328,99.89,1
866590,1,42386,1,51831,54066,51626.52,53507.72,204.48,558.28,0.391072,99.89,1
866630,1,42426,1,51829,53982,51626.92,53508.67,202.08,473.33,0.390820,99.90,1
866670,1,42466,1,51751,53742,51627.17,53509.14,123.83,232.86,0.390570,99.90,1
866710,1,42506,1,51654,53548,51627.23,53509.22,26.77,38.78,0.390322,99.90,1
866750,1,42546,1,51605,53488,51627.18,53509.18,-22.18,-21.18,0.390074,99.91,1
866790,1,42586,1,51595,53487,51627.12,53509.13,-32.12,-22.13,0.389826,99.91,1
866830,1,42626,1,51599,53503,51627.07,53509.12,-28.07,-6.12,0.389580,99.91,1
866871,1,42667,1,51611,53534,51627.04,53509.17,-16.04,24.83,0.389334,99.91,1
866911,1,42707,1,51619,53561,51627.02,53509.28,-8.02,51.72,0.389090,99.92,1
866951,1,42747,1,51619,53552,51627.00,53509.36,-8.00,42.64,0.388845,99.92,1
866991,1,42787,1,51620,53541,51626.99,53509.43,-6.99,31.57,0.388602,99.92,1
867031,1,42827,1,51617,53567,51626.97,53509.55,-9.97,57.45,0.388359,99.92,1
867071,1,42867,1,51634,53616,51626.99,53509.76,7.01,106.24,0.388117,99.93,1
867111,1,42907,1,51659,53672,51627.05,53510.09,31.95,161.91,0.387876,99.93,1
867151,1,42947,1,51688,53734,51627.18,53510.54,60.82,223.46,0.387635,99.93,1
867191,1,42987,1,51713,53783,51627.35,53511.08,85.65,271.92,0.387394,99.93,1
867231,1,43027,1,51736,53830,51627.57,53511.72,108.43,318.28,0.387156,99.93,1
867271,1,43067,1,51748,53867,51627.81,53512.43,120.19,354.57,0.386918,99.94,1
867311,1,43107,1,51763,53897,51628.09,53513.20,134.91,383.80,0.386682,99.94,1
867351,1,43147,1,51775,53938,51628.38,53514.05,146.62,423.95,0.386447,99.94,1
867391,1,43187,1,51788,53976,51628.70,53514.98,159.30,461.02,0.386215,99.94,1
867431,1,43227,1,51801,53996,51629.05,53515.95,171.95,480.05,0.385984,99.94,1
867472,1,43268,1,51780,53838,51629.36,53516.59,150.64,321.41,0.385757,99.95,1
867512,1,43308,1,51682,53583,51629.46,53516.72,52.54,66.28,0.385531,99.95,1
867552,1,43348,1,51587,53433,51629.38,53516.55,-42.38,-83.55,0.385305,99.95,1
867592,1,43388,1,51552,53392,51629.23,53516.31,-77.23,-124.31,0.385081,99.95,1
867632,1,43428,1,51546,53398,51629.06,53516.07,-83.06,-118.07,0.384859,99.95,1
867672,1,43468,1,51558,53431,51628.92,53515.91,-70.92,-84.91,0.384638,99.95,1
867712,1,43508,1,51571,53474,51628.81,53515.82,-57.81,-41.82,0.384419,99.95,1
867752,1,43548,1,51586,53490,51628.72,53515.77,-42.72,-25.77,0.384200,99.96,1
867792,1,43588,1,51590,53475,51628.65,53515.69,-38.65,-40.69,0.383982,99.96,1
867832,1,43628,1,51591,53476,51628.57,53515.61,-37.57,-39.61,0.383765,99.96,1
867872,1,43668,1,51593,53506,51628.50,53515.59,-35.50,-9.59,0.383549,99.96,1
867912,1,43708,1,51609,53551,51628.46,53515.66,-19.46,35.34,0.383334,99.96,1
867952,1,43748,1,51630,53608,51628.47,53515.85,1.53,92.15,0.383119,99.96,1
867992,1,43788,1,51656,53658,51628.52,53516.14,27.48,141.86,0.382905,99.96,1
868032,1,43828,1,51677,53704,51628.62,53516.52,48.38,187.48,0.382691,99.96,1
868072,1,43868,1,51690,53747,51628.75,53516.98,61.25,230.02,0.382477,99.97,1
868112,1,43908,1,51703,53780,51628.89,53517.50,74.11,262.50,0.382264,99.97,1
868153,1,43949,1,51719,53820,51629.07,53518.11,89.93,301.89,0.382052,99.97,1
868193,1,43989,1,51737,53853,51629.29,53518.78,107.71,334.22,0.381841,99.97,1
868233,1,44029,1,51745,53904,51629.53,53519.55,115.47,384.45,0.381630,99.97,1
868273,1,44069,1,51764,53916,51629.80,53520.35,134.20,395.65,0.381421,99.97,1
868313,1,44109,1,51741,53760,51630.02,53520.83,110.98,239.17,0.381214,99.97,1
868353,1,44149,1,51643,53505,51630.05,53520.80,12.95,-15.80,0.381007,99.97,1
868393,1,44189,1,51547,53353,51629.88,53520.46,-82.88,-167.46,0.380802,99.97,1
868433,1,44229,1,51515,53321,51629.66,53520.06,-114.66,-199.06,0.380599,99.97,1
868473,1,44269,1,51524,53332,51629.45,53519.69,-105.45,-187.69,0.380399,99.97,1
868513,1,44309,1,51532,53354,51629.25,53519.36,-97.25,-165.36,0.380201,99.98,1
868553,1,44349,1,51543,53398,51629.08,53519.12,-86.08,-121.12,0.380004,99.98,1
868593,1,44389,1,51558,53404,51628.94,53518.89,-70.94,-114.89,0.379809,99.98,1
868633,1,44429,1,51556,53393,51628.79,53518.64,-72.79,-125.64,0.379616,99.98,1
868673,1,44469,1,51551,53392,51628.64,53518.39,-77.64,-126.39,0.379424,99.98,1
868713,1,44509,1,51554,53425,51628.49,53518.20,-74.49,-93.20,0.379233,99.98,1
868753,1,44549,1,51573,53475,51628.38,53518.12,-55.38,-43.12,0.379044,99.98,1
868794,1,44590,1,51595,53531,51628.32,53518.14,-33.32,12.86,0.378856,99.98,1
868834,1,44630,1,51618,53589,51628.30,53518.29,-10.30,70.71,0.378668,99.98,1
868874,1,44670,1,51638,53642,51628.32,53518.54,9.68,123.46,0.378480,99.98,1
868914,1,44710,1,51659,53693,51628.38,53518.89,30.62,174.11,0.378292,99.98,1
868954,1,44750,1,51679,53731,51628.48,53519.32,50.52,211.68,0.378105,99.98,1
868994,1,44790,1,51691,53771,51628.61,53519.82,62.39,251.18,0.377918,99.98,1
869034,1,44830,1,51709,53817,51628.77,53520.42,80.23,296.58,0.377731,99.98,1
869074,1,44870,1,51731,53862,51628.98,53521.10,102.02,340.90,0.377544,99.98,1
869114,1,44910,1,51755,53893,51629.23,53521.85,125.77,371.15,0.377359,99.98,1
869154,1,44950,1,51745,53765,51629.46,53522.34,115.54,242.66,0.377176,99.99,1
869194,1,44990,1,51648,53500,51629.50,53522.29,18.50,-22.29,0.376994,99.99,1
869234,1,45030,1,51540,53321,51629.33,53521.89,-89.33,-200.89,0.376813,99.99,1
869274,1,45070,1,51498,53263,51629.07,53521.37,-131.07,-258.37,0.376636,99.99,1
869314,1,45110,1,51491,53267,51628.79,53520.87,-137.79,-253.87,0.376462,99.99,1
869354,1,45150,1,51499,53295,51628.54,53520.42,-129.54,-225.42,0.376291,99.99,1
869394,1,45190,1,51513,53332,51628.30,53520.04,-115.30,-188.04,0.376124,99.99,1
869435,1,45231,1,51527,53352,51628.10,53519.71,-101.10,-167.71,0.375959,99.99,1
869475,1,45271,1,51524,53343,51627.89,53519.36,-103.89,-176.36,0.375796,99.99,1
869515,1,45311,1,51523,53346,51627.69,53519.01,-104.69,-173.01,0.375636,99.99,1
869555,1,45351,1,51524,53373,51627.48,53518.72,-103.48,-145.72,0.375478,99.99,1
869595,1,45391,1,51547,53433,51627.32,53518.55,-80.32,-85.55,0.375323,99.99,1
869635,1,45431,1,51573,53496,51627.21,53518.51,-54.21,-22.51,0.375168,99.99,1
869675,1,45471,1,51601,53562,51627.16,53518.60,-26.16,43.40,0.375014,99.99,1
869715,1,45511,1,51628,53617,51627.17,53518.80,0.83,98.20,0.374861,99.99,1
869755,1,45551,1,51652,53670,51627.22,53519.10,24.78,150.90,0.374707,99.99,1
869795,1,45591,1,51675,53705,51627.32,53519.48,47.68,185.52,0.374554,99.99,1
869835,1,45631,1,51686,53741,51627.43,53519.92,58.57,221.08,0.374400,99.99,1
869875,1,45671,1,51700,53776,51627.58,53520.43,72.42,255.57,0.374247,99.99,1
869915,1,45711,1,51718,53817,51627.76,53521.03,90.24,295.97,0.374095,99.99,1
869955,1,45751,1,51734,53864,51627.98,53521.71,106.02,342.29,0.373942,99.99,1
869995,1,45791,1,51749,53859,51628.22,53522.39,120.78,336.61,0.373791,99.99,1
870035,1,45831,1,51704,53653,51628.37,53522.65,75.63,130.35,0.373642,99.99,1
870076,1,45872,1,51592,53388,51628.30,53522.38,-36.30,-134.38,0.373493,99.99,1
870116,1,45912,1,51496,53251,51628.04,53521.84,-132.04,-270.84,0.373347,99.99,1
870156,1,45952,1,51466,53239,51627.71,53521.28,-161.71,-282.28,0.373207,99.99,1
870196,1,45992,1,51470,53249,51627.40,53520.73,-157.40,-271.73,0.373072,99.99,1
870236,1,46032,1,51481,53284,51627.11,53520.26,-146.11,-236.26,0.372942,99.99,1
870276,1,46072,1,51503,53328,51626.86,53519.88,-123.86,-191.88,0.372815,99.99,1
870316,1,46112,1,51511,53343,51626.63,53519.53,-115.63,-176.53,0.372692,99.99,1
870356,1,46152,1,51514,53336,51626.41,53519.16,-112.41,-183.16,0.372572,99.99,1
870396,1,46192,1,51513,53341,51626.18,53518.80,-113.18,-177.80,0.372455,99.99,1
870436,1,46232,1,51526,53376,51625.98,53518.52,-99.98,-142.52,0.372340,99.99,1
870476,1,46272,1,51543,53430,51625.82,53518.34,-82.82,-88.34,0.372228,99.99,1
870516,1,46312,1,51568,53491,51625.71,53518.29,-57.71,-27.29,0.372117,99.99,1
870556,1,46352,1,51594,53547,51625.64,53518.35,-31.64,28.65,0.372006,99.99,1
870596,1,46392,1,51617,53600,51625.63,53518.51,-8.63,81.49,0.371895,100.00,1
870636,1,46432,1,51635,53648,51625.65,53518.77,9.35,129.23,0.371785,100.00,1
870676,1,46472,1,51650,53685,51625.70,53519.11,24.30,165.89,0.371674,100.00,1
870717,1,46513,1,51670,53716,51625.79,53519.50,44.21,196.50,0.371563,100.00,1
870757,1,46553,1,51677,53753,51625.89,53519.97,51.11,233.03,0.371451,100.00,1
870797,1,46593,1,51692,53804,51626.03,53520.54,65.97,283.46,0.371338,100.00,1
870837,1,46633,1,51713,53854,51626.20,53521.21,86.80,332.79,0.371224,100.00,1
870877,1,46673,1,51723,53815,51626.40,53521.80,96.60,293.20,0.371111,100.00,1
870917,1,46713,1,51663,53569,51626.47,53521.89,36.53,47.11,0.370999,100.00,1
870957,1,46753,1,51540,53328,51626.30,53521.51,-86.30,-193.51,0.370888,100.00,1
870997,1,46793,1,51468,53224,51625.98,53520.91,-157.98,-296.91,0.370782,100.00,1
871037,1,46833,1,51455,53224,51625.64,53520.32,-170.64,-296.32,0.370683,100.00,1
871077,1,46873,1,51462,53244,51625.32,53519.77,-163.32,-275.77,0.370590,100.00,1
871117,1,46913,1,51474,53291,51625.02,53519.31,-151.02,-228.31,0.370503,100.00,1
871157,1,46953,1,51491,53332,51624.75,53518.94,-133.75,-186.94,0.370421,100.00,1
871197,1,46993,1,51499,53330,51624.50,53518.56,-125.50,-188.56,0.370343,100.00,1
871237,1,47033,1,51494,53319,51624.25,53518.16,-130.25,-199.16,0.370268,100.00,1
871277,1,47073,1,51495,53331,51623.99,53517.79,-128.99,-186.79,0.370199,100.00,1
871317,1,47113,1,51501,53374,51623.74,53517.51,-122.74,-143.51,0.370133,100.00,1
871357,1,47153,1,51525,53434,51623.55,53517.34,-98.55,-83.34,0.370071,100.00,1
871398,1,47194,1,51548,53495,51623.40,53517.30,-75.40,-22.30,0.370010,100.00,1
871438,1,47234,1,51572,53562,51623.30,53517.39,-51.30,44.61,0.369951,100.00,1
871478,1,47274,1,51597,53621,51623.25,53517.60,-26.25,103.40,0.369892,100.00,1
871518,1,47314,1,51613,53669,51623.23,53517.90,-10.23,151.10,0.369832,100.00,1
871558,1,47354,1,51638,53713,51623.26,53518.29,14.74,194.71,0.369770,100.00,1
871598,1,47394,1,51657,53758,51623.33,53518.77,33.67,239.23,0.369708,100.00,1
871638,1,47434,1,51675,53802,51623.43,53519.34,51.57,282.66,0.369643,100.00,1
871678,1,47474,1,51696,53852,51623.58,53520.01,72.42,331.99,0.369576,100.00,1
871718,1,47514,1,51722,53883,51623.78,53520.73,98.22,362.27,0.369507,100.00,1
871758,1,47554,1,51711,53751,51623.95,53521.20,87.05,229.80,0.369439,100.00,1
871798,1,47594,1,51606,53477,51623.92,53521.11,-17.92,-44.11,0.369372,100.00,1
871838,1,47634,1,51492,53288,51623.66,53520.64,-131.66,-232.64,0.369308,100.00,1
871878,1,47674,1,51447,53237,51623.30,53520.08,-176.30,-283.08,0.369253,100.00,1
871918,1,47714,1,51439,53249,51622.94,53519.54,-183.94,-270.54,0.369206,100.00,1
871958,1,47754,1,51442,53276,51622.58,53519.05,-180.58,-243.05,0.369169,100.00,1
871998,1,47794,1,51462,53319,51622.26,53518.66,-160.26,-199.66,0.369139,100.00,1
872039,1,47835,1,51472,53339,51621.96,53518.30,-149.96,-179.30,0.369116,100.00,1
872079,1,47875,1,51476,53333,51621.67,53517.93,-145.67,-184.93,0.369099,100.00,1
872119,1,47915,1,51464,53333,51621.36,53517.56,-157.36,-184.56,0.369089,100.00,1
872159,1,47955,1,51469,53363,51621.05,53517.25,-152.05,-154.25,0.369086,100.00,1
872199,1,47995,1,51487,53414,51620.79,53517.04,-133.79,-103.04,0.369089,100.00,1
872239,1,48035,1,51511,53482,51620.57,53516.97,-109.57,-34.97,0.369096,100.00,1
872279,1,48075,1,51537,53551,51620.40,53517.04,-83.40,33.96,0.369106,100.00,1
872319,1,48115,1,51572,53612,51620.31,53517.23,-48.31,94.77,0.369116,100.00,1
872359,1,48155,1,51599,53662,51620.27,53517.52,-21.27,144.48,0.369125,100.00,1
872399,1,48195,1,51623,53703,51620.27,53517.89,2.73,185.11,0.369132,100.00,1
872439,1,48235,1,51637,53742,51620.31,53518.34,16.69,223.66,0.369138,100.00,1
872479,1,48275,1,51654,53777,51620.38,53518.86,33.62,258.14,0.369140,100.00,1
872519,1,48315,1,51668,53822,51620.48,53519.47,47.52,302.53,0.369139,100.00,1
872559,1,48355,1,51685,53869,51620.61,53520.17,64.39,348.83,0.369134,100.00,1
872599,1,48395,1,51693,53815,51620.75,53520.76,72.25,294.24,0.369127,100.00,1
872639,1,48435,1,51618,53565,51620.75,53520.85,-2.75,44.15,0.369119,100.00,1
872680,1,48476,1,51498,53324,51620.50,53520.46,-122.50,-196.46,0.369116,100.00,1
872720,1,48516,1,51424,53238,51620.11,53519.90,-196.11,-281.90,0.369123,100.00,1
872760,1,48556,1,51406,53243,51619.68,53519.35,-213.68,-276.35,0.369144,100.00,1
872800,1,48596,1,51414,53271,51619.27,53518.85,-205.27,-247.85,0.369178,100.00,1
872840,1,48636,1,51428,53309,51618.89,53518.43,-190.89,-209.43,0.369223,100.00,1
872880,1,48676,1,51448,53348,51618.55,53518.09,-170.55,-170.09,0.369277,100.00,1
872920,1,48716,1,51456,53353,51618.23,53517.77,-162.23,-164.77,0.369340,100.00,1
872960,1,48756,1,51453,53348,51617.90,53517.43,-164.90,-169.43,0.369411,100.00,1
873000,1,48796,1,51454,53359,51617.57,53517.11,-163.57,-158.11,0.369490,100.00,1
873040,1,48836,1,51474,53403,51617.29,53516.88,-143.29,-113.88,0.369576,100.00,1
873080,1,48876,1,51497,53466,51617.05,53516.78,-120.05,-50.78,0.369667,100.00,1
873120,1,48916,1,51519,53530,51616.85,53516.81,-97.85,13.19,0.369761,100.00,1
873160,1,48956,1,51546,53583,51616.71,53516.94,-70.71,66.06,0.369857,100.00,1
873200,1,48996,1,51565,53631,51616.61,53517.17,-51.61,113.83,0.369953,100.00,1
873240,1,49036,1,51587,53679,51616.55,53517.50,-29.55,161.50,0.370047,100.00,1
873280,1,49076,1,51605,53710,51616.53,53517.88,-11.53,192.12,0.370139,100.00,1
873320,1,49116,1,51618,53750,51616.53,53518.35,1.47,231.65,0.370228,100.00,1
873361,1,49157,1,51630,53789,51616.56,53518.89,13.44,270.11,0.370312,100.00,1
873401,1,49197,1,51649,53841,51616.62,53519.54,32.38,321.46,0.370390,100.00,1
873441,1,49237,1,51656,53795,51616.71,53520.09,39.29,274.91,0.370464,100.00,1
873481,1,49277,1,51590,53549,51616.66,53520.14,-26.66,28.86,0.370538,100.00,1
873521,1,49317,1,51470,53319,51616.36,53519.74,-146.36,-200.74,0.370619,100.00,1
873561,1,49357,1,51398,53233,51615.93,53519.17,-217.93,-286.17,0.370713,100.00,1
873601,1,49397,1,51385,53241,51615.47,53518.62,-230.47,-277.62,0.370824,100.00,1
873641,1,49437,1,51394,53259,51615.03,53518.10,-221.03,-259.10,0.370949,100.00,1
873681,1,49477,1,51412,53302,51614.62,53517.67,-202.62,-215.67,0.371087,100.00,1
873721,1,49517,1,51432,53339,51614.26,53517.31,-182.26,-178.31,0.371236,100.00,1
873761,1,49557,1,51436,53335,51613.90,53516.95,-177.90,-181.95,0.371395,100.00,1
873801,1,49597,1,51429,53321,51613.54,53516.56,-184.54,-195.56,0.371564,100.00,1
873841,1,49637,1,51431,53339,51613.17,53516.20,-182.17,-177.20,0.371743,100.00,1
873881,1,49677,1,51443,53383,51612.83,53515.94,-169.83,-132.94,0.371932,100.00,1
873921,1,49717,1,51462,53439,51612.53,53515.79,-150.53,-76.79,0.372128,100.00,1
873961,1,49757,1,51487,53500,51612.28,53515.75,-125.28,-15.75,0.372331,100.00,1
874002,1,49798,1,51507,53554,51612.07,53515.83,-105.07,38.17,0.372536,100.00,1
874042,1,49838,1,51533,53609,51611.91,53516.02,-78.91,92.98,0.372744,100.00,1
874082,1,49878,1,51550,53653,51611.79,53516.29,-61.79,136.71,0.372950,100.00,1
874122,1,49918,1,51566,53687,51611.70,53516.64,-45.70,170.36,0.373155,100.00,1
874162,1,49958,1,51585,53730,51611.65,53517.07,-26.65,212.93,0.373356,100.00,1
874202,1,49998,1,51600,53779,51611.63,53517.59,-11.63,261.41,0.373552,100.00,1
874242,1,50038,1,51624,53820,51611.66,53518.20,12.34,301.80,0.373740,100.00,1
874282,1,50078,1,51619,53702,51611.67,53518.56,7.33,183.44,0.373925,100.00,1
874322,1,50118,1,51525,53436,51611.50,53518.40,-86.50,-82.40,0.374113,100.00,1
874362,1,50158,1,51416,53246,51611.11,53517.86,-195.11,-271.86,0.374310,100.00,1
874402,1,50198,1,51360,53191,51610.61,53517.20,-250.61,-326.20,0.374525,100.00,1
874442,1,50238,1,51354,53193,51610.10,53516.55,-256.10,-323.55,0.374757,100.00,1
874482,1,50278,1,51359,53212,51609.60,53515.95,-250.60,-303.95,0.375007,100.00,1
874522,1,50318,1,51372,53251,51609.12,53515.42,-237.12,-264.42,0.375273,100.00,1
874562,1,50358,1,51384,53277,51608.68,53514.94,-224.68,-237.94,0.375554,100.00,1
874602,1,50398,1,51385,53271,51608.23,53514.45,-223.23,-243.45,0.375848,100.00,1
874643,1,50439,1,51379,53265,51607.77,53513.96,-228.77,-248.96,0.376157,100.00,1
874683,1,50479,1,51377,53294,51607.31,53513.52,-230.31,-219.52,0.376481,100.00,1
874723,1,50519,1,51394,53348,51606.89,53513.19,-212.89,-165.19,0.376819,100.00,1
874763,1,50559,1,51421,53415,51606.52,53513.00,-185.52,-98.00,0.377168,100.00,1
874803,1,50599,1,51453,53480,51606.21,53512.93,-153.21,-32.93,0.377526,100.00,1
874843,1,50639,1,51481,53542,51605.96,53512.99,-124.96,29.01,0.377888,100.00,1
874883,1,50679,1,51505,53589,51605.76,53513.14,-100.76,75.86,0.378252,100.00,1
874923,1,50719,1,51523,53625,51605.60,53513.37,-82.60,111.63,0.378617,100.00,1
874963,1,50759,1,51541,53659,51605.47,53513.66,-64.47,145.34,0.378981,100.00,1
875003,1,50799,1,51557,53696,51605.37,53514.03,-48.38,181.97,0.379341,100.00,1
875043,1,50839,1,51571,53742,51605.31,53514.48,-34.31,227.52,0.379696,100.00,1
875083,1,50879,1,51587,53727,51605.27,53514.91,-18.27,212.09,0.380046,100.00,1
875123,1,50919,1,51541,53527,51605.14,53514.94,-64.14,12.06,0.380397,100.00,1
875163,1,50959,1,51427,53275,51604.79,53514.46,-177.79,-239.46,0.380753,100.00,1
875203,1,50999,1,51333,53155,51604.25,53513.74,-271.25,-358.74,0.381127,100.00,1
875243,1,51039,1,51307,53132,51603.65,53512.98,-296.65,-380.98,0.381520,100.00,1
875284,1,51080,1,51301,53132,51603.05,53512.22,-302.05,-380.22,0.381933,100.00,1
875324,1,51120,1,51306,53164,51602.45,53511.52,-296.45,-347.52,0.382367,100.00,1
875364,1,51160,1,51323,53215,51601.89,53510.93,-278.89,-295.93,0.382820,100.00,1
875404,1,51200,1,51336,53229,51601.36,53510.37,-265.36,-281.37,0.383289,100.00,1
875444,1,51240,1,51338,53228,51600.84,53509.81,-262.84,-281.81,0.383774,100.00,1
875484,1,51280,1,51336,53247,51600.31,53509.29,-264.31,-262.29,0.384277,100.00,1
875524,1,51320,1,51355,53297,51599.82,53508.86,-244.82,-211.86,0.384794,100.00,1
875564,1,51360,1,51379,53361,51599.38,53508.57,-220.38,-147.57,0.385325,100.00,1
875604,1,51400,1,51411,53423,51599.00,53508.40,-188.00,-85.40,0.385866,100.00,1
875644,1,51440,1,51441,53478,51598.69,53508.34,-157.69,-30.34,0.386414,100.00,1
875684,1,51480,1,51461,53534,51598.41,53508.39,-137.41,25.61,0.386968,100.00,1
875724,1,51520,1,51480,53574,51598.18,53508.53,-118.18,65.47,0.387524,100.00,1
875764,1,51560,1,51498,53613,51597.98,53508.74,-99.98,104.26,0.388081,100.00,1
875804,1,51600,1,51515,53650,51597.82,53509.02,-82.82,140.98,0.388637,100.00,1
875844,1,51640,1,51530,53698,51597.68,53509.40,-67.68,188.60,0.389189,100.00,1
875884,1,51680,1,51553,53742,51597.59,53509.87,-44.59,232.13,0.389734,100.00,1
875925,1,51721,1,51553,53677,51597.51,53510.20,-44.51,166.80,0.390274,100.00,1
875965,1,51761,1,51476,53445,51597.27,53510.07,-121.27,-65.07,0.390819,100.00,1
876005,1,51801,1,51363,53245,51596.80,53509.55,-233.80,-264.55,0.391374,100.00,1
876045,1,51841,1,51301,53175,51596.21,53508.88,-295.21,-333.88,0.391947,100.00,1
876085,1,51881,1,51293,53178,51595.60,53508.22,-302.60,-330.22,0.392539,100.00,1
876125,1,51921,1,51297,53190,51595.00,53507.58,-298.00,-317.58,0.393149,100.00,1
876165,1,51961,1,51305,53244,51594.43,53507.05,-289.43,-263.05,0.393779,100.00,1
876205,1,52001,1,51335,53300,51593.91,53506.64,-258.91,-206.64,0.394426,100.00,1
876245,1,52041,1,51353,53310,51593.43,53506.25,-240.43,-196.25,0.395087,100.00,1
876285,1,52081,1,51358,53320,51592.96,53505.88,-234.96,-185.88,0.395761,100.00,1
876325,1,52121,1,51360,53352,51592.50,53505.57,-232.50,-153.57,0.396448,100.00,1
876365,1,52161,1,51379,53415,51592.07,53505.39,-213.07,-90.39,0.397148,100.00,1
876405,1,52201,1,51409,53472,51591.71,53505.33,-182.71,-33.33,0.397858,100.00,1
876445,1,52241,1,51437,53533,51591.40,53505.39,-154.40,27.61,0.398574,100.00,1
876485,1,52281,1,51459,53591,51591.14,53505.56,-132.14,85.44,0.399294,100.00,1
876525,1,52321,1,51481,53645,51590.92,53505.84,-109.92,139.16,0.400012,100.00,1
876565,1,52361,1,51505,53693,51590.75,53506.21,-85.75,186.79,0.400727,100.00,1
876606,1,52402,1,51523,53729,51590.61,53506.66,-67.61,222.34,0.401434,100.00,1
876646,1,52442,1,51541,53779,51590.52,53507.21,-49.52,271.79,0.402130,100.00,1
876686,1,52482,1,51553,53837,51590.44,53507.87,-37.44,329.13,0.402810,99.99,1
876726,1,52522,1,51583,53883,51590.43,53508.62,-7.43,374.38,0.403469,99.99,1
876766,1,52562,1,51583,53807,51590.42,53509.21,-7.42,297.79,0.404115,99.99,1
876806,1,52602,1,51504,53591,51590.25,53509.38,-86.25,81.62,0.404760,99.99,1
876846,1,52642,1,51403,53419,51589.87,53509.20,-186.87,-90.20,0.405416,99.98,1
876886,1,52682,1,51356,53369,51589.41,53508.92,-233.41,-139.92,0.406087,99.98,1
876926,1,52722,1,51359,53373,51588.95,53508.65,-229.95,-135.65,0.406773,99.97,1
876966,1,52762,1,51356,53393,51588.48,53508.42,-232.48,-115.42,0.407475,99.97,1
877006,1,52802,1,51373,53444,51588.05,53508.29,-215.05,-64.29,0.408191,99.96,1
877046,1,52842,1,51397,53483,51587.67,53508.24,-190.67,-25.24,0.408919,99.96,1
877086,1,52882,1,51411,53492,51587.32,53508.21,-176.32,-16.21,0.409656,99.95,1
877126,1,52922,1,51408,53504,51586.96,53508.20,-178.96,-4.20,0.410402,99.95,1
877166,1,52962,1,51411,53542,51586.61,53508.27,-175.61,33.73,0.411158,99.94,1
877206,1,53002,1,51437,53594,51586.32,53508.45,-149.32,85.55,0.411919,99.93,1
877247,1,53043,1,51459,53660,51586.06,53508.75,-127.06,151.25,0.412680,99.92,1
877287,1,53083,1,51486,53721,51585.86,53509.18,-99.86,211.82,0.413435,99.92,1
877327,1,53123,1,51511,53785,51585.71,53509.73,-74.71,275.27,0.414179,99.91,1
877367,1,53163,1,51534,53839,51585.61,53510.39,-51.61,328.61,0.414904,99.90,1
877407,1,53203,1,51557,53885,51585.56,53511.14,-28.56,373.86,0.415607,99.89,1
877447,1,53243,1,51575,53937,51585.54,53511.99,-10.54,425.01,0.416282,99.88,1
877487,1,53283,1,51600,53988,51585.57,53512.95,14.43,475.05,0.416922,99.87,1
877527,1,53323,1,51620,54037,51585.64,53514.00,34.36,523.00,0.417524,99.86,1
877567,1,53363,1,51647,54084,51585.77,53515.14,61.23,568.86,0.418084,99.85,1
877607,1,53403,1,51654,54020,51585.90,53516.15,68.10,503.85,0.418613,99.85,1
877647,1,53443,1,51579,53802,51585.89,53516.72,-6.89,285.28,0.419130,99.84,1
877687,1,53483,1,51478,53623,51585.68,53516.94,-107.68,106.06,0.419649,99.83,1
877727,1,53523,1,51421,53555,51585.35,53517.02,-164.35,37.98,0.420176,99.82,1
877767,1,53563,1,51410,53552,51585.00,53517.09,-175.00,34.91,0.420713,99.81,1
877807,1,53603,1,51407,53562,51584.64,53517.18,-177.64,44.82,0.421260,99.80,1
877847,1,53643,1,51416,53598,51584.31,53517.34,-168.31,80.66,0.421815,99.79,1
877888,1,53684,1,51431,53637,51584.00,53517.58,-153.00,119.42,0.422375,99.78,1
877928,1,53724,1,51445,53654,51583.73,53517.86,-138.73,136.14,0.422939,99.76,1
877968,1,53764,1,51444,53666,51583.45,53518.15,-139.45,147.85,0.423505,99.75,1
878008,1,53804,1,51452,53696,51583.19,53518.51,-131.19,177.49,0.424072,99.74,1
878048,1,53844,1,51470,53746,51582.96,53518.96,-112.96,227.04,0.424636,99.73,1
878088,1,53884,1,51497,53813,51582.79,53519.55,-85.79,293.45,0.425189,99.72,1
878128,1,53924,1,51525,53879,51582.68,53520.27,-57.68,358.73,0.425724,99.71,1
878168,1,53964,1,51553,53943,51582.62,53521.12,-29.62,421.88,0.426236,99.70,1
878208,1,54004,1,51584,54001,51582.62,53522.08,1.38,478.92,0.426718,99.69,1
878248,1,54044,1,51609,54043,51582.68,53523.12,26.32,519.87,0.427166,99.68,1
878288,1,54084,1,51624,54086,51582.76,53524.25,41.24,561.75,0.427578,99.67,1
878328,1,54124,1,51640,54136,51582.87,53525.48,57.13,610.52,0.427950,99.66,1
878368,1,54164,1,51660,54182,51583.03,53526.79,76.97,655.21,0.428280,99.64,1
878408,1,54204,1,51683,54227,51583.23,53528.20,99.77,698.80,0.428567,99.63,1
878448,1,54244,1,51681,54148,51583.43,53529.44,97.57,618.56,0.428823,99.62,1
878488,1,54284,1,51603,53941,51583.47,53530.26,19.53,410.74,0.429064,99.61,1
878528,1,54324,1,51509,53797,51583.32,53530.80,-74.32,266.20,0.429300,99.60,1
878569,1,54365,1,51466,53738,51583.09,53531.21,-117.09,206.79,0.429536,99.59,1
878609,1,54405,1,51452,53745,51582.82,53531.64,-130.82,213.36,0.429774,99.58,1
878649,1,54445,1,51454,53757,51582.57,53532.09,-128.57,224.91,0.430013,99.57,1
878689,1,54485,1,51468,53796,51582.34,53532.62,-114.34,263.38,0.430250,99.56,1
878729,1,54525,1,51491,53835,51582.16,53533.23,-91.16,301.77,0.430482,99.55,1
878769,1,54565,1,51494,53848,51581.98,53533.86,-87.98,314.14,0.430707,99.54,1
878809,1,54605,1,51501,53867,51581.82,53534.53,-80.82,332.47,0.430924,99.53,1
878849,1,54645,1,51511,53905,51581.68,53535.27,-70.68,369.73,0.431131,99.52,1
878889,1,54685,1,51539,53960,51581.60,53536.12,-42.60,423.88,0.431324,99.52,1
878929,1,54725,1,51570,54022,51581.57,53537.09,-11.57,484.91,0.431496,99.51,1
878969,1,54765,1,51591,54087,51581.59,53538.20,9.41,548.80,0.431645,99.50,1
879009,1,54805,1,51621,54142,51581.68,53539.41,39.32,602.59,0.431767,99.49,1
879049,1,54845,1,51644,54195,51581.80,53540.72,62.20,654.28,0.431859,99.48,1
879089,1,54885,1,51664,54241,51581.96,53542.12,82.04,698.88,0.431921,99.47,1
879129,1,54925,1,51682,54290,51582.17,53543.62,99.83,746.38,0.431951,99.46,1
879169,1,54965,1,51698,54343,51582.40,53545.22,115.60,797.78,0.431947,99.46,1
879210,1,55006,1,51726,54395,51582.69,53546.92,143.31,848.08,0.431912,99.45,1
879250,1,55046,1,51742,54405,51583.01,53548.64,158.99,856.36,0.431847,99.44,1
879290,1,55086,1,51699,54267,51583.25,53550.07,115.75,716.93,0.431762,99.43,1
879330,1,55126,1,51618,54109,51583.32,53551.20,34.68,557.80,0.431663,99.43,1
879370,1,55166,1,51569,54048,51583.29,53552.19,-14.29,495.81,0.431553,99.42,1
879410,1,55206,1,51551,54046,51583.23,53553.18,-32.23,492.82,0.431434,99.41,1
879450,1,55246,1,51557,54057,51583.18,53554.19,-26.18,502.81,0.431304,99.41,1
879490,1,55286,1,51567,54088,51583.14,53555.26,-16.14,532.74,0.431162,99.40,1
879530,1,55326,1,51588,54133,51583.16,53556.41,4.84,576.59,0.431007,99.40,1
879570,1,55366,1,51602,54155,51583.20,53557.61,18.80,597.39,0.430838,99.39,1
879610,1,55406,1,51605,54169,51583.24,53558.84,21.76,610.16,0.430655,99.39,1
879650,1,55446,1,51614,54197,51583.30,53560.11,30.70,636.89,0.430458,99.38,1
879690,1,55486,1,51628,54242,51583.39,53561.48,44.61,680.52,0.430245,99.38,1
879730,1,55526,1,51655,54306,51583.54,53562.97,71.46,743.03,0.430014,99.37,1
879770,1,55566,1,51677,54372,51583.73,53564.59,93.27,807.41,0.429764,99.37,1
879810,1,55606,1,51705,54430,51583.97,53566.32,121.03,863.68,0.429496,99.37,1
879851,1,55647,1,51728,54487,51584.26,53568.16,143.74,918.84,0.429209,99.37,1
879891,1,55687,1,51752,54541,51584.59,53570.11,167.41,970.89,0.428903,99.36,1
879931,1,55727,1,51770,54594,51584.96,53572.16,185.04,1021.84,0.428581,99.36,1
879971,1,55767,1,51792,54648,51585.38,53574.31,206.62,1073.69,0.428241,99.36,1
880011,1,55807,1,51819,54706,51585.85,53576.58,233.15,1129.42,0.427887,99.36,1
880051,1,55847,1,51837,54749,51586.35,53578.93,250.65,1170.07,0.427520,99.36,1
880091,1,55887,1,51824,54651,51586.83,53581.07,237.17,1069.93,0.427144,99.35,1
880131,1,55927,1,51764,54524,51587.18,53582.96,176.82,941.04,0.426759,99.35,1
880171,1,55967,1,51718,54458,51587.45,53584.71,130.55,873.29,0.426365,99.35,1
880211,1,56007,1,51706,54461,51587.68,53586.46,118.32,874.54,0.425962,99.35,1
880251,1,56047,1,51708,54474,51587.93,53588.24,120.07,885.76,0.425549,99.35,1
880291,1,56087,1,51714,54500,51588.18,53590.06,125.82,909.94,0.425126,99.35,1
880331,1,56127,1,51729,54533,51588.46,53591.95,140.54,941.05,0.424695,99.35,1
880371,1,56167,1,51740,54555,51588.77,53593.87,151.23,961.12,0.424256,99.36,1
880411,1,56207,1,51740,54561,51589.07,53595.81,150.93,965.19,0.423809,99.36,1
880451,1,56247,1,51739,54584,51589.37,53597.79,149.63,986.21,0.423353,99.36,1
880492,1,56288,1,51757,54623,51589.71,53599.84,167.29,1023.16,0.422890,99.36,1
880532,1,56328,1,51771,54674,51590.07,53601.99,180.93,1072.01,0.422419,99.36,1
880572,1,56368,1,51796,54739,51590.48,53604.27,205.52,1134.73,0.421941,99.37,1
880612,1,56408,1,51819,54794,51590.94,53606.64,228.06,1187.36,0.421458,99.37,1
880652,1,56448,1,51848,54853,51591.46,53609.14,256.54,1243.86,0.420970,99.37,1
880692,1,56488,1,51872,54911,51592.02,53611.74,279.98,1299.26,0.420479,99.38,1
880732,1,56528,1,51893,54963,51592.62,53614.45,300.38,1348.55,0.419985,99.38,1
880772,1,56568,1,51913,55018,51593.26,53617.25,319.74,1400.75,0.419490,99.38,1
880812,1,56608,1,51949,55071,51593.97,53620.16,355.03,1450.84,0.418997,99.39,1
880852,1,56648,1,51968,55092,51594.72,53623.11,373.28,1468.89,0.418506,99.39,1
880892,1,56688,1,51946,54999,51595.43,53625.86,350.57,1373.14,0.418019,99.40,1
880932,1,56728,1,51879,54880,51596.00,53628.37,283.00,1251.63,0.417530,99.40,1
880972,1,56768,1,51841,54845,51596.49,53630.80,244.51,1214.20,0.417040,99.41,1
881012,1,56808,1,51837,54849,51596.97,53633.24,240.03,1215.76,0.416546,99.41,1
881052,1,56848,1,51834,54862,51597.45,53635.70,236.55,1226.30,0.416049,99.42,1
881092,1,56888,1,51844,54886,51597.94,53638.20,246.06,1247.80,0.415550,99.42,1
881133,1,56929,1,51852,54914,51598.45,53640.76,253.55,1273.24,0.415048,99.43,1
881173,1,56969,1,51859,54931,51598.97,53643.34,260.03,1287.66,0.414545,99.44,1
881213,1,57009,1,51861,54942,51599.50,53645.94,261.50,1296.06,0.414039,99.44,1
881253,1,57049,1,51864,54966,51600.03,53648.58,263.97,1317.42,0.413532,99.45,1
881293,1,57089,1,51878,55004,51600.59,53651.29,277.41,1352.71,0.413023,99.46,1
881333,1,57129,1,51899,55053,51601.19,53654.09,297.81,1398.91,0.412514,99.46,1
881373,1,57169,1,51921,55103,51601.83,53656.99,319.17,1446.01,0.412004,99.47,1
881413,1,57209,1,51942,55150,51602.51,53659.98,339.49,1490.02,0.411496,99.48,1
881453,1,57249,1,51964,55185,51603.23,53663.03,360.77,1521.97,0.410989,99.48,1
881493,1,57289,1,51984,55222,51604.00,53666.15,380.00,1555.85,0.410486,99.49,1
881533,1,57329,1,51996,55258,51604.78,53669.34,391.22,1588.66,0.409985,99.50,1
881573,1,57369,1,52013,55299,51605.60,53672.60,407.40,1626.40,0.409488,99.51,1
881613,1,57409,1,52029,55334,51606.45,53675.92,422.55,1658.08,0.408996,99.52,1
881653,1,57449,1,52042,55310,51607.32,53679.19,434.68,1630.81,0.408508,99.52,1
881693,1,57489,1,51988,55183,51608.08,53682.20,379.92,1500.80,0.408024,99.53,1
881733,1,57529,1,51928,55092,51608.72,53685.02,319.28,1406.98,0.407540,99.54,1
881774,1,57570,1,51901,55070,51609.30,53687.79,291.70,1382.21,0.407056,99.55,1
881814,1,57610,1,51900,55076,51609.89,53690.57,290.11,1385.43,0.406572,99.56,1
881854,1,57650,1,51900,55085,51610.47,53693.36,289.53,1391.64,0.406086,99.57,1
881894,1,57690,1,51896,55106,51611.04,53696.18,284.96,1409.82,0.405600,99.58,1
881934,1,57730,1,51910,55126,51611.64,53699.04,298.36,1426.96,0.405113,99.58,1
881974,1,57770,1,51912,55127,51612.24,53701.90,299.76,1425.10,0.404626,99.59,1
882014,1,57810,1,51909,55136,51612.84,53704.77,296.16,1431.23,0.404139,99.60,1
882054,1,57850,1,51915,55159,51613.44,53707.68,301.56,1451.32,0.403651,99.61,1
882094,1,57890,1,51934,55189,51614.08,53710.64,319.92,1478.36,0.403163,99.62,1
882134,1,57930,1,51950,55229,51614.75,53713.68,335.25,1515.32,0.402676,99.63,1
882174,1,57970,1,51966,55258,51615.46,53716.77,350.54,1541.23,0.402191,99.64,1
882214,1,58010,1,51980,55303,51616.19,53719.95,363.81,1583.05,0.401706,99.65,1
882254,1,58050,1,51998,55329,51616.95,53723.17,381.05,1605.83,0.401224,99.66,1
882294,1,58090,1,52006,55355,51617.73,53726.43,388.27,1628.57,0.400743,99.67,1
882334,1,58130,1,52020,55389,51618.54,53729.76,401.46,1659.24,0.400265,99.68,1
882374,1,58170,1,52030,55420,51619.36,53733.14,410.64,1686.86,0.399790,99.69,1
882414,1,58210,1,52043,55438,51620.21,53736.55,422.79,1701.45,0.399318,99.70,1
882455,1,58251,1,52027,55352,51621.03,53739.79,405.97,1612.21,0.398849,99.71,1
882495,1,58291,1,51963,55237,51621.71,53742.78,341.29,1494.22,0.398380,99.72,1
882535,1,58331,1,51913,55182,51622.29,53745.66,290.71,1436.34,0.397912,99.72,1
882575,1,58371,1,51905,55174,51622.86,53748.52,282.14,1425.48,0.397443,99.73,1
882615,1,58411,1,51902,55178,51623.42,53751.38,278.58,1426.62,0.396973,99.74,1
882655,1,58451,1,51902,55185,51623.98,53754.25,278.02,1430.75,0.396503,99.75,1
882695,1,58491,1,51907,55205,51624.54,53757.15,282.46,1447.85,0.396032,99.76,1
882735,1,58531,1,51912,55213,51625.12,53760.06,286.88,1452.94,0.395560,99.76,1
882775,1,58571,1,51917,55209,51625.71,53762.96,291.29,1446.04,0.395089,99.77,1
882815,1,58611,1,51916,55208,51626.29,53765.85,289.71,1442.15,0.394617,99.78,1
882855,1,58651,1,51923,55231,51626.88,53768.79,296.12,1462.21,0.394146,99.78,1
882895,1,58691,1,51926,55259,51627.48,53771.77,298.52,1487.23,0.393674,99.79,1
882935,1,58731,1,51947,55288,51628.12,53774.80,318.88,1513.20,0.393202,99.80,1
882975,1,58771,1,51958,55322,51628.78,53777.90,329.22,1544.10,0.392731,99.80,1
883015,1,58811,1,51971,55349,51629.47,53781.04,341.53,1567.96,0.392261,99.81,1
883055,1,58851,1,51980,55376,51630.17,53784.23,349.83,1591.77,0.391792,99.81,1
883096,1,58892,1,51989,55397,51630.89,53787.46,358.11,1609.54,0.391325,99.82,1
883136,1,58932,1,52000,55429,51631.63,53790.75,368.37,1638.25,0.390858,99.83,1
883176,1,58972,1,52004,55465,51632.37,53794.10,371.62,1670.90,0.390393,99.83,1
883216,1,59012,1,52007,55430,51633.12,53797.37,373.87,1632.63,0.389929,99.84,1
883256,1,59052,1,51969,55304,51633.80,53800.39,335.20,1503.61,0.389466,99.84,1
883296,1,59092,1,51905,55218,51634.34,53803.22,270.66,1414.78,0.389004,99.85,1
883336,1,59132,1,51883,55197,51634.84,53806.01,248.16,1390.99,0.388540,99.85,1
883376,1,59172,1,51880,55192,51635.33,53808.79,244.67,1383.21,0.388076,99.85,1
883416,1,59212,1,51882,55186,51635.83,53811.54,246.17,1374.46,0.387612,99.86,1
883456,1,59252,1,51882,55198,51636.32,53814.31,245.68,1383.69,0.387147,99.86,1
883496,1,59292,1,51888,55211,51636.82,53817.11,251.18,1393.89,0.386681,99.87,1
883536,1,59332,1,51885,55204,51637.32,53819.88,247.68,1384.12,0.386215,99.87,1
883576,1,59372,1,51883,55195,51637.81,53822.63,245.19,1372.37,0.385749,99.87,1
883616,1,59412,1,51880,55208,51638.30,53825.40,241.70,1382.60,0.385282,99.88,1
883656,1,59452,1,51889,55236,51638.80,53828.23,250.20,1407.77,0.384815,99.88,1
883696,1,59492,1,51898,55268,51639.32,53831.11,258.68,1436.89,0.384348,99.89,1
883737,1,59533,1,51914,55296,51639.87,53834.04,274.13,1461.96,0.383880,99.89,1
883777,1,59573,1,51924,55322,51640.44,53837.02,283.56,1484.98,0.383412,99.89,1
883817,1,59613,1,51937,55354,51641.04,53840.05,295.96,1513.95,0.382945,99.90,1
883857,1,59653,1,51949,55384,51641.65,53843.14,307.35,1540.86,0.382478,99.90,1
883897,1,59693,1,51959,55413,51642.29,53846.28,316.71,1566.72,0.382012,99.90,1
883937,1,59733,1,51974,55450,51642.95,53849.49,331.05,1600.51,0.381546,99.90,1
883977,1,59773,1,51982,55443,51643.63,53852.68,338.37,1590.32,0.381082,99.91,1
884017,1,59813,1,51951,55331,51644.25,53855.63,306.75,1475.37,0.380618,99.91,1
884057,1,59853,1,51893,55223,51644.75,53858.37,248.25,1364.63,0.380155,99.91,1
884097,1,59893,1,51858,55169,51645.18,53860.99,212.82,1308.01,0.379691,99.92,1
884137,1,59933,1,51841,55155,51645.57,53863.58,195.43,1291.42,0.379227,99.92,1
884177,1,59973,1,51837,55148,51645.96,53866.15,191.04,1281.85,0.378762,99.92,1
884217,1,60013,1,51828,55149,51646.32,53868.71,181.68,1280.29,0.378296,99.92,1
884257,1,60053,2,51836,55156,51646.70,53871.29,189.30,1284.71,0.377829,99.93,1
884297,1,60093,2,51832,55149,51647.07,53873.85,184.93,1275.15,0.377362,99.93,1
884337,1,60133,2,51826,55140,51647.43,53876.38,178.57,1263.62,0.376894,99.93,1
884378,1,60174,2,51823,55142,51647.79,53878.91,175.21,1263.09,0.376426,99.93,1
884418,1,60214,2,51825,55165,51648.14,53881.49,176.86,1283.51,0.375956,99.93,1
884458,1,60254,2,51835,55198,51648.52,53884.12,186.48,1313.88,0.375486,99.94,1
884498,1,60294,2,51851,55231,51648.92,53886.82,202.08,1344.18,0.375015,99.94,1
884538,1,60334,2,51863,55258,51649.35,53889.56,213.65,1368.44,0.374544,99.94,1
884578,1,60374,2,51879,55292,51649.81,53892.36,229.19,1399.64,0.374073,99.94,1
884618,1,60414,2,51891,55329,51650.30,53895.24,240.70,1433.76,0.373601,99.94,1
884658,1,60454,2,51905,55350,51650.81,53898.15,254.19,1451.85,0.373129,99.95,1
884698,1,60494,2,51921,55383,51651.35,53901.12,269.65,1481.88,0.372658,99.95,1
884738,1,60534,2,51938,55387,51651.93,53904.09,286.07,1482.91,0.372187,99.95,1
884778,1,60574,2,51913,55284,51652.45,53906.86,260.55,1377.14,0.371718,99.95,1
884818,1,60614,2,51844,55153,51652.83,53909.35,191.17,1243.65,0.371248,99.95,1
884858,1,60654,2,51798,55087,51653.12,53911.70,144.87,1175.30,0.370777,99.95,1
884898,1,60694,2,51779,55066,51653.38,53914.01,125.62,1151.99,0.370306,99.95,1
884938,1,60734,2,51766,55049,51653.61,53916.28,112.39,1132.72,0.369834,99.96,1
884978,1,60774,2,51760,55047,51653.82,53918.54,106.18,1128.46,0.369362,99.96,1
885019,1,60815,2,51764,55062,51654.04,53920.83,109.96,1141.17,0.368889,99.96,1
885059,1,60855,2,51763,55057,51654.26,53923.11,108.74,1133.89,0.368414,99.96,1
885099,1,60895,2,51757,55052,51654.47,53925.36,102.53,1126.64,0.367940,99.96,1
885139,1,60935,2,51751,55056,51654.66,53927.62,96.34,1128.38,0.367464,99.96,1
885179,1,60975,2,51759,55078,51654.87,53929.93,104.12,1148.07,0.366988,99.96,1
885219,1,61015,2,51777,55116,51655.12,53932.30,121.88,1183.70,0.366510,99.96,1
885259,1,61055,2,51790,55158,51655.39,53934.75,134.61,1223.25,0.366032,99.97,1
885299,1,61095,2,51809,55193,51655.70,53937.27,153.30,1255.73,0.365554,99.97,1
885339,1,61135,2,51828,55224,51656.05,53939.85,171.95,1284.15,0.365074,99.97,1
885379,1,61175,2,51845,55249,51656.43,53942.47,188.57,1306.53,0.364595,99.97,1
885419,1,61215,2,51860,55283,51656.84,53945.15,203.16,1337.85,0.364116,99.97,1
885459,1,61255,2,51869,55313,51657.26,53947.89,211.74,1365.11,0.363636,99.97,1
885499,1,61295,2,51871,55262,51657.69,53950.52,213.31,1311.48,0.363157,99.97,1
885539,1,61335,2,51817,55129,51658.01,53952.88,158.99,1176.12,0.362678,99.97,1
885579,1,61375,2,51755,55033,51658.21,53955.04,96.79,1077.96,0.362199,99.97,1
885619,1,61415,2,51724,55000,51658.34,53957.13,65.66,1042.87,0.361718,99.97,1
885659,1,61455,2,51714,54984,51658.45,53959.18,55.55,1024.82,0.361238,99.97,1
885700,1,61496,2,51710,54977,51658.56,53961.22,51.44,1015.78,0.360756,99.98,1
885740,1,61536,2,51707,54993,51658.66,53963.29,48.34,1029.71,0.360275,99.98,1
