t_ms,trial_id,t_trial_ms,phase,red_raw,ir_raw,red_dc,ir_dc,red_ac,ir_ac,R,spo2,spo2_valid
488466,1,0,0,51281,52520,51311.99,52503.34,-30.99,16.66,0.662346,93.06,1
488506,1,40,0,51227,52221,51311.82,52502.78,-84.82,-281.78,0.661908,93.07,1
488546,1,80,0,51044,51805,51311.29,52501.38,-267.29,-696.38,0.661460,93.08,1
488586,1,120,0,50907,51640,51310.48,52499.66,-403.48,-859.66,0.661007,93.10,1
488626,1,160,0,50883,51662,51309.62,52497.98,-426.62,-835.98,0.660558,93.11,1
488666,1,200,0,51042,51736,51309.09,52496.46,-267.09,-760.46,0.660095,93.12,1
488706,1,240,0,50941,51810,51308.36,52495.09,-367.36,-685.09,0.659637,93.13,1
488746,1,280,0,50979,51903,51307.70,52493.91,-328.70,-590.91,0.659186,93.14,1
488786,1,320,0,51013,51952,51307.11,52492.82,-294.11,-540.82,0.658738,93.15,1
488827,1,361,0,51514,51944,51307.52,52491.73,206.48,-547.73,0.658285,93.17,1
488867,1,401,0,50892,51951,51306.70,52490.64,-414.70,-539.64,0.657853,93.18,1
488907,1,441,0,51018,51998,51306.12,52489.66,-288.12,-491.66,0.657427,93.19,1
488947,1,481,0,51050,52081,51305.61,52488.84,-255.61,-407.84,0.657006,93.20,1
488987,1,521,0,51094,52173,51305.19,52488.21,-211.19,-315.21,0.656591,93.21,1
489027,1,561,0,50554,52260,51303.69,52487.76,-749.69,-227.76,0.656278,93.22,1
489067,1,601,0,51172,52341,51303.43,52487.47,-131.43,-146.47,0.655969,93.24,1
489107,1,641,0,51207,52391,51303.23,52487.28,-96.23,-96.28,0.655662,93.25,1
489147,1,681,0,51227,52440,51303.08,52487.18,-76.08,-47.18,0.655357,93.26,1
489187,1,721,0,51243,52480,51302.96,52487.17,-59.96,-7.17,0.655053,93.27,1
489227,1,761,0,51269,52531,51302.90,52487.26,-33.90,43.74,0.654751,93.28,1
489267,1,801,0,51286,52492,51302.87,52487.27,-16.87,4.73,0.654449,93.29,1
489307,1,841,0,51191,52128,51302.64,52486.55,-111.64,-358.55,0.654143,93.30,1
489347,1,881,0,50997,51755,51302.04,52485.09,-305.04,-730.09,0.653827,93.31,1
489388,1,922,0,50885,51644,51301.20,52483.41,-416.20,-839.41,0.653506,93.32,1
489428,1,962,0,50886,51701,51300.37,52481.85,-414.37,-780.85,0.653186,93.33,1
489468,1,1002,0,50917,51788,51299.61,52480.46,-382.61,-692.46,0.652868,93.34,1
489508,1,1042,0,50958,51881,51298.93,52479.27,-340.93,-598.27,0.652554,93.35,1
489548,1,1082,0,51003,51970,51298.34,52478.25,-295.34,-508.25,0.652242,93.36,1
489588,1,1122,0,51029,52006,51297.80,52477.31,-268.80,-471.31,0.651933,93.37,1
489628,1,1162,0,51030,51997,51297.26,52476.35,-267.26,-479.35,0.651626,93.38,1
489668,1,1202,0,51031,52006,51296.73,52475.41,-265.73,-469.41,0.651321,93.39,1
489708,1,1242,0,51048,52065,51296.23,52474.59,-248.23,-409.59,0.651019,93.40,1
489748,1,1282,0,51079,52149,51295.80,52473.94,-216.80,-324.94,0.650721,93.41,1
489788,1,1322,0,51121,52234,51295.45,52473.46,-174.45,-239.46,0.650426,93.42,1
489828,1,1362,0,51158,52308,51295.18,52473.13,-137.18,-165.13,0.650133,93.43,1
489868,1,1402,0,51197,52381,51294.98,52472.95,-97.98,-91.95,0.649843,93.44,1
489908,1,1442,0,51213,52434,51294.82,52472.87,-81.82,-38.87,0.649555,93.45,1
489948,1,1482,0,51237,52467,51294.71,52472.86,-57.71,-5.86,0.649268,93.46,1
489989,1,1523,0,51252,52501,51294.62,52472.92,-42.62,28.08,0.648982,93.47,1
490029,1,1563,0,51262,52549,51294.56,52473.07,-32.56,75.93,0.648697,93.48,1
490069,1,1603,0,51282,52600,51294.54,52473.32,-12.54,126.68,0.648412,93.49,1
490109,1,1643,0,51294,52496,51294.54,52473.37,-0.54,22.63,0.648128,93.50,1
490149,1,1683,0,51171,52115,51294.29,52472.66,-123.29,-357.66,0.647841,93.51,1
490189,1,1723,0,50997,51831,51293.70,52471.37,-296.70,-640.37,0.647549,93.52,1
490229,1,1763,0,50939,51809,51292.99,52470.05,-353.99,-661.05,0.647257,93.53,1
490269,1,1803,0,50971,51900,51292.34,52468.91,-321.34,-568.91,0.646968,93.54,1
490309,1,1843,0,51017,51992,51291.79,52467.96,-274.79,-475.96,0.646682,93.54,1
490349,1,1883,0,51056,52103,51291.32,52467.23,-235.32,-364.23,0.646399,93.55,1
490389,1,1923,0,51096,52142,51290.93,52466.58,-194.93,-324.58,0.646119,93.56,1
490429,1,1963,0,51099,52131,51290.55,52465.91,-191.55,-334.91,0.645840,93.57,1
490469,1,2003,0,51088,52109,51290.15,52465.20,-202.15,-356.20,0.645562,93.58,1
490509,1,2043,0,51079,52134,51289.73,52464.54,-210.73,-330.54,0.645288,93.59,1
490550,1,2084,0,51106,52200,51289.36,52464.01,-183.36,-264.01,0.645016,93.60,1
490590,1,2124,0,51135,52283,51289.05,52463.65,-154.05,-180.65,0.644749,93.61,1
490630,1,2164,0,51171,52376,51288.82,52463.48,-117.82,-87.48,0.644483,93.61,1
490670,1,2204,0,51214,52451,51288.67,52463.45,-74.67,-12.45,0.644220,93.62,1
490710,1,2244,0,51247,52525,51288.59,52463.58,-41.59,61.42,0.643958,93.63,1
490750,1,2284,0,51271,52667,51288.55,52463.98,-17.55,203.02,0.643694,93.64,1
490790,1,2324,0,51297,52629,51288.57,52464.32,8.43,164.68,0.643430,93.65,1
490830,1,2364,0,51320,52676,51288.63,52464.74,31.37,211.26,0.643164,93.66,1
490870,1,2404,0,51339,52737,51288.73,52465.29,50.27,271.71,0.642895,93.66,1
490910,1,2444,0,51365,53221,51288.89,52466.80,76.11,754.20,0.642597,93.67,1
490950,1,2484,0,51291,52335,51288.89,52466.54,2.11,-131.54,0.642299,93.68,1
490990,1,2524,0,51128,52092,51288.57,52465.79,-160.57,-373.79,0.642000,93.69,1
491030,1,2564,0,51032,52006,51288.06,52464.87,-256.06,-458.87,0.641702,93.70,1
491070,1,2604,0,51031,52065,51287.55,52464.08,-256.55,-399.08,0.641410,93.70,1
491111,1,2645,0,51066,51496,51287.11,52462.14,-221.11,-966.14,0.641079,93.71,1
491151,1,2685,0,51108,52264,51286.75,52461.75,-178.75,-197.75,0.640753,93.72,1
491191,1,2725,0,51153,52352,51286.48,52461.53,-133.48,-109.53,0.640431,93.73,1
491231,1,2765,0,51181,52374,51286.27,52461.36,-105.27,-87.36,0.640111,93.74,1
491271,1,2805,0,51183,52381,51286.07,52461.20,-103.07,-80.20,0.639794,93.74,1
491311,1,2845,0,51185,52415,51285.87,52461.11,-100.87,-46.11,0.639480,93.75,1
491351,1,2885,0,51213,52482,51285.72,52461.15,-72.72,20.85,0.639168,93.76,1
491391,1,2925,0,51252,52573,51285.66,52461.38,-33.66,111.62,0.638856,93.77,1
491431,1,2965,0,51581,52668,51286.25,52461.79,294.75,206.21,0.638560,93.78,1
491471,1,3005,0,51790,52750,51287.26,52462.37,502.74,287.63,0.638309,93.78,1
491511,1,3045,0,51366,52824,51287.42,52463.10,78.58,360.90,0.638053,93.79,1
491551,1,3085,0,51391,52886,51287.62,52463.95,103.37,422.05,0.637789,93.80,1
491591,1,3125,0,51413,52935,51287.88,52464.89,125.12,470.11,0.637517,93.81,1
491632,1,3166,0,51045,52989,51287.39,52465.94,-242.39,523.06,0.637243,93.82,1
491672,1,3206,0,50795,53052,51286.41,52467.11,-491.41,584.89,0.636996,93.82,1
491712,1,3246,0,51477,53051,51286.79,52468.28,190.21,582.72,0.636738,93.83,1
491752,1,3286,0,51421,52793,51287.06,52468.93,133.94,324.07,0.636478,93.84,1
491792,1,3326,0,51276,52494,51287.04,52468.98,-11.04,25.02,0.636220,93.85,1
491832,1,3366,0,51180,52377,51286.83,52468.80,-106.83,-91.80,0.635964,93.85,1
491872,1,3406,0,51169,52402,51286.60,52468.67,-117.60,-66.67,0.635711,93.86,1
491912,1,3446,0,51195,52462,51286.41,52468.66,-91.41,-6.66,0.635460,93.87,1
491952,1,3486,0,51229,52544,51286.30,52468.81,-57.30,75.19,0.635210,93.88,1
491992,1,3526,0,51261,52619,51286.25,52469.11,-25.25,149.89,0.634960,93.88,1
492032,1,3566,0,51285,52653,51286.25,52469.48,-1.25,183.52,0.634709,93.89,1
492072,1,3606,0,51287,52662,51286.25,52469.86,0.75,192.14,0.634457,93.90,1
492112,1,3646,0,51288,52673,51286.26,52470.27,1.74,202.73,0.634203,93.91,1
492153,1,3687,0,51301,52728,51286.29,52470.79,14.71,257.21,0.633946,93.91,1
492193,1,3727,0,51326,52807,51286.37,52471.46,39.63,335.54,0.633683,93.92,1
492233,1,3767,0,51366,52893,51286.53,52472.30,79.47,420.70,0.633412,93.93,1
492273,1,3807,0,51404,52978,51286.77,52473.31,117.23,504.69,0.633130,93.94,1
492313,1,3847,0,51435,53057,51287.06,52474.48,147.94,582.52,0.632835,93.94,1
492353,1,3887,0,51468,53130,51287.43,52475.79,180.57,654.21,0.632523,93.95,1
492393,1,3927,0,51502,53189,51287.86,52477.22,214.14,711.78,0.632195,93.96,1
492433,1,3967,0,51528,53239,51288.34,52478.75,239.66,760.25,0.631850,93.97,1
492473,1,4007,0,51549,53299,51288.86,52480.39,260.14,818.61,0.631486,93.97,1
492513,1,4047,0,51563,53321,51289.41,52482.07,273.59,838.93,0.631105,93.98,1
492553,1,4087,0,51537,53122,51289.91,52483.35,247.09,638.65,0.630717,93.99,1
492593,1,4127,0,51403,52830,51290.13,52484.05,112.87,345.95,0.630328,94.00,1
492633,1,4167,0,51297,52678,51290.15,52484.44,6.85,193.56,0.629938,94.00,1
492674,1,4208,0,51270,52675,51290.11,52484.82,-20.11,190.18,0.629548,94.01,1
492714,1,4248,0,51279,52722,51290.09,52485.30,-11.09,236.70,0.629157,94.02,1
492754,1,4288,0,51302,52786,51290.11,52485.90,11.89,300.10,0.628762,94.03,1
492794,1,4328,0,51331,52857,51290.20,52486.64,40.80,370.36,0.628363,94.03,1
492834,1,4368,0,51358,52894,51290.33,52487.46,67.67,406.54,0.627959,94.04,1
492874,1,4408,0,51363,52908,51290.48,52488.30,72.52,419.70,0.627549,94.05,1
492914,1,4448,0,51366,52921,51290.63,52489.17,75.37,431.83,0.627132,94.06,1
492954,1,4488,0,51382,52958,51290.82,52490.11,91.18,467.89,0.626709,94.07,1
492994,1,4528,0,51411,53024,51291.06,52491.18,119.94,532.82,0.626277,94.08,1
493034,1,4568,0,51436,53094,51291.35,52492.38,144.65,601.62,0.625835,94.08,1
493074,1,4608,0,51468,53170,51291.71,52493.74,176.29,676.26,0.625381,94.09,1
493114,1,4648,0,51496,53231,51292.12,52495.21,203.88,735.79,0.624915,94.10,1
493154,1,4688,0,51523,53287,51292.58,52496.80,230.42,790.20,0.624434,94.11,1
493194,1,4728,0,51540,53333,51293.08,52498.47,246.92,834.53,0.623940,94.12,1
493234,1,4768,0,51557,53382,51293.61,52500.24,263.39,881.76,0.623432,94.13,1
493275,1,4809,0,51572,53422,51294.16,52502.09,277.84,919.91,0.622909,94.14,1
493315,1,4849,0,51593,53461,51294.76,52504.00,298.24,957.00,0.622373,94.15,1
493355,1,4889,0,51571,53438,51295.32,52505.87,275.68,932.12,0.621823,94.15,1
493395,1,4929,0,51463,53282,51295.65,52507.43,167.35,774.57,0.621262,94.16,1
493435,1,4969,0,51361,52897,51295.79,52508.21,65.21,388.79,0.620698,94.17,1
493475,1,5009,0,51326,52892,51295.85,52508.98,30.15,383.02,0.620131,94.18,1
493515,1,5049,0,51347,52932,51295.95,52509.83,51.05,422.17,0.619561,94.19,1
493555,1,5089,0,51377,52899,51296.12,52510.61,80.88,388.39,0.618990,94.20,1
493595,1,5129,0,51405,52803,51296.34,52511.20,108.66,291.80,0.618420,94.21,1
493635,1,5169,0,51416,53076,51296.58,52512.33,119.42,563.67,0.617844,94.22,1
493675,1,5209,0,51418,53061,51296.82,52513.43,121.18,547.57,0.617263,94.23,1
493715,1,5249,0,51413,53059,51297.06,52514.52,115.94,544.48,0.616678,94.24,1
493755,1,5289,0,51411,53082,51297.29,52515.66,113.71,566.34,0.616087,94.25,1
493795,1,5329,0,51430,53139,51297.55,52516.91,132.45,622.09,0.615490,94.27,1
493836,1,5370,0,51450,53202,51297.86,52518.28,152.14,683.72,0.614885,94.28,1
493876,1,5410,0,51474,53263,51298.21,52519.77,175.79,743.23,0.614271,94.29,1
493916,1,5450,0,51550,53323,51298.72,52521.38,251.28,801.62,0.613653,94.30,1
493956,1,5490,0,51520,53368,51299.16,52523.07,220.84,844.93,0.613026,94.31,1
493996,1,5530,0,51537,53418,51299.64,52524.87,237.36,893.13,0.612390,94.32,1
494036,1,5570,0,51557,53469,51300.16,52526.76,256.84,942.24,0.611744,94.33,1
494076,1,5610,0,52075,53472,51301.71,52528.65,773.29,943.35,0.611171,94.34,1
494116,1,5650,0,51452,53296,51302.01,52530.18,149.99,765.82,0.610589,94.36,1
494156,1,5690,0,51431,53066,51302.27,52531.26,128.73,534.74,0.610004,94.37,1
494196,1,5730,0,51352,52949,51302.37,52532.09,49.63,416.91,0.609417,94.38,1
494236,1,5770,0,51334,52948,51302.43,52532.93,31.57,415.07,0.608828,94.39,1
494276,1,5810,0,50645,52989,51301.12,52533.84,-656.12,455.16,0.608299,94.40,1
494316,1,5850,0,51363,53041,51301.25,52534.86,61.75,506.14,0.607765,94.42,1
494357,1,5891,0,51388,53092,51301.42,52535.97,86.58,556.03,0.607227,94.43,1
494397,1,5931,0,51403,53108,51301.62,52537.12,101.37,570.88,0.606683,94.44,1
494437,1,5971,0,51391,53104,51301.80,52538.25,89.20,565.75,0.606134,94.45,1
494477,1,6011,0,51396,53116,51302.00,52539.41,94.00,576.59,0.605580,94.46,1
494517,1,6051,0,51408,53172,51302.21,52540.68,105.79,631.32,0.605019,94.48,1
494557,1,6091,0,51433,53233,51302.47,52542.06,130.53,690.94,0.604450,94.49,1
494597,1,6131,0,51468,53298,51302.80,52543.57,165.20,754.43,0.603874,94.50,1
494637,1,6171,0,51494,53360,51303.19,52545.21,190.81,814.79,0.603289,94.51,1
494677,1,6211,0,51516,53410,51303.61,52546.94,212.39,863.06,0.602695,94.53,1
494717,1,6251,0,51536,53455,51304.08,52548.75,231.92,906.25,0.602093,94.54,1
494757,1,6291,0,51555,53500,51304.58,52550.66,250.42,949.34,0.601481,94.55,1
494797,1,6331,0,51565,53507,51305.11,52552.57,259.89,954.43,0.600862,94.56,1
494837,1,6371,0,51522,53326,51305.54,52554.12,216.46,771.88,0.600240,94.58,1
494878,1,6412,0,51415,53092,51305.76,52555.20,109.24,536.80,0.599614,94.59,1
494918,1,6452,0,51329,52976,51305.80,52556.04,23.20,419.96,0.598987,94.60,1
494958,1,6492,0,51304,52960,51305.80,52556.85,-1.80,403.15,0.598359,94.62,1
494998,1,6532,0,51315,52982,51305.82,52557.70,9.18,424.30,0.597729,94.63,1
495038,1,6572,0,51331,53031,51305.87,52558.65,25.13,472.35,0.597097,94.64,1
495078,1,6612,0,51355,53091,51305.97,52559.71,49.03,531.29,0.596460,94.66,1
495118,1,6652,0,51383,53124,51306.12,52560.84,76.87,563.16,0.595821,94.67,1
495158,1,6692,0,51390,53126,51306.29,52561.98,83.71,564.02,0.595178,94.68,1
495198,1,6732,0,51387,53140,51306.46,52563.13,80.54,576.87,0.594531,94.70,1
495238,1,6772,0,51397,53181,51306.64,52564.37,90.36,616.63,0.593880,94.71,1
495278,1,6812,0,51420,53236,51306.87,52565.71,113.13,670.29,0.593223,94.72,1
495318,1,6852,0,51446,53299,51307.15,52567.18,138.85,731.82,0.592562,94.74,1
495358,1,6892,0,51473,53363,51307.48,52568.78,165.52,794.22,0.591894,94.75,1
495399,1,6933,0,51493,53413,51307.85,52570.47,185.15,842.53,0.591220,94.77,1
495439,1,6973,0,51511,53462,51308.26,52572.25,202.74,889.75,0.590539,94.78,1
495479,1,7013,0,51531,53517,51308.70,52574.14,222.30,942.86,0.589852,94.79,1
495519,1,7053,0,51552,53548,51309.19,52576.09,242.81,971.91,0.589159,94.81,1
495559,1,7093,0,51535,53425,51309.64,52577.79,225.36,847.21,0.588463,94.82,1
495599,1,7133,0,51441,53192,51309.91,52579.02,131.09,612.98,0.587765,94.84,1
495639,1,7173,0,51353,53031,51310.00,52579.93,43.00,451.07,0.587066,94.85,1
495679,1,7213,0,51316,52988,51310.01,52580.75,5.99,407.25,0.586366,94.87,1
495719,1,7253,0,51313,52998,51310.02,52581.58,2.98,416.42,0.585665,94.88,1
495759,1,7293,0,51320,53024,51310.04,52582.47,9.96,441.53,0.584964,94.90,1
495799,1,7333,0,51345,53068,51310.11,52583.44,34.89,484.56,0.584261,94.91,1
495839,1,7373,0,51364,53100,51310.21,52584.48,53.79,515.52,0.583555,94.93,1
495879,1,7413,0,51368,53105,51310.33,52585.52,57.67,519.48,0.582848,94.94,1
495920,1,7454,0,51361,53100,51310.43,52586.55,50.57,513.45,0.582139,94.96,1
495960,1,7494,0,51364,53455,51310.54,52588.29,53.46,866.71,0.581421,94.97,1
496000,1,7534,0,51377,53630,51310.68,52590.37,66.32,1039.63,0.580688,94.99,1
496040,1,7574,0,51403,53238,51310.86,52591.67,92.14,646.33,0.579952,95.00,1
496080,1,7614,0,51434,53310,51311.11,52593.11,122.89,716.89,0.579212,95.02,1
496120,1,7654,0,51464,53370,51311.42,52594.66,152.58,775.34,0.578469,95.03,1
496160,1,7694,0,51494,52971,51311.79,52595.42,182.21,375.58,0.577731,95.05,1
496200,1,7734,0,51514,52873,51312.19,52595.97,201.81,277.03,0.577000,95.07,1
496240,1,7774,0,51530,53511,51312.63,52597.80,217.37,913.20,0.576265,95.08,1
496280,1,7814,0,51548,53556,51313.10,52599.72,234.90,956.28,0.575526,95.10,1
496320,1,7854,0,51566,53576,51313.61,52601.68,252.39,974.32,0.574785,95.11,1
496360,1,7894,0,51541,53416,51314.07,52603.30,226.93,812.70,0.574044,95.13,1
496400,1,7934,0,51434,53181,51314.31,52604.46,119.69,576.54,0.573303,95.15,1
496440,1,7974,0,51344,53038,51314.37,52605.33,29.63,432.67,0.572561,95.16,1
496481,1,8015,0,51494,53006,51314.73,52606.13,179.27,399.87,0.571824,95.18,1
496521,1,8055,0,51648,53023,51315.40,52606.96,332.60,416.04,0.571101,95.19,1
496561,1,8095,0,51328,53058,51315.43,52607.87,12.57,450.13,0.570379,95.21,1
496601,1,8135,0,51356,53109,51315.51,52608.87,40.49,500.13,0.569655,95.23,1
496641,1,8175,0,51377,53139,51315.63,52609.93,61.37,529.07,0.568929,95.24,1
496681,1,8215,0,51115,53149,51315.23,52611.01,-200.23,537.99,0.568207,95.26,1
496721,1,8255,0,50902,53153,51314.41,52612.10,-412.41,540.90,0.567508,95.28,1
496761,1,8295,0,51398,53190,51314.58,52613.25,83.42,576.75,0.566806,95.29,1
496801,1,8335,0,51420,53254,51314.79,52614.54,105.21,639.46,0.566102,95.31,1
496841,1,8375,0,51447,53310,51315.05,52615.93,131.95,694.07,0.565395,95.33,1
496881,1,8415,0,51475,53370,51315.37,52617.43,159.62,752.57,0.564686,95.34,1
496921,1,8455,0,51492,53420,51315.73,52619.04,176.27,800.96,0.563974,95.36,1
496961,1,8495,0,51514,53463,51316.13,52620.73,197.87,842.27,0.563260,95.38,1
497002,1,8536,0,51534,53503,51316.57,52622.49,217.43,880.51,0.562544,95.39,1
497042,1,8576,0,51548,53548,51317.03,52624.34,230.97,923.66,0.561825,95.41,1
497082,1,8616,0,51564,53590,51317.53,52626.28,246.47,963.72,0.561105,95.43,1
497122,1,8656,0,51583,53638,51318.06,52628.30,264.94,1009.70,0.560382,95.44,1
497162,1,8696,0,51609,53688,51318.64,52630.42,290.36,1057.58,0.559659,95.46,1
497202,1,8736,0,51606,53601,51319.21,52632.36,286.79,968.64,0.558936,95.48,1
497242,1,8776,0,51523,53375,51319.62,52633.85,203.37,741.15,0.558215,95.49,1
497282,1,8816,0,51438,53214,51319.86,52635.01,118.14,578.99,0.557493,95.51,1
497322,1,8856,0,51403,53176,51320.03,52636.09,82.97,539.91,0.556771,95.53,1
497362,1,8896,0,51401,53190,51320.20,52637.20,80.80,552.80,0.556047,95.55,1
497402,1,8936,0,51414,53213,51320.38,52638.36,93.62,574.64,0.555324,95.56,1
497442,1,8976,0,51431,53254,51320.61,52639.59,110.39,614.41,0.554599,95.58,1
497482,1,9016,0,51442,53269,51320.85,52640.85,121.15,628.15,0.553873,95.60,1
497522,1,9056,0,51443,53255,51321.09,52642.08,121.91,612.92,0.553147,95.61,1
497563,1,9097,0,51431,53249,51321.32,52643.30,109.68,605.70,0.552421,95.63,1
497603,1,9137,0,51437,53280,51321.55,52644.57,115.45,635.43,0.551693,95.65,1
497643,1,9177,0,51451,53324,51321.81,52645.93,129.19,678.07,0.550964,95.67,1
497683,1,9217,0,51477,53381,51322.12,52647.40,154.87,733.60,0.550234,95.68,1
497723,1,9257,0,51502,53433,51322.48,52648.98,179.52,784.02,0.549504,95.70,1
497763,1,9297,0,51529,53487,51322.90,52650.65,206.10,836.35,0.548772,95.72,1
497803,1,9337,0,51550,53528,51323.36,52652.41,226.64,875.59,0.548041,95.74,1
497843,1,9377,0,51570,53560,51323.85,52654.23,246.15,905.77,0.547311,95.75,1
497883,1,9417,0,51583,53595,51324.37,52656.11,258.63,938.89,0.546581,95.77,1
497923,1,9457,0,51598,53635,51324.92,52658.07,273.08,976.93,0.545852,95.79,1
497963,1,9497,0,51613,53673,51325.50,52660.10,287.50,1012.90,0.545125,95.81,1
498003,1,9537,0,51614,53603,51326.07,52661.99,287.93,941.01,0.544401,95.82,1
498043,1,9577,0,51538,53398,51326.50,52663.46,211.50,734.54,0.543678,95.84,1
498083,1,9617,0,51446,53233,51326.74,52664.60,119.26,568.40,0.542956,95.86,1
498124,1,9658,0,51401,53181,51326.89,52665.64,74.11,515.36,0.542234,95.88,1
498164,1,9698,0,51402,53203,51327.04,52666.71,74.96,536.29,0.541512,95.89,1
498204,1,9738,0,51409,53235,51327.21,52667.85,81.79,567.15,0.540789,95.91,1
498244,1,9778,0,51433,53283,51327.42,52669.08,105.58,613.92,0.540065,95.93,1
498284,1,9818,0,51456,53318,51327.68,52670.38,128.32,647.62,0.539342,95.95,1
498324,1,9858,0,51461,53323,51327.95,52671.68,133.05,651.32,0.538618,95.96,1
498364,1,9898,0,51465,53327,51328.23,52673.00,136.77,654.00,0.537894,95.98,1
498404,1,9938,0,51472,53353,51328.52,52674.36,143.48,678.64,0.537170,96.00,1
498444,1,9978,0,51493,53469,51328.85,52675.95,164.15,793.05,0.536445,96.02,1
498484,1,10018,0,51513,53457,51329.22,52677.51,183.78,779.49,0.535720,96.03,1
498524,1,10058,0,51542,53513,51329.64,52679.18,212.36,833.82,0.534996,96.05,1
498564,1,10098,0,51565,53562,51330.12,52680.95,234.88,881.05,0.534273,96.07,1
498604,1,10138,0,51580,54058,51330.62,52683.70,249.38,1374.30,0.533541,96.09,1
498645,1,10179,0,51599,53553,51331.16,52685.44,267.84,867.56,0.532812,96.11,1
498685,1,10219,0,51609,53680,51331.71,52687.43,277.29,992.57,0.532085,96.12,1
498725,1,10259,0,51625,53729,51332.30,52689.52,292.70,1039.48,0.531361,96.14,1
498765,1,10299,0,51643,53722,51332.93,52691.59,310.07,1030.41,0.530640,96.16,1
498805,1,10339,0,51599,52973,51333.46,52692.15,265.54,280.85,0.529928,96.18,1
498845,1,10379,0,51495,53335,51333.79,52693.43,161.21,641.57,0.529218,96.19,1
498885,1,10419,0,51428,53228,51333.98,52694.50,94.02,533.50,0.528508,96.21,1
498925,1,10459,0,51412,53207,51334.13,52695.53,77.87,511.47,0.527799,96.23,1
498965,1,10499,0,51421,53212,51334.31,52696.57,86.69,515.43,0.527090,96.25,1
499005,1,10539,0,51421,53241,51334.48,52697.66,86.52,543.34,0.526381,96.27,1
499045,1,10579,0,51443,53275,51334.70,52698.81,108.30,576.19,0.525673,96.28,1
499085,1,10619,0,51454,53293,51334.94,52700.00,119.06,593.00,0.524965,96.30,1
499125,1,10659,0,51763,53292,51335.80,52701.19,427.20,590.81,0.524278,96.32,1
499165,1,10699,0,51890,53299,51336.91,52702.38,553.09,596.62,0.523625,96.34,1
499206,1,10740,0,51461,53334,51337.16,52703.65,123.84,630.35,0.522972,96.35,1
499246,1,10780,0,51481,53394,51337.45,52705.03,143.55,688.97,0.522319,96.37,1
499286,1,10820,0,51508,53456,51337.79,52706.54,170.21,749.46,0.521665,96.39,1
499326,1,10860,0,51091,53516,51337.30,52708.16,-246.30,807.84,0.521013,96.41,1
499366,1,10900,0,50968,53567,51336.56,52709.87,-368.56,857.12,0.520372,96.42,1
499406,1,10940,0,51580,53616,51337.05,52711.69,242.95,904.31,0.519731,96.44,1
499446,1,10980,0,51601,53654,51337.58,52713.57,263.42,940.43,0.519091,96.46,1
499486,1,11020,0,51626,53694,51338.16,52715.54,287.84,978.46,0.518452,96.48,1
499526,1,11060,0,51641,53741,51338.76,52717.59,302.24,1023.41,0.517816,96.49,1
499566,1,11100,0,51653,53724,51339.39,52719.60,313.61,1004.40,0.517182,96.51,1
499606,1,11140,0,51604,53523,51339.92,52721.21,264.08,801.79,0.516551,96.53,1
499646,1,11180,0,51500,53310,51340.24,52722.39,159.76,587.61,0.515922,96.55,1
499686,1,11220,0,51425,53207,51340.41,52723.36,84.59,483.64,0.515293,96.56,1
499726,1,11260,0,51407,53188,51340.55,52724.29,66.45,463.71,0.514664,96.58,1
499767,1,11301,0,51412,53196,51340.69,52725.23,71.31,470.77,0.514036,96.60,1
499807,1,11341,0,51417,53233,51340.84,52726.25,76.16,506.75,0.513408,96.61,1
499847,1,11381,0,51438,53272,51341.04,52727.34,96.96,544.66,0.512779,96.63,1
499887,1,11421,0,51452,53289,51341.26,52728.47,110.74,560.53,0.512151,96.65,1
499927,1,11461,0,51453,53296,51341.49,52729.61,111.51,566.39,0.511523,96.67,1
499967,1,11501,0,51458,53311,51341.72,52730.77,116.28,580.23,0.510896,96.68,1
500007,1,11541,0,51475,53352,51341.99,52732.01,133.01,619.99,0.510268,96.70,1
500047,1,11581,0,51502,53403,51342.31,52733.36,159.69,669.64,0.509641,96.72,1
500087,1,11621,0,51522,53457,51342.67,52734.80,179.33,722.20,0.509014,96.73,1
500127,1,11661,0,51545,53506,51343.08,52736.35,201.92,769.65,0.508388,96.75,1
500167,1,11701,0,51571,53555,51343.54,52737.98,227.46,817.02,0.507763,96.77,1
500207,1,11741,0,51583,53592,51344.02,52739.70,238.98,852.30,0.507140,96.78,1
500247,1,11781,0,51598,53624,51344.52,52741.46,253.48,882.54,0.506518,96.80,1
500287,1,11821,0,51614,53654,51345.06,52743.29,268.94,910.71,0.505898,96.82,1
500328,1,11862,0,51629,53691,51345.63,52745.19,283.37,945.81,0.505281,96.83,1
500368,1,11902,0,51640,53740,51346.22,52747.18,293.78,992.82,0.504665,96.85,1
500408,1,11942,0,51657,53760,51346.84,52749.21,310.16,1010.79,0.504053,96.87,1
500448,1,11982,0,51635,53613,51347.42,52750.94,287.58,862.06,0.503445,96.88,1
500488,1,12022,0,51534,53380,51347.80,52752.20,186.20,627.80,0.502838,96.90,1
500528,1,12062,0,51449,53246,51348.00,52753.19,101.00,492.81,0.502232,96.91,1
500568,1,12102,0,51427,53227,51348.16,52754.14,78.84,472.86,0.501626,96.93,1
500608,1,12142,0,51440,53240,51348.34,52755.11,91.66,484.89,0.501022,96.95,1
500648,1,12182,0,51445,53268,51348.54,52756.14,96.46,511.86,0.500417,96.96,1
500688,1,12222,0,51463,53303,51348.77,52757.23,114.23,545.77,0.499813,96.98,1
500728,1,12262,0,51478,53315,51349.03,52758.35,128.97,556.65,0.499210,97.00,1
500768,1,12302,0,51474,53297,51349.28,52759.43,124.72,537.57,0.498607,97.01,1
500808,1,12342,0,51461,53289,51349.51,52760.48,111.49,528.52,0.498005,97.03,1
500848,1,12382,0,51464,53311,51349.74,52761.59,114.26,549.41,0.497404,97.04,1
500889,1,12423,0,51481,53358,51350.00,52762.78,131.00,595.22,0.496803,97.06,1
500929,1,12463,0,51504,53413,51350.31,52764.08,153.69,648.92,0.496202,97.08,1
500969,1,12503,0,51529,53467,51350.67,52765.49,178.33,701.51,0.495602,97.09,1
501009,1,12543,0,51553,53516,51351.08,52766.99,201.92,749.01,0.495004,97.11,1
501049,1,12583,0,51570,53578,51351.52,52768.62,218.48,809.38,0.494406,97.12,1
501089,1,12623,0,51586,53593,51351.98,52770.27,234.02,822.73,0.493810,97.14,1
501129,1,12663,0,51605,53620,51352.49,52771.96,252.51,848.04,0.493216,97.16,1
501169,1,12703,0,51617,53649,51353.02,52773.72,263.98,875.28,0.492625,97.17,1
501209,1,12743,0,51632,54078,51353.58,52776.33,278.42,1301.67,0.492029,97.19,1
501249,1,12783,0,51599,53450,51354.07,52777.68,244.93,672.32,0.491437,97.20,1
501289,1,12823,0,51495,53266,51354.36,52778.65,140.64,487.35,0.490847,97.22,1
501329,1,12863,0,51410,53154,51354.47,52779.41,55.53,374.59,0.490258,97.24,1
501369,1,12903,0,51396,53152,51354.55,52780.15,41.45,371.85,0.489669,97.25,1
501410,1,12944,0,51406,52608,51354.66,52779.81,51.34,-171.81,0.489082,97.27,1
501450,1,12984,0,51424,53232,51354.80,52780.71,69.20,451.29,0.488496,97.28,1
501490,1,13024,0,51446,53281,51354.98,52781.71,91.02,499.29,0.487910,97.30,1
501530,1,13064,0,51467,53286,51355.21,52782.73,111.79,503.27,0.487325,97.31,1
501570,1,13104,0,51461,53289,51355.43,52783.74,105.57,505.26,0.486740,97.33,1
501610,1,13144,0,51461,53293,51355.64,52784.76,105.36,508.24,0.486156,97.34,1
501650,1,13184,0,51476,53327,51355.88,52785.85,120.12,541.15,0.485573,97.36,1
501690,1,13224,0,51499,53380,51356.17,52787.04,142.83,592.96,0.484991,97.38,1
501730,1,13264,0,51885,53439,51357.23,52788.34,527.77,650.66,0.484439,97.39,1
501770,1,13304,0,52032,53490,51358.58,52789.75,673.42,700.25,0.483934,97.41,1
501810,1,13344,0,51571,53538,51359.00,52791.25,212.00,746.75,0.483429,97.42,1
501850,1,13384,0,51588,53574,51359.46,52792.81,228.54,781.19,0.482926,97.44,1
501890,1,13424,0,51602,53614,51359.95,52794.46,242.05,819.54,0.482424,97.45,1
501931,1,13465,0,51092,53641,51359.42,52796.15,-267.42,844.85,0.481923,97.47,1
501971,1,13505,0,50924,53541,51358.55,52797.64,-434.55,743.36,0.481439,97.48,1
502011,1,13545,0,51517,53287,51358.86,52798.62,158.14,488.37,0.480956,97.50,1
502051,1,13585,0,51414,53107,51358.98,52799.24,55.02,307.76,0.480474,97.51,1
502091,1,13625,0,51370,53068,51359.00,52799.78,11.00,268.22,0.479993,97.53,1
502131,1,13665,0,51377,53084,51359.04,52800.35,17.96,283.65,0.479513,97.54,1
502171,1,13705,0,51387,53108,51359.10,52800.97,27.90,307.03,0.479033,97.55,1
502211,1,13745,0,51409,53153,51359.20,52801.68,49.80,351.32,0.478553,97.57,1
502251,1,13785,0,51426,53188,51359.34,52802.45,66.66,385.55,0.478074,97.58,1
502291,1,13825,0,51435,53186,51359.49,52803.22,75.51,382.78,0.477595,97.60,1
502331,1,13865,0,51437,53179,51359.64,52803.97,77.36,375.03,0.477117,97.61,1
502371,1,13905,0,51436,53200,51359.80,52804.77,76.20,395.23,0.476639,97.63,1
502411,1,13945,0,51452,53247,51359.98,52805.65,92.02,441.35,0.476162,97.64,1
502452,1,13986,0,51476,53303,51360.22,52806.65,115.78,496.35,0.475685,97.65,1
502492,1,14026,0,51499,53369,51360.50,52807.77,138.50,561.23,0.475208,97.67,1
502532,1,14066,0,51526,53422,51360.83,52809.00,165.17,613.00,0.474731,97.68,1
502572,1,14106,0,51548,53468,51361.20,52810.32,186.80,657.68,0.474256,97.70,1
502612,1,14146,0,51568,53517,51361.62,52811.74,206.38,705.26,0.473781,97.71,1
502652,1,14186,0,51590,53564,51362.07,52813.25,227.93,750.75,0.473307,97.72,1
502692,1,14226,0,51610,53543,51362.57,52814.71,247.43,728.29,0.472836,97.74,1
502732,1,14266,0,51555,53317,51362.96,52815.71,192.04,501.29,0.472369,97.75,1
502772,1,14306,0,51439,53076,51363.11,52816.24,75.89,259.76,0.471902,97.76,1
502812,1,14346,0,51359,52961,51363.10,52816.53,-4.10,144.47,0.471437,97.78,1
502852,1,14386,0,51342,52950,51363.06,52816.80,-21.06,133.20,0.470973,97.79,1
502892,1,14426,0,51345,52966,51363.03,52817.10,-18.03,148.90,0.470510,97.80,1
502932,1,14466,0,51357,53007,51363.02,52817.48,-6.02,189.52,0.470048,97.82,1
502973,1,14507,0,51385,53053,51363.06,52817.95,21.94,235.05,0.469587,97.83,1
503013,1,14547,0,51396,53074,51363.13,52818.46,32.87,255.54,0.469126,97.84,1
503053,1,14587,0,51398,53072,51363.20,52818.97,34.80,253.03,0.468667,97.86,1
503093,1,14627,0,51403,53081,51363.28,52819.50,39.72,261.50,0.468208,97.87,1
503133,1,14667,0,51415,53125,51363.39,52820.11,51.61,304.89,0.467750,97.88,1
503173,1,14707,0,51442,53189,51363.55,52820.85,78.45,368.15,0.467292,97.90,1
503213,1,14747,0,51476,53252,51363.77,52821.71,112.23,430.29,0.466836,97.91,1
503253,1,14787,0,51508,53312,51364.06,52822.70,143.94,489.30,0.466380,97.92,1
503293,1,14827,0,51531,53360,51364.40,52823.77,166.60,536.23,0.465926,97.94,1
503333,1,14867,0,51548,53400,51364.77,52824.92,183.23,575.08,0.465473,97.95,1
503373,1,14907,0,51569,53440,51365.18,52826.15,203.82,613.85,0.465023,97.96,1
503413,1,14947,0,51587,53480,51365.62,52827.46,221.38,652.54,0.464575,97.97,1
503453,1,14987,0,51596,53485,51366.08,52828.78,229.92,656.22,0.464130,97.99,1
503493,1,15027,0,51560,53292,51366.47,52829.71,193.53,462.29,0.463689,98.00,1
503534,1,15068,0,51444,53030,51366.63,52830.11,77.37,199.89,0.463249,98.01,1
503574,1,15108,0,51351,52906,51366.60,52830.26,-15.60,75.74,0.462811,98.02,1
503614,1,15148,0,51330,52904,51366.53,52830.41,-36.53,73.59,0.462374,98.04,1
503654,1,15188,0,51343,53184,51366.48,52831.12,-23.48,352.88,0.461937,98.05,1
503694,1,15228,0,51359,53374,51366.47,52832.20,-7.47,541.80,0.461497,98.06,1
503734,1,15268,0,51388,53041,51366.51,52832.62,21.49,208.38,0.461058,98.07,1
503774,1,15308,0,51415,53057,51366.61,52833.07,48.39,223.93,0.460621,98.09,1
503814,1,15348,0,51424,53055,51366.73,52833.52,57.27,221.48,0.460184,98.10,1
503854,1,15388,0,51419,52730,51366.83,52833.31,52.17,-103.31,0.459749,98.11,1
503894,1,15428,0,51427,52563,51366.95,52832.77,60.05,-269.77,0.459315,98.12,1
503934,1,15468,0,51451,53148,51367.12,52833.40,83.88,314.60,0.458882,98.14,1
503974,1,15508,0,51481,53207,51367.35,52834.15,113.65,372.85,0.458450,98.15,1
504014,1,15548,0,51505,53259,51367.63,52835.00,137.37,424.00,0.458019,98.16,1
504055,1,15589,0,51521,53310,51367.94,52835.96,153.06,474.04,0.457591,98.17,1
504095,1,15629,0,51545,53354,51368.29,52837.00,176.71,517.00,0.457164,98.18,1
504135,1,15669,0,51559,53398,51368.68,52838.12,190.32,559.88,0.456740,98.20,1
504175,1,15709,0,51651,53436,51369.24,52839.32,281.76,596.68,0.456324,98.21,1
504215,1,15749,0,51802,53486,51370.11,52840.61,431.89,645.39,0.455929,98.22,1
504255,1,15789,0,51615,53484,51370.60,52841.90,244.40,642.10,0.455539,98.23,1
504295,1,15829,0,51565,53268,51370.99,52842.75,194.01,425.25,0.455152,98.24,1
504335,1,15869,0,51458,53036,51371.17,52843.14,86.83,192.86,0.454767,98.25,1
504375,1,15909,0,51336,52953,51371.10,52843.36,-35.10,109.64,0.454383,98.27,1
504415,1,15949,0,51170,52976,51370.70,52843.63,-200.70,132.37,0.454006,98.28,1
504455,1,15989,0,51405,53014,51370.77,52843.97,34.23,170.03,0.453630,98.29,1
504495,1,16029,0,51430,53070,51370.89,52844.43,59.11,225.57,0.453254,98.30,1
504535,1,16069,0,51447,53111,51371.04,52844.96,75.96,266.04,0.452880,98.31,1
504575,1,16109,0,51452,53107,51371.20,52845.49,80.80,261.51,0.452507,98.32,1
504616,1,16150,0,51449,53087,51371.36,52845.97,77.64,241.03,0.452134,98.33,1
504656,1,16190,0,51440,53104,51371.50,52846.49,68.50,257.51,0.451763,98.35,1
504696,1,16230,0,51456,53151,51371.67,52847.10,84.33,303.90,0.451392,98.36,1
504736,1,16270,0,51482,53208,51371.89,52847.82,110.11,360.18,0.451023,98.37,1
504776,1,16310,0,51511,53269,51372.17,52848.66,138.83,420.34,0.450654,98.38,1
504816,1,16350,0,51535,53328,51372.50,52849.62,162.50,478.37,0.450287,98.39,1
504856,1,16390,0,51557,53371,51372.87,52850.67,184.13,520.33,0.449923,98.40,1
504896,1,16430,0,51580,53401,51373.29,52851.77,206.71,549.23,0.449561,98.41,1
504936,1,16470,0,51598,53442,51373.73,52852.95,224.27,589.05,0.449203,98.42,1
504976,1,16510,0,51609,53483,51374.21,52854.21,234.79,628.79,0.448848,98.43,1
505016,1,16550,0,51626,53447,51374.71,52855.40,251.29,591.60,0.448498,98.44,1
505056,1,16590,0,51557,53224,51375.08,52856.14,181.92,367.86,0.448151,98.45,1
505096,1,16630,0,51447,53007,51375.22,52856.45,71.78,150.55,0.447807,98.46,1
505136,1,16670,0,51382,52941,51375.24,52856.62,6.76,84.38,0.447463,98.47,1
505177,1,16711,0,51387,52963,51375.26,52856.83,11.74,106.17,0.447120,98.49,1
505217,1,16751,0,51399,53012,51375.31,52857.14,23.69,154.86,0.446778,98.50,1
505257,1,16791,0,51419,53076,51375.40,52857.58,43.60,218.42,0.446437,98.51,1
505297,1,16831,0,51448,53112,51375.55,52858.09,72.45,253.91,0.446096,98.52,1
505337,1,16871,0,51457,53120,51375.71,52858.62,81.29,261.38,0.445756,98.53,1
505377,1,16911,0,51451,53121,51375.86,52859.14,75.14,261.86,0.445417,98.54,1
505417,1,16951,0,51458,53145,51376.03,52859.72,81.97,285.28,0.445079,98.55,1
505457,1,16991,0,51480,53194,51376.24,52860.39,103.76,333.61,0.444742,98.56,1
505497,1,17031,0,51511,53258,51376.51,52861.19,134.49,396.81,0.444406,98.57,1
505537,1,17071,0,51538,53321,51376.83,52862.11,161.17,458.89,0.444071,98.58,1
505577,1,17111,0,51561,53376,51377.20,52863.14,183.80,512.86,0.443739,98.59,1
505617,1,17151,0,51586,53422,51377.62,52864.25,208.38,557.75,0.443409,98.60,1
505657,1,17191,0,51595,53462,51378.06,52865.45,216.94,596.55,0.443082,98.61,1
505697,1,17231,0,51611,53504,51378.53,52866.73,232.47,637.27,0.442758,98.62,1
505738,1,17272,0,51632,53529,51379.04,52868.05,252.96,660.95,0.442438,98.63,1
505778,1,17312,0,51610,53387,51379.50,52869.09,230.50,517.91,0.442123,98.64,1
505818,1,17352,0,51501,53137,51379.75,52869.63,121.25,267.37,0.441809,98.64,1
505858,1,17392,0,51399,52980,51379.79,52869.85,19.21,110.15,0.441497,98.65,1
505898,1,17432,0,51376,52956,51379.78,52870.02,-3.78,85.98,0.441185,98.66,1
505938,1,17472,0,51377,52979,51379.77,52870.24,-2.77,108.76,0.440874,98.67,1
505978,1,17512,0,51389,53018,51379.79,52870.54,9.21,147.46,0.440564,98.68,1
506018,1,17552,0,51416,53073,51379.87,52870.95,36.13,202.05,0.440254,98.69,1
506058,1,17592,0,51441,53103,51379.99,52871.41,61.01,231.59,0.439945,98.70,1
506098,1,17632,0,51451,53108,51380.14,52871.88,70.86,236.12,0.439636,98.71,1
506138,1,17672,0,51444,53120,51380.27,52872.38,63.73,247.62,0.439328,98.72,1
506178,1,17712,0,51458,53151,51380.42,52872.94,77.58,278.06,0.439020,98.73,1
506218,1,17752,0,51476,53207,51380.61,52873.61,95.39,333.39,0.438713,98.74,1
506258,1,17792,0,51501,53352,51380.86,52874.56,120.14,477.44,0.438405,98.75,1
506298,1,17832,0,51529,53544,51381.15,52875.90,147.85,668.10,0.438094,98.76,1
506339,1,17873,0,51549,53386,51381.49,52876.93,167.51,509.07,0.437783,98.77,1
506379,1,17913,0,51573,53435,51381.87,52878.04,191.13,556.96,0.437474,98.77,1
506419,1,17953,0,51589,53487,51382.29,52879.26,206.71,607.74,0.437167,98.78,1
506459,1,17993,0,51611,53502,51382.74,52880.51,228.26,621.49,0.436862,98.79,1
506499,1,18033,0,51631,53331,51383.24,52881.41,247.76,449.59,0.436566,98.80,1
506539,1,18073,0,51595,53396,51383.66,52882.44,211.34,513.56,0.436273,98.81,1
506579,1,18113,0,51495,53154,51383.89,52882.98,111.11,271.02,0.435982,98.82,1
506619,1,18153,0,51415,53029,51383.95,52883.28,31.05,145.72,0.435691,98.83,1
506659,1,18193,0,51390,52234,51383.96,52881.98,6.04,-647.98,0.435394,98.84,1
506699,1,18233,0,51397,53042,51383.99,52882.30,13.01,159.70,0.435096,98.84,1
506739,1,18273,0,51411,53076,51384.04,52882.69,26.96,193.31,0.434799,98.85,1
506779,1,18313,0,51435,53126,51384.14,52883.18,50.86,242.82,0.434503,98.86,1
506819,1,18353,0,51451,53163,51384.28,52883.74,66.72,279.26,0.434206,98.87,1
506859,1,18393,0,51459,53169,51384.43,52884.31,74.57,284.69,0.433910,98.88,1
506900,1,18434,0,51460,53177,51384.59,52884.90,75.41,292.10,0.433614,98.89,1
506940,1,18474,0,51468,53223,51384.75,52885.57,83.25,337.43,0.433318,98.90,1
506980,1,18514,0,51849,53292,51385.68,52886.39,463.32,405.61,0.433059,98.90,1
507020,1,18554,0,52002,53351,51386.92,52887.32,615.08,463.68,0.432864,98.91,1
507060,1,18594,0,51552,53422,51387.25,52888.39,164.75,533.61,0.432668,98.92,1
507100,1,18634,0,51574,53483,51387.62,52889.58,186.37,593.42,0.432471,98.93,1
507140,1,18674,0,51603,53532,51388.06,52890.86,214.94,641.14,0.432273,98.94,1
507180,1,18714,0,51190,53571,51387.66,52892.23,-197.66,678.77,0.432072,98.94,1
507220,1,18754,0,51079,53617,51387.05,52893.68,-308.05,723.32,0.431878,98.95,1
507260,1,18794,0,51661,53663,51387.60,52895.21,273.40,767.79,0.431683,98.96,1
507300,1,18834,0,51675,53649,51388.17,52896.72,286.83,752.28,0.431491,98.97,1
507340,1,18874,0,51622,53458,51388.64,52897.85,233.36,560.15,0.431302,98.97,1
507380,1,18914,0,51513,53243,51388.89,52898.54,124.11,344.46,0.431114,98.98,1
507420,1,18954,0,51443,53153,51389.00,52899.05,54.00,253.95,0.430925,98.99,1
507461,1,18995,0,51427,53151,51389.08,52899.55,37.92,251.45,0.430735,99.00,1
507501,1,19035,0,51434,53177,51389.17,52900.11,44.83,276.89,0.430545,99.00,1
507541,1,19075,0,51449,53226,51389.29,52900.76,59.71,325.24,0.430354,99.01,1
507581,1,19115,0,51472,53270,51389.46,52901.50,82.54,368.50,0.430162,99.02,1
507621,1,19155,0,51490,53292,51389.66,52902.28,100.34,389.72,0.429969,99.02,1
507661,1,19195,0,51491,53296,51389.86,52903.07,101.14,392.93,0.429774,99.03,1
507701,1,19235,0,51497,53319,51390.08,52903.90,106.92,415.10,0.429579,99.04,1
507741,1,19275,0,51518,53356,51390.34,52904.81,127.66,451.19,0.429382,99.05,1
507781,1,19315,0,51541,53420,51390.64,52905.84,150.36,514.16,0.429185,99.05,1
507821,1,19355,0,51560,53472,51390.98,52906.97,169.02,565.03,0.428986,99.06,1
507861,1,19395,0,51585,53524,51391.37,52908.21,193.63,615.79,0.428786,99.07,1
507901,1,19435,0,51606,53568,51391.80,52909.53,214.20,658.47,0.428585,99.07,1
507941,1,19475,0,51620,53603,51392.25,52910.91,227.75,692.09,0.428383,99.08,1
507981,1,19515,0,51634,53641,51392.74,52912.37,241.26,728.62,0.428181,99.09,1
508022,1,19556,0,51648,53674,51393.25,52913.90,254.75,760.10,0.427979,99.09,1
508062,1,19596,0,51660,53719,51393.79,52915.51,266.21,803.49,0.427776,99.10,1
508102,1,19636,0,51675,53723,51394.35,52917.13,280.65,805.87,0.427573,99.10,1
508142,1,19676,0,51631,53552,51394.82,52918.40,236.18,633.60,0.427372,99.11,1
508182,1,19716,0,51539,53360,51395.11,52919.28,143.89,440.72,0.427171,99.12,1
508222,1,19756,0,51473,53292,51395.27,52920.03,77.73,371.97,0.426969,99.12,1
508262,1,19796,0,51471,53304,51395.42,52920.80,75.58,383.20,0.426766,99.13,1
508302,1,19836,0,51492,53336,51395.62,52921.63,96.38,414.37,0.426561,99.14,1
508342,1,19876,0,51509,53378,51395.84,52922.54,113.16,455.46,0.426355,99.14,1
508382,1,19916,0,51527,53418,51396.11,52923.54,130.89,494.46,0.426148,99.15,1
508422,1,19956,0,51534,53414,51396.38,52924.52,137.62,489.48,0.425939,99.15,1
508462,1,19996,0,51524,53409,51396.64,52925.48,127.36,483.52,0.425729,99.16,1
508502,1,20036,0,51530,53415,51396.91,52926.46,133.09,488.54,0.425518,99.17,1
508542,1,20076,0,51537,53454,51397.19,52927.52,139.81,526.48,0.425306,99.17,1
508583,1,20117,0,51556,53501,51397.51,52928.67,158.49,572.33,0.425091,99.18,1
508623,1,20157,0,51576,53559,51397.87,52929.93,178.13,629.07,0.424875,99.18,1
508663,1,20197,0,51598,53614,51398.27,52931.30,199.73,682.70,0.424657,99.19,1
508703,1,20237,0,51616,53654,51398.71,52932.75,217.29,721.25,0.424438,99.20,1
508743,1,20277,0,51635,53694,51399.18,52934.27,235.82,759.73,0.424217,99.20,1
508783,1,20317,0,51651,53737,51399.69,52935.87,251.31,801.12,0.423995,99.21,1
508823,1,20357,0,51670,53782,51400.23,52937.57,269.77,844.43,0.423772,99.21,1
508863,1,20397,0,51685,53749,51400.80,52939.20,284.20,809.80,0.423551,99.22,1
508903,1,20437,0,51627,53565,51401.25,52940.45,225.75,624.55,0.423331,99.23,1
508943,1,20477,0,51534,53514,51401.52,52941.60,132.48,572.40,0.423109,99.23,1
508983,1,20517,0,51478,53331,51401.67,52942.38,76.33,388.62,0.422886,99.24,1
509023,1,20557,0,51477,53345,51401.82,52943.18,75.18,401.82,0.422661,99.24,1
509063,1,20597,0,51486,53375,51401.99,52944.05,84.01,430.95,0.422435,99.25,1
509103,1,20637,0,51507,53957,51402.20,52946.07,104.80,1010.93,0.422193,99.26,1
509144,1,20678,0,51528,53333,51402.46,52946.85,125.54,386.15,0.421951,99.26,1
509184,1,20718,0,51530,53456,51402.71,52947.87,127.29,508.13,0.421709,99.27,1
509224,1,20758,0,51524,53460,51402.96,52948.89,121.04,511.11,0.421464,99.27,1
509264,1,20798,0,51531,53474,51403.21,52949.95,127.79,524.05,0.421219,99.28,1
509304,1,20838,0,51546,52828,51403.50,52949.70,142.50,-121.70,0.420977,99.28,1
509344,1,20878,0,51571,53584,51403.84,52950.97,167.16,633.03,0.420733,99.29,1
509384,1,20918,0,51598,53644,51404.23,52952.36,193.77,691.64,0.420488,99.30,1
509424,1,20958,0,51629,53695,51404.68,52953.85,224.32,741.15,0.420242,99.30,1
509464,1,20998,0,51649,53735,51405.16,52955.41,243.84,779.59,0.419996,99.31,1
509504,1,21038,0,51664,53773,51405.68,52957.05,258.32,815.95,0.419749,99.31,1
509544,1,21078,0,51676,53811,51406.23,52958.76,269.77,852.24,0.419503,99.32,1
509584,1,21118,0,51695,53829,51406.80,52960.50,288.20,868.50,0.419258,99.33,1
509624,1,21158,0,51942,53688,51407.87,52961.96,534.12,726.04,0.419047,99.33,1
509664,1,21198,0,52002,53473,51409.07,52962.98,592.93,510.02,0.418884,99.34,1
509705,1,21239,0,51489,53343,51409.23,52963.74,79.77,379.26,0.418719,99.34,1
509745,1,21279,0,51453,53313,51409.32,52964.44,43.68,348.56,0.418552,99.35,1
509785,1,21319,0,51456,53326,51409.41,52965.16,46.59,360.84,0.418385,99.36,1
509825,1,21359,0,51165,53348,51408.92,52965.93,-243.92,382.07,0.418223,99.36,1
509865,1,21399,0,50941,53393,51407.99,52966.79,-466.99,426.21,0.418091,99.37,1
509905,1,21439,0,51499,53425,51408.17,52967.70,90.83,457.30,0.417955,99.37,1
509945,1,21479,0,51507,53435,51408.37,52968.64,98.63,466.36,0.417818,99.38,1
509985,1,21519,0,51516,53440,51408.59,52969.59,107.41,470.41,0.417678,99.38,1
510025,1,21559,0,51526,53465,51408.82,52970.58,117.18,494.42,0.417537,99.39,1
510065,1,21599,0,51542,53522,51409.09,52971.68,132.91,550.32,0.417392,99.39,1
510105,1,21639,0,51568,53575,51409.41,52972.89,158.59,602.11,0.417245,99.40,1
510145,1,21679,0,51592,53628,51409.78,52974.20,182.22,653.80,0.417096,99.40,1
510185,1,21719,0,51610,53679,51410.18,52975.61,199.82,703.39,0.416943,99.41,1
510225,1,21759,0,51630,53714,51410.62,52977.09,219.38,736.91,0.416789,99.41,1
510266,1,21800,0,51646,53753,51411.09,52978.64,234.91,774.36,0.416631,99.42,1
510306,1,21840,0,51657,53796,51411.59,52980.28,245.41,815.72,0.416472,99.42,1
510346,1,21880,0,51674,53830,51412.11,52981.98,261.89,848.02,0.416309,99.43,1
510386,1,21920,0,51655,53702,51412.60,52983.42,242.40,718.58,0.416147,99.43,1
510426,1,21960,0,51565,53497,51412.91,52984.45,152.09,512.55,0.415983,99.44,1
510466,1,22000,0,51485,53379,51413.05,52985.24,71.95,393.76,0.415819,99.44,1
510506,1,22040,0,51458,53352,51413.14,52985.97,44.86,366.03,0.415653,99.45,1
510546,1,22080,0,51466,53365,51413.25,52986.73,52.75,378.27,0.415485,99.45,1
510586,1,22120,0,51474,53378,51413.37,52987.52,60.63,390.48,0.415315,99.46,1
510626,1,22160,0,51494,53423,51413.53,52988.39,80.47,434.61,0.415144,99.46,1
510666,1,22200,0,51510,53443,51413.73,52989.30,96.27,453.70,0.414971,99.47,1
510706,1,22240,0,51512,53440,51413.93,52990.20,98.07,449.80,0.414797,99.47,1
510746,1,22280,0,51503,53449,51414.11,52991.12,88.89,457.88,0.414620,99.48,1
510786,1,22320,0,51514,53483,51414.30,52992.10,99.70,490.90,0.414441,99.48,1
510827,1,22361,0,51531,53525,51414.54,52993.17,116.46,531.83,0.414260,99.49,1
510867,1,22401,0,51551,53584,51414.81,52994.35,136.19,589.65,0.414076,99.49,1
510907,1,22441,0,51573,53640,51415.13,52995.64,157.87,644.36,0.413890,99.50,1
510947,1,22481,0,51600,53685,51415.50,52997.02,184.50,687.98,0.413700,99.50,1
510987,1,22521,0,51618,53734,51415.91,52998.50,202.09,735.50,0.413508,99.51,1
511027,1,22561,0,51634,53780,51416.34,53000.06,217.66,779.94,0.413314,99.51,1
511067,1,22601,0,51656,53824,51416.82,53001.71,239.18,822.29,0.413117,99.52,1
511107,1,22641,0,51675,53863,51417.34,53003.43,257.66,859.57,0.412918,99.52,1
511147,1,22681,0,51691,53868,51417.89,53005.16,273.11,862.84,0.412719,99.53,1
511187,1,22721,0,51656,53716,51418.37,53006.59,237.63,709.41,0.412520,99.53,1
511227,1,22761,0,51562,53521,51418.66,53007.62,143.34,513.38,0.412320,99.54,1
511267,1,22801,0,51498,53423,51418.82,53008.45,79.18,414.55,0.412119,99.54,1
511307,1,22841,0,51478,53413,51418.94,53009.26,59.06,403.74,0.411917,99.55,1
511347,1,22881,0,51481,53430,51419.06,53010.10,61.94,419.90,0.411713,99.55,1
511388,1,22922,0,51490,53458,51419.21,53011.00,70.79,447.00,0.411507,99.56,1
511428,1,22962,0,51511,53499,51419.39,53011.98,91.61,487.02,0.411299,99.56,1
511468,1,23002,0,51514,53513,51419.58,53012.98,94.42,500.02,0.411089,99.57,1
511508,1,23042,0,51520,53506,51419.79,53013.97,100.21,492.03,0.410877,99.57,1
511548,1,23082,0,51523,53523,51419.99,53014.99,103.01,508.01,0.410664,99.58,1
511588,1,23122,0,51531,53562,51420.21,53016.08,110.79,545.92,0.410448,99.58,1
511628,1,23162,0,51556,53613,51420.49,53017.28,135.51,595.72,0.410230,99.58,1
511668,1,23202,0,51583,53662,51420.82,53018.57,162.18,643.43,0.410010,99.59,1
511708,1,23242,0,51603,54113,51421.18,53020.76,181.82,1092.24,0.409776,99.59,1
511748,1,23282,0,51624,54261,51421.59,53023.24,202.41,1237.76,0.409527,99.60,1
511788,1,23322,0,51638,53782,51422.02,53024.76,215.98,757.24,0.409277,99.60,1
511828,1,23362,0,51648,53820,51422.48,53026.35,225.52,793.65,0.409026,99.61,1
511868,1,23402,0,51664,53858,51422.96,53028.02,241.04,829.98,0.408774,99.62,1
511908,1,23442,0,51677,53371,51423.47,53028.70,253.53,342.30,0.408531,99.62,1
511949,1,23483,0,51679,53189,51423.98,53029.02,255.02,159.98,0.408297,99.63,1
511989,1,23523,0,51616,53664,51424.37,53030.29,191.63,633.71,0.408063,99.63,1
512029,1,23563,0,51535,53534,51424.59,53031.30,110.41,502.70,0.407828,99.64,1
512069,1,23603,0,51505,53508,51424.75,53032.25,80.25,475.75,0.407591,99.64,1
512109,1,23643,0,51512,53533,51424.93,53033.26,87.07,499.74,0.407353,99.65,1
512149,1,23683,0,51527,53575,51425.14,53034.34,101.86,540.66,0.407112,99.65,1
512189,1,23723,0,51552,53613,51425.39,53035.50,126.61,577.50,0.406870,99.66,1
512229,1,23763,0,51729,53617,51426.00,53036.67,303.00,580.33,0.406636,99.66,1
512269,1,23803,0,51877,53603,51426.90,53037.80,450.10,565.20,0.406428,99.67,1
512309,1,23843,0,51550,53597,51427.15,53038.92,122.85,558.08,0.406217,99.67,1
512349,1,23883,0,51554,53612,51427.40,53040.07,126.60,571.93,0.406005,99.68,1
512389,1,23923,0,51570,53652,51427.69,53041.30,142.31,610.70,0.405790,99.68,1
512429,1,23963,0,51430,53701,51427.70,53042.62,2.30,658.38,0.405570,99.69,1
512469,1,24003,0,51231,53743,51427.30,53044.02,-196.30,698.98,0.405348,99.69,1
512510,1,24044,0,51627,53788,51427.71,53045.51,199.29,742.49,0.405125,99.70,1
512550,1,24084,0,51638,53831,51428.13,53047.08,209.87,783.92,0.404900,99.70,1
512590,1,24124,0,51656,53869,51428.59,53048.73,227.41,820.27,0.404674,99.71,1
512630,1,24164,0,51674,53909,51429.08,53050.45,244.92,858.55,0.404446,99.72,1
512670,1,24204,0,51690,53924,51429.60,53052.20,260.40,871.80,0.404217,99.72,1
512710,1,24244,0,51657,53788,51430.06,53053.67,226.94,734.33,0.403989,99.73,1
512750,1,24284,0,51576,53596,51430.35,53054.76,145.65,541.24,0.403760,99.73,1
512790,1,24324,0,51513,53499,51430.52,53055.65,82.48,443.35,0.403530,99.74,1
512830,1,24364,0,51499,53483,51430.66,53056.50,68.34,426.50,0.403299,99.74,1
512870,1,24404,0,51502,53501,51430.80,53057.39,71.20,443.61,0.403067,99.75,1
512910,1,24444,0,51510,53533,51430.96,53058.35,79.04,474.65,0.402833,99.75,1
512950,1,24484,0,51532,53572,51431.16,53059.37,100.84,512.62,0.402597,99.76,1
512990,1,24524,0,51539,53578,51431.38,53060.41,107.62,517.59,0.402361,99.76,1
513030,1,24564,0,51535,53567,51431.59,53061.43,103.41,505.57,0.402122,99.77,1
513071,1,24605,0,51535,53572,51431.80,53062.45,103.20,509.55,0.401883,99.78,1
513111,1,24645,0,51542,53603,51432.02,53063.54,109.98,539.46,0.401642,99.78,1
513151,1,24685,0,51552,53651,51432.26,53064.71,119.74,586.29,0.401399,99.79,1
513191,1,24725,0,51574,53704,51432.55,53065.99,141.45,638.01,0.401154,99.79,1
513231,1,24765,0,51604,53760,51432.89,53067.38,171.11,692.62,0.400907,99.80,1
513271,1,24805,0,51625,53805,51433.28,53068.86,191.72,736.14,0.400659,99.80,1
513311,1,24845,0,51645,53840,51433.70,53070.40,211.30,769.60,0.400411,99.81,1
513351,1,24885,0,51662,53877,51434.16,53072.02,227.84,804.98,0.400161,99.81,1
513391,1,24925,0,51678,53911,51434.65,53073.70,243.35,837.30,0.399911,99.82,1
513431,1,24965,0,51682,53862,51435.14,53075.27,246.86,786.73,0.399663,99.83,1
513471,1,25005,0,51614,53657,51435.50,53076.44,178.50,580.56,0.399415,99.83,1
513511,1,25045,0,51521,53477,51435.68,53077.24,85.32,399.76,0.399167,99.84,1
513551,1,25085,0,51464,53407,51435.73,53077.90,28.27,329.10,0.398918,99.84,1
513591,1,25125,0,51456,53399,51435.78,53078.54,20.22,320.46,0.398669,99.85,1
513632,1,25166,0,51459,53411,51435.82,53079.21,23.18,331.79,0.398419,99.85,1
513672,1,25206,0,51469,53444,51435.89,53079.94,33.11,364.06,0.398169,99.85,1
513712,1,25246,0,51484,53482,51435.99,53080.75,48.01,401.25,0.397917,99.86,1
513752,1,25286,0,51497,53495,51436.11,53081.57,60.89,413.43,0.397664,99.86,1
513792,1,25326,0,51499,53491,51436.24,53082.39,62.76,408.61,0.397410,99.87,1
513832,1,25366,0,51499,53518,51436.37,53083.27,62.63,434.73,0.397155,99.87,1
513872,1,25406,0,51518,53559,51436.53,53084.22,81.47,474.78,0.396899,99.88,1
513912,1,25446,0,51548,53607,51436.75,53085.27,111.25,521.73,0.396642,99.88,1
513952,1,25486,0,51573,53657,51437.03,53086.41,135.97,570.59,0.396384,99.88,1
513992,1,25526,0,51591,53710,51437.34,53087.66,153.66,622.34,0.396124,99.89,1
514032,1,25566,0,51612,53753,51437.69,53088.99,174.31,664.01,0.395865,99.89,1
514072,1,25606,0,51634,53786,51438.08,53090.39,195.92,695.61,0.395605,99.89,1
514112,1,25646,0,51648,53820,51438.50,53091.85,209.50,728.15,0.395346,99.90,1
514152,1,25686,0,51658,53856,51438.95,53093.38,219.05,762.62,0.395086,99.90,1
514192,1,25726,0,51673,53871,51439.41,53094.93,233.59,776.07,0.394828,99.90,1
514233,1,25767,0,51648,53734,51439.83,53096.21,208.17,637.79,0.394571,99.91,1
514273,1,25807,0,51554,53531,51440.06,53097.09,113.94,433.91,0.394315,99.91,1
514313,1,25847,0,51475,53422,51440.13,53097.74,34.87,324.26,0.394058,99.91,1
514353,1,25887,0,51459,53688,51440.17,53098.92,18.83,589.08,0.393797,99.91,1
514393,1,25927,0,51464,53817,51440.22,53100.36,23.78,716.64,0.393531,99.92,1
514433,1,25967,0,51478,53451,51440.30,53101.06,37.70,349.94,0.393264,99.92,1
514473,1,26007,0,51503,53492,51440.43,53101.85,62.57,390.15,0.392996,99.92,1
514513,1,26047,0,51523,53509,51440.59,53102.66,82.41,406.34,0.392728,99.92,1
514553,1,26087,0,51521,53181,51440.76,53102.82,80.24,78.18,0.392462,99.93,1
514593,1,26127,0,51524,53046,51440.93,53102.71,83.07,-56.71,0.392197,99.93,1
514633,1,26167,0,51530,53543,51441.11,53103.59,88.89,439.41,0.391932,99.93,1
514673,1,26207,0,51553,53590,51441.33,53104.56,111.67,485.44,0.391667,99.93,1
514713,1,26247,0,51569,53639,51441.59,53105.63,127.41,533.37,0.391401,99.93,1
514753,1,26287,0,51594,53692,51441.89,53106.81,152.11,585.19,0.391135,99.94,1
514794,1,26328,0,51612,53739,51442.23,53108.07,169.77,630.93,0.390868,99.94,1
514834,1,26368,0,51627,53785,51442.61,53109.43,184.39,675.57,0.390602,99.94,1
514874,1,26408,0,51712,53819,51443.14,53110.85,268.86,708.15,0.390341,99.94,1
514914,1,26448,0,51870,53857,51444.00,53112.34,426.00,744.66,0.390102,99.94,1
514954,1,26488,0,51679,53903,51444.47,53113.93,234.53,789.07,0.389863,99.95,1
514994,1,26528,0,51700,53941,51444.98,53115.58,255.02,825.42,0.389625,99.95,1
515034,1,26568,0,51695,53836,51445.48,53117.02,249.52,718.98,0.389390,99.95,1
515074,1,26608,0,51579,53643,51445.75,53118.08,133.25,524.92,0.389155,99.95,1
515114,1,26648,0,51314,53533,51445.49,53118.91,-131.49,414.09,0.388921,99.95,1
515154,1,26688,0,51526,53517,51445.66,53119.71,80.34,397.29,0.388686,99.95,1
515194,1,26728,0,51530,53536,51445.83,53120.54,84.17,415.46,0.388451,99.95,1
515234,1,26768,0,51541,53568,51446.02,53121.43,94.98,446.57,0.388215,99.96,1
515274,1,26808,0,46435,53609,51436.00,53122.41,-5001.00,486.59,0.388215,99.96,0
515314,1,26848,0,51567,53623,51436.26,53123.41,130.74,499.59,0.388215,99.96,0
515355,1,26889,0,51569,53611,51436.53,53124.39,132.47,486.61,0.388215,99.96,0
515395,1,26929,0,51556,53616,51436.77,53125.37,119.23,490.62,0.388215,99.96,0
515435,1,26969,0,51566,53641,51437.03,53126.41,128.97,514.59,0.388215,99.96,0
515475,1,27009,0,51588,53686,51437.34,53127.53,150.66,558.47,0.388215,99.96,0
515515,1,27049,0,51607,53734,51437.68,53128.74,169.32,605.26,0.388215,99.96,0
515555,1,27089,0,51626,53785,51438.05,53130.05,187.95,654.95,0.388215,99.96,0
515595,1,27129,0,51651,53831,51438.48,53131.46,212.52,699.54,0.388215,99.96,0
515635,1,27169,0,51677,53869,51438.96,53132.93,238.04,736.07,0.388215,99.96,0
515675,1,27209,0,51687,53901,51439.45,53134.47,247.55,766.53,0.388215,99.96,0
515715,1,27249,0,51699,53932,51439.97,53136.07,259.03,795.93,0.388215,99.96,0
515755,1,27289,0,51717,53961,51440.53,53137.72,276.47,823.28,0.388215,99.96,0
515795,1,27329,0,51715,53907,51441.08,53139.26,273.92,767.74,0.388215,99.96,0
515835,1,27369,0,51652,53729,51441.50,53140.44,210.50,588.56,0.388215,99.96,0
515875,1,27409,0,51573,53583,51441.77,53141.33,131.23,441.67,0.388215,99.96,0
515916,1,27450,0,51533,53542,51441.95,53142.13,91.05,399.87,0.388215,99.96,0
515956,1,27490,0,51539,53571,51442.14,53142.99,96.86,428.01,0.388215,99.96,0
515996,1,27530,0,51549,53611,51442.36,53143.93,106.64,467.07,0.388215,99.96,0
516036,1,27570,0,51569,53659,51442.61,53144.96,126.39,514.04,0.388215,99.96,0
516076,1,27610,0,51591,53694,51442.91,53146.05,148.09,547.95,0.388215,99.96,0
516116,1,27650,0,51593,53693,51443.21,53147.15,149.79,545.85,0.388215,99.96,0
516156,1,27690,0,51595,53699,51443.52,53148.25,151.48,550.75,0.388215,99.96,0
516196,1,27730,0,51602,53716,51443.83,53149.39,158.17,566.61,0.388215,99.96,0
516236,1,27770,0,51621,53759,51444.19,53150.61,176.81,608.39,0.388215,99.96,0
516276,1,27810,0,51640,53801,51444.58,53151.91,195.42,649.09,0.388215,99.96,0
516316,1,27850,0,51661,53850,51445.02,53153.31,215.98,696.69,0.388215,99.96,0
516356,1,27890,0,51684,53892,51445.50,53154.79,238.50,737.21,0.388215,99.96,0
516396,1,27930,0,51694,53930,51446.00,53156.34,248.00,773.66,0.388215,99.96,0
516436,1,27970,0,51711,53965,51446.53,53157.96,264.47,807.04,0.388215,99.96,0
516477,1,28011,0,51723,53998,51447.08,53159.64,275.92,838.36,0.388215,99.96,0
516517,1,28051,0,51740,54016,51447.67,53161.35,292.33,854.65,0.388215,99.96,0
516557,1,28091,0,51711,53896,51448.20,53162.82,262.80,733.18,0.388215,99.96,0
516597,1,28131,0,51628,53701,51448.55,53163.90,179.45,537.10,0.388215,99.96,0
516637,1,28171,0,51563,53591,51448.79,53164.75,114.21,426.25,0.388215,99.96,0
516677,1,28211,0,51537,53589,51448.96,53165.61,88.04,423.39,0.388215,99.96,0
516717,1,28251,0,51550,53607,51449.17,53166.49,100.83,440.51,0.388215,99.96,0
516757,1,28291,0,51565,53628,51449.40,53167.41,115.60,460.59,0.388215,99.96,0
516797,1,28331,0,51584,53667,51449.67,53168.41,134.33,498.59,0.388215,99.96,0
516837,1,28371,0,51595,53689,51449.96,53169.46,145.04,519.54,0.388215,99.96,0
516877,1,28411,0,51593,53688,51450.25,53170.50,142.75,517.50,0.388215,99.96,0
516917,1,28451,0,51595,53685,51450.54,53171.53,144.46,513.47,0.388215,99.96,0
516957,1,28491,0,51600,53753,51450.84,53172.69,149.16,580.31,0.388215,99.96,0
516997,1,28531,0,51612,53922,51451.17,53174.19,160.83,747.81,0.388215,99.96,0
517038,1,28572,0,51635,53800,51451.54,53175.45,183.46,624.55,0.388215,99.96,0
517078,1,28612,0,51654,53853,51451.94,53176.80,202.06,676.20,0.388215,99.96,0
517118,1,28652,0,51672,53900,51452.38,53178.25,219.62,721.75,0.388215,99.96,0
517158,1,28692,0,51689,53939,51452.86,53179.77,236.14,759.23,0.388215,99.96,0
517198,1,28732,0,51710,53819,51453.37,53181.05,256.63,637.95,0.388215,99.96,0
517238,1,28772,0,51724,54020,51453.91,53182.73,270.09,837.27,0.388215,99.96,0
517278,1,28812,0,51742,54039,51454.49,53184.45,287.51,854.55,0.389253,99.96,1
517318,1,28852,0,51723,53897,51455.03,53185.87,267.97,711.12,0.390278,99.96,1
517358,1,28892,0,51634,52998,51455.39,53185.50,178.61,-187.50,0.391301,99.96,1
517398,1,28932,0,51568,53594,51455.62,53186.32,112.38,407.68,0.392316,99.96,1
517438,1,28972,0,51546,53584,51455.80,53187.12,90.20,396.88,0.393324,99.96,1
517478,1,29012,0,51552,53598,51456.00,53187.94,96.00,410.06,0.394324,99.96,1
517518,1,29052,0,51563,53627,51456.21,53188.82,106.79,438.18,0.395316,99.96,1
517558,1,29092,0,51574,53658,51456.45,53189.76,117.55,468.24,0.396299,99.97,1
517598,1,29132,0,51584,53675,51456.71,53190.73,127.29,484.27,0.397274,99.97,1
517639,1,29173,0,51584,53668,51456.96,53191.69,127.04,476.31,0.398239,99.97,1
517679,1,29213,0,51920,53674,51457.89,53192.66,462.11,481.34,0.399208,99.97,1
517719,1,29253,0,52068,53707,51459.11,53193.69,608.89,513.31,0.400189,99.97,1
517759,1,29293,0,51610,53750,51459.42,53194.80,150.58,555.20,0.401159,99.97,1
517799,1,29333,0,51627,53806,51459.75,53196.02,167.25,609.98,0.402117,99.97,1
517839,1,29373,0,51653,53863,51460.14,53197.36,192.86,665.64,0.403060,99.97,1
517879,1,29413,0,51288,53906,51459.80,53198.78,-171.80,707.22,0.403988,99.97,1
517919,1,29453,0,51110,53942,51459.10,53200.27,-349.10,741.73,0.404903,99.96,1
517959,1,29493,0,51715,53973,51459.61,53201.81,255.39,771.19,0.405803,99.96,1
517999,1,29533,0,51728,54012,51460.15,53203.43,267.85,808.57,0.406685,99.96,1
518039,1,29573,0,51746,54046,51460.72,53205.12,285.28,840.88,0.407549,99.95,1
518079,1,29613,0,51755,54026,51461.31,53206.77,293.69,819.23,0.408397,99.95,1
518119,1,29653,0,51706,53855,51461.80,53208.06,244.20,646.94,0.409234,99.94,1
518159,1,29693,0,51610,53663,51462.10,53208.97,147.90,454.03,0.410064,99.94,1
518200,1,29734,0,51552,53581,51462.28,53209.72,89.72,371.28,0.410889,99.93,1
518240,1,29774,0,51542,53589,51462.44,53210.48,79.56,378.52,0.411707,99.92,1
518280,1,29814,0,51549,53619,51462.62,53211.30,86.38,407.70,0.412519,99.92,1
518320,1,29854,0,51564,53652,51462.82,53212.18,101.18,439.82,0.413323,99.91,1
518360,1,29894,0,51582,53687,51463.06,53213.13,118.94,473.87,0.414119,99.90,1
518400,1,29934,0,51591,53695,51463.32,53214.10,127.68,480.90,0.414908,99.89,1
518440,1,29974,0,51590,53682,51463.57,53215.04,126.43,466.96,0.415689,99.88,1
518480,1,30014,1,51591,53683,51463.83,53215.97,127.17,467.03,0.416462,99.87,1
518520,1,30054,1,51604,53714,51464.11,53216.97,139.89,497.03,0.417228,99.87,1
518560,1,30094,1,51615,53757,51464.41,53218.05,150.59,538.95,0.417984,99.86,1
518600,1,30134,1,51637,53801,51464.76,53219.22,172.24,581.78,0.418731,99.85,1
518640,1,30174,1,51656,53845,51465.14,53220.47,190.86,624.53,0.419466,99.84,1
518680,1,30214,1,51672,53885,51465.56,53221.80,206.44,663.20,0.420190,99.83,1
518720,1,30254,1,51685,53915,51466.00,53223.19,219.00,691.81,0.420901,99.82,1
518761,1,30295,1,51697,53941,51466.46,53224.63,230.54,716.37,0.421600,99.80,1
518801,1,30335,1,51709,53971,51466.95,53226.12,242.05,744.88,0.422286,99.79,1
518841,1,30375,1,51716,53968,51467.45,53227.61,248.55,740.39,0.422958,99.78,1
518881,1,30415,1,51682,53809,51467.88,53228.77,214.12,580.23,0.423623,99.77,1
518921,1,30455,1,51598,53631,51468.14,53229.57,129.86,401.43,0.424283,99.76,1
518961,1,30495,1,51540,53568,51468.29,53230.25,71.71,337.75,0.424938,99.75,1
519001,1,30535,1,51539,53582,51468.43,53230.96,70.57,351.04,0.425588,99.74,1
519041,1,30575,1,51563,53614,51468.62,53231.72,94.37,382.28,0.426232,99.73,1
519081,1,30615,1,51582,53665,51468.85,53232.59,113.15,432.41,0.426871,99.71,1
519121,1,30655,1,51598,53696,51469.11,53233.52,128.89,462.48,0.427503,99.70,1
519161,1,30695,1,51601,53687,51469.37,53234.43,131.62,452.57,0.428128,99.69,1
519201,1,30735,1,51593,53670,51469.62,53235.30,123.37,434.70,0.428748,99.68,1
519241,1,30775,1,51590,53679,51469.87,53236.19,120.13,442.81,0.429361,99.66,1
519281,1,30815,1,51594,53707,51470.12,53237.13,123.88,469.87,0.429968,99.65,1
519322,1,30856,1,51620,53753,51470.42,53238.16,149.58,514.84,0.430567,99.64,1
519362,1,30896,1,51633,53800,51470.75,53239.29,162.25,560.71,0.431157,99.63,1
519402,1,30936,1,51651,53845,51471.11,53240.50,179.89,604.50,0.431738,99.61,1
519442,1,30976,1,51672,53884,51471.51,53241.79,200.49,642.21,0.432309,99.60,1
519482,1,31016,1,51695,53924,51471.96,53243.16,223.04,680.84,0.432869,99.59,1
519522,1,31056,1,51709,53973,51472.44,53244.62,236.56,728.38,0.433418,99.58,1
519562,1,31096,1,51715,53927,51472.93,53245.98,242.07,681.02,0.433957,99.56,1
519602,1,31136,1,51661,53730,51473.30,53246.95,187.70,483.05,0.434491,99.55,1
519642,1,31176,1,51573,53599,51473.50,53247.66,99.50,351.34,0.435020,99.54,1
519682,1,31216,1,51526,53500,51473.61,53248.17,52.39,251.83,0.435547,99.53,1
519722,1,31256,1,51524,53516,51473.71,53248.70,50.29,267.30,0.436070,99.51,1
519762,1,31296,1,51541,53543,51473.85,53249.29,67.15,293.71,0.436590,99.50,1
519802,1,31336,1,51551,53989,51474.00,53250.77,77.00,738.23,0.437094,99.49,1
519842,1,31376,1,51565,53617,51474.19,53251.51,90.81,365.49,0.437593,99.47,1
519882,1,31416,1,51568,53612,51474.37,53252.23,93.62,359.77,0.438088,99.46,1
519923,1,31457,1,51567,53601,51474.56,53252.93,92.44,348.07,0.438579,99.45,1
519963,1,31497,1,51566,53621,51474.75,53253.67,91.25,367.33,0.439065,99.44,1
520003,1,31537,1,51578,53211,51474.95,53253.59,103.05,-42.59,0.439551,99.42,1
520043,1,31577,1,51600,52991,51475.20,53253.06,124.80,-262.06,0.440034,99.41,1
520083,1,31617,1,51625,53770,51475.50,53254.10,149.50,515.90,0.440511,99.40,1
520123,1,31657,1,51650,53818,51475.86,53255.23,174.14,562.77,0.440980,99.39,1
520163,1,31697,1,51677,53872,51476.26,53256.46,200.74,615.54,0.441440,99.37,1
520203,1,31737,1,51701,53911,51476.71,53257.77,224.29,653.23,0.441892,99.36,1
520243,1,31777,1,51719,53910,51477.19,53259.07,241.81,650.93,0.442335,99.35,1
520283,1,31817,1,51677,53732,51477.59,53260.02,199.41,471.98,0.442774,99.33,1
520323,1,31857,1,51744,53507,51478.13,53260.52,265.87,246.48,0.443216,99.32,1
520363,1,31897,1,51787,53388,51478.75,53260.77,308.25,127.23,0.443665,99.31,1
520403,1,31937,1,51476,53377,51478.74,53261.01,-2.74,115.99,0.444112,99.30,1
520443,1,31977,1,51482,53389,51478.75,53261.27,3.25,127.73,0.444557,99.29,1
520484,1,32018,1,51494,53417,51478.78,53261.58,15.22,155.42,0.445000,99.27,1
520524,1,32058,1,51360,53460,51478.55,53261.98,-118.55,198.02,0.445442,99.26,1
520564,1,32098,1,51208,53482,51478.01,53262.42,-270.01,219.58,0.445887,99.25,1
520604,1,32138,1,51527,53481,51478.11,53262.86,48.89,218.14,0.446331,99.24,1
520644,1,32178,1,51530,53488,51478.21,53263.31,51.79,224.69,0.446771,99.22,1
520684,1,32218,1,51541,53527,51478.34,53263.84,62.66,263.16,0.447209,99.21,1
520724,1,32258,1,51564,53580,51478.51,53264.47,85.49,315.53,0.447643,99.20,1
520764,1,32298,1,51598,53637,51478.75,53265.21,119.25,371.79,0.448072,99.19,1
520804,1,32338,1,51625,53682,51479.04,53266.05,145.96,415.95,0.448498,99.18,1
520844,1,32378,1,51644,53729,51479.37,53266.98,164.62,462.02,0.448917,99.16,1
520884,1,32418,1,51659,53770,51479.73,53267.98,179.27,502.02,0.449332,99.15,1
520924,1,32458,1,51681,53807,51480.14,53269.06,200.86,537.94,0.449739,99.14,1
520964,1,32498,1,51680,53738,51480.54,53270.00,199.46,468.00,0.450143,99.13,1
521004,1,32538,1,51601,53512,51480.78,53270.48,120.22,241.52,0.450545,99.12,1
521044,1,32578,1,51505,53326,51480.83,53270.60,24.17,55.40,0.450946,99.10,1
521085,1,32619,1,51456,53271,51480.79,53270.60,-24.79,0.40,0.451346,99.09,1
521125,1,32659,1,51452,53290,51480.73,53270.64,-28.73,19.36,0.451745,99.08,1
521165,1,32699,1,51462,53319,51480.70,53270.74,-18.70,48.26,0.452142,99.07,1
521205,1,32739,1,51484,53370,51480.70,53270.94,3.30,99.06,0.452538,99.06,1
521245,1,32779,1,51508,53413,51480.76,53271.22,27.24,141.78,0.452932,99.05,1
521285,1,32819,1,51524,53432,51480.84,53271.55,43.16,160.45,0.453325,99.04,1
521325,1,32859,1,51527,53427,51480.94,53271.86,46.06,155.14,0.453715,99.02,1
521365,1,32899,1,51538,53450,51481.05,53272.22,56.95,177.78,0.454104,99.01,1
521405,1,32939,1,51555,53499,51481.20,53272.67,73.80,226.33,0.454490,99.00,1
521445,1,32979,1,51576,53560,51481.39,53273.25,94.61,286.75,0.454874,98.99,1
521485,1,33019,1,51608,53613,51481.65,53273.93,126.35,339.07,0.455254,98.98,1
521525,1,33059,1,51631,53666,51481.95,53274.71,149.05,391.29,0.455630,98.97,1
521565,1,33099,1,51646,53710,51482.28,53275.58,163.72,434.42,0.456002,98.96,1
521605,1,33139,1,51667,53751,51482.65,53276.54,184.35,474.46,0.456368,98.95,1
521646,1,33180,1,51685,53790,51483.05,53277.56,201.95,512.44,0.456729,98.94,1
521686,1,33220,1,51691,53770,51483.47,53278.55,207.53,491.45,0.457086,98.92,1
521726,1,33260,1,51635,53587,51483.78,53279.16,151.22,307.84,0.457440,98.91,1
521766,1,33300,1,51544,53407,51483.90,53279.42,60.10,127.58,0.457794,98.90,1
521806,1,33340,1,51498,53356,51483.93,53279.58,14.07,76.42,0.458146,98.89,1
521846,1,33380,1,51500,53387,51483.96,53279.79,16.04,107.21,0.458497,98.88,1
521886,1,33420,1,51519,53422,51484.04,53280.08,34.96,141.92,0.458846,98.87,1
521926,1,33460,1,51543,53479,51484.16,53280.48,58.84,198.52,0.459193,98.86,1
521966,1,33500,1,51569,53520,51484.33,53280.96,84.67,239.04,0.459538,98.85,1
522006,1,33540,1,51574,53538,51484.51,53281.47,89.49,256.53,0.459880,98.84,1
522046,1,33580,1,51577,53538,51484.70,53281.99,92.30,256.01,0.460220,98.83,1
522086,1,33620,1,51585,53562,51484.90,53282.55,100.10,279.45,0.460557,98.82,1
522126,1,33660,1,51597,53610,51485.12,53283.21,111.87,326.79,0.460891,98.81,1
522166,1,33700,1,51622,53665,51485.40,53283.97,136.60,381.03,0.461221,98.80,1
522207,1,33741,1,51648,53723,51485.73,53284.85,162.27,438.15,0.461546,98.79,1
522247,1,33781,1,51666,53773,51486.09,53285.83,179.91,487.17,0.461865,98.78,1
522287,1,33821,1,51688,53829,51486.50,53286.91,201.50,542.09,0.462178,98.77,1
522327,1,33861,1,51706,53871,51486.94,53288.08,219.06,582.92,0.462483,98.76,1
522367,1,33901,1,51728,53917,51487.42,53289.34,240.58,627.66,0.462780,98.75,1
522407,1,33941,1,51744,54057,51487.94,53290.87,256.06,766.12,0.463063,98.74,1
522447,1,33981,1,51761,54186,51488.48,53292.67,272.52,893.33,0.463327,98.73,1
522487,1,34021,1,51724,53805,51488.96,53293.70,235.04,511.30,0.463589,98.72,1
522527,1,34061,1,51648,53644,51489.28,53294.40,158.72,349.60,0.463848,98.71,1
522567,1,34101,1,51595,53589,51489.49,53294.99,105.51,294.01,0.464104,98.70,1
522607,1,34141,1,51586,53546,51489.68,53295.49,96.32,250.51,0.464359,98.69,1
522647,1,34181,1,51599,53355,51489.90,53295.61,109.10,59.39,0.464615,98.68,1
522687,1,34221,1,51610,53667,51490.14,53296.36,119.86,370.64,0.464867,98.67,1
522727,1,34261,1,51630,53703,51490.43,53297.18,139.57,405.82,0.465114,98.66,1
522768,1,34302,1,51636,53714,51490.72,53298.01,145.28,415.99,0.465358,98.66,1
522808,1,34342,1,51634,53721,51491.01,53298.86,142.99,422.14,0.465597,98.65,1
522848,1,34382,1,51634,53744,51491.30,53299.75,142.70,444.25,0.465831,98.64,1
522888,1,34422,1,51651,53788,51491.62,53300.73,159.38,487.27,0.466060,98.63,1
522928,1,34462,1,51672,53848,51491.98,53301.82,180.02,546.18,0.466282,98.62,1
522968,1,34502,1,51769,53903,51492.54,53303.03,276.46,599.97,0.466500,98.61,1
523008,1,34542,1,51725,53953,51493.00,53304.33,232.00,648.67,0.466710,98.60,1
523048,1,34582,1,51753,54001,51493.52,53305.72,259.48,695.28,0.466912,98.60,1
523088,1,34622,1,51764,54046,51494.06,53307.20,269.94,738.80,0.467104,98.59,1
523128,1,34662,1,52298,54079,51495.67,53308.75,802.33,770.25,0.467354,98.58,1
523168,1,34702,1,51723,54122,51496.13,53310.38,226.87,811.62,0.467588,98.57,1
523208,1,34742,1,51812,54164,51496.76,53312.09,315.24,851.91,0.467809,98.56,1
523248,1,34782,1,51813,54102,51497.39,53313.67,315.61,788.33,0.468022,98.55,1
523289,1,34823,1,51745,53944,51497.89,53314.93,247.11,629.07,0.468228,98.55,1
523329,1,34863,1,51022,53842,51496.94,53315.98,-474.94,526.02,0.468452,98.54,1
523369,1,34903,1,51649,53822,51497.25,53317.00,151.75,505.00,0.468669,98.53,1
523409,1,34943,1,51654,53843,51497.56,53318.05,156.44,524.95,0.468880,98.52,1
523449,1,34983,1,51670,53873,51497.91,53319.16,172.09,553.84,0.469084,98.52,1
523489,1,35023,1,51685,53924,51498.29,53320.37,186.71,603.63,0.469281,98.51,1
523529,1,35063,1,51703,53942,51498.70,53321.62,204.30,620.38,0.469470,98.50,1
523569,1,35103,1,51711,53942,51499.12,53322.86,211.88,619.14,0.469652,98.49,1
523609,1,35143,1,51711,53950,51499.55,53324.11,211.45,625.89,0.469827,98.49,1
523649,1,35183,1,51715,53983,51499.98,53325.43,215.02,657.57,0.469994,98.48,1
523689,1,35223,1,51728,54023,51500.44,53326.83,227.56,696.17,0.470152,98.47,1
523729,1,35263,1,51749,54067,51500.94,53328.31,248.06,738.69,0.470301,98.47,1
523769,1,35303,1,51767,54111,51501.47,53329.88,265.53,781.12,0.470440,98.46,1
523809,1,35343,1,51783,54156,51502.04,53331.53,280.96,824.47,0.470569,98.45,1
523850,1,35384,1,51795,54195,51502.62,53333.26,292.38,861.74,0.470686,98.45,1
523890,1,35424,1,51810,54232,51503.24,53335.06,306.76,896.94,0.470793,98.44,1
523930,1,35464,1,51820,54273,51503.87,53336.94,316.12,936.06,0.470887,98.43,1
523970,1,35504,1,51836,54315,51504.54,53338.89,331.46,976.11,0.470969,98.43,1
524010,1,35544,1,51861,54347,51505.25,53340.91,355.75,1006.09,0.471040,98.42,1
524050,1,35584,1,51841,54262,51505.93,53342.76,335.07,919.24,0.471102,98.42,1
524090,1,35624,1,51781,54126,51506.48,53344.32,274.52,781.68,0.471158,98.41,1
524130,1,35664,1,51735,54061,51506.93,53345.76,228.07,715.24,0.471207,98.40,1
524170,1,35704,1,51726,54056,51507.37,53347.18,218.62,708.82,0.471249,98.40,1
524210,1,35744,1,51733,54075,51507.83,53348.64,225.17,726.36,0.471285,98.39,1
524250,1,35784,1,51739,54097,51508.29,53350.14,230.71,746.86,0.471313,98.39,1
524290,1,35824,1,51752,54124,51508.78,53351.69,243.22,772.31,0.471335,98.38,1
524330,1,35864,1,51758,54131,51509.28,53353.25,248.72,777.75,0.471349,98.38,1
524370,1,35904,1,51750,54134,51509.77,53354.81,240.23,779.19,0.471357,98.37,1
524410,1,35944,1,51749,54144,51510.25,53356.39,238.75,787.61,0.471357,98.37,1
524451,1,35985,1,51757,54166,51510.74,53358.01,246.26,807.99,0.471350,98.36,1
524491,1,36025,1,51766,54208,51511.25,53359.71,254.75,848.29,0.471334,98.36,1
524531,1,36065,1,51783,54257,51511.80,53361.51,271.20,895.49,0.471310,98.35,1
524571,1,36105,1,51803,54294,51512.38,53363.37,290.62,930.62,0.471277,98.35,1
524611,1,36145,1,51820,54340,51513.00,53365.33,307.00,974.67,0.471235,98.35,1
524651,1,36185,1,51836,54380,51513.64,53367.36,322.36,1012.64,0.471184,98.34,1
524691,1,36225,1,51853,54411,51514.32,53369.45,338.68,1041.55,0.471125,98.34,1
524731,1,36265,1,51869,54443,51515.04,53371.60,353.96,1071.40,0.471056,98.34,1
524771,1,36305,1,51883,54476,51515.77,53373.81,367.23,1102.19,0.470980,98.33,1
524811,1,36345,1,51890,54463,51516.52,53375.99,373.48,1087.01,0.470897,98.33,1
524851,1,36385,1,51850,54325,51517.19,53377.89,332.81,947.11,0.470809,98.33,1
524891,1,36425,1,51780,54216,51517.72,53379.56,262.28,836.44,0.470716,98.32,1
524931,1,36465,1,51745,54181,51518.18,53381.17,226.82,799.83,0.470618,98.32,1
524971,1,36505,1,51741,54188,51518.62,53382.78,222.38,805.22,0.470514,98.32,1
525012,1,36546,1,51744,54197,51519.07,53384.41,224.93,812.59,0.470405,98.32,1
525052,1,36586,1,51754,54310,51519.55,53386.26,234.45,923.74,0.470287,98.31,1
525092,1,36626,1,51759,54462,51520.03,53388.41,238.97,1073.59,0.470157,98.31,1
525132,1,36666,1,51764,54253,51520.52,53390.14,243.48,862.86,0.470022,98.31,1
525172,1,36706,1,51759,54252,51520.99,53391.87,238.01,860.13,0.469881,98.31,1
525212,1,36746,1,51759,54280,51521.47,53393.65,237.53,886.35,0.469734,98.31,1
525252,1,36786,1,51779,54275,51521.98,53395.41,257.02,879.59,0.469583,98.31,1
525292,1,36826,1,51797,54126,51522.54,53396.87,274.46,729.12,0.469430,98.30,1
525332,1,36866,1,51818,54390,51523.13,53398.86,294.87,991.14,0.469272,98.30,1
525372,1,36906,1,51831,54429,51523.75,53400.93,307.25,1028.07,0.469108,98.30,1
525412,1,36946,1,51845,54460,51524.39,53403.05,320.61,1056.95,0.468938,98.30,1
525452,1,36986,1,51856,53697,51525.05,53403.64,330.95,293.36,0.468776,98.30,1
525492,1,37026,1,51867,54519,51525.74,53405.87,341.26,1113.13,0.468608,98.30,1
525532,1,37066,1,51875,54545,51526.44,53408.15,348.56,1136.85,0.468434,98.30,1
525572,1,37106,1,51883,54552,51527.15,53410.44,355.85,1141.56,0.468254,98.30,1
525613,1,37147,1,51855,54433,51527.81,53412.48,327.19,1020.52,0.468070,98.30,1
525653,1,37187,1,51784,54306,51528.32,53414.27,255.68,891.73,0.467882,98.30,1
525693,1,37227,1,51738,54247,51528.75,53415.94,209.25,831.06,0.467689,98.30,1
525733,1,37267,1,51733,54247,51529.16,53417.61,203.84,829.39,0.467492,98.30,1
525773,1,37307,1,52076,54267,51530.25,53419.30,545.75,847.70,0.467311,98.30,1
525813,1,37347,1,52187,54286,51531.57,53421.04,655.43,864.96,0.467155,98.30,1
525853,1,37387,1,51754,54308,51532.01,53422.81,221.99,885.19,0.466994,98.30,1
525893,1,37427,1,51764,54307,51532.48,53424.58,231.52,882.42,0.466828,98.30,1
525933,1,37467,1,51757,54298,51532.93,53426.33,224.07,871.67,0.466657,98.30,1
525973,1,37507,1,51358,54301,51532.58,53428.08,-174.58,872.92,0.466479,98.30,1
526013,1,37547,1,51232,54323,51531.98,53429.87,-299.98,893.12,0.466300,98.31,1
526053,1,37587,1,51770,54353,51532.45,53431.72,237.55,921.28,0.466115,98.31,1
526093,1,37627,1,51779,54384,51532.95,53433.63,246.05,950.37,0.465925,98.31,1
526133,1,37667,1,51787,54415,51533.46,53435.59,253.54,979.41,0.465730,98.31,1
526174,1,37708,1,51804,54443,51534.00,53437.61,270.00,1005.39,0.465529,98.31,1
526214,1,37748,1,51811,54476,51534.55,53439.69,276.45,1036.31,0.465322,98.31,1
526254,1,37788,1,51817,54505,51535.12,53441.82,281.88,1063.18,0.465110,98.32,1
526294,1,37828,1,51834,54537,51535.72,53444.01,298.28,1092.99,0.464892,98.32,1
526334,1,37868,1,51838,54510,51536.32,53446.14,301.68,1063.86,0.464669,98.32,1
526374,1,37908,1,51790,54370,51536.83,53447.99,253.17,922.01,0.464443,98.32,1
526414,1,37948,1,51733,54251,51537.23,53449.60,195.77,801.40,0.464214,98.32,1
526454,1,37988,1,51701,54207,51537.55,53451.11,163.45,755.89,0.463981,98.33,1
526494,1,38028,1,51695,54212,51537.87,53452.64,157.13,759.36,0.463745,98.33,1
526534,1,38068,1,51696,54220,51538.19,53454.17,157.81,765.83,0.463505,98.33,1
526574,1,38108,1,51702,54234,51538.52,53455.73,163.48,778.27,0.463262,98.33,1
526614,1,38148,1,51709,54252,51538.86,53457.33,170.14,794.67,0.463015,98.34,1
526654,1,38188,1,51706,54239,51539.20,53458.89,166.80,780.11,0.462765,98.34,1
526694,1,38228,1,51696,54226,51539.51,53460.43,156.49,765.57,0.462512,98.34,1
526735,1,38269,1,51693,54235,51539.82,53461.98,153.18,773.02,0.462255,98.34,1
526775,1,38309,1,51698,54263,51540.14,53463.58,157.86,799.42,0.461994,98.35,1
526815,1,38349,1,51710,54299,51540.48,53465.25,169.52,833.75,0.461729,98.35,1
526855,1,38389,1,51726,54336,51540.85,53467.00,185.15,869.00,0.461460,98.35,1
526895,1,38429,1,51741,54372,51541.25,53468.81,199.75,903.19,0.461187,98.36,1
526935,1,38469,1,51757,54411,51541.68,53470.70,215.32,940.30,0.460910,98.36,1
526975,1,38509,1,51776,54438,51542.15,53472.63,233.85,965.37,0.460629,98.37,1
527015,1,38549,1,51788,54466,51542.64,53474.62,245.36,991.38,0.460343,98.37,1
527055,1,38589,1,51792,54431,51543.14,53476.54,248.86,954.46,0.460055,98.37,1
527095,1,38629,1,51742,54283,51543.54,53478.15,198.46,804.85,0.459765,98.38,1
527135,1,38669,1,51676,54160,51543.81,53479.51,132.19,680.49,0.459472,98.38,1
527175,1,38709,1,51644,54122,51544.01,53480.80,99.99,641.20,0.459177,98.39,1
527215,1,38749,1,51634,54119,51544.19,53482.07,89.81,636.93,0.458880,98.39,1
527255,1,38789,1,51634,54125,51544.37,53483.36,89.63,641.64,0.458581,98.39,1
527296,1,38830,1,51639,54148,51544.56,53484.70,94.44,663.30,0.458279,98.40,1
527336,1,38870,1,51650,54174,51544.77,53486.07,105.23,687.93,0.457974,98.40,1
527376,1,38910,1,51652,54172,51544.99,53487.45,107.01,684.55,0.457667,98.41,1
527416,1,38950,1,51649,54167,51545.20,53488.81,103.80,678.19,0.457357,98.41,1
527456,1,38990,1,51652,54184,51545.41,53490.20,106.59,693.80,0.457045,98.42,1
527496,1,39030,1,51664,54223,51545.65,53491.67,118.35,731.33,0.456730,98.42,1
527536,1,39070,1,51683,54260,51545.93,53493.21,137.07,766.79,0.456411,98.43,1
527576,1,39110,1,51701,54293,51546.24,53494.81,154.76,798.19,0.456090,98.43,1
527616,1,39150,1,51716,54329,51546.58,53496.48,169.42,832.52,0.455766,98.44,1
527656,1,39190,1,51727,54355,51546.95,53498.20,180.05,856.80,0.455438,98.44,1
527696,1,39230,1,51740,54380,51547.33,53499.96,192.67,880.04,0.455108,98.45,1
527736,1,39270,1,51754,54408,51547.75,53501.78,206.25,906.22,0.454775,98.45,1
527776,1,39310,1,51751,54355,51548.15,53503.48,202.85,851.52,0.454439,98.46,1
527816,1,39350,1,51694,54201,51548.45,53504.88,145.55,696.12,0.454102,98.46,1
527857,1,39391,1,51628,54441,51548.61,53506.75,79.39,934.25,0.453759,98.47,1
527897,1,39431,1,51595,54545,51548.70,53508.83,46.30,1036.17,0.453408,98.48,1
527937,1,39471,1,51598,54062,51548.80,53509.94,49.20,552.06,0.453055,98.48,1
527977,1,39511,1,51597,54068,51548.90,53511.06,48.10,556.94,0.452701,98.49,1
528017,1,39551,1,51605,54098,51549.01,53512.23,55.99,585.77,0.452345,98.49,1
528057,1,39591,1,51616,53689,51549.15,53512.59,66.85,176.41,0.451990,98.50,1
528097,1,39631,1,51625,53497,51549.30,53512.56,75.70,-15.56,0.451637,98.51,1
528137,1,39671,1,51626,54127,51549.46,53513.79,76.54,613.21,0.451282,98.51,1
528177,1,39711,1,51639,54142,51549.64,53515.05,89.36,626.95,0.450926,98.52,1
528217,1,39751,1,51651,54182,51549.84,53516.38,101.16,665.62,0.450567,98.53,1
528257,1,39791,1,51667,54214,51550.07,53517.78,116.93,696.22,0.450207,98.53,1
528297,1,39831,1,51683,54249,51550.34,53519.25,132.66,729.75,0.449844,98.54,1
528337,1,39871,1,51697,54283,51550.63,53520.77,146.37,762.23,0.449479,98.55,1
528377,1,39911,1,51812,54315,51551.16,53522.36,260.84,792.64,0.449116,98.55,1
528418,1,39952,1,51942,54342,51551.94,53524.00,390.06,818.00,0.448761,98.56,1
528458,1,39992,1,51733,54375,51552.30,53525.71,180.70,849.29,0.448404,98.57,1
528498,1,40032,1,51741,54386,51552.68,53527.43,188.32,858.57,0.448045,98.57,1
528538,1,40072,1,51717,54262,51553.01,53528.90,163.99,733.10,0.447684,98.58,1
528578,1,40112,1,51576,54124,51553.05,53530.09,22.95,593.91,0.447321,98.59,1
528618,1,40152,1,51382,54070,51552.71,53531.17,-170.71,538.83,0.446960,98.59,1
528658,1,40192,1,51601,54060,51552.81,53532.23,48.19,527.77,0.446597,98.60,1
528698,1,40232,1,51600,54063,51552.91,53533.29,47.09,529.71,0.446233,98.61,1
528738,1,40272,1,51611,54078,51553.03,53534.38,57.97,543.62,0.445868,98.62,1
528778,1,40312,1,51617,54108,51553.16,53535.53,63.84,572.47,0.445502,98.62,1
528818,1,40352,1,51622,54110,51553.30,53536.68,68.70,573.32,0.445134,98.63,1
528858,1,40392,1,51619,54106,51553.43,53537.82,65.57,568.18,0.444765,98.64,1
528898,1,40432,1,51622,54111,51553.57,53538.97,68.43,572.03,0.444395,98.65,1
528938,1,40472,1,51631,54139,51553.72,53540.17,77.28,598.83,0.444023,98.65,1
528978,1,40512,1,51642,54171,51553.90,53541.43,88.10,629.57,0.443649,98.66,1
529019,1,40553,1,51657,54207,51554.11,53542.77,102.89,664.23,0.443273,98.67,1
529059,1,40593,1,51670,54244,51554.34,53544.17,115.66,699.83,0.442896,98.68,1
529099,1,40633,1,51684,54281,51554.61,53545.64,129.39,735.36,0.442516,98.68,1
529139,1,40673,1,51703,54311,51554.90,53547.18,148.10,763.82,0.442135,98.69,1
529179,1,40713,1,51716,54347,51555.23,53548.78,160.77,798.22,0.441752,98.70,1
529219,1,40753,1,51728,54385,51555.57,53550.45,172.43,834.55,0.441366,98.71,1
529259,1,40793,1,51749,54413,51555.96,53552.18,193.04,860.82,0.440979,98.72,1
529299,1,40833,1,51751,54329,51556.35,53553.73,194.65,775.27,0.440592,98.72,1
529339,1,40873,1,51683,54169,51556.61,53554.96,126.39,614.04,0.440203,98.73,1
529379,1,40913,1,51621,54068,51556.73,53555.99,64.27,512.01,0.439815,98.74,1
529419,1,40953,1,51596,54038,51556.81,53556.96,39.19,481.04,0.439425,98.75,1
529459,1,40993,1,51591,54029,51556.88,53557.90,34.12,471.10,0.439035,98.76,1
529499,1,41033,1,51584,54034,51556.94,53558.86,27.06,475.14,0.438644,98.77,1
529539,1,41073,1,51589,54052,51557.00,53559.84,32.00,492.16,0.438253,98.77,1
529580,1,41114,1,51600,54067,51557.09,53560.86,42.91,506.14,0.437860,98.78,1
529620,1,41154,1,51600,54062,51557.18,53561.86,42.82,500.14,0.437467,98.79,1
529660,1,41194,1,51591,54068,51557.25,53562.87,33.75,505.12,0.437072,98.80,1
529700,1,41234,1,51597,54083,51557.33,53563.92,39.67,519.08,0.436677,98.81,1
529740,1,41274,1,51614,54124,51557.44,53565.04,56.56,558.96,0.436280,98.82,1
529780,1,41314,1,51631,54165,51557.59,53566.24,73.41,598.76,0.435882,98.83,1
529820,1,41354,1,51652,54203,51557.78,53567.52,94.22,635.48,0.435483,98.83,1
529860,1,41394,1,51675,54243,51558.02,53568.87,116.98,674.13,0.435082,98.84,1
529900,1,41434,1,51690,54271,51558.28,53570.27,131.72,700.73,0.434680,98.85,1
529940,1,41474,1,51698,54303,51558.56,53571.74,139.44,731.26,0.434276,98.86,1
529980,1,41514,1,51710,54329,51558.87,53573.26,151.13,755.74,0.433871,98.87,1
530020,1,41554,1,51724,54357,51559.20,53574.83,164.80,782.17,0.433465,98.88,1
530060,1,41594,1,51737,54390,51559.55,53576.46,177.45,813.54,0.433057,98.89,1
530100,1,41634,1,51739,54349,51559.91,53578.01,179.09,770.99,0.432649,98.90,1
530140,1,41674,1,51685,54183,51560.16,53579.22,124.84,603.78,0.432241,98.90,1
530181,1,41715,1,51615,54049,51560.27,53580.16,54.73,468.84,0.431832,98.91,1
530221,1,41755,1,51572,54009,51560.30,53581.02,11.70,427.98,0.431423,98.92,1
530261,1,41795,1,51559,53997,51560.30,53581.85,-1.30,415.15,0.431014,98.93,1
530301,1,41835,1,51566,53994,51560.31,53582.68,5.69,411.32,0.430604,98.94,1
530341,1,41875,1,51572,54028,51560.33,53583.57,11.67,444.43,0.430194,98.95,1
530381,1,41915,1,51587,54049,51560.39,53584.50,26.61,464.50,0.429783,98.96,1
530421,1,41955,1,51598,54054,51560.46,53585.44,37.54,468.56,0.429372,98.97,1
530461,1,41995,1,51597,54047,51560.54,53586.37,36.46,460.63,0.428960,98.98,1
530501,1,42035,1,51602,54226,51560.62,53587.65,41.38,638.35,0.428546,98.99,1
530541,1,42075,1,51612,54374,51560.73,53589.22,51.27,784.78,0.428129,99.00,1
530581,1,42115,1,51625,54128,51560.86,53590.30,64.14,537.70,0.427710,99.01,1
530621,1,42155,1,51641,54162,51561.02,53591.45,79.98,570.55,0.427290,99.01,1
530661,1,42195,1,51656,54200,51561.21,53592.66,94.79,607.34,0.426870,99.02,1
530701,1,42235,1,51674,54069,51561.44,53593.62,112.56,475.38,0.426450,99.03,1
530742,1,42276,1,51683,53930,51561.68,53594.29,121.32,335.71,0.426032,99.04,1
530782,1,42316,1,51695,54293,51561.95,53595.69,133.05,697.31,0.425613,99.05,1
530822,1,42356,1,51706,54331,51562.24,53597.16,143.76,733.84,0.425193,99.06,1
530862,1,42396,1,51724,54360,51562.57,53598.69,161.43,761.31,0.424772,99.07,1
530902,1,42436,1,51738,54396,51562.92,53600.29,175.08,795.71,0.424351,99.08,1
530942,1,42476,1,51739,54325,51563.27,53601.74,175.73,723.26,0.423929,99.09,1
530982,1,42516,1,51677,54162,51563.50,53602.86,113.50,559.14,0.423508,99.10,1
531022,1,42556,1,51616,54043,51563.61,53603.74,52.39,439.26,0.423087,99.11,1
531062,1,42596,1,51649,53999,51563.78,53604.54,85.22,394.46,0.422666,99.12,1
531102,1,42636,1,51576,53994,51563.80,53605.32,12.20,388.68,0.422246,99.13,1
531142,1,42676,1,51582,54002,51563.84,53606.11,18.16,395.89,0.421825,99.14,1
531182,1,42716,1,51587,54030,51563.89,53606.96,23.11,423.04,0.421404,99.15,1
531222,1,42756,1,52027,54044,51564.82,53607.83,462.18,436.17,0.421009,99.16,1
531262,1,42796,1,51585,54044,51564.86,53608.71,20.14,435.29,0.420613,99.17,1
531303,1,42837,1,51597,54037,51564.93,53609.57,32.07,427.43,0.420217,99.18,1
531343,1,42877,1,51603,54059,51565.00,53610.46,38.00,448.54,0.419820,99.19,1
531383,1,42917,1,51610,54096,51565.09,53611.44,44.91,484.56,0.419423,99.20,1
531423,1,42957,1,51157,54135,51564.28,53612.48,-407.28,522.52,0.419044,99.21,1
531463,1,42997,1,50903,54185,51562.96,53613.63,-659.96,571.37,0.418716,99.22,1
531503,1,43037,1,51674,54231,51563.18,53614.86,110.82,616.14,0.418387,99.23,1
531543,1,43077,1,51692,54270,51563.44,53616.18,128.56,653.82,0.418056,99.24,1
531583,1,43117,1,51716,54305,51563.74,53617.55,152.26,687.45,0.417724,99.25,1
531623,1,43157,1,51730,54332,51564.07,53618.98,165.93,713.02,0.417390,99.26,1
531663,1,43197,1,51747,54362,51564.44,53620.47,182.56,741.53,0.417057,99.27,1
531703,1,43237,1,51756,54396,51564.82,53622.02,191.18,773.98,0.416722,99.27,1
531743,1,43277,1,51779,54417,51565.25,53623.61,213.75,793.39,0.416387,99.28,1
531783,1,43317,1,51764,54330,51565.65,53625.03,198.35,704.97,0.416053,99.29,1
531823,1,43357,1,51690,54158,51565.90,53626.09,124.10,531.91,0.415719,99.30,1
531864,1,43398,1,51627,54033,51566.03,53626.91,60.97,406.09,0.415385,99.31,1
531904,1,43438,1,51599,53999,51566.09,53627.66,32.91,371.34,0.415050,99.32,1
531944,1,43478,1,51592,54005,51566.15,53628.41,25.85,376.59,0.414716,99.33,1
531984,1,43518,1,51595,54018,51566.21,53629.20,28.79,388.80,0.414380,99.34,1
532024,1,43558,1,51605,54045,51566.29,53630.03,38.71,414.97,0.414044,99.35,1
532064,1,43598,1,51624,54073,51566.40,53630.91,57.60,442.09,0.413708,99.36,1
532104,1,43638,1,51628,54072,51566.53,53631.80,61.47,440.20,0.413371,99.37,1
532144,1,43678,1,51630,54071,51566.66,53632.68,63.34,438.32,0.413033,99.38,1
532184,1,43718,1,51640,54081,51566.80,53633.57,73.20,447.43,0.412695,99.39,1
532224,1,43758,1,51656,54125,51566.98,53634.56,89.02,490.44,0.412357,99.40,1
532264,1,43798,1,51670,54161,51567.19,53635.61,102.81,525.39,0.412018,99.40,1
532304,1,43838,1,51690,54195,51567.44,53636.73,122.56,558.27,0.411678,99.41,1
532344,1,43878,1,51702,54233,51567.71,53637.93,134.29,595.07,0.411338,99.42,1
532384,1,43918,1,51715,54267,51568.00,53639.19,147.00,627.81,0.410998,99.43,1
532424,1,43958,1,51728,54294,51568.32,53640.50,159.68,653.50,0.410658,99.44,1
532465,1,43999,1,51740,54325,51568.67,53641.87,171.33,683.13,0.410317,99.45,1
532505,1,44039,1,51752,54357,51569.04,53643.30,182.96,713.70,0.409977,99.46,1
532545,1,44079,1,51770,54393,51569.44,53644.80,200.56,748.20,0.409637,99.47,1
532585,1,44119,1,51779,54355,51569.86,53646.23,209.14,708.77,0.409298,99.48,1
532625,1,44159,1,51723,54189,51570.17,53647.31,152.83,541.69,0.408960,99.49,1
532665,1,44199,1,51644,54037,51570.32,53648.09,73.68,388.91,0.408623,99.50,1
532705,1,44239,1,51608,53978,51570.39,53648.75,37.61,329.25,0.408285,99.50,1
532745,1,44279,1,51606,53972,51570.47,53649.40,35.53,322.60,0.407948,99.51,1
532785,1,44319,1,51611,53979,51570.55,53650.06,40.45,328.94,0.407610,99.52,1
532825,1,44359,1,51611,54003,51570.63,53650.77,40.37,352.23,0.407273,99.53,1
532865,1,44399,1,51627,54025,51570.75,53651.52,56.25,373.48,0.406935,99.54,1
532905,1,44439,1,51635,54018,51570.87,53652.25,64.12,365.75,0.406598,99.55,1
532945,1,44479,1,51626,54010,51570.99,53652.97,55.01,357.03,0.406260,99.56,1
532985,1,44519,1,51626,54018,51571.10,53653.70,54.90,364.30,0.405923,99.57,1
533026,1,44560,1,51633,54042,51571.23,53654.48,61.77,387.52,0.405585,99.57,1
533066,1,44600,1,51647,54083,51571.38,53655.34,75.62,427.66,0.405248,99.58,1
533106,1,44640,1,51665,54128,51571.57,53656.29,93.43,471.71,0.404910,99.59,1
533146,1,44680,1,51685,54168,51571.79,53657.31,113.21,510.69,0.404571,99.60,1
533186,1,44720,1,51705,54205,51572.06,53658.41,132.94,546.59,0.404233,99.61,1
533226,1,44760,1,51719,54247,51572.36,53659.59,146.64,587.41,0.403896,99.62,1
533266,1,44800,1,51738,54277,51572.69,53660.82,165.31,616.18,0.403559,99.63,1
533306,1,44840,1,51757,54699,51573.06,53662.90,183.94,1036.10,0.403216,99.64,1
533346,1,44880,1,51771,54843,51573.46,53665.26,197.54,1177.74,0.402864,99.65,1
533386,1,44920,1,51774,54312,51573.86,53666.55,200.14,645.45,0.402515,99.65,1
533426,1,44960,1,51727,54140,51574.17,53667.50,152.83,472.50,0.402168,99.66,1
533466,1,45000,1,51650,53967,51574.32,53668.11,75.68,298.89,0.401821,99.67,1
533506,1,45040,1,51590,53363,51574.36,53667.50,15.64,-304.50,0.401475,99.68,1
533546,1,45080,1,51576,53220,51574.36,53666.60,1.64,-446.60,0.401127,99.69,1
533587,1,45121,1,51579,53884,51574.37,53667.04,4.63,216.96,0.400780,99.70,1
533627,1,45161,1,51586,53912,51574.39,53667.53,11.61,244.47,0.400434,99.71,1
533667,1,45201,1,51597,53945,51574.44,53668.09,22.56,276.91,0.400088,99.72,1
533707,1,45241,1,51607,53941,51574.51,53668.63,32.49,272.37,0.399742,99.72,1
533747,1,45281,1,51604,53935,51574.57,53669.17,29.43,265.83,0.399396,99.73,1
533787,1,45321,1,51603,53949,51574.62,53669.73,28.37,279.27,0.399051,99.74,1
533827,1,45361,1,51791,53977,51575.06,53670.35,215.94,306.65,0.398713,99.75,1
533867,1,45401,1,51963,54015,51575.84,53671.04,387.16,343.96,0.398397,99.76,1
533907,1,45441,1,51657,54063,51576.00,53671.82,81.00,391.18,0.398081,99.76,1
533947,1,45481,1,51678,54108,51576.21,53672.70,101.79,435.30,0.397766,99.77,1
533987,1,45521,1,51698,54146,51576.45,53673.65,121.55,472.35,0.397451,99.78,1
534027,1,45561,1,51555,54179,51576.41,53674.66,-21.41,504.34,0.397134,99.78,1
534067,1,45601,1,51349,54204,51575.96,53675.72,-226.96,528.28,0.396822,99.79,1
534107,1,45641,1,51738,54232,51576.28,53676.83,161.72,555.17,0.396512,99.80,1
534148,1,45682,1,51746,54263,51576.62,53678.00,169.38,585.00,0.396203,99.80,1
534188,1,45722,1,51758,54262,51576.98,53679.17,181.02,582.83,0.395895,99.81,1
534228,1,45762,1,51720,54108,51577.27,53680.03,142.73,427.97,0.395590,99.81,1
534268,1,45802,1,51635,53918,51577.39,53680.51,57.61,237.49,0.395285,99.82,1
534308,1,45842,1,51578,53824,51577.39,53680.80,0.61,143.20,0.394981,99.83,1
534348,1,45882,1,51556,53814,51577.35,53681.07,-21.35,132.93,0.394678,99.83,1
534388,1,45922,1,51563,53823,51577.32,53681.35,-14.32,141.65,0.394375,99.84,1
534428,1,45962,1,51577,53850,51577.32,53681.69,-0.32,168.31,0.394073,99.84,1
534468,1,46002,1,51590,53878,51577.35,53682.09,12.65,195.91,0.393771,99.85,1
534508,1,46042,1,51601,53886,51577.40,53682.50,23.60,203.50,0.393470,99.85,1
534548,1,46082,1,51600,53873,51577.45,53682.88,22.55,190.12,0.393169,99.85,1
534588,1,46122,1,51596,53872,51577.48,53683.26,18.52,188.74,0.392869,99.86,1
534628,1,46162,1,51601,53897,51577.53,53683.69,23.47,213.31,0.392569,99.86,1
534668,1,46202,1,51615,53943,51577.61,53684.21,37.39,258.79,0.392270,99.87,1
534708,1,46242,1,51635,53978,51577.73,53684.80,57.27,293.20,0.391970,99.87,1
534749,1,46283,1,51653,54022,51577.88,53685.47,75.12,336.53,0.391671,99.87,1
534789,1,46323,1,51669,54070,51578.06,53686.24,90.94,383.76,0.391373,99.88,1
534829,1,46363,1,51687,54103,51578.28,53687.08,108.72,415.92,0.391075,99.88,1
534869,1,46403,1,51707,54138,51578.54,53687.98,128.46,450.02,0.390778,99.89,1
534909,1,46443,1,51717,54182,51578.82,53688.97,138.18,493.03,0.390482,99.89,1
534949,1,46483,1,51737,54217,51579.13,53690.03,157.87,526.97,0.390187,99.89,1
534989,1,46523,1,51740,54139,51579.46,53690.93,160.54,448.07,0.389895,99.90,1
535029,1,46563,1,51671,53935,51579.64,53691.41,91.36,243.59,0.389605,99.90,1
535069,1,46603,1,51586,53778,51579.66,53691.59,6.34,86.41,0.389315,99.90,1
535109,1,46643,1,51546,53729,51579.59,53691.67,-33.59,37.33,0.389026,99.90,1
535149,1,46683,1,51542,53733,51579.52,53691.75,-37.52,41.25,0.388739,99.91,1
535189,1,46723,1,51550,53752,51579.46,53691.87,-29.46,60.13,0.388452,99.91,1
535229,1,46763,1,51559,53786,51579.42,53692.07,-20.42,93.93,0.388166,99.91,1
535269,1,46803,1,51573,53809,51579.41,53692.30,-6.41,116.70,0.387881,99.92,1
535310,1,46844,1,51579,53801,51579.41,53692.52,-0.41,108.48,0.387597,99.92,1
535350,1,46884,1,51574,53801,51579.40,53692.74,-5.40,108.26,0.387313,99.92,1
535390,1,46924,1,51574,53814,51579.39,53692.98,-5.39,121.02,0.387030,99.92,1
535430,1,46964,1,51587,53852,51579.41,53693.30,7.59,158.70,0.386747,99.93,1
535470,1,47004,1,51612,53904,51579.47,53693.72,32.53,210.28,0.386465,99.93,1
535510,1,47044,1,51634,53964,51579.58,53694.27,54.42,269.73,0.386183,99.93,1
535550,1,47084,1,51663,54015,51579.75,53694.91,83.25,320.09,0.385902,99.93,1
535590,1,47124,1,51689,54053,51579.97,53695.63,109.03,357.37,0.385621,99.93,1
535630,1,47164,1,51705,54088,51580.22,53696.41,124.78,391.59,0.385343,99.94,1
535670,1,47204,1,51717,54126,51580.49,53697.27,136.51,428.73,0.385066,99.94,1
535710,1,47244,1,51736,54155,51580.80,53698.19,155.20,456.81,0.384791,99.94,1
535750,1,47284,1,51734,54074,51581.11,53698.95,152.89,375.05,0.384520,99.94,1
535790,1,47324,1,51658,53865,51581.27,53699.28,76.73,165.72,0.384251,99.94,1
535830,1,47364,1,51566,53692,51581.24,53699.27,-15.24,-7.27,0.383982,99.95,1
535871,1,47405,1,51520,53634,51581.12,53699.14,-61.12,-65.14,0.383714,99.95,1
535911,1,47445,1,51512,53646,51580.98,53699.03,-68.98,-53.03,0.383449,99.95,1
535951,1,47485,1,51523,53903,51580.87,53699.44,-57.87,203.56,0.383184,99.95,1
535991,1,47525,1,51543,54059,51580.80,53700.16,-37.80,358.84,0.382918,99.95,1
536031,1,47565,1,51559,53741,51580.75,53700.24,-21.75,40.76,0.382653,99.95,1
536071,1,47605,1,51566,53747,51580.73,53700.34,-14.73,46.66,0.382389,99.95,1
536111,1,47645,1,51565,53743,51580.70,53700.42,-15.70,42.58,0.382126,99.96,1
536151,1,47685,1,51578,53494,51580.69,53700.01,-2.69,-206.01,0.381863,99.96,1
536191,1,47725,1,51592,53395,51580.71,53699.40,11.29,-304.40,0.381599,99.96,1
536231,1,47765,1,51614,53848,51580.78,53699.70,33.22,148.30,0.381335,99.96,1
536271,1,47805,1,51631,53892,51580.88,53700.09,50.12,191.91,0.381072,99.96,1
536311,1,47845,1,51653,53934,51581.03,53700.55,71.97,233.45,0.380810,99.96,1
536351,1,47885,1,51671,53974,51581.21,53701.10,89.79,272.90,0.380550,99.96,1
536391,1,47925,1,51687,54012,51581.42,53701.73,105.58,310.27,0.380291,99.96,1
536432,1,47966,1,51702,54049,51581.66,53702.42,120.34,346.58,0.380034,99.97,1
536472,1,48006,1,51738,54074,51581.98,53703.17,156.02,370.83,0.379781,99.97,1
536512,1,48046,1,51861,53963,51582.54,53703.69,278.46,259.31,0.379545,99.97,1
536552,1,48086,1,51616,53733,51582.60,53703.75,33.40,29.25,0.379311,99.97,1
536592,1,48126,1,51532,53585,51582.50,53703.51,-50.50,-118.51,0.379077,99.97,1
536632,1,48166,1,51498,53560,51582.33,53703.23,-84.33,-143.23,0.378845,99.97,1
536672,1,48206,1,51511,53573,51582.19,53702.97,-71.19,-129.97,0.378615,99.97,1
536712,1,48246,1,51374,53601,51581.78,53702.77,-207.78,-101.77,0.378396,99.97,1
536752,1,48286,1,51539,53644,51581.69,53702.65,-42.69,-58.65,0.378178,99.97,1
536792,1,48326,1,51558,53668,51581.64,53702.58,-23.64,-34.58,0.377960,99.97,1
536832,1,48366,1,51561,53661,51581.61,53702.50,-20.61,-41.50,0.377744,99.97,1
536872,1,48406,1,50843,53649,51580.13,53702.39,-737.13,-53.39,0.377653,99.98,1
536912,1,48446,1,51561,53679,51580.09,53702.35,-19.09,-23.35,0.377563,99.98,1
536952,1,48486,1,51576,53721,51580.09,53702.39,-4.09,18.61,0.377474,99.98,1
536992,1,48526,1,51602,53771,51580.13,53702.52,21.87,68.48,0.377385,99.98,1
537033,1,48567,1,51621,53821,51580.21,53702.76,40.79,118.24,0.377295,99.98,1
537073,1,48607,1,51640,53871,51580.34,53703.10,59.66,167.90,0.377207,99.98,1
537113,1,48647,1,51661,53915,51580.50,53703.52,80.50,211.48,0.377119,99.98,1
537153,1,48687,1,51679,53952,51580.70,53704.02,98.30,247.98,0.377032,99.98,1
537193,1,48727,1,51699,53999,51580.94,53704.61,118.06,294.39,0.376946,99.98,1
537233,1,48767,1,51714,53998,51581.20,53705.20,132.80,292.80,0.376862,99.98,1
537273,1,48807,1,51685,53821,51581.41,53705.44,103.59,115.56,0.376781,99.98,1
537313,1,48847,1,51587,53592,51581.42,53705.21,5.58,-113.21,0.376699,99.98,1
537353,1,48887,1,51512,53478,51581.29,53704.76,-69.29,-226.76,0.376618,99.98,1
537393,1,48927,1,51488,53466,51581.10,53704.28,-93.10,-238.28,0.376537,99.98,1
537433,1,48967,1,51495,53480,51580.93,53703.84,-85.93,-223.84,0.376457,99.98,1
537473,1,49007,1,51511,53513,51580.79,53703.46,-69.79,-190.46,0.376378,99.98,1
537513,1,49047,1,51530,53562,51580.69,53703.18,-50.69,-141.18,0.376298,99.98,1
537553,1,49087,1,51540,53570,51580.61,53702.91,-40.61,-132.91,0.376219,99.99,1
537594,1,49128,1,51540,53563,51580.54,53702.63,-40.54,-139.63,0.376140,99.99,1
537634,1,49168,1,51536,53568,51580.45,53702.36,-44.45,-134.36,0.376061,99.99,1
537674,1,49208,1,51546,53603,51580.38,53702.16,-34.38,-99.16,0.375983,99.99,1
537714,1,49248,1,51566,53651,51580.36,53702.06,-14.36,-51.06,0.375905,99.99,1
537754,1,49288,1,51595,53710,51580.39,53702.08,14.61,7.92,0.375827,99.99,1
537794,1,49328,1,51618,53769,51580.46,53702.21,37.54,66.79,0.375749,99.99,1
537834,1,49368,1,51648,53817,51580.60,53702.45,67.40,114.55,0.375673,99.99,1
537874,1,49408,1,51666,53850,51580.77,53702.74,85.23,147.26,0.375598,99.99,1
537914,1,49448,1,51685,53891,51580.98,53703.12,104.02,187.88,0.375525,99.99,1
537954,1,49488,1,51701,53927,51581.23,53703.57,119.77,223.43,0.375454,99.99,1
537994,1,49528,1,51703,53852,51581.47,53703.87,121.53,148.13,0.375388,99.99,1
538034,1,49568,1,51629,53619,51581.57,53703.70,47.43,-84.70,0.375321,99.99,1
538074,1,49608,1,51525,53418,51581.46,53703.13,-56.46,-285.13,0.375254,99.99,1
538114,1,49648,1,51464,53351,51581.22,53702.43,-117.22,-351.43,0.375186,99.99,1
538154,1,49688,1,51462,53356,51580.98,53701.73,-118.98,-345.73,0.375119,99.99,1
538195,1,49729,1,51466,53374,51580.75,53701.08,-114.75,-327.08,0.375052,99.99,1
538235,1,49769,1,51478,53426,51580.55,53700.54,-102.55,-274.54,0.374986,99.99,1
538275,1,49809,1,51500,53463,51580.39,53700.06,-80.39,-237.06,0.374920,99.99,1
538315,1,49849,1,51510,53467,51580.25,53699.60,-70.25,-232.60,0.374853,99.99,1
538355,1,49889,1,51510,53465,51580.11,53699.13,-70.11,-234.13,0.374787,99.99,1
538395,1,49929,1,51514,53494,51579.98,53698.72,-65.98,-204.72,0.374721,99.99,1
538435,1,49969,1,51535,53541,51579.89,53698.41,-44.89,-157.41,0.374655,99.99,1
538475,1,50009,1,51565,53597,51579.86,53698.20,-14.86,-101.20,0.374588,99.99,1
538515,1,50049,1,51591,53652,51579.88,53698.11,11.12,-46.11,0.374522,99.99,1
538555,1,50089,1,51615,53701,51579.95,53698.12,35.05,2.88,0.374456,99.99,1
538595,1,50129,1,51634,53748,51580.06,53698.22,53.94,49.78,0.374391,99.99,1
538635,1,50169,1,51650,53774,51580.20,53698.37,69.80,75.62,0.374328,99.99,1
538675,1,50209,1,51662,53814,51580.37,53698.61,81.63,115.39,0.374267,99.99,1
538715,1,50249,1,51678,53837,51580.56,53698.89,97.44,138.11,0.374208,99.99,1
538756,1,50290,1,51666,54080,51580.73,53699.65,85.27,380.35,0.374146,99.99,1
538796,1,50330,1,51564,53943,51580.70,53700.14,-16.70,242.86,0.374082,99.99,1
538836,1,50370,1,51467,53314,51580.48,53699.37,-113.48,-385.37,0.374018,99.99,1
538876,1,50410,1,51438,53291,51580.19,53698.55,-142.19,-407.55,0.373953,99.99,1
538916,1,50450,1,51441,53306,51579.91,53697.77,-138.91,-391.77,0.373890,99.99,1
538956,1,50490,1,51450,52884,51579.66,53696.14,-129.66,-812.14,0.373809,99.99,1
538996,1,50530,1,51470,52830,51579.44,53694.41,-109.44,-864.41,0.373706,100.00,1
539036,1,50570,1,51496,53433,51579.27,53693.89,-83.27,-260.89,0.373604,100.00,1
539076,1,50610,1,51508,53431,51579.13,53693.37,-71.13,-262.37,0.373502,100.00,1
539116,1,50650,1,51505,53443,51578.98,53692.87,-73.98,-249.87,0.373399,100.00,1
539156,1,50690,1,51513,53475,51578.86,53692.43,-65.86,-217.43,0.373297,100.00,1
539196,1,50730,1,51538,53525,51578.77,53692.10,-40.77,-167.10,0.373194,100.00,1
539236,1,50770,1,51558,53582,51578.73,53691.88,-20.73,-109.88,0.373092,100.00,1
539276,1,50810,1,51701,53639,51578.98,53691.78,122.02,-52.78,0.372994,100.00,1
539316,1,50850,1,51859,53683,51579.54,53691.76,279.46,-8.76,0.372922,100.00,1
539357,1,50891,1,51619,53722,51579.62,53691.82,39.38,30.18,0.372850,100.00,1
539397,1,50931,1,51632,53763,51579.73,53691.97,52.27,71.03,0.372779,100.00,1
539437,1,50971,1,51647,53813,51579.87,53692.21,67.13,120.79,0.372709,100.00,1
539477,1,51011,1,51601,53855,51579.91,53692.54,21.09,162.46,0.372639,100.00,1
539517,1,51051,1,51416,53763,51579.58,53692.68,-163.58,70.32,0.372577,100.00,1
539557,1,51091,1,51586,53537,51579.60,53692.37,6.40,-155.37,0.372514,100.00,1
539597,1,51131,1,51489,53371,51579.42,53691.73,-90.42,-320.73,0.372451,100.00,1
539637,1,51171,1,51453,53334,51579.17,53691.02,-126.17,-357.02,0.372388,100.00,1
539677,1,51211,1,51452,53345,51578.91,53690.32,-126.91,-345.32,0.372327,100.00,1
539717,1,51251,1,51462,53374,51578.68,53689.69,-116.68,-315.69,0.372266,100.00,1
539757,1,51291,1,51477,53424,51578.48,53689.16,-101.48,-265.16,0.372206,100.00,1
539797,1,51331,1,51502,53465,51578.32,53688.71,-76.32,-223.71,0.372146,100.00,1
539837,1,51371,1,51512,53470,51578.19,53688.28,-66.19,-218.28,0.372086,100.00,1
539877,1,51411,1,51505,53469,51578.05,53687.84,-73.05,-218.84,0.372027,100.00,1
539917,1,51451,1,51509,53499,51577.91,53687.46,-68.91,-188.46,0.371967,100.00,1
539958,1,51492,1,51528,53549,51577.81,53687.19,-49.81,-138.19,0.371908,100.00,1
539998,1,51532,1,51548,53615,51577.75,53687.04,-29.75,-72.04,0.371849,100.00,1
540038,1,51572,1,51572,53675,51577.74,53687.02,-5.74,-12.02,0.371791,100.00,1
540078,1,51612,1,51601,53725,51577.79,53687.10,23.21,37.90,0.371732,100.00,1
540118,1,51652,1,51623,53774,51577.88,53687.27,45.12,86.73,0.371675,100.00,1
540158,1,51692,1,51641,53821,51578.01,53687.54,62.99,133.46,0.371618,100.00,1
540198,1,51732,1,51661,53865,51578.18,53687.90,82.82,177.10,0.371562,100.00,1
540238,1,51772,1,51685,53908,51578.39,53688.34,106.61,219.66,0.371509,100.00,1
540278,1,51812,1,51701,53893,51578.64,53688.75,122.36,204.25,0.371460,100.00,1
540318,1,51852,1,51651,53706,51578.78,53688.79,72.22,17.21,0.371413,100.00,1
540358,1,51892,1,51542,53490,51578.71,53688.39,-36.71,-198.39,0.371364,100.00,1
540398,1,51932,1,51473,53402,51578.50,53687.82,-105.50,-285.82,0.371317,100.00,1
540438,1,51972,1,51453,53400,51578.25,53687.25,-125.25,-287.25,0.371271,100.00,1
540478,1,52012,1,51457,53412,51578.01,53686.70,-121.01,-274.70,0.371228,100.00,1
540519,1,52053,1,51463,53445,51577.78,53686.21,-114.78,-241.21,0.371188,100.00,1
540559,1,52093,1,51486,53496,51577.59,53685.84,-91.59,-189.84,0.371149,100.00,1
540599,1,52133,1,51499,53522,51577.44,53685.51,-78.44,-163.51,0.371112,100.00,1
540639,1,52173,1,51505,53524,51577.29,53685.19,-72.29,-161.19,0.371075,100.00,1
540679,1,52213,1,51505,53548,51577.15,53684.91,-72.15,-136.91,0.371040,100.00,1
540719,1,52253,1,51522,53601,51577.04,53684.75,-55.04,-83.75,0.371006,100.00,1
540759,1,52293,1,51549,53666,51576.98,53684.71,-27.98,-18.71,0.370972,100.00,1
540799,1,52333,1,51577,53722,51576.98,53684.79,0.02,37.21,0.370938,100.00,1
540839,1,52373,1,51603,53774,51577.04,53684.96,25.96,89.04,0.370904,100.00,1
540879,1,52413,1,51628,53820,51577.14,53685.23,50.86,134.77,0.370870,100.00,1
540919,1,52453,1,51643,53856,51577.27,53685.58,65.73,170.42,0.370837,100.00,1
540959,1,52493,1,51656,53888,51577.43,53685.98,78.57,202.02,0.370804,100.00,1
540999,1,52533,1,51670,53927,51577.62,53686.47,92.38,240.53,0.370772,100.00,1
541039,1,52573,1,51681,53962,51577.83,53687.02,103.17,274.98,0.370741,100.00,1
541079,1,52613,1,51682,53885,51578.04,53687.42,103.96,197.58,0.370713,100.00,1
541120,1,52654,1,51599,53657,51578.08,53687.36,20.92,-30.36,0.370685,100.00,1
541160,1,52694,1,51496,53489,51577.92,53686.96,-81.92,-197.96,0.370657,100.00,1
541200,1,52734,1,51450,53450,51577.66,53686.49,-127.66,-236.49,0.370634,100.00,1
541240,1,52774,1,51442,53461,51577.39,53686.04,-135.39,-225.04,0.370616,100.00,1
541280,1,52814,1,51454,53487,51577.15,53685.64,-123.15,-198.64,0.370603,100.00,1
541320,1,52854,1,51469,53547,51576.93,53685.37,-107.93,-138.37,0.370593,100.00,1
541360,1,52894,1,51496,53588,51576.77,53685.18,-80.77,-97.18,0.370586,100.00,1
541400,1,52934,1,51513,53692,51576.65,53685.19,-63.65,6.81,0.370580,100.00,1
541440,1,52974,1,51514,53852,51576.52,53685.53,-62.52,166.47,0.370575,100.00,1
541480,1,53014,1,51519,53644,51576.41,53685.45,-57.41,-41.45,0.370571,100.00,1
541520,1,53054,1,51543,53690,51576.34,53685.46,-33.34,4.54,0.370567,100.00,1
541560,1,53094,1,51563,53749,51576.32,53685.59,-13.32,63.41,0.370563,100.00,1
541600,1,53134,1,51589,53704,51576.35,53685.62,12.65,18.37,0.370560,100.00,1
541640,1,53174,1,51607,53557,51576.41,53685.37,30.59,-128.37,0.370556,100.00,1
541681,1,53215,1,51628,53910,51576.52,53685.82,51.48,224.18,0.370550,100.00,1
541721,1,53255,1,51644,53953,51576.65,53686.35,67.35,266.65,0.370542,100.00,1
541761,1,53295,1,51656,54000,51576.81,53686.98,79.19,313.02,0.370532,100.00,1
541801,1,53335,1,51681,54053,51577.02,53687.71,103.98,365.29,0.370519,100.00,1
541841,1,53375,1,51702,54066,51577.27,53688.47,124.73,377.53,0.370505,100.00,1
541881,1,53415,1,51664,53920,51577.45,53688.94,86.55,231.06,0.370491,100.00,1
541921,1,53455,1,51581,53733,51577.46,53689.03,3.54,43.97,0.370478,100.00,1
541961,1,53495,1,51538,53649,51577.38,53688.95,-39.38,-39.95,0.370465,100.00,1
542001,1,53535,1,51499,53642,51577.22,53688.86,-78.22,-46.86,0.370455,100.00,1
542041,1,53575,1,51495,53658,51577.06,53688.80,-82.06,-30.80,0.370448,100.00,1
542081,1,53615,1,51502,53690,51576.91,53688.80,-74.91,1.20,0.370444,100.00,1
542121,1,53655,1,51965,53737,51577.69,53688.90,387.31,48.10,0.370510,100.00,1
542161,1,53695,1,51538,53765,51577.61,53689.05,-39.61,75.95,0.370575,100.00,1
542201,1,53735,1,51536,53770,51577.53,53689.21,-41.53,80.79,0.370642,100.00,1
542242,1,53776,1,51541,53791,51577.46,53689.42,-36.46,101.58,0.370707,100.00,1
542282,1,53816,1,51552,53834,51577.41,53689.71,-25.41,144.29,0.370772,100.00,1
542322,1,53856,1,51032,53896,51576.32,53690.12,-544.32,205.88,0.370966,100.00,1
542362,1,53896,1,50924,53953,51575.01,53690.65,-651.01,262.35,0.371326,100.00,1
542402,1,53936,1,51624,54008,51575.11,53691.29,48.89,316.71,0.371676,100.00,1
542442,1,53976,1,51644,54070,51575.25,53692.04,68.75,377.96,0.372015,100.00,1
542482,1,54016,1,51666,54116,51575.43,53692.89,90.57,423.11,0.372342,100.00,1
542522,1,54056,1,51691,54159,51575.67,53693.82,115.33,465.18,0.372656,100.00,1
542562,1,54096,1,51714,54206,51575.95,53694.85,138.05,511.15,0.372955,100.00,1
542602,1,54136,1,51732,54240,51576.26,53695.94,155.74,544.06,0.373240,100.00,1
542642,1,54176,1,51711,54127,51576.53,53696.80,134.47,430.20,0.373517,100.00,1
542682,1,54216,1,51628,53954,51576.63,53697.32,51.37,256.68,0.373789,100.00,1
542722,1,54256,1,51565,53868,51576.61,53697.66,-11.61,170.34,0.374058,100.00,1
542762,1,54296,1,51541,53852,51576.54,53697.97,-35.54,154.03,0.374325,100.00,1
542803,1,54337,1,51535,53861,51576.46,53698.30,-41.46,162.70,0.374591,100.00,1
542843,1,54377,1,51540,53889,51576.39,53698.68,-36.39,190.32,0.374853,100.00,1
542883,1,54417,1,51553,53934,51576.34,53699.16,-23.34,234.84,0.375110,100.00,1
542923,1,54457,1,51569,53959,51576.33,53699.68,-7.33,259.32,0.375362,100.00,1
542963,1,54497,1,51571,53968,51576.32,53700.21,-5.32,267.79,0.375607,100.00,1
543003,1,54537,1,51570,53991,51576.31,53700.80,-6.31,290.20,0.375845,100.00,1
543043,1,54577,1,51587,54034,51576.33,53701.46,10.67,332.54,0.376075,100.00,1
543083,1,54617,1,51610,54082,51576.40,53702.23,33.60,379.77,0.376293,100.00,1
543123,1,54657,1,51637,54132,51576.52,53703.09,60.48,428.91,0.376499,100.00,1
543163,1,54697,1,51661,54183,51576.70,53704.05,84.30,478.95,0.376691,100.00,1
543203,1,54737,1,51675,54226,51576.89,53705.09,98.11,520.91,0.376867,100.00,1
543243,1,54777,1,51694,54262,51577.13,53706.21,116.87,555.79,0.377027,100.00,1
543283,1,54817,1,51708,54304,51577.39,53707.40,130.61,596.60,0.377170,100.00,1
543323,1,54857,1,51720,54346,51577.68,53708.68,142.32,637.32,0.377296,100.00,1
543363,1,54897,1,51736,54349,51577.99,53709.96,158.01,639.04,0.377405,100.00,1
543404,1,54938,1,51696,54216,51578.23,53710.97,117.77,505.03,0.377505,100.00,1
543444,1,54978,1,51624,54088,51578.32,53711.73,45.68,376.27,0.377598,100.00,1
543484,1,55018,1,51571,54034,51578.31,53712.37,-7.31,321.63,0.377684,100.00,1
543524,1,55058,1,51560,54036,51578.28,53713.02,-18.28,322.98,0.377764,100.00,1
543564,1,55098,1,51568,54054,51578.26,53713.70,-10.26,340.30,0.377838,100.00,1
543604,1,55138,1,51573,54087,51578.25,53714.45,-5.25,372.55,0.377903,100.00,1
543644,1,55178,1,51594,54126,51578.28,53715.27,15.72,410.73,0.377960,100.00,1
543684,1,55218,1,51606,54134,51578.34,53716.11,27.66,417.89,0.378007,100.00,1
543724,1,55258,1,51605,54142,51578.39,53716.96,26.61,425.04,0.378044,100.00,1
543764,1,55298,1,51607,54164,51578.45,53717.86,28.55,446.14,0.378071,100.00,1
543804,1,55338,1,51616,54195,51578.53,53718.82,37.47,476.18,0.378087,100.00,1
543844,1,55378,1,51634,54238,51578.64,53719.86,55.36,518.14,0.378091,100.00,1
543884,1,55418,1,51653,54285,51578.79,53720.99,74.21,564.01,0.378081,100.00,1
543924,1,55458,1,51670,54329,51578.98,53722.21,91.02,606.79,0.378056,100.00,1
543965,1,55499,1,51684,54361,51579.19,53723.48,104.81,637.52,0.378017,100.00,1
544005,1,55539,1,51694,54402,51579.42,53724.84,114.58,677.16,0.377963,100.00,1
544045,1,55579,1,51709,54445,51579.68,53726.29,129.32,718.71,0.377893,100.00,1
544085,1,55619,1,51729,54479,51579.98,53727.79,149.02,751.21,0.377808,100.00,1
544125,1,55659,1,51726,54410,51580.27,53729.16,145.73,680.84,0.377713,100.00,1
544165,1,55699,1,51659,54275,51580.43,53730.25,78.57,544.75,0.377609,100.00,1
544205,1,55739,1,51602,54480,51580.48,53731.75,21.52,748.25,0.377485,100.00,1
544245,1,55779,1,51579,54618,51580.48,53733.53,-1.48,884.47,0.377335,100.00,1
544285,1,55819,1,51581,54169,51580.48,53734.40,0.52,434.60,0.377179,100.00,1
544325,1,55859,1,51578,54183,51580.48,53735.30,-2.48,447.70,0.377017,100.00,1
544365,1,55899,1,51587,54210,51580.49,53736.25,6.51,473.75,0.376848,100.00,1
544405,1,55939,1,51601,53876,51580.54,53736.53,20.46,139.47,0.376680,100.00,1
544445,1,55979,1,51596,53630,51580.57,53736.32,15.43,-106.32,0.376511,100.00,1
544485,1,56019,1,51587,54230,51580.58,53737.30,6.42,492.70,0.376335,100.00,1
544525,1,56059,1,51593,54249,51580.61,53738.33,12.39,510.67,0.376152,100.00,1
544566,1,56100,1,51603,54284,51580.66,53739.42,22.34,544.58,0.375960,100.00,1
544606,1,56140,1,51621,54328,51580.74,53740.60,40.26,587.40,0.375758,100.00,1
544646,1,56180,1,51633,54371,51580.84,53741.86,52.16,629.14,0.375546,100.00,1
544686,1,56220,1,51655,54403,51580.99,53743.19,74.01,659.81,0.375324,100.00,1
544726,1,56260,1,51755,54442,51581.34,53744.59,173.66,697.41,0.375100,100.00,1
544766,1,56300,1,51891,54482,51581.96,53746.06,309.04,735.94,0.374892,100.00,1
544806,1,56340,1,51701,54521,51582.20,53747.61,118.80,773.39,0.374673,100.00,1
544846,1,56380,1,51715,54498,51582.46,53749.12,132.54,748.88,0.374445,100.00,1
544886,1,56420,1,51670,54370,51582.64,53750.36,87.36,619.64,0.374211,100.00,1
544926,1,56460,1,51568,54256,51582.61,53751.37,-14.61,504.63,0.373971,100.00,1
544966,1,56500,1,51359,54204,51582.17,53752.28,-223.17,451.72,0.373743,100.00,1
545006,1,56540,1,51548,54194,51582.10,53753.16,-34.10,440.84,0.373510,100.00,1
545046,1,56580,1,51539,54189,51582.02,53754.04,-43.02,434.96,0.373274,100.00,1
545086,1,56620,1,51541,54208,51581.93,53754.95,-40.93,453.05,0.373035,100.00,1
545127,1,56661,1,50761,54227,51580.29,53755.89,-819.29,471.11,0.372980,100.00,1
545167,1,56701,1,51550,54231,51580.23,53756.85,-30.23,474.15,0.372919,100.00,1
545207,1,56741,1,51546,54237,51580.17,53757.81,-34.17,479.19,0.372852,100.00,1
545247,1,56781,1,51545,54250,51580.10,53758.79,-35.10,491.21,0.372778,100.00,1
545287,1,56821,1,51556,54285,51580.05,53759.85,-24.05,525.15,0.372697,100.00,1
545327,1,56861,1,51575,54332,51580.04,53760.99,-5.04,571.01,0.372606,100.00,1
545367,1,56901,1,51593,54367,51580.07,53762.21,12.93,604.79,0.372506,100.00,1
545407,1,56941,1,51614,54403,51580.14,53763.49,33.86,639.51,0.372395,100.00,1
545447,1,56981,1,51626,54430,51580.23,53764.82,45.77,665.18,0.372273,100.00,1
545487,1,57021,1,51637,54462,51580.35,53766.22,56.65,695.78,0.372140,100.00,1
545527,1,57061,1,51650,54495,51580.49,53767.68,69.51,727.32,0.371995,100.00,1
545567,1,57101,1,51665,54494,51580.66,53769.13,84.34,724.87,0.371839,100.00,1
545607,1,57141,1,51635,54386,51580.77,53770.36,54.23,615.64,0.371675,100.00,1
545647,1,57181,1,51557,54253,51580.72,53771.33,-23.72,481.67,0.371507,100.00,1
545687,1,57221,1,51508,54191,51580.58,53772.17,-72.58,418.83,0.371336,100.00,1
545728,1,57262,1,51489,54174,51580.39,53772.97,-91.39,401.03,0.371164,100.00,1
545768,1,57302,1,51479,54169,51580.19,53773.77,-101.19,395.23,0.370992,100.00,1
545808,1,57342,1,51474,54180,51579.98,53774.58,-105.98,405.42,0.370819,100.00,1
545848,1,57382,1,51487,54207,51579.80,53775.45,-92.80,431.55,0.370645,100.00,1
545888,1,57422,1,51496,54223,51579.63,53776.34,-83.63,446.66,0.370468,100.00,1
545928,1,57462,1,51496,54224,51579.46,53777.24,-83.46,446.76,0.370289,100.00,1
545968,1,57502,1,51503,54240,51579.31,53778.17,-76.31,461.83,0.370107,100.00,1
546008,1,57542,1,51515,54266,51579.18,53779.14,-64.18,486.86,0.369921,100.00,1
546048,1,57582,1,51528,54304,51579.08,53780.20,-51.08,523.80,0.369730,100.00,1
546088,1,57622,1,51541,54337,51579.01,53781.31,-38.01,555.69,0.369533,100.00,1
546128,1,57662,1,51560,54370,51578.97,53782.49,-18.97,587.51,0.369329,100.00,1
546168,1,57702,1,51570,54398,51578.96,53783.72,-8.96,614.28,0.369117,100.00,1
546208,1,57742,1,51583,54425,51578.96,53785.00,4.04,640.00,0.368897,100.00,1
546248,1,57782,1,51591,54457,51578.99,53786.35,12.01,670.65,0.368668,100.00,1
546289,1,57823,1,51602,54483,51579.04,53787.74,22.96,695.26,0.368430,100.00,1
546329,1,57863,1,51602,54428,51579.09,53789.02,22.91,638.98,0.368184,100.00,1
546369,1,57903,1,51540,54299,51579.01,53790.04,-39.01,508.96,0.367934,100.00,1
546409,1,57943,1,51483,54213,51578.82,53790.89,-95.82,422.11,0.367684,100.00,1
546449,1,57983,1,51459,54192,51578.58,53791.70,-119.58,400.30,0.367436,100.00,1
546489,1,58023,1,51448,54189,51578.32,53792.49,-130.32,396.51,0.367189,100.00,1
546529,1,58063,1,51454,54190,51578.07,53793.29,-124.07,396.71,0.366945,100.00,1
546569,1,58103,1,51462,54210,51577.84,53794.12,-115.84,415.87,0.366701,100.00,1
546609,1,58143,1,51473,54226,51577.63,53794.99,-104.63,431.01,0.366457,100.00,1
546649,1,58183,1,51473,54233,51577.43,53795.87,-104.43,437.13,0.366213,100.00,1
546689,1,58223,1,51472,54228,51577.21,53796.73,-105.21,431.27,0.365969,100.00,1
546729,1,58263,1,51477,54251,51577.02,53797.64,-100.02,453.36,0.365724,100.00,1
546769,1,58303,1,51487,54287,51576.84,53798.62,-89.84,488.37,0.365477,100.00,1
546809,1,58343,1,51504,54321,51576.69,53799.67,-72.69,521.33,0.365227,100.00,1
546850,1,58384,1,51518,54478,51576.57,53801.03,-58.57,676.97,0.364970,100.00,1
546890,1,58424,1,51534,54639,51576.49,53802.71,-42.49,836.29,0.364700,100.00,1
546930,1,58464,1,51545,54425,51576.43,53803.95,-31.43,621.05,0.364425,100.00,1
546970,1,58504,1,51555,54455,51576.39,53805.26,-21.39,649.74,0.364142,100.00,1
547010,1,58544,1,51574,54497,51576.38,53806.64,-2.38,690.36,0.363852,100.00,1
547050,1,58584,1,51589,54430,51576.41,53807.89,12.59,622.11,0.363556,100.00,1
547090,1,58624,1,51592,54173,51576.44,53808.62,15.56,364.37,0.363258,100.00,1
547130,1,58664,1,51539,54342,51576.37,53809.69,-37.37,532.31,0.362957,100.00,1
547170,1,58704,1,51483,54261,51576.18,53810.59,-93.18,450.41,0.362655,100.00,1
547210,1,58744,1,51459,54239,51575.95,53811.45,-116.95,427.55,0.362356,100.00,1
547250,1,58784,1,51453,54223,51575.70,53812.28,-122.70,410.72,0.362058,100.00,1
547290,1,58824,1,51447,54221,51575.45,53813.10,-128.45,407.90,0.361762,100.00,1
547330,1,58864,1,51450,54243,51575.20,53813.96,-125.20,429.04,0.361469,100.00,1
547370,1,58904,1,51457,54257,51574.96,53814.84,-117.96,442.16,0.361177,100.00,1
547411,1,58945,1,51474,54254,51574.76,53815.72,-100.76,438.28,0.360885,100.00,1
547451,1,58985,1,51454,54253,51574.52,53816.60,-120.52,436.40,0.360595,100.00,1
547491,1,59025,1,51457,54278,51574.29,53817.52,-117.29,460.48,0.360306,100.00,1
547531,1,59065,1,51470,54319,51574.08,53818.53,-104.08,500.47,0.360016,100.00,1
547571,1,59105,1,51889,54353,51574.71,53819.60,314.29,533.40,0.359749,100.00,1
547611,1,59145,1,52002,54400,51575.57,53820.76,426.43,579.24,0.359524,100.00,1
547651,1,59185,1,51526,54437,51575.47,53822.00,-49.47,615.00,0.359294,100.00,1
547691,1,59225,1,51547,54464,51575.42,53823.28,-28.42,640.72,0.359057,100.00,1
547731,1,59265,1,51563,54492,51575.39,53824.62,-12.39,667.38,0.358812,100.00,1
547771,1,59305,1,51123,54520,51574.49,53826.01,-451.49,693.99,0.358610,100.00,1
547811,1,59345,1,51021,54555,51573.39,53827.47,-552.39,727.53,0.358469,100.00,1
547851,1,59385,1,51598,54531,51573.44,53828.88,24.56,702.12,0.358319,100.00,1
547891,1,59425,1,51551,54404,51573.39,53830.04,-22.39,573.96,0.358163,100.00,1
547931,1,59465,1,51485,54302,51573.22,53830.98,-88.22,471.02,0.358005,100.00,1
547971,1,59505,1,51448,54256,51572.97,53831.83,-124.97,424.17,0.357848,100.00,1
548012,1,59546,1,51436,54239,51572.70,53832.65,-136.70,406.35,0.357692,100.00,1
548052,1,59586,1,51429,54236,51572.41,53833.46,-143.41,402.54,0.357538,100.00,1
548092,1,59626,1,51424,54258,51572.11,53834.31,-148.11,423.69,0.357386,100.00,1
548132,1,59666,1,51440,54279,51571.85,53835.20,-131.85,443.80,0.357235,100.00,1
548172,1,59706,1,51448,54287,51571.61,53836.11,-123.61,450.89,0.357084,100.00,1
548212,1,59746,1,51444,54290,51571.35,53837.02,-127.35,452.98,0.356932,100.00,1
548252,1,59786,1,51452,54313,51571.11,53837.97,-119.11,475.03,0.356780,100.00,1
548292,1,59826,1,51471,54342,51570.91,53838.98,-99.91,503.02,0.356626,100.00,1
548332,1,59866,1,51489,54376,51570.75,53840.05,-81.75,535.95,0.356469,100.00,1
548372,1,59906,1,51501,54413,51570.61,53841.20,-69.61,571.80,0.356306,100.00,1
548412,1,59946,1,51515,54441,51570.50,53842.40,-55.50,598.60,0.356138,100.00,1
548452,1,59986,1,51533,54466,51570.43,53843.65,-37.43,622.35,0.355964,100.00,1
548492,1,60026,2,51538,54493,51570.37,53844.95,-32.37,648.05,0.355782,100.00,1
548532,1,60066,2,51546,54520,51570.32,53846.30,-24.32,673.70,0.355593,100.00,1
548573,1,60107,2,51562,54546,51570.30,53847.70,-8.30,698.30,0.355396,100.00,1
548613,1,60147,2,51574,54578,51570.31,53849.16,3.69,728.84,0.355190,100.00,1
548653,1,60187,2,51565,54509,51570.30,53850.48,-5.30,658.52,0.354977,100.00,1
548693,1,60227,2,51503,54376,51570.17,53851.54,-67.17,524.46,0.354761,100.00,1
548733,1,60267,2,51452,54302,51569.94,53852.44,-117.94,449.56,0.354546,100.00,1
548773,1,60307,2,51428,54284,51569.66,53853.30,-141.66,430.70,0.354333,100.00,1
548813,1,60347,2,51427,54277,51569.37,53854.15,-142.37,422.85,0.354122,100.00,1
548853,1,60387,2,51427,54277,51569.09,53855.00,-142.09,422.00,0.353913,100.00,1
548893,1,60427,2,51436,54300,51568.82,53855.89,-132.82,444.11,0.353706,100.00,1
548933,1,60467,2,51445,54309,51568.57,53856.79,-123.57,452.21,0.353500,100.00,1
548973,1,60507,2,51442,54302,51568.32,53857.68,-126.32,444.32,0.353294,100.00,1
549013,1,60547,2,51440,54305,51568.07,53858.58,-128.07,446.42,0.353089,100.00,1
549053,1,60587,2,51445,54324,51567.82,53859.51,-122.82,464.49,0.352885,100.00,1
549093,1,60627,2,51454,54360,51567.60,53860.52,-113.60,499.48,0.352680,100.00,1
549133,1,60667,2,51472,54391,51567.41,53861.58,-95.41,529.42,0.352473,100.00,1
549174,1,60708,2,51486,54424,51567.25,53862.70,-81.25,561.30,0.352263,100.00,1
549214,1,60748,2,51499,54454,51567.11,53863.89,-68.11,590.11,0.352048,100.00,1
549254,1,60788,2,51509,54486,51567.00,53865.13,-58.00,620.87,0.351829,100.00,1
549294,1,60828,2,51522,54516,51566.91,53866.44,-44.91,649.56,0.351603,100.00,1
549334,1,60868,2,51536,54548,51566.85,53867.80,-30.85,680.20,0.351371,100.00,1
549374,1,60908,2,51553,54585,51566.82,53869.24,-13.82,715.76,0.351132,100.00,1
549414,1,60948,2,51567,54563,51566.82,53870.63,0.18,692.37,0.350885,100.00,1
549454,1,60988,2,51527,54440,51566.74,53871.77,-39.74,568.23,0.350635,100.00,1
549494,1,61028,2,51461,54334,51566.53,53872.70,-105.53,461.30,0.350385,100.00,1
549534,1,61068,2,51425,54291,51566.25,53873.54,-141.25,417.46,0.350137,100.00,1
549574,1,61108,2,51419,54279,51565.96,53874.35,-146.96,404.65,0.349893,100.00,1
549614,1,61148,2,51409,54271,51565.64,53875.14,-156.64,395.86,0.349653,100.00,1
549654,1,61188,2,51407,54697,51565.33,53876.79,-158.33,820.21,0.349409,100.00,1
549695,1,61229,2,51417,54310,51565.03,53877.65,-148.03,432.35,0.349168,100.00,1
549735,1,61269,2,51425,54316,51564.75,53878.53,-139.75,437.47,0.348930,100.00,1
549775,1,61309,2,51416,54312,51564.46,53879.40,-148.46,432.60,0.348694,100.00,1
549815,1,61349,2,51424,54332,51564.18,53880.30,-140.18,451.70,0.348461,100.00,1
549855,1,61389,2,51433,53749,51563.91,53880.04,-130.91,-131.04,0.348232,100.00,1
549895,1,61429,2,51453,54400,51563.70,53881.09,-110.70,518.91,0.348002,100.00,1
549935,1,61469,2,51476,54432,51563.52,53882.19,-87.52,549.81,0.347770,100.00,1
549975,1,61509,2,51493,54459,51563.38,53883.34,-70.38,575.66,0.347535,100.00,1
550015,1,61549,2,51502,54486,51563.26,53884.55,-61.26,601.45,0.347295,100.00,1
550055,1,61589,2,51510,54511,51563.15,53885.80,-53.15,625.20,0.347051,100.00,1
550095,1,61629,2,51523,54532,51563.07,53887.10,-40.07,644.90,0.346802,100.00,1
550135,1,61669,2,51536,54557,51563.02,53888.44,-27.02,668.56,0.346547,100.00,1
