t_ms,trial_id,t_trial_ms,phase,red_raw,ir_raw,red_dc,ir_dc,red_ac,ir_ac,R,spo2,spo2_valid
845595,1,0,0,50614,51137,50967.42,51608.45,-353.42,-471.45,0.49682,97.68,1
845635,1,40,0,50654,51222,50966.79,51607.68,-312.79,-385.68,0.497076,97.67,1
845675,1,80,0,50688,51292,50966.24,51607.05,-278.24,-315.05,0.497337,97.67,1
845715,1,120,0,50716,51341,50965.74,51606.52,-249.74,-265.52,0.497603,97.67,1
845755,1,160,0,50743,51383,50965.29,51606.07,-222.29,-223.07,0.497872,97.66,1
845795,1,200,0,50760,51401,50964.88,51605.66,-204.88,-204.66,0.498144,97.66,1
845835,1,240,0,50771,51429,50964.5,51605.31,-193.5,-176.31,0.498419,97.66,1
845875,1,280,0,50784,51472,50964.14,51605.05,-180.14,-133.05,0.498697,97.65,1
845915,1,320,0,50807,51524,50963.82,51604.89,-156.82,-80.89,0.498976,97.65,1
845955,1,360,0,50833,51505,50963.56,51604.69,-130.56,-99.69,0.499257,97.65,1
845995,1,400,0,50758,51182,50963.15,51603.84,-205.15,-421.84,0.499535,97.64,1
846035,1,440,0,50568,50817,50962.36,51602.27,-394.36,-785.27,0.499804,97.64,1
846075,1,480,0,50452,50713,50961.34,51600.49,-509.34,-887.49,0.500071,97.63,1
846116,1,521,0,50445,50762,50960.31,51598.82,-515.31,-836.82,0.500342,97.63,1
846156,1,561,0,50472,50818,50959.34,51597.26,-487.34,-779.26,0.500615,97.62,1
846196,1,601,0,50493,50882,50958.41,51595.83,-465.41,-713.83,0.500893,97.62,1
846236,1,641,0,50533,50959,50957.56,51594.55,-424.56,-635.55,0.501174,97.62,1
846276,1,681,0,50556,50976,50956.76,51593.32,-400.76,-617.32,0.501459,97.61,1
846316,1,721,0,50550,50955,50955.95,51592.05,-405.95,-637.05,0.501746,97.61,1
846356,1,761,0,50554,50970,50955.14,51590.8,-401.14,-620.8,0.502034,97.6,1
846396,1,801,0,50575,51028,50954.39,51589.68,-379.39,-561.68,0.502326,97.6,1
846436,1,841,0,50607,51115,50953.69,51588.73,-346.69,-473.73,0.502622,97.59,1
846476,1,881,0,50648,51187,50953.08,51587.93,-305.08,-400.93,0.502922,97.59,1
846516,1,921,0,50680,51248,50952.54,51587.25,-272.54,-339.25,0.503224,97.58,1
846556,1,961,0,50703,51296,50952.04,51586.67,-249.04,-290.67,0.503529,97.58,1
846596,1,1001,0,50723,51335,50951.59,51586.16,-228.59,-251.16,0.503837,97.57,1
846636,1,1041,0,50740,51363,50951.16,51585.72,-211.16,-222.72,0.504147,97.57,1
846677,1,1082,0,50747,51389,50950.76,51585.33,-203.76,-196.33,0.504459,97.56,1
846717,1,1122,0,50764,51435,50950.39,51585.03,-186.39,-150.03,0.504774,97.56,1
846757,1,1162,0,50790,51500,50950.07,51584.86,-160.07,-84.86,0.505091,97.55,1
846797,1,1202,0,50814,51468,50949.8,51584.63,-135.8,-116.63,0.505408,97.54,1
846837,1,1242,0,50729,51095,50949.36,51583.65,-220.36,-488.65,0.505719,97.54,1
846877,1,1282,0,50525,50743,50948.51,51581.97,-423.51,-838.97,0.506021,97.53,1
846917,1,1322,0,50421,50650,50947.45,51580.11,-526.45,-930.11,0.506318,97.53,1
846957,1,1362,0,50418,50689,50946.39,51578.33,-528.39,-889.33,0.506613,97.52,1
846997,1,1402,0,50441,50714,50945.39,51576.6,-504.39,-862.6,0.506907,97.52,1
847037,1,1442,0,50452,50766,50944.4,51574.98,-492.4,-808.98,0.5072,97.51,1
847077,1,1482,0,50493,50864,50943.5,51573.56,-450.5,-709.56,0.507495,97.5,1
847117,1,1522,0,50531,50907,50942.68,51572.23,-411.68,-665.23,0.50779,97.5,1
847157,1,1562,0,50532,50890,50941.86,51570.86,-409.86,-680.86,0.508085,97.49,1
847197,1,1602,0,50526,50908,50941.02,51569.54,-415.02,-661.54,0.50838,97.49,1
847237,1,1642,0,50540,50971,50940.22,51568.34,-400.22,-597.34,0.508678,97.48,1
847277,1,1682,0,50581,51053,50939.5,51567.31,-358.5,-514.31,0.508978,97.47,1
847318,1,1723,0,50621,51137,50938.87,51566.45,-317.87,-429.45,0.509282,97.47,1
847358,1,1763,0,50653,51207,50938.3,51565.73,-285.3,-358.73,0.509587,97.46,1
847398,1,1803,0,50681,51269,50937.79,51565.14,-256.79,-296.14,0.509896,97.46,1
847438,1,1843,0,50710,51317,50937.33,51564.64,-227.33,-247.64,0.510206,97.45,1
847478,1,1883,0,50734,51366,50936.93,51564.25,-202.93,-198.25,0.510519,97.44,1
847518,1,1923,0,50753,51414,50936.56,51563.95,-183.56,-149.95,0.510833,97.44,1
847558,1,1963,0,50780,51472,50936.25,51563.77,-156.25,-91.77,0.511148,97.43,1
847598,1,2003,0,50816,51809,50936.01,51564.26,-120.01,244.74,0.511462,97.42,1
847638,1,2043,0,50857,51956,50935.85,51565.04,-78.85,390.96,0.51177,97.42,1
847678,1,2083,0,50853,51436,50935.69,51564.79,-82.69,-128.79,0.512076,97.41,1
847718,1,2123,0,50702,51039,50935.22,51563.73,-233.22,-524.73,0.512377,97.4,1
847758,1,2163,0,50546,50837,50934.45,51562.28,-388.45,-725.28,0.512672,97.4,1
847798,1,2203,0,50504,50599,50933.59,51560.36,-429.59,-961.36,0.51295,97.39,1
847838,1,2243,0,50516,50575,50932.75,51558.39,-416.75,-983.39,0.513209,97.38,1
847878,1,2283,0,50530,50913,50931.95,51557.1,-401.95,-644.1,0.513469,97.38,1
847919,1,2324,0,50557,51003,50931.2,51555.99,-374.2,-552.99,0.513731,97.37,1
847959,1,2364,0,50600,51088,50930.54,51555.06,-330.54,-467.06,0.513996,97.36,1
847999,1,2404,0,50614,51094,50929.91,51554.14,-315.91,-460.14,0.514263,97.36,1
848039,1,2444,0,50618,51093,50929.29,51553.21,-311.29,-460.21,0.514532,97.35,1
848079,1,2484,0,50629,51151,50928.69,51552.41,-299.69,-401.41,0.514803,97.34,1
848119,1,2524,0,50665,51243,50928.16,51551.79,-263.16,-308.79,0.515076,97.34,1
848159,1,2564,0,50825,51341,50927.96,51551.37,-102.96,-210.37,0.515349,97.33,1
848199,1,2604,0,50768,51429,50927.64,51551.13,-159.64,-122.13,0.515622,97.32,1
848239,1,2644,0,50806,51497,50927.39,51551.02,-121.39,-54.02,0.515897,97.32,1
848279,1,2684,0,50832,51559,50927.2,51551.04,-95.2,7.96,0.516171,97.31,1
848319,1,2724,0,51229,51608,50927.81,51551.16,301.19,56.84,0.516454,97.3,1
848359,1,2764,0,50882,51648,50927.72,51551.35,-45.72,96.65,0.516737,97.3,1
848399,1,2804,0,50899,51690,50927.66,51551.63,-28.66,138.37,0.517018,97.29,1
848439,1,2844,0,50918,51737,50927.64,51552,-9.64,185,0.517296,97.28,1
848479,1,2884,0,50947,51810,50927.68,51552.52,19.32,257.48,0.517572,97.28,1
848520,1,2925,0,50670,51866,50927.17,51553.14,-257.17,312.86,0.517849,97.27,1
848560,1,2965,0,50409,51684,50926.13,51553.41,-517.13,130.59,0.518156,97.26,1
848600,1,3005,0,50817,51313,50925.91,51552.93,-108.91,-239.93,0.518461,97.26,1
848640,1,3045,0,50668,51127,50925.4,51552.07,-257.4,-425.07,0.518764,97.25,1
848680,1,3085,0,50642,51148,50924.83,51551.27,-282.83,-403.27,0.519069,97.24,1
848720,1,3125,0,50674,51226,50924.33,51550.62,-250.33,-324.62,0.519375,97.24,1
848760,1,3165,0,50698,51294,50923.88,51550.11,-225.88,-256.11,0.519684,97.23,1
848800,1,3205,0,50743,51389,50923.52,51549.79,-180.52,-160.79,0.519994,97.22,1
848840,1,3245,0,50778,51414,50923.23,51549.52,-145.23,-135.52,0.520305,97.22,1
848880,1,3285,0,50776,51389,50922.94,51549.2,-146.94,-160.2,0.520617,97.21,1
848920,1,3325,0,50764,51385,50922.62,51548.87,-158.62,-163.87,0.520929,97.2,1
848960,1,3365,0,50776,51442,50922.33,51548.66,-146.33,-106.66,0.521242,97.2,1
849000,1,3405,0,50813,51521,50922.11,51548.6,-109.11,-27.6,0.521556,97.19,1
849040,1,3445,0,50848,51605,50921.96,51548.71,-73.96,56.29,0.521869,97.18,1
849080,1,3485,0,50883,51684,50921.88,51548.99,-38.88,135.01,0.522181,97.17,1
849120,1,3525,0,50916,51739,50921.87,51549.37,-5.87,189.63,0.52249,97.17,1
849161,1,3566,0,50942,51796,50921.91,51549.87,20.09,246.13,0.522796,97.16,1
849201,1,3606,0,50961,51831,50921.99,51550.43,39.01,280.57,0.523097,97.15,1
849241,1,3646,0,50973,51875,50922.09,51551.08,50.91,323.92,0.523392,97.15,1
849281,1,3686,0,50999,51937,50922.25,51551.86,76.75,385.14,0.52368,97.14,1
849321,1,3726,0,51033,51999,50922.47,51552.75,110.53,446.25,0.52396,97.13,1
849361,1,3766,0,51054,51969,50922.74,51553.58,131.26,415.42,0.524232,97.12,1
849401,1,3806,0,50971,51658,50922.84,51553.79,48.16,104.21,0.524504,97.12,1
849441,1,3846,0,50816,51375,50922.62,51553.44,-106.62,-178.44,0.524774,97.11,1
849481,1,3886,0,50740,51323,50922.26,51552.98,-182.26,-229.98,0.525046,97.1,1
849521,1,3926,0,50750,51382,50921.92,51552.64,-171.92,-170.64,0.525319,97.1,1
849561,1,3966,0,50781,51439,50921.64,51552.41,-140.64,-113.41,0.525594,97.09,1
849601,1,4006,0,50808,51522,50921.41,51552.35,-113.41,-30.35,0.525869,97.08,1
849641,1,4046,0,50847,51588,50921.26,51552.43,-74.26,35.57,0.526145,97.07,1
849681,1,4086,0,50865,51594,50921.15,51552.51,-56.15,41.49,0.526419,97.07,1
849721,1,4126,0,50857,51575,50921.02,51552.56,-64.02,22.44,0.526694,97.06,1
849761,1,4166,0,50855,51608,50920.89,51552.67,-65.89,55.33,0.526968,97.05,1
849802,1,4207,0,50879,51683,50920.81,51552.93,-41.81,130.07,0.527241,97.05,1
849842,1,4247,0,50922,51779,50920.82,51553.39,1.18,225.61,0.52751,97.04,1
849882,1,4287,0,50956,51862,50920.89,51554,35.11,308,0.527773,97.03,1
849922,1,4327,0,50996,51934,50921.04,51554.77,74.96,379.23,0.528029,97.03,1
849962,1,4367,0,51028,51998,50921.25,51555.65,106.75,442.35,0.528276,97.02,1
850002,1,4407,0,51049,52057,50921.51,51556.66,127.49,500.34,0.528511,97.01,1
850042,1,4447,0,51079,52101,50921.83,51557.75,157.17,543.25,0.528733,97,1
850082,1,4487,0,51101,52152,50922.19,51558.94,178.81,593.06,0.528941,97,1
850122,1,4527,0,51129,52208,50922.6,51560.24,206.4,647.76,0.529134,96.99,1
850162,1,4567,0,51156,52271,50923.07,51561.66,232.93,709.34,0.52931,96.98,1
850202,1,4607,0,51156,52143,50923.54,51562.82,232.46,580.18,0.529477,96.98,1
850242,1,4647,0,51031,51753,50923.75,51563.21,107.25,189.79,0.529643,96.97,1
850282,1,4687,0,50866,51510,50923.64,51563.1,-57.64,-53.1,0.529808,96.96,1
850322,1,4727,0,50807,51487,50923.41,51562.95,-116.41,-75.95,0.529975,96.96,1
850362,1,4767,0,50815,51526,50923.2,51562.87,-108.2,-36.88,0.530144,96.95,1
850403,1,4808,0,50827,51547,50923,51562.84,-96,-15.84,0.530313,96.95,1
850443,1,4848,0,50846,51653,50922.85,51563.03,-76.85,89.97,0.530482,96.94,1
850483,1,4888,0,50872,51836,50922.75,51563.57,-50.75,272.43,0.530647,96.93,1
850523,1,4928,0,50893,51693,50922.69,51563.84,-29.69,129.16,0.530811,96.93,1
850563,1,4968,0,50890,51688,50922.63,51564.09,-32.63,123.91,0.530974,96.92,1
850603,1,5008,0,50897,51733,50922.58,51564.43,-25.58,168.57,0.531135,96.92,1
850643,1,5048,0,50926,51860,50922.59,51565.02,3.41,294.98,0.531291,96.91,1
850683,1,5088,0,50973,51837,50922.69,51565.57,50.31,271.43,0.531443,96.9,1
850723,1,5128,0,51014,51985,50922.87,51566.41,91.13,418.59,0.531587,96.9,1
850763,1,5168,0,51051,52059,50923.13,51567.39,127.87,491.61,0.531721,96.89,1
850803,1,5208,0,51080,52115,50923.45,51568.49,156.55,546.51,0.531842,96.89,1
850843,1,5248,0,51101,51750,50923.8,51568.86,177.2,181.14,0.531967,96.88,1
850883,1,5288,0,51117,51733,50924.19,51569.18,192.81,163.82,0.532096,96.88,1
850923,1,5328,0,51133,52238,50924.61,51570.52,208.39,667.48,0.532208,96.87,1
850963,1,5368,0,51151,52297,50925.06,51571.98,225.94,725.02,0.532302,96.86,1
851003,1,5408,0,51180,52356,50925.57,51573.55,254.43,782.45,0.532377,96.86,1
851044,1,5449,0,51190,52284,50926.1,51574.97,263.9,709.03,0.532439,96.85,1
851084,1,5489,0,51088,51931,50926.43,51575.68,161.57,355.32,0.532498,96.85,1
851124,1,5529,0,50924,51660,50926.42,51575.86,-2.42,84.14,0.532558,96.84,1
851164,1,5569,0,50969,51608,50926.51,51575.92,42.49,32.08,0.532617,96.84,1
851204,1,5609,0,51102,51651,50926.86,51576.07,175.14,74.93,0.532681,96.83,1
851244,1,5649,0,50879,51689,50926.77,51576.3,-47.77,112.7,0.532744,96.83,1
851284,1,5689,0,50893,51759,50926.7,51576.67,-33.7,182.33,0.532806,96.83,1
851324,1,5729,0,50932,51828,50926.71,51577.17,5.29,250.83,0.532864,96.82,1
851364,1,5769,0,50925,51839,50926.71,51577.7,-1.71,261.3,0.532919,96.82,1
851404,1,5809,0,50772,51826,50926.4,51578.19,-154.4,247.81,0.532975,96.81,1
851444,1,5849,0,50953,51851,50926.45,51578.74,26.55,272.26,0.533027,96.81,1
851484,1,5889,0,50973,51923,50926.55,51579.43,46.45,343.57,0.533073,96.8,1
851524,1,5929,0,51010,52011,50926.71,51580.29,83.29,430.71,0.533112,96.8,1
851564,1,5969,0,50445,52089,50925.75,51581.31,-480.75,507.69,0.533176,96.8,1
851604,1,6009,0,51078,52153,50926.06,51582.46,151.94,570.54,0.533228,96.79,1
851644,1,6049,0,51105,52212,50926.42,51583.72,178.58,628.28,0.533266,96.79,1
851685,1,6090,0,51127,52260,50926.82,51585.07,200.18,674.93,0.533289,96.79,1
851725,1,6130,0,51144,52306,50927.26,51586.52,216.74,719.48,0.533295,96.78,1
851765,1,6170,0,51159,52348,50927.72,51588.04,231.28,759.96,0.533285,96.78,1
851805,1,6210,0,51180,52401,50928.23,51589.67,251.77,811.33,0.533257,96.78,1
851845,1,6250,0,51206,52467,50928.79,51591.43,277.21,875.57,0.533208,96.77,1
851885,1,6290,0,51234,52529,50929.4,51593.3,304.6,935.7,0.53314,96.77,1
851925,1,6330,0,51235,52381,50930.02,51594.88,304.98,786.12,0.533063,96.77,1
851965,1,6370,0,51108,52012,50930.37,51595.71,177.63,416.29,0.532984,96.76,1
852005,1,6410,0,50968,51800,50930.45,51596.12,37.55,203.87,0.532903,96.76,1
852045,1,6450,0,50919,51786,50930.43,51596.51,-11.43,189.49,0.532822,96.76,1
852085,1,6490,0,50933,51831,50930.43,51596.98,2.57,234.02,0.532739,96.76,1
852125,1,6530,0,50950,51870,50930.47,51597.52,19.53,272.48,0.532654,96.75,1
852165,1,6570,0,50970,51936,50930.55,51598.2,39.45,337.8,0.532564,96.75,1
852205,1,6610,0,50994,51972,50930.68,51598.95,63.32,373.05,0.53247,96.75,1
852245,1,6650,0,50995,51959,50930.81,51599.68,64.19,359.32,0.532372,96.75,1
852286,1,6691,0,50986,51940,50930.93,51600.36,55.07,339.64,0.53227,96.75,1
852326,1,6731,0,50981,51980,50931.03,51601.12,49.97,378.88,0.532164,96.75,1
852366,1,6771,0,51007,52057,50931.18,51602.04,75.82,454.96,0.532051,96.74,1
852406,1,6811,0,51043,52140,50931.41,51603.11,111.59,536.89,0.531929,96.74,1
852446,1,6851,0,51081,52226,50931.71,51604.36,149.29,621.64,0.531797,96.74,1
852486,1,6891,0,51116,52290,50932.08,51605.73,183.92,684.27,0.531653,96.74,1
852526,1,6931,0,51143,52348,50932.5,51607.21,210.5,740.79,0.531497,96.74,1
852566,1,6971,0,51167,52386,50932.97,51608.77,234.03,777.23,0.531329,96.74,1
852606,1,7011,0,51188,52423,50933.48,51610.4,254.52,812.6,0.531149,96.74,1
852646,1,7051,0,51201,52461,50934.02,51612.11,266.98,848.89,0.530957,96.74,1
852686,1,7091,0,51222,52520,50934.59,51613.92,287.41,906.08,0.530752,96.74,1
852726,1,7131,0,51245,52573,50935.21,51615.84,309.79,957.16,0.530533,96.74,1
852766,1,7171,0,51253,52480,50935.85,51617.57,317.15,862.43,0.530308,96.74,1
852806,1,7211,0,51148,52157,50936.28,51618.65,211.72,538.35,0.530082,96.74,1
852846,1,7251,0,51004,51928,50936.41,51619.27,67.59,308.73,0.529854,96.74,1
852886,1,7291,0,50950,51899,50936.44,51619.84,13.56,279.16,0.529625,96.74,1
852927,1,7332,0,50959,51943,50936.49,51620.48,22.51,322.52,0.529393,96.74,1
852967,1,7372,0,50977,52010,50936.57,51621.27,40.43,388.73,0.529158,96.74,1
853007,1,7412,0,51006,52086,50936.71,51622.2,69.29,463.8,0.528918,96.74,1
853047,1,7452,0,51036,52115,50936.91,51623.18,99.09,491.82,0.528673,96.74,1
853087,1,7492,0,51032,52085,50937.1,51624.11,94.9,460.89,0.528424,96.74,1
853127,1,7532,0,51021,52077,50937.27,51625.02,83.73,451.98,0.528171,96.75,1
853167,1,7572,0,51027,52119,50937.45,51626,89.55,493,0.527913,96.75,1
853207,1,7612,0,51055,52185,50937.69,51627.12,117.31,557.87,0.527649,96.75,1
853247,1,7652,0,51092,52264,50938,51628.4,154,635.6,0.527378,96.75,1
853287,1,7692,0,51124,52336,50938.37,51629.82,185.63,706.18,0.527098,96.75,1
853327,1,7732,0,51149,52393,50938.79,51631.34,210.21,761.66,0.526811,96.76,1
853367,1,7772,0,51171,52436,50939.26,51632.95,231.74,803.05,0.526514,96.76,1
853407,1,7812,0,51190,52471,50939.76,51634.63,250.24,836.37,0.52621,96.76,1
853447,1,7852,0,51204,52621,50940.29,51636.6,263.71,984.4,0.525892,96.76,1
853487,1,7892,0,51216,52766,50940.84,51638.86,275.16,1127.14,0.525556,96.77,1
853527,1,7932,0,51236,52601,50941.43,51640.79,294.57,960.21,0.525211,96.77,1
853568,1,7973,0,51253,52580,50942.06,51642.67,310.94,937.33,0.524861,96.77,1
853608,1,8013,0,51186,52321,50942.55,51644.03,243.45,676.97,0.524509,96.78,1
853648,1,8053,0,51043,51972,50942.75,51644.68,100.25,327.32,0.524158,96.78,1
853688,1,8093,0,50963,51783,50942.79,51644.96,20.21,138.04,0.523808,96.78,1
853728,1,8133,0,50962,51991,50942.83,51645.66,19.17,345.34,0.523456,96.79,1
853768,1,8173,0,50980,52047,50942.91,51646.46,37.09,400.54,0.523102,96.79,1
853808,1,8213,0,51005,52113,50943.03,51647.39,61.97,465.61,0.522744,96.8,1
853848,1,8253,0,51041,43274,50943.23,51630.65,97.77,-8356.65,0.521815,96.8,1
853888,1,8293,0,51052,52163,50943.45,51631.71,108.55,531.29,0.520889,96.81,1
853928,1,8333,0,51046,52152,50943.65,51632.76,102.35,519.24,0.519966,96.81,1
853968,1,8373,0,51045,52171,50943.86,51633.84,101.14,537.16,0.519045,96.82,1
854008,1,8413,0,51065,52231,50944.1,51635.03,120.9,595.97,0.518127,96.83,1
854048,1,8453,0,51094,52309,50944.4,51636.38,149.6,672.62,0.517212,96.83,1
854088,1,8493,0,51126,52381,50944.76,51637.87,181.24,743.13,0.5163,96.84,1
854128,1,8533,0,51150,52442,50945.17,51639.48,204.83,802.52,0.515392,96.85,1
854169,1,8574,0,51448,52494,50946.18,51641.19,501.82,852.81,0.514504,96.86,1
854209,1,8614,0,51589,52545,50947.46,51643,641.54,902,0.513646,96.87,1
854249,1,8654,0,51215,52585,50948,51644.89,267,940.11,0.512793,96.88,1
854289,1,8694,0,51228,52629,50948.56,51646.86,279.44,982.14,0.511944,96.89,1
854329,1,8734,0,51250,52678,50949.17,51648.92,300.83,1029.08,0.511101,96.9,1
854369,1,8774,0,51054,52742,50949.38,51651.11,104.62,1090.89,0.510256,96.91,1
854409,1,8814,0,50940,52749,50949.36,51653.3,-9.36,1095.7,0.509409,96.92,1
854449,1,8854,0,51255,52508,50949.98,51655.01,305.02,852.99,0.50857,96.93,1
854489,1,8894,0,51110,52178,50950.3,51656.06,159.7,521.94,0.507733,96.94,1
854529,1,8934,0,51006,52041,50950.41,51656.83,55.59,384.17,0.506899,96.95,1
854569,1,8974,0,50982,52034,50950.48,51657.58,31.52,376.42,0.506066,96.96,1
854609,1,9014,0,50985,52050,50950.55,51658.37,34.45,391.63,0.505236,96.97,1
854649,1,9054,0,50991,52074,50950.63,51659.2,40.37,414.8,0.504408,96.99,1
854689,1,9094,0,51015,52132,50950.76,51660.14,64.24,471.86,0.503581,97,1
854729,1,9134,0,51032,52160,50950.92,51661.14,81.08,498.86,0.502757,97.01,1
854769,1,9174,0,51032,52149,50951.09,51662.12,80.91,486.88,0.501935,97.03,1
854809,1,9214,0,51027,52152,50951.24,51663.1,75.76,488.9,0.501114,97.04,1
854850,1,9255,0,51035,52201,50951.41,51664.18,83.59,536.82,0.500296,97.05,1
854890,1,9295,0,51062,52277,50951.63,51665.41,110.37,611.59,0.49948,97.07,1
854930,1,9335,0,51096,52362,50951.92,51666.8,144.08,695.2,0.498665,97.08,1
854970,1,9375,0,51126,52428,50952.27,51668.32,173.73,759.68,0.497853,97.1,1
855010,1,9415,0,51160,52484,50952.68,51669.96,207.32,814.04,0.497045,97.11,1
855050,1,9455,0,51183,52542,50953.14,51671.7,229.86,870.3,0.49624,97.12,1
855090,1,9495,0,51201,52587,50953.64,51673.54,247.36,913.46,0.495439,97.14,1
855130,1,9535,0,51226,52624,50954.19,51675.44,271.81,948.56,0.494642,97.15,1
855170,1,9575,0,51244,52669,50954.77,51677.43,289.23,991.57,0.493851,97.17,1
855210,1,9615,0,51267,52725,50955.39,51679.52,311.61,1045.48,0.493065,97.18,1
855250,1,9655,0,51292,52789,50956.07,51681.74,335.93,1107.26,0.492285,97.2,1
855290,1,9695,0,51311,52779,50956.78,51683.94,354.22,1095.06,0.491513,97.21,1
855330,1,9735,0,51262,52521,50957.39,51685.61,304.61,835.39,0.490747,97.23,1
855370,1,9775,0,51114,52208,50957.71,51686.66,156.29,521.34,0.489984,97.25,1
855410,1,9815,0,51023,52097,50957.84,51687.48,65.16,409.52,0.489223,97.26,1
855450,1,9855,0,50999,52095,50957.93,51688.3,41.07,406.7,0.488463,97.28,1
855490,1,9895,0,51007,52110,50958.02,51689.14,48.98,420.86,0.487706,97.29,1
855531,1,9936,0,51014,52144,50958.14,51690.05,55.86,453.95,0.48695,97.31,1
855571,1,9976,0,51032,52203,50958.29,51691.08,73.71,511.92,0.486195,97.33,1
855611,1,10016,0,51052,52233,50958.47,51692.16,93.53,540.84,0.485443,97.34,1
855651,1,10056,0,51052,52226,50958.66,51693.23,93.34,532.77,0.484692,97.36,1
855691,1,10096,0,51055,52238,50958.86,51694.32,96.14,543.68,0.483943,97.37,1
855731,1,10136,0,51073,52301,50959.09,51695.54,113.91,605.46,0.483195,97.39,1
855771,1,10176,0,51107,52377,50959.38,51696.9,147.62,680.1,0.48245,97.41,1
855811,1,10216,0,51149,52456,50959.76,51698.42,189.24,757.58,0.481707,97.42,1
855851,1,10256,0,51180,52514,50960.2,51700.05,219.8,813.95,0.480967,97.44,1
855891,1,10296,0,51207,52564,50960.7,51701.79,246.3,862.21,0.480232,97.46,1
855931,1,10336,0,51224,52609,50961.23,51703.6,262.77,905.4,0.479501,97.47,1
855971,1,10376,0,51244,52642,50961.79,51705.48,282.21,936.52,0.478774,97.49,1
856011,1,10416,0,51260,52678,50962.39,51707.43,297.61,970.57,0.478053,97.51,1
856051,1,10456,0,51275,52715,50963.02,51709.44,311.98,1005.56,0.477337,97.52,1
856091,1,10496,0,51291,52768,50963.67,51711.56,327.33,1056.44,0.476627,97.54,1
856131,1,10536,0,51319,52830,50964.38,51713.8,354.62,1116.2,0.475924,97.56,1
856172,1,10577,0,51336,52813,50965.13,51716,370.87,1097,0.475228,97.57,1
856212,1,10617,0,51276,52554,50965.75,51717.67,310.25,836.33,0.474539,97.59,1
856252,1,10657,0,51133,52251,50966.09,51718.74,166.91,532.26,0.473853,97.61,1
856292,1,10697,0,51039,52137,50966.24,51719.57,72.76,417.43,0.473168,97.62,1
856332,1,10737,0,51025,52144,50966.36,51720.43,58.64,423.57,0.472485,97.64,1
856372,1,10777,0,51039,52175,50966.5,51721.34,72.5,453.66,0.471803,97.66,1
856412,1,10817,0,51052,52231,50966.68,51722.36,85.32,508.64,0.471123,97.68,1
856452,1,10857,0,51081,52284,50966.91,51723.48,114.09,560.52,0.470444,97.69,1
856492,1,10897,0,51102,52319,50967.18,51724.67,134.82,594.33,0.469768,97.71,1
856532,1,10937,0,51093,52394,50967.43,51726.01,125.57,667.99,0.469092,97.73,1
856572,1,10977,0,51089,52276,50967.68,51727.11,121.32,548.89,0.468418,97.74,1
856612,1,11017,0,51102,52329,50967.95,51728.32,134.05,600.68,0.467746,97.76,1
856652,1,11057,0,51136,52403,50968.29,51729.67,167.71,673.33,0.467077,97.78,1
856692,1,11097,0,51165,52839,50968.68,51731.89,196.32,1107.11,0.466406,97.79,1
856732,1,11137,0,51194,52507,50969.13,51733.44,224.87,773.56,0.465739,97.81,1
856772,1,11177,0,51211,52556,50969.62,51735.09,241.38,820.91,0.465076,97.83,1
856812,1,11217,0,51229,52584,50970.14,51736.79,258.86,847.21,0.464416,97.84,1
856853,1,11258,0,51242,52613,50970.68,51738.54,271.32,874.46,0.463762,97.86,1
856893,1,11298,0,51250,52355,50971.24,51739.77,278.76,615.23,0.463113,97.88,1
856933,1,11338,0,51269,52173,50971.84,51740.64,297.16,432.36,0.462473,97.89,1
856973,1,11378,0,51289,52756,50972.48,51742.67,316.52,1013.33,0.461838,97.91,1
857013,1,11418,0,51297,52682,50973.12,51744.55,323.87,937.45,0.461209,97.93,1
857053,1,11458,0,51212,52384,50973.61,51745.83,238.39,638.17,0.460585,97.95,1
857093,1,11498,0,51076,52154,50973.81,51746.65,102.19,407.35,0.459963,97.96,1
857133,1,11538,0,51016,52098,50973.9,51747.35,42.1,350.65,0.459342,97.98,1
857173,1,11578,0,51022,52120,50974,51748.1,48,371.9,0.458722,97.99,1
857213,1,11618,0,51048,52156,50974.14,51748.91,73.86,407.09,0.458104,98.01,1
857253,1,11658,0,51172,52216,50974.54,51749.85,197.46,466.15,0.45749,98.03,1
857293,1,11698,0,51087,52243,50974.77,51750.84,112.23,492.16,0.456877,98.04,1
857333,1,11738,0,51085,52225,50974.99,51751.79,110.01,473.21,0.456266,98.06,1
857373,1,11778,0,51075,52209,50975.2,51752.7,99.8,456.3,0.455657,98.08,1
857413,1,11818,0,51519,52243,50976.29,51753.68,542.71,489.32,0.455074,98.09,1
857453,1,11858,0,51099,52301,50976.53,51754.78,122.47,546.22,0.454491,98.11,1
857493,1,11898,0,51130,52374,50976.84,51756.02,153.16,617.98,0.453911,98.13,1
857534,1,11939,0,51165,52431,50977.22,51757.37,187.78,673.63,0.453333,98.14,1
857574,1,11979,0,51185,52485,50977.64,51758.82,207.36,726.18,0.452757,98.16,1
857614,1,12019,0,50800,52533,50977.28,51760.37,-177.28,772.62,0.452182,98.17,1
857654,1,12059,0,50777,52570,50976.88,51762,-199.88,808,0.451609,98.19,1
857694,1,12099,0,51238,52600,50977.41,51763.67,260.59,836.33,0.451039,98.21,1
857734,1,12139,0,51254,52643,50977.96,51765.43,276.04,877.57,0.450473,98.22,1
857774,1,12179,0,51274,52701,50978.55,51767.3,295.45,933.7,0.449912,98.24,1
857814,1,12219,0,51296,52684,50979.19,51769.14,316.81,914.86,0.449356,98.25,1
857854,1,12259,0,51243,52424,50979.72,51770.45,263.28,653.55,0.448805,98.27,1
857894,1,12299,0,51096,52102,50979.95,51771.12,116.05,330.88,0.448256,98.29,1
857934,1,12339,0,50999,51973,50979.99,51771.52,19.01,201.48,0.447708,98.3,1
857974,1,12379,0,50971,51970,50979.98,51771.92,-8.98,198.08,0.447162,98.32,1
858014,1,12419,0,50976,51973,50979.97,51772.32,-3.97,200.68,0.446618,98.33,1
858054,1,12459,0,50980,51999,50979.97,51772.78,0.03,226.22,0.446074,98.35,1
858094,1,12499,0,51000,52050,50980.01,51773.33,19.99,276.67,0.445532,98.36,1
858134,1,12539,0,51015,52069,50980.08,51773.93,34.92,295.07,0.444991,98.38,1
858174,1,12579,0,51011,52045,50980.14,51774.47,30.86,270.53,0.444452,98.39,1
858215,1,12620,0,51007,52052,50980.2,51775.02,26.8,276.98,0.443913,98.41,1
858255,1,12660,0,51019,52111,50980.28,51775.7,38.72,335.3,0.443376,98.42,1
858295,1,12700,0,51050,52187,50980.42,51776.52,69.58,410.48,0.44284,98.44,1
858335,1,12740,0,51090,52261,50980.64,51777.49,109.36,483.51,0.442304,98.45,1
858375,1,12780,0,51119,52325,50980.91,51778.59,138.09,546.41,0.441771,98.47,1
858415,1,12820,0,51145,52385,50981.24,51779.8,163.76,605.2,0.441239,98.48,1
858455,1,12860,0,51166,52432,50981.61,51781.11,184.39,650.89,0.440709,98.5,1
858495,1,12900,0,51185,52465,50982.02,51782.47,202.98,682.53,0.440182,98.51,1
858535,1,12940,0,51201,52495,50982.46,51783.9,218.54,711.1,0.439658,98.53,1
858575,1,12980,0,51223,52537,50982.94,51785.41,240.06,751.59,0.439137,98.54,1
858615,1,13020,0,51239,52590,50983.45,51787.02,255.55,802.98,0.43862,98.56,1
858655,1,13060,0,51261,52593,50984,51788.63,277,804.37,0.438107,98.57,1
858695,1,13100,0,51216,52338,50984.47,51789.73,231.53,548.27,0.437599,98.59,1
858735,1,13140,0,51063,51980,50984.63,51790.11,78.37,189.89,0.437093,98.6,1
858775,1,13180,0,50940,51814,50984.54,51790.16,-44.54,23.84,0.436588,98.62,1
858815,1,13220,0,50905,51798,50984.38,51790.18,-79.38,7.82,0.436086,98.63,1
858855,1,13260,0,50904,51794,50984.22,51790.19,-80.22,3.81,0.435586,98.65,1
858896,1,13301,0,50902,51805,50984.06,51790.22,-82.06,14.78,0.435088,98.66,1
858936,1,13341,0,50920,51871,50983.93,51790.38,-63.93,80.62,0.434592,98.67,1
858976,1,13381,0,50947,51904,50983.86,51790.61,-36.86,113.39,0.434097,98.69,1
859016,1,13421,0,50947,51893,50983.79,51790.82,-36.79,102.18,0.433604,98.7,1
859056,1,13461,0,50942,51897,50983.7,51791.04,-41.7,105.96,0.433112,98.72,1
859096,1,13501,0,50960,51950,50983.66,51791.36,-23.66,158.64,0.432622,98.73,1
859136,1,13541,0,50987,52026,50983.66,51791.82,3.34,234.18,0.432133,98.75,1
859176,1,13581,0,51028,52096,50983.75,51792.43,44.25,303.57,0.431645,98.76,1
859216,1,13621,0,51062,52153,50983.91,51793.16,78.09,359.84,0.431158,98.77,1
859256,1,13661,0,51093,52203,50984.13,51793.98,108.87,409.02,0.430673,98.79,1
859296,1,13701,0,51114,52246,50984.39,51794.88,129.61,451.12,0.430189,98.8,1
859336,1,13741,0,51128,52277,50984.68,51795.85,143.32,481.15,0.429707,98.81,1
859376,1,13781,0,51140,52306,50984.99,51796.87,155.01,509.13,0.429228,98.83,1
859416,1,13821,0,51157,52344,50985.34,51797.96,171.66,546.04,0.42875,98.84,1
859456,1,13861,0,51180,52399,50985.73,51799.17,194.27,599.83,0.428276,98.85,1
859496,1,13901,0,51201,52440,50986.16,51800.45,214.84,639.55,0.427805,98.87,1
859536,1,13941,0,51189,52280,50986.57,51801.41,202.43,478.59,0.427338,98.88,1
859577,1,13982,0,51059,51922,50986.71,51801.65,72.29,120.35,0.426872,98.9,1
859617,1,14022,0,50916,51710,50986.57,51801.47,-70.57,-91.47,0.426409,98.91,1
859657,1,14062,0,50869,51678,50986.34,51801.22,-117.34,-123.22,0.425949,98.92,1
859697,1,14102,0,50868,51707,50986.1,51801.04,-118.1,-94.04,0.425491,98.94,1
859737,1,14142,0,50873,51821,50985.87,51801.08,-112.87,19.92,0.425036,98.95,1
859777,1,14182,0,50892,51772,50985.69,51801.02,-93.69,-29.02,0.424584,98.96,1
859817,1,14222,0,50931,51831,50985.58,51801.08,-54.58,29.92,0.424133,98.97,1
859857,1,14262,0,50938,51823,50985.48,51801.13,-47.48,21.87,0.423684,98.99,1
859897,1,14302,0,50938,52184,50985.39,51801.89,-47.39,382.11,0.423236,99,1
859937,1,14342,0,50946,51858,50985.31,51802.01,-39.31,55.99,0.422788,99.01,1
859977,1,14382,0,50976,51926,50985.3,51802.26,-9.3,123.74,0.422342,99.03,1
860017,1,14422,0,51014,51994,50985.36,51802.64,28.64,191.36,0.421898,99.04,1
860057,1,14462,0,51042,52053,50985.47,51803.15,56.53,249.85,0.421454,99.05,1
860097,1,14502,0,51066,51828,50985.63,51803.2,80.37,24.8,0.421012,99.06,1
860137,1,14542,0,51086,51664,50985.84,51802.92,100.16,-138.92,0.420573,99.08,1
860177,1,14582,0,51099,52163,50986.06,51803.64,112.94,359.36,0.420136,99.09,1
860217,1,14622,0,51109,52193,50986.31,51804.43,122.69,388.57,0.4197,99.1,1
860257,1,14662,0,51122,52228,50986.58,51805.27,135.42,422.73,0.419267,99.11,1
860298,1,14703,0,51140,52278,50986.89,51806.22,153.11,471.78,0.418835,99.13,1
860338,1,14743,0,51169,52335,50987.26,51807.28,181.74,527.72,0.418407,99.14,1
860378,1,14783,0,51187,52319,50987.66,51808.3,199.34,510.7,0.417983,99.15,1
860418,1,14823,0,51123,52045,50987.93,51808.78,135.07,236.22,0.417561,99.16,1
860458,1,14863,0,51031,51720,50988.02,51808.6,42.98,-88.6,0.417141,99.18,1
860498,1,14903,0,50876,51616,50987.8,51808.22,-111.8,-192.22,0.416724,99.19,1
860538,1,14943,0,50862,51634,50987.55,51807.87,-125.55,-173.87,0.41631,99.2,1
860578,1,14983,0,50874,51656,50987.32,51807.57,-113.32,-151.57,0.415898,99.21,1
860618,1,15023,0,51265,51711,50987.88,51807.38,277.12,-96.38,0.415498,99.22,1
860658,1,15063,0,51350,51780,50988.61,51807.32,361.39,-27.32,0.415116,99.24,1
860698,1,15103,0,50949,51785,50988.53,51807.28,-39.53,-22.28,0.414736,99.25,1
860738,1,15143,0,50941,51773,50988.43,51807.21,-47.43,-34.21,0.414357,99.26,1
860778,1,15183,0,50938,51790,50988.34,51807.18,-50.34,-17.18,0.41398,99.27,1
860818,1,15223,0,50653,51846,50987.67,51807.26,-334.67,38.74,0.413619,99.28,1
860858,1,15263,0,50639,51917,50986.97,51807.48,-347.97,109.52,0.413276,99.3,1
860898,1,15303,0,51024,51978,50987.05,51807.83,36.95,170.17,0.412933,99.31,1
860938,1,15343,0,51050,52025,50987.18,51808.27,62.82,216.73,0.412592,99.32,1
860978,1,15383,0,51070,52066,50987.34,51808.78,82.66,257.22,0.412251,99.33,1
861019,1,15424,0,51083,52094,50987.54,51809.35,95.46,284.65,0.411912,99.34,1
861059,1,15464,0,51094,52127,50987.75,51809.99,106.25,317.01,0.411575,99.35,1
861099,1,15504,0,51107,52162,50987.99,51810.7,119.01,351.3,0.411238,99.36,1
861139,1,15544,0,51130,52211,50988.27,51811.5,141.73,399.5,0.410904,99.37,1
861179,1,15584,0,51159,52273,50988.62,51812.42,170.38,460.58,0.410572,99.38,1
861219,1,15624,0,51178,52262,50989,51813.32,189,448.68,0.410244,99.4,1
861259,1,15664,0,51116,51984,50989.25,51813.67,126.75,170.33,0.409919,99.41,1
861299,1,15704,0,50968,51686,50989.21,51813.41,-21.21,-127.41,0.409594,99.42,1
861339,1,15744,0,50882,51594,50988.99,51812.98,-106.99,-218.98,0.409272,99.43,1
861379,1,15784,0,50880,51618,50988.78,51812.59,-108.78,-194.59,0.408952,99.44,1
861419,1,15824,0,50892,51644,50988.59,51812.25,-96.59,-168.25,0.408634,99.45,1
861459,1,15864,0,50910,51705,50988.43,51812.04,-78.43,-107.04,0.408317,99.46,1
861499,1,15904,0,50938,51767,50988.33,51811.95,-50.33,-44.95,0.408002,99.47,1
861539,1,15944,0,50962,51769,50988.28,51811.86,-26.28,-42.86,0.407688,99.48,1
861579,1,15984,0,50957,51752,50988.22,51811.75,-31.22,-59.75,0.407374,99.49,1
861619,1,16024,0,50952,51777,50988.15,51811.68,-36.15,-34.68,0.407062,99.5,1
861659,1,16064,0,50972,51842,50988.12,51811.74,-16.12,30.26,0.406751,99.51,1
861700,1,16105,0,51008,51919,50988.16,51811.96,19.84,107.04,0.406441,99.52,1
861740,1,16145,0,51043,51985,50988.27,51812.3,54.73,172.7,0.406132,99.53,1
861780,1,16185,0,51066,52049,50988.43,51812.78,77.57,236.22,0.405824,99.54,1
861820,1,16225,0,51089,52098,50988.63,51813.35,100.37,284.65,0.405517,99.55,1
861860,1,16265,0,51114,52143,50988.88,51814.01,125.12,328.99,0.405212,99.56,1
861900,1,16305,0,51137,52178,50989.18,51814.74,147.82,363.26,0.40491,99.57,1
861940,1,16345,0,51147,52215,50989.5,51815.54,157.5,399.46,0.40461,99.58,1
861980,1,16385,0,51170,52263,50989.86,51816.44,180.14,446.56,0.404314,99.59,1
862020,1,16425,0,51200,52318,50990.28,51817.44,209.72,500.56,0.404022,99.6,1
862060,1,16465,0,51226,52352,50990.75,51818.51,235.25,533.49,0.403736,99.6,1
862100,1,16505,0,51204,52124,50991.18,51819.12,212.82,304.87,0.403456,99.61,1
862140,1,16545,0,51045,51756,50991.29,51819,53.71,-63,0.403178,99.62,1
862180,1,16585,0,50906,51576,50991.12,51818.52,-85.12,-242.52,0.402901,99.63,1
862220,1,16625,0,50876,51558,50990.89,51818,-114.89,-260,0.402626,99.64,1
862260,1,16665,0,50881,51567,50990.68,51817.5,-109.68,-250.5,0.402353,99.65,1
862300,1,16705,0,50874,51576,50990.45,51817.02,-116.45,-241.02,0.402082,99.66,1
862340,1,16745,0,50894,51656,50990.25,51816.7,-96.25,-160.7,0.401813,99.67,1
862381,1,16786,0,50934,51706,50990.14,51816.48,-56.14,-110.48,0.401545,99.68,1
862421,1,16826,0,50942,51702,50990.05,51816.25,-48.05,-114.25,0.401278,99.69,1
862461,1,16866,0,50932,51711,50989.94,51816.04,-57.94,-105.04,0.401012,99.69,1
862501,1,16906,0,50946,51754,50989.85,51815.92,-43.85,-61.92,0.400748,99.7,1
862541,1,16946,0,50974,51830,50989.82,51815.95,-15.82,14.05,0.400484,99.71,1
862581,1,16986,0,51017,51913,50989.87,51816.14,27.12,96.86,0.400221,99.72,1
862621,1,17026,0,51052,51982,50990,51816.48,62,165.52,0.399959,99.73,1
862661,1,17066,0,51082,52052,50990.18,51816.95,91.82,235.05,0.399698,99.74,1
862701,1,17106,0,51112,52105,50990.43,51817.53,121.57,287.47,0.39944,99.74,1
862741,1,17146,0,51141,52149,50990.73,51818.19,150.27,330.81,0.399184,99.75,1
862781,1,17186,0,51161,52193,50991.07,51818.94,169.93,374.06,0.398932,99.76,1
862821,1,17226,0,51179,52232,50991.45,51819.77,187.55,412.23,0.398685,99.77,1
862861,1,17266,0,51200,52282,50991.87,51820.7,208.13,461.3,0.398442,99.77,1
862901,1,17306,0,51223,52338,50992.34,51821.73,230.66,516.27,0.398205,99.78,1
862941,1,17346,0,51248,52393,50992.85,51822.87,255.15,570.12,0.397975,99.79,1
862981,1,17386,0,51263,52379,50993.39,51823.99,269.61,555.01,0.397753,99.79,1
863021,1,17426,0,51170,51992,50993.75,51824.32,176.25,167.68,0.397537,99.8,1
863061,1,17466,0,51000,51688,50993.76,51824.05,6.24,-136.05,0.397321,99.81,1
863102,1,17507,0,50916,51606,50993.61,51823.62,-77.61,-217.62,0.397107,99.81,1
863142,1,17547,0,50906,51980,50993.43,51823.93,-87.43,156.07,0.396893,99.82,1
863182,1,17587,0,50916,52101,50993.28,51824.49,-77.28,276.51,0.39668,99.82,1
863222,1,17627,0,50925,51697,50993.14,51824.23,-68.14,-127.23,0.396469,99.83,1
863262,1,17667,0,50960,51778,50993.08,51824.14,-33.08,-46.14,0.396258,99.83,1
863302,1,17707,0,50990,51808,50993.07,51824.11,-3.07,-16.11,0.396047,99.84,1
863342,1,17747,0,50989,51522,50993.07,51823.51,-4.07,-301.51,0.395836,99.84,1
863382,1,17787,0,50993,51409,50993.07,51822.68,-0.07,-413.68,0.395622,99.85,1
863422,1,17827,0,51019,51897,50993.12,51822.83,25.88,74.17,0.395408,99.85,1
863462,1,17867,0,51058,51973,50993.25,51823.13,64.75,149.87,0.395195,99.86,1
863502,1,17907,0,51095,52047,50993.46,51823.58,101.54,223.42,0.394984,99.86,1
863542,1,17947,0,51128,52108,50993.73,51824.15,134.27,283.85,0.394776,99.87,1
863582,1,17987,0,51150,52156,50994.04,51824.82,155.96,331.18,0.394571,99.87,1
863622,1,18027,0,51171,52198,50994.39,51825.56,176.61,372.44,0.39437,99.87,1
863662,1,18067,0,51188,52235,50994.78,51826.38,193.22,408.62,0.394174,99.88,1
863702,1,18107,0,51240,52274,50995.27,51827.28,244.73,446.72,0.393986,99.88,1
863742,1,18147,0,51215,52309,50995.71,51828.25,219.29,480.75,0.393803,99.88,1
863783,1,18188,0,51234,52359,50996.19,51829.31,237.81,529.69,0.393626,99.89,1
863823,1,18228,0,51260,52419,50996.72,51830.49,263.28,588.51,0.393456,99.89,1
863863,1,18268,0,51614,52478,50997.95,51831.79,616.05,646.21,0.39335,99.89,1
863903,1,18308,0,51697,52362,50999.35,51832.85,697.65,529.15,0.393324,99.9,1
863943,1,18348,0,51170,51992,50999.7,51833.17,170.3,158.83,0.393302,99.9,1
863983,1,18388,0,51014,51757,50999.73,51833.02,14.27,-76.02,0.39328,99.9,1
864023,1,18428,0,50958,51729,50999.64,51832.81,-41.64,-103.81,0.393258,99.91,1
864063,1,18468,0,50736,51776,50999.12,51832.7,-263.12,-56.7,0.393249,99.91,1
864103,1,18508,0,50676,51810,50998.47,51832.65,-322.47,-22.65,0.393257,99.91,1
864143,1,18548,0,51012,51873,50998.5,51832.73,13.5,40.27,0.393266,99.91,1
864183,1,18588,0,51049,51916,50998.6,51832.9,50.4,83.1,0.393275,99.92,1
864223,1,18628,0,51049,51899,50998.7,51833.04,50.3,65.96,0.393284,99.92,1
864263,1,18668,0,51037,51882,50998.78,51833.13,38.22,48.87,0.393293,99.92,1
864303,1,18708,0,51044,51910,50998.87,51833.29,45.13,76.71,0.393303,99.92,1
864343,1,18748,0,51066,51978,50999.01,51833.58,66.99,144.42,0.393312,99.93,1
864383,1,18788,0,51092,52060,50999.2,51834.03,92.8,225.97,0.393322,99.93,1
864423,1,18828,0,51129,52121,50999.46,51834.61,129.54,286.39,0.393333,99.93,1
864464,1,18869,0,51154,52182,50999.77,51835.3,154.23,346.7,0.393344,99.93,1
864504,1,18909,0,51178,52229,51000.12,51836.09,177.87,392.91,0.393358,99.94,1
864544,1,18949,0,51193,52271,51000.51,51836.96,192.49,434.04,0.393372,99.94,1
864584,1,18989,0,51209,52312,51000.93,51837.91,208.07,474.09,0.393388,99.94,1
864624,1,19029,0,51232,52345,51001.39,51838.93,230.61,506.07,0.393407,99.94,1
864664,1,19069,0,51245,52386,51001.88,51840.02,243.12,545.98,0.393428,99.94,1
864704,1,19109,0,51270,52453,51002.42,51841.25,267.58,611.75,0.393452,99.94,1
864744,1,19149,0,51300,52516,51003.02,51842.6,296.98,673.4,0.393478,99.95,1
864784,1,19189,0,51309,52405,51003.63,51843.73,305.37,561.27,0.393513,99.95,1
864824,1,19229,0,51197,52045,51004.02,51844.13,192.98,200.87,0.393553,99.95,1
864864,1,19269,0,51036,51785,51004.09,51844.01,31.91,-59.01,0.393593,99.95,1
864904,1,19309,0,50977,51755,51004.03,51843.84,-27.03,-88.84,0.393632,99.95,1
864944,1,19349,0,50986,51799,51004,51843.75,-18,-44.75,0.393672,99.95,1
864984,1,19389,0,51005,51839,51004,51843.74,1,-4.74,0.393711,99.96,1
865024,1,19429,0,51027,51910,51004.05,51843.87,22.95,66.13,0.39375,99.96,1
865064,1,19469,0,51059,51953,51004.16,51844.09,54.84,108.91,0.39379,99.96,1
865104,1,19509,0,51069,51949,51004.29,51844.3,64.71,104.7,0.393829,99.96,1
865145,1,19550,0,51054,51933,51004.39,51844.48,49.61,88.52,0.393869,99.96,1
865185,1,19590,0,51056,51959,51004.5,51844.71,51.5,114.29,0.393909,99.96,1
865225,1,19630,0,51077,52036,51004.64,51845.09,72.36,190.91,0.393948,99.96,1
865265,1,19670,0,51113,52113,51004.86,51845.63,108.14,267.37,0.393988,99.96,1
865305,1,19710,0,51149,52187,51005.15,51846.32,143.85,340.68,0.394028,99.96,1
865345,1,19750,0,51180,52252,51005.5,51847.13,174.5,404.87,0.394068,99.97,1
865385,1,19790,0,51207,52305,51005.91,51848.05,201.09,456.95,0.39411,99.97,1
865425,1,19830,0,51231,52352,51006.36,51849.05,224.64,502.95,0.394154,99.97,1
865465,1,19870,0,51248,52388,51006.84,51850.13,241.16,537.87,0.394199,99.97,1
865505,1,19910,0,51269,52428,51007.37,51851.29,261.63,576.71,0.394248,99.97,1
865545,1,19950,0,51289,52463,51007.94,51852.52,281.06,610.48,0.394299,99.97,1
865585,1,19990,0,51306,52512,51008.54,51853.84,297.46,658.16,0.394354,99.97,1
865625,1,20030,0,51332,52570,51009.18,51855.27,322.82,714.73,0.394413,99.97,1
865665,1,20070,0,51356,52595,51009.88,51856.75,346.12,738.25,0.394477,99.97,1
865705,1,20110,0,51321,52356,51010.5,51857.75,310.5,498.25,0.39455,99.97,1
865745,1,20150,0,51151,51951,51010.79,51857.94,140.21,93.06,0.394627,99.97,1
865785,1,20190,0,51005,51757,51010.77,51857.74,-5.77,-100.74,0.394703,99.98,1
865826,1,20231,0,50963,51736,51010.68,51857.5,-47.68,-121.5,0.394778,99.98,1
865866,1,20271,0,50970,51760,51010.6,51857.3,-40.6,-97.3,0.394854,99.98,1
865906,1,20311,0,50977,51784,51010.54,51857.16,-33.54,-73.16,0.394929,99.98,1
865946,1,20351,0,50990,51852,51010.5,51857.15,-20.5,-5.15,0.395005,99.98,1
865986,1,20391,0,51024,51891,51010.52,51857.22,13.48,33.78,0.39508,99.98,1
866026,1,20431,0,51031,51880,51010.57,51857.27,20.43,22.73,0.395154,99.98,1
866066,1,20471,0,51025,51886,51010.6,51857.32,14.4,28.68,0.395229,99.98,1
866106,1,20511,0,51033,51932,51010.64,51857.48,22.36,74.52,0.395303,99.98,1
866146,1,20551,0,51064,52003,51010.75,51857.77,53.25,145.23,0.395377,99.98,1
866186,1,20591,0,51106,52095,51010.95,51858.25,95.05,236.75,0.395451,99.98,1
866226,1,20631,0,51141,52142,51011.21,51858.82,129.79,283.18,0.395525,99.98,1
866266,1,20671,0,51167,52202,51011.52,51859.5,155.48,342.5,0.395599,99.98,1
866306,1,20711,0,51186,52249,51011.87,51860.29,174.13,388.71,0.395675,99.98,1
866346,1,20751,0,51207,52616,51012.26,51861.8,194.74,754.2,0.395738,99.98,1
866386,1,20791,0,51225,52760,51012.69,51863.59,212.31,896.41,0.395784,99.98,1
866426,1,20831,0,51235,52353,51013.13,51864.57,221.87,488.43,0.395831,99.99,1
866466,1,20871,0,51248,52391,51013.61,51865.63,234.39,525.37,0.39588,99.99,1
866507,1,20912,0,51268,52440,51014.12,51866.78,253.88,573.22,0.395931,99.99,1
866547,1,20952,0,51295,52229,51014.68,51867.5,280.32,361.5,0.395993,99.99,1
866587,1,20992,0,51313,52056,51015.28,51867.88,297.72,188.12,0.396071,99.99,1
866627,1,21032,0,51228,52126,51015.7,51868.4,212.3,257.6,0.396155,99.99,1
866667,1,21072,0,51052,51774,51015.78,51868.21,36.22,-94.21,0.396238,99.99,1
866707,1,21112,0,50944,51670,51015.64,51867.82,-71.64,-197.82,0.396321,99.99,1
866747,1,21152,0,50928,51690,51015.46,51867.46,-87.46,-177.46,0.396404,99.99,1
866787,1,21192,0,50947,51709,51015.32,51867.14,-68.32,-158.14,0.396487,99.99,1
866827,1,21232,0,50956,51762,51015.21,51866.94,-59.21,-104.94,0.39657,99.99,1
866867,1,21272,0,50990,51820,51015.16,51866.84,-25.16,-46.84,0.396653,99.99,1
866907,1,21312,0,51018,51824,51015.16,51866.76,2.84,-42.76,0.396736,99.99,1
866947,1,21352,0,50999,51798,51015.13,51866.62,-16.13,-68.62,0.396818,99.99,1
866987,1,21392,0,50991,51802,51015.09,51866.49,-24.09,-64.49,0.3969,99.99,1
867027,1,21432,0,50998,51845,51015.05,51866.45,-17.05,-21.45,0.396982,99.99,1
867067,1,21472,0,51322,51918,51015.67,51866.55,306.33,51.45,0.397083,99.99,1
867107,1,21512,0,51424,51983,51016.48,51866.79,407.52,116.21,0.397218,99.99,1
867147,1,21552,0,51085,52038,51016.62,51867.13,68.38,170.87,0.397352,99.99,1
867187,1,21592,0,51110,52082,51016.81,51867.56,93.19,214.44,0.397486,99.99,1
867228,1,21633,0,51126,52116,51017.03,51868.06,108.97,247.94,0.39762,99.99,1
867268,1,21673,0,50955,52141,51016.91,51868.61,-61.91,272.39,0.397751,99.99,1
867308,1,21713,0,50869,52171,51016.61,51869.21,-147.61,301.79,0.397883,99.99,1
867348,1,21753,0,51161,52205,51016.9,51869.89,144.1,335.11,0.398014,99.99,1
867388,1,21793,0,51180,52253,51017.23,51870.65,162.77,382.35,0.398145,99.99,1
867428,1,21833,0,51208,52322,51017.61,51871.55,190.39,450.45,0.398274,99.99,1
867468,1,21873,0,51227,52273,51018.04,51872.36,208.96,400.64,0.398407,99.99,1
867508,1,21913,0,51140,51938,51018.28,51872.49,121.72,65.51,0.398542,99.99,1
867548,1,21953,0,50972,51622,51018.19,51871.99,-46.19,-249.99,0.398674,99.99,1
867588,1,21993,0,50887,51545,51017.93,51871.34,-130.93,-326.34,0.398805,99.99,1
867628,1,22033,0,50882,51587,51017.66,51870.77,-135.66,-283.77,0.398937,99.99,1
867668,1,22073,0,50902,51635,51017.43,51870.3,-115.43,-235.3,0.399069,99.99,1
867708,1,22113,0,50928,51712,51017.25,51869.99,-89.25,-157.99,0.399201,99.99,1
867748,1,22153,0,50964,51745,51017.15,51869.74,-53.15,-124.74,0.399333,99.99,1
867788,1,22193,0,50962,51716,51017.04,51869.43,-55.04,-153.43,0.399464,99.99,1
867828,1,22233,0,50942,51686,51016.89,51869.07,-74.89,-183.07,0.399594,99.99,1
867868,1,22273,0,50937,51712,51016.73,51868.75,-79.73,-156.75,0.399725,100,1
867908,1,22313,0,50955,51768,51016.61,51868.55,-61.61,-100.55,0.399855,100,1
867949,1,22354,0,50988,51833,51016.55,51868.48,-28.55,-35.48,0.399985,100,1
867989,1,22394,0,51014,51890,51016.55,51868.53,-2.55,21.47,0.400115,100,1
868029,1,22434,0,51035,51937,51016.59,51868.66,18.41,68.34,0.400244,100,1
868069,1,22474,0,51055,51972,51016.67,51868.87,38.33,103.13,0.400373,100,1
868109,1,22514,0,51074,52001,51016.79,51869.14,57.21,131.86,0.400501,100,1
868149,1,22554,0,51080,52026,51016.91,51869.45,63.09,156.55,0.400629,99.99,1
868189,1,22594,0,51093,52053,51017.07,51869.82,75.93,183.18,0.400756,99.99,1
868229,1,22634,0,51109,52095,51017.25,51870.27,91.75,224.73,0.400883,99.99,1
868269,1,22674,0,51134,52149,51017.48,51870.83,116.52,278.17,0.401009,99.99,1
868309,1,22714,0,51151,52093,51017.75,51871.28,133.25,221.72,0.401137,99.99,1
868349,1,22754,0,51060,51751,51017.84,51871.04,42.16,-120.04,0.401264,99.99,1
868389,1,22794,0,50883,51437,51017.57,51870.17,-134.57,-433.17,0.401386,99.99,1
868429,1,22834,0,50792,51348,51017.12,51869.13,-225.12,-521.13,0.401508,99.99,1
868469,1,22874,0,50785,51368,51016.66,51868.13,-231.66,-500.13,0.401631,99.99,1
868509,1,22914,0,50800,51390,51016.22,51867.18,-216.22,-477.18,0.401754,99.99,1
868549,1,22954,0,50810,51449,51015.81,51866.34,-205.81,-417.34,0.401879,99.99,1
868589,1,22994,0,50840,51508,51015.46,51865.62,-175.46,-357.62,0.402006,99.99,1
868630,1,23035,0,50854,51497,51015.14,51864.89,-161.14,-367.89,0.402132,99.98,1
868670,1,23075,0,50838,51477,51014.79,51864.12,-176.79,-387.12,0.402259,99.98,1
868710,1,23115,0,50833,51493,51014.43,51863.37,-181.43,-370.37,0.402386,99.98,1
868750,1,23155,0,50858,51550,51014.11,51862.75,-156.11,-312.75,0.402515,99.98,1
868790,1,23195,0,50893,51626,51013.87,51862.28,-120.87,-236.28,0.402644,99.98,1
868830,1,23235,0,50925,51699,51013.7,51861.95,-88.7,-162.95,0.402774,99.98,1
868870,1,23275,0,50959,51757,51013.59,51861.75,-54.59,-104.75,0.402903,99.98,1
868910,1,23315,0,50986,51805,51013.53,51861.63,-27.53,-56.63,0.403032,99.98,1
868950,1,23355,0,51004,51840,51013.51,51861.59,-9.51,-21.59,0.403161,99.97,1
868990,1,23395,0,51024,51869,51013.54,51861.61,10.46,7.39,0.403289,99.97,1
869030,1,23435,0,51032,51891,51013.57,51861.66,18.43,29.34,0.403417,99.97,1
869070,1,23475,0,51046,51932,51013.64,51861.8,32.36,70.2,0.403545,99.97,1
869110,1,23515,0,51069,51983,51013.75,51862.05,55.25,120.95,0.403672,99.97,1
869150,1,23555,0,51095,52026,51013.92,51862.37,81.08,163.62,0.403799,99.96,1
869190,1,23595,0,51082,51868,51014.05,51862.39,67.95,5.61,0.403927,99.96,1
869230,1,23635,0,50941,51455,51013.91,51861.57,-72.91,-406.57,0.404048,99.96,1
869270,1,23675,0,50762,51192,51013.41,51860.24,-251.41,-668.24,0.404162,99.96,1
869311,1,23716,0,50694,51143,51012.77,51858.8,-318.77,-715.8,0.404277,99.96,1
869351,1,23756,0,50695,51153,51012.14,51857.39,-317.14,-704.39,0.404394,99.95,1
869391,1,23796,0,50690,51146,51011.49,51855.97,-321.49,-709.97,0.404512,99.95,1
869431,1,23836,0,50695,51205,51010.86,51854.67,-315.86,-649.67,0.404634,99.95,1
869471,1,23876,0,50724,51270,51010.29,51853.5,-286.29,-583.5,0.40476,99.95,1
869511,1,23916,0,50752,51285,51009.77,51852.37,-257.77,-567.37,0.404886,99.95,1
869551,1,23956,0,50749,51274,51009.25,51851.21,-260.25,-577.21,0.405013,99.94,1
869591,1,23996,0,50758,51600,51008.75,51850.71,-250.75,-250.71,0.405151,99.94,1
869631,1,24036,0,50781,51732,51008.3,51850.48,-227.3,-118.48,0.4053,99.94,1
869671,1,24076,0,50820,51449,51007.92,51849.68,-187.92,-400.68,0.405449,99.94,1
869711,1,24116,0,50862,51517,51007.63,51849.01,-145.63,-332.01,0.405597,99.94,1
869751,1,24156,0,50890,51573,51007.4,51848.46,-117.4,-275.46,0.405745,99.93,1
869791,1,24196,0,50913,51416,51007.21,51847.6,-94.21,-431.6,0.405885,99.93,1
869831,1,24236,0,50935,51387,51007.07,51846.68,-72.07,-459.68,0.406017,99.93,1
869871,1,24276,0,50949,51697,51006.95,51846.38,-57.95,-149.38,0.406148,99.93,1
869911,1,24316,0,50965,51731,51006.87,51846.15,-41.87,-115.15,0.406279,99.92,1
869951,1,24356,0,50986,51767,51006.83,51846,-20.83,-79,0.406409,99.92,1
869991,1,24396,0,51001,51826,51006.82,51845.96,-5.82,-19.96,0.406538,99.92,1
870032,1,24437,0,51030,51887,51006.87,51846.04,23.13,40.96,0.406667,99.92,1
870072,1,24477,0,51052,51841,51006.96,51846.03,45.04,-5.03,0.406797,99.91,1
870112,1,24517,0,50954,51482,51006.85,51845.3,-52.85,-363.3,0.40692,99.91,1
870152,1,24557,0,50758,51133,51006.36,51843.88,-248.36,-710.88,0.407034,99.91,1
870192,1,24597,0,50664,51043,51005.67,51842.28,-341.67,-799.28,0.407146,99.91,1
870232,1,24637,0,50650,51058,51004.96,51840.71,-354.96,-782.71,0.40726,99.9,1
870272,1,24677,0,50654,51068,51004.26,51839.17,-350.26,-771.17,0.407376,99.9,1
870312,1,24717,0,50901,51110,51004.05,51837.71,-103.05,-727.71,0.407471,99.9,1
870352,1,24757,0,51075,51189,51004.2,51836.42,70.8,-647.42,0.407551,99.89,1
870392,1,24797,0,50733,51207,51003.66,51835.16,-270.66,-628.16,0.40763,99.89,1
870432,1,24837,0,50727,51196,51003.11,51833.88,-276.11,-637.88,0.407709,99.89,1
870472,1,24877,0,50720,51208,51002.54,51832.63,-282.54,-624.63,0.40779,99.89,1
870512,1,24917,0,50609,51263,51001.75,51831.5,-392.75,-568.5,0.407891,99.88,1
870552,1,24957,0,50463,51338,51000.68,51830.51,-537.68,-492.51,0.408039,99.88,1
870592,1,24997,0,50808,51403,51000.29,51829.66,-192.29,-426.66,0.408187,99.88,1
870632,1,25037,0,50835,51458,50999.96,51828.91,-164.96,-370.91,0.408334,99.88,1
870672,1,25077,0,50854,51498,50999.68,51828.25,-145.68,-330.25,0.408481,99.87,1
870713,1,25118,0,50873,51533,50999.42,51827.66,-126.42,-294.66,0.408627,99.87,1
870753,1,25158,0,50889,51559,50999.2,51827.13,-110.2,-268.13,0.408771,99.87,1
870793,1,25198,0,50896,51595,50999,51826.66,-103,-231.66,0.408916,99.87,1
870833,1,25238,0,50912,51641,50998.82,51826.29,-86.82,-185.29,0.40906,99.86,1
870873,1,25278,0,50943,51710,50998.71,51826.06,-55.71,-116.06,0.409204,99.86,1
870913,1,25318,0,50975,51772,50998.67,51825.96,-23.67,-53.96,0.409347,99.86,1
870953,1,25358,0,50982,51675,50998.64,51825.66,-16.64,-150.66,0.409489,99.85,1
870993,1,25398,0,50866,51305,50998.37,51824.62,-132.37,-519.62,0.409623,99.85,1
871033,1,25438,0,50698,51040,50997.77,51823.05,-299.77,-783.05,0.40975,99.85,1
871073,1,25478,0,50634,51006,50997.05,51821.42,-363.05,-815.42,0.409877,99.85,1
871113,1,25518,0,50643,51057,50996.34,51819.89,-353.34,-762.89,0.410005,99.84,1
871153,1,25558,0,50661,51097,50995.67,51818.45,-334.67,-721.45,0.410134,99.84,1
871193,1,25598,0,50689,51176,50995.06,51817.16,-306.06,-641.16,0.410265,99.84,1
871233,1,25638,0,50723,51217,50994.52,51815.96,-271.52,-598.96,0.410396,99.83,1
871273,1,25678,0,50728,51195,50993.98,51814.72,-265.98,-619.72,0.410526,99.83,1
871313,1,25718,0,50710,51177,50993.42,51813.45,-283.42,-636.45,0.410655,99.83,1
871353,1,25758,0,50718,51223,50992.87,51812.27,-274.87,-589.27,0.410785,99.83,1
871394,1,25799,0,50749,51291,50992.38,51811.22,-243.38,-520.22,0.410915,99.82,1
871434,1,25839,0,50787,51373,50991.97,51810.35,-204.97,-437.35,0.411046,99.82,1
871474,1,25879,0,50815,51433,50991.62,51809.59,-176.62,-376.59,0.411176,99.82,1
871514,1,25919,0,50840,51493,50991.32,51808.96,-151.32,-315.96,0.411307,99.81,1
871554,1,25959,0,50868,51535,50991.07,51808.41,-123.07,-273.41,0.411438,99.81,1
871594,1,25999,0,50889,51575,50990.87,51807.95,-101.87,-232.95,0.411568,99.81,1
871634,1,26039,0,50900,51599,50990.69,51807.53,-90.69,-208.53,0.411697,99.8,1
871674,1,26079,0,50918,51643,50990.54,51807.2,-72.54,-164.2,0.411826,99.8,1
871714,1,26119,0,50942,51690,50990.45,51806.97,-48.45,-116.97,0.411955,99.8,1
871754,1,26159,0,50966,51740,50990.4,51806.84,-24.4,-66.84,0.412083,99.8,1
871794,1,26199,0,50980,51669,50990.38,51806.56,-10.38,-137.56,0.41221,99.79,1
871834,1,26239,0,50870,51296,50990.14,51805.54,-120.14,-509.54,0.41233,99.79,1
871874,1,26279,0,50691,51008,50989.54,51803.95,-298.54,-795.95,0.412442,99.79,1
871914,1,26319,0,50613,50956,50988.79,51802.25,-375.79,-846.25,0.412555,99.78,1
871954,1,26359,0,50614,51000,50988.04,51800.65,-374.04,-800.65,0.412669,99.78,1
871994,1,26399,0,50633,51030,50987.34,51799.11,-354.34,-769.11,0.412785,99.78,1
872035,1,26440,0,50653,51108,50986.67,51797.73,-333.67,-689.73,0.412903,99.77,1
872075,1,26480,0,50694,51175,50986.08,51796.49,-292.08,-621.49,0.413022,99.77,1
872115,1,26520,0,50707,51169,50985.52,51795.23,-278.52,-626.23,0.413141,99.77,1
872155,1,26560,0,50695,51158,50984.95,51793.96,-289.95,-635.96,0.41326,99.77,1
872195,1,26600,0,50701,51180,50984.38,51792.73,-283.38,-612.73,0.41338,99.76,1
872235,1,26640,0,50727,51257,50983.87,51791.66,-256.87,-534.66,0.413501,99.76,1
872275,1,26680,0,50762,51341,50983.43,51790.77,-221.43,-449.77,0.413623,99.76,1
872315,1,26720,0,50802,51413,50983.06,51790.01,-181.06,-377.01,0.413745,99.75,1
872355,1,26760,0,50835,51474,50982.77,51789.38,-147.77,-315.38,0.413867,99.75,1
872395,1,26800,0,50866,51523,50982.54,51788.85,-116.54,-265.85,0.413989,99.75,1
872435,1,26840,0,50890,51571,50982.36,51788.42,-92.36,-217.42,0.41411,99.74,1
872475,1,26880,0,50909,51608,50982.21,51788.06,-73.21,-180.06,0.414231,99.74,1
872515,1,26920,0,50926,51638,50982.1,51787.76,-56.1,-149.76,0.414351,99.74,1
872555,1,26960,0,50941,51679,50982.02,51787.55,-41.02,-108.55,0.41447,99.74,1
872595,1,27000,0,50964,51734,50981.98,51787.44,-17.98,-53.44,0.414589,99.73,1
872635,1,27040,0,50986,51823,50981.99,51787.52,4.01,35.48,0.414708,99.73,1
872675,1,27080,0,50985,51644,50982,51787.23,3,-143.23,0.414825,99.73,1
872716,1,27121,0,50840,51217,50981.72,51786.09,-141.72,-569.09,0.414935,99.72,1
872756,1,27161,0,50648,50952,50981.05,51784.42,-333.05,-832.42,0.41504,99.72,1
872796,1,27201,0,50577,51265,50980.24,51783.38,-403.24,-518.38,0.415163,99.72,1
872836,1,27241,0,50584,51340,50979.45,51782.5,-395.45,-442.5,0.415305,99.71,1
872876,1,27281,0,50591,50937,50978.67,51780.8,-387.67,-843.8,0.415447,99.71,1
872916,1,27321,0,50601,50996,50977.92,51779.24,-376.92,-783.24,0.415591,99.71,1
872956,1,27361,0,50640,51086,50977.24,51777.85,-337.24,-691.85,0.415737,99.71,1
872996,1,27401,0,50673,50819,50976.64,51775.93,-303.64,-956.93,0.415867,99.7,1
873036,1,27441,0,50677,50783,50976.04,51773.95,-299.04,-990.95,0.415981,99.7,1
873076,1,27481,0,50680,51136,50975.45,51772.68,-295.45,-636.68,0.416095,99.7,1
873116,1,27521,0,50705,51208,50974.91,51771.55,-269.91,-563.55,0.416209,99.69,1
873156,1,27561,0,50744,51297,50974.45,51770.6,-230.45,-473.6,0.416325,99.69,1
873196,1,27601,0,50784,51373,50974.07,51769.8,-190.07,-396.8,0.416441,99.69,1
873236,1,27641,0,50817,51431,50973.76,51769.13,-156.76,-338.13,0.416557,99.68,1
873276,1,27681,0,50841,51485,50973.49,51768.56,-132.49,-283.56,0.416673,99.68,1
873316,1,27721,0,50864,51532,50973.27,51768.09,-109.27,-236.09,0.416789,99.68,1
873356,1,27761,0,50935,51570,50973.2,51767.7,-38.2,-197.7,0.416903,99.68,1
873397,1,27802,0,50900,51603,50973.05,51767.37,-73.05,-164.37,0.417017,99.67,1
873437,1,27842,0,50917,51648,50972.95,51767.13,-55.95,-119.13,0.417131,99.67,1
873477,1,27882,0,50933,51701,50972.87,51767,-39.87,-66,0.417244,99.67,1
873517,1,27922,0,51290,51771,50973.5,51767,316.5,4,0.417373,99.66,1
873557,1,27962,0,51468,51788,50974.5,51767.05,493.5,20.95,0.417539,99.66,1
873597,1,28002,0,50948,51504,50974.45,51766.52,-26.45,-262.52,0.417703,99.66,1
873637,1,28042,0,50757,51096,50974.01,51765.18,-217.01,-669.18,0.417858,99.65,1
873677,1,28082,0,50617,50938,50973.3,51763.53,-356.3,-825.53,0.41801,99.65,1
873717,1,28122,0,50360,50952,50972.07,51761.91,-612.07,-809.91,0.418196,99.65,1
873757,1,28162,0,50166,50982,50970.46,51760.35,-804.46,-778.35,0.418453,99.64,1
873797,1,28202,0,50619,51015,50969.76,51758.86,-350.76,-743.86,0.418707,99.64,1
873837,1,28242,0,50644,51093,50969.11,51757.53,-325.11,-664.53,0.418959,99.64,1
873877,1,28282,0,50681,51149,50968.54,51756.32,-287.54,-607.32,0.419211,99.63,1
873917,1,28322,0,50690,51138,50967.98,51755.08,-277.98,-617.08,0.419459,99.63,1
873957,1,28362,0,50684,51139,50967.42,51753.85,-283.42,-614.85,0.419704,99.63,1
873997,1,28402,0,50689,51184,50966.86,51752.71,-277.86,-568.71,0.419949,99.62,1
874037,1,28442,0,50722,51260,50966.37,51751.73,-244.37,-491.73,0.420194,99.62,1
874078,1,28483,0,50761,51341,50965.96,51750.91,-204.96,-409.91,0.420437,99.62,1
874118,1,28523,0,50794,51410,50965.62,51750.23,-171.62,-340.23,0.42068,99.61,1
874158,1,28563,0,50823,51478,50965.34,51749.69,-142.34,-271.69,0.420923,99.61,1
874198,1,28603,0,50849,51529,50965.11,51749.25,-116.11,-220.25,0.421165,99.6,1
874238,1,28643,0,50876,51573,50964.93,51748.89,-88.93,-175.89,0.421406,99.6,1
874278,1,28683,0,50892,51611,50964.79,51748.62,-72.79,-137.62,0.421647,99.59,1
874318,1,28723,0,50913,51645,50964.68,51748.41,-51.68,-103.41,0.421887,99.59,1
874358,1,28763,0,50934,51690,50964.62,51748.3,-30.62,-58.3,0.422126,99.59,1
874398,1,28803,0,50964,51753,50964.62,51748.31,-0.62,4.69,0.422365,99.58,1
874438,1,28843,0,50995,51793,50964.69,51748.4,30.31,44.6,0.422603,99.58,1
874478,1,28883,0,50969,51574,50964.7,51748.05,4.3,-174.05,0.422839,99.57,1
874518,1,28923,0,50792,51161,50964.36,51746.88,-172.36,-585.88,0.423067,99.57,1
874558,1,28963,0,50642,50973,50963.71,51745.33,-321.71,-772.33,0.423288,99.56,1
874598,1,29003,0,50605,50993,50963,51743.83,-358,-750.83,0.423508,99.56,1
874638,1,29043,0,50629,51051,50962.33,51742.45,-333.33,-691.45,0.423727,99.55,1
874678,1,29083,0,50651,51115,50961.71,51741.19,-310.71,-626.19,0.423945,99.55,1
874719,1,29124,0,50691,51195,50961.17,51740.1,-270.17,-545.1,0.424163,99.55,1
874759,1,29164,0,50716,51222,50960.68,51739.07,-244.68,-517.07,0.42438,99.54,1
874799,1,29204,0,50711,51201,50960.18,51737.99,-249.18,-536.99,0.424595,99.54,1
874839,1,29244,0,50699,51196,50959.66,51736.91,-260.66,-540.91,0.424809,99.53,1
874879,1,29284,0,50718,51247,50959.18,51735.93,-241.18,-488.93,0.425023,99.53,1
874919,1,29324,0,50750,51333,50958.77,51735.13,-208.77,-402.13,0.425236,99.52,1
874959,1,29364,0,50790,51419,50958.43,51734.5,-168.43,-315.5,0.42545,99.52,1
874999,1,29404,0,50828,51492,50958.17,51734.01,-130.17,-242.01,0.425664,99.51,1
875039,1,29444,0,50863,51549,50957.98,51733.64,-94.98,-184.64,0.425877,99.51,1
875079,1,29484,0,50892,51593,50957.86,51733.36,-65.86,-140.36,0.426089,99.5,1
875119,1,29524,0,50913,51632,50957.77,51733.16,-44.77,-101.16,0.4263,99.5,1
875159,1,29564,0,50923,51662,50957.7,51733.02,-34.7,-71.02,0.426511,99.49,1
875199,1,29604,0,50941,51695,50957.67,51732.95,-16.67,-37.95,0.426722,99.49,1
875239,1,29644,0,50962,51752,50957.68,51732.98,4.32,19.02,0.426931,99.48,1
875279,1,29684,0,50990,51808,50957.75,51733.14,32.25,74.86,0.42714,99.48,1
875319,1,29724,0,50989,51654,50957.81,51732.98,31.19,-78.98,0.427348,99.47,1
875359,1,29764,0,50835,51240,50957.56,51732,-122.56,-492,0.42755,99.47,1
875400,1,29805,0,50660,50991,50956.97,51730.52,-296.97,-739.52,0.427744,99.46,1
875440,1,29845,0,50599,50985,50956.25,51729.03,-357.25,-744.03,0.427938,99.46,1
875480,1,29885,0,50622,51053,50955.59,51727.68,-333.59,-674.68,0.428132,99.45,1
875520,1,29925,0,50652,51114,50954.98,51726.45,-302.98,-612.45,0.428325,99.45,1
875560,1,29965,0,50689,51201,50954.45,51725.4,-265.45,-524.4,0.428519,99.44,1
875600,1,30005,1,50722,51246,50953.98,51724.44,-231.98,-478.44,0.428712,99.44,1
875640,1,30045,1,50728,51232,50953.54,51723.46,-225.54,-491.46,0.428904,99.43,1
875680,1,30085,1,50717,51217,50953.06,51722.45,-236.06,-505.45,0.429094,99.43,1
875720,1,30125,1,50727,51260,50952.61,51721.52,-225.61,-461.52,0.429284,99.43,1
875760,1,30165,1,50762,51336,50952.23,51720.75,-190.23,-384.75,0.429473,99.42,1
875800,1,30205,1,50799,51420,50951.93,51720.15,-152.93,-300.15,0.429663,99.42,1
875840,1,30245,1,50835,51612,50951.7,51719.94,-116.7,-107.94,0.429853,99.41,1
875880,1,30285,1,50870,51753,50951.54,51720,-81.54,33,0.430044,99.41,1
875920,1,30325,1,50896,51606,50951.43,51719.78,-55.43,-113.78,0.430234,99.4,1
875960,1,30365,1,50913,51648,50951.35,51719.64,-38.35,-71.64,0.430423,99.4,1
876000,1,30405,1,50926,51675,50951.3,51719.55,-25.3,-44.55,0.430612,99.39,1
876040,1,30445,1,50938,51705,50951.28,51719.52,-13.28,-14.52,0.430801,99.39,1
876081,1,30486,1,50951,51649,50951.28,51719.38,-0.28,-70.38,0.430989,99.38,1
876121,1,30526,1,50978,51807,50951.33,51719.55,26.67,87.45,0.431176,99.38,1
876161,1,30566,1,50996,51797,50951.42,51719.71,44.58,77.29,0.431362,99.37,1
876201,1,30606,1,50928,51456,50951.37,51719.18,-23.37,-263.18,0.431546,99.37,1
876241,1,30646,1,50723,50633,50950.92,51717.01,-227.92,-1084.01,0.431695,99.36,1
876281,1,30686,1,50589,42283,50950.2,51698.14,-361.2,-9415.14,0.431038,99.36,1
876321,1,30726,1,50570,50952,50949.44,51696.65,-379.44,-744.65,0.430392,99.35,1
876361,1,30766,1,50591,50991,50948.72,51695.24,-357.72,-704.24,0.429755,99.35,1
876401,1,30806,1,50611,51029,50948.05,51693.91,-337.05,-664.91,0.429125,99.35,1
876441,1,30846,1,50643,51113,50947.44,51692.75,-304.44,-579.75,0.428503,99.35,1
876481,1,30886,1,50677,51153,50946.9,51691.67,-269.9,-538.67,0.427886,99.35,1
876521,1,30926,1,50680,51142,50946.37,51690.57,-266.37,-548.57,0.427275,99.35,1
876561,1,30966,1,50811,51145,50946.1,51689.48,-135.1,-544.48,0.426666,99.34,1
876601,1,31006,1,50925,51194,50946.06,51688.5,-21.06,-494.5,0.426058,99.35,1
876641,1,31046,1,50721,51285,50945.61,51687.69,-224.61,-402.69,0.425454,99.35,1
876681,1,31086,1,50761,51370,50945.24,51687.06,-184.24,-317.06,0.424855,99.35,1
876721,1,31126,1,50799,51444,50944.95,51686.57,-145.95,-242.57,0.424258,99.35,1
876762,1,31167,1,50828,51501,50944.71,51686.2,-116.71,-185.2,0.423664,99.35,1
876802,1,31207,1,50710,51553,50944.25,51685.94,-234.25,-132.94,0.423075,99.35,1
876842,1,31247,1,50875,51613,50944.11,51685.79,-69.11,-72.79,0.422489,99.35,1
876882,1,31287,1,50898,51651,50944.02,51685.73,-46.02,-34.73,0.421904,99.36,1
876922,1,31327,1,50917,51681,50943.97,51685.72,-26.97,-4.72,0.421321,99.36,1
876962,1,31367,1,50401,51721,50942.88,51685.79,-541.88,35.21,0.420761,99.36,1
877002,1,31407,1,50922,51775,50942.84,51685.97,-20.84,89.03,0.420202,99.37,1
877042,1,31447,1,50979,51829,50942.92,51686.26,36.08,142.74,0.419645,99.37,1
877082,1,31487,1,50983,51653,50943,51686.19,40,-33.19,0.41909,99.38,1
877122,1,31527,1,50815,51186,50942.75,51685.19,-127.75,-499.19,0.418537,99.38,1
877162,1,31567,1,50618,50913,50942.1,51683.65,-324.1,-770.65,0.41799,99.39,1
877202,1,31607,1,50551,50901,50941.32,51682.09,-390.32,-781.09,0.417454,99.39,1
877242,1,31647,1,50571,50962,50940.58,51680.65,-369.58,-718.65,0.416927,99.4,1
877282,1,31687,1,50595,50989,50939.89,51679.27,-344.89,-690.27,0.416407,99.4,1
877322,1,31727,1,50608,51052,50939.22,51678.01,-331.22,-626.01,0.415896,99.41,1
877362,1,31767,1,50646,51126,50938.64,51676.91,-292.64,-550.91,0.415391,99.42,1
877402,1,31807,1,50666,51142,50938.09,51675.84,-272.09,-533.84,0.414891,99.42,1
877443,1,31848,1,50666,51118,50937.55,51674.73,-271.55,-556.73,0.414397,99.43,1
877483,1,31888,1,50660,51134,50937,51673.64,-277,-539.64,0.413908,99.44,1
877523,1,31928,1,50679,51223,50936.48,51672.75,-257.48,-449.75,0.413425,99.44,1
877563,1,31968,1,50722,51322,50936.05,51672.05,-214.05,-350.05,0.412946,99.45,1
877603,1,32008,1,50773,51426,50935.73,51671.55,-162.73,-245.55,0.412469,99.46,1
877643,1,32048,1,50820,51509,50935.5,51671.23,-115.5,-162.23,0.411995,99.46,1
877683,1,32088,1,50849,51562,50935.33,51671.01,-86.33,-109.01,0.411523,99.47,1
877723,1,32128,1,50863,51591,50935.18,51670.85,-72.18,-79.85,0.411053,99.48,1
877763,1,32168,1,50882,51613,50935.08,51670.74,-53.08,-57.74,0.410584,99.49,1
877803,1,32208,1,50895,51637,50935,51670.67,-40,-33.67,0.410117,99.49,1
877843,1,32248,1,50909,51671,50934.95,51670.68,-25.95,0.32,0.409652,99.5,1
877883,1,32288,1,50928,51722,50934.94,51670.78,-6.94,51.22,0.409187,99.51,1
877923,1,32328,1,50955,51768,50934.98,51670.98,20.02,97.02,0.408724,99.52,1
877963,1,32368,1,50959,51636,50935.03,51670.91,23.97,-34.91,0.408263,99.53,1
878003,1,32408,1,50815,51222,50934.79,51670.01,-119.79,-448.01,0.407803,99.53,1
878043,1,32448,1,50628,50944,50934.18,51668.56,-306.18,-724.56,0.407349,99.54,1
878083,1,32488,1,50554,50894,50933.42,51667.02,-379.42,-773.02,0.406905,99.55,1
878123,1,32528,1,50557,50937,50932.67,51665.56,-375.67,-728.56,0.40647,99.56,1
878164,1,32569,1,50580,50993,50931.97,51664.21,-351.97,-671.21,0.406044,99.57,1
878204,1,32609,1,50615,51087,50931.34,51663.06,-316.34,-576.06,0.405625,99.58,1
878244,1,32649,1,50653,51148,50930.78,51662.04,-277.78,-514.04,0.405211,99.59,1
878284,1,32689,1,50660,51135,50930.24,51660.98,-270.24,-525.98,0.404804,99.6,1
878324,1,32729,1,50654,51109,50929.69,51659.88,-275.69,-550.88,0.404401,99.6,1
878364,1,32769,1,50649,51150,50929.13,51658.86,-280.13,-508.86,0.404004,99.61,1
878404,1,32809,1,50686,51237,50928.65,51658.02,-242.65,-421.02,0.403612,99.62,1
878444,1,32849,1,50725,51313,50928.24,51657.33,-203.24,-344.33,0.403224,99.63,1
878484,1,32889,1,50765,51372,50927.92,51656.76,-162.92,-284.76,0.402839,99.64,1
878524,1,32929,1,50789,51417,50927.64,51656.28,-138.64,-239.28,0.402455,99.65,1
878564,1,32969,1,50809,51461,50927.41,51655.89,-118.41,-194.89,0.402074,99.66,1
878604,1,33009,1,50828,51507,50927.21,51655.59,-99.21,-148.59,0.401695,99.67,1
878644,1,33049,1,50849,51529,50927.05,51655.34,-78.05,-126.34,0.401317,99.68,1
878684,1,33089,1,50862,51565,50926.92,51655.16,-64.92,-90.16,0.400941,99.68,1
878724,1,33129,1,50877,51607,50926.82,51655.07,-49.82,-48.07,0.400566,99.69,1
878764,1,33169,1,50873,51478,50926.72,51654.72,-53.72,-176.72,0.400192,99.7,1
878804,1,33209,1,50738,51076,50926.34,51653.56,-188.34,-577.56,0.39982,99.71,1
878845,1,33250,1,50560,50801,50925.61,51651.86,-365.61,-850.86,0.399456,99.72,1
878885,1,33290,1,50487,50766,50924.74,51650.09,-437.74,-884.09,0.399103,99.73,1
878925,1,33330,1,50496,50824,50923.88,51648.44,-427.88,-824.44,0.398763,99.74,1
878965,1,33370,1,50522,50890,50923.08,51646.92,-401.08,-756.92,0.398432,99.74,1
879005,1,33410,1,50552,50968,50922.34,51645.57,-370.34,-677.57,0.398111,99.75,1
879045,1,33450,1,50598,51020,50921.69,51644.32,-323.69,-624.32,0.397796,99.76,1
879085,1,33490,1,50606,51091,50921.06,51643.21,-315.06,-552.21,0.397488,99.77,1
879125,1,33530,1,50592,51002,50920.41,51641.93,-328.41,-639.93,0.397187,99.77,1
879165,1,33570,1,50602,51052,50919.77,51640.75,-317.77,-588.75,0.396892,99.78,1
879205,1,33610,1,50640,51123,50919.21,51639.71,-279.21,-516.71,0.396602,99.79,1
879245,1,33650,1,50678,51539,50918.73,51639.52,-240.73,-100.52,0.396318,99.79,1
879285,1,33690,1,50699,51640,50918.29,51639.52,-219.29,0.48,0.396039,99.8,1
879325,1,33730,1,50718,51268,50917.89,51638.78,-199.89,-370.78,0.395762,99.81,1
879365,1,33770,1,50739,51307,50917.54,51638.11,-178.54,-331.11,0.395488,99.81,1
879405,1,33810,1,50758,51327,50917.22,51637.49,-159.22,-310.49,0.395216,99.82,1
879445,1,33850,1,50763,51112,50916.91,51636.44,-153.91,-524.44,0.394945,99.82,1
879485,1,33890,1,50784,51075,50916.65,51635.32,-132.65,-560.32,0.394674,99.83,1
879525,1,33930,1,50804,51422,50916.43,51634.89,-112.43,-212.89,0.394405,99.83,1
879566,1,33971,1,50749,51137,50916.09,51633.9,-167.09,-496.9,0.394136,99.84,1
879606,1,34011,1,50567,50760,50915.4,51632.15,-348.4,-872.15,0.393873,99.84,1
879646,1,34051,1,50433,50623,50914.43,51630.14,-481.43,-1007.14,0.393622,99.85,1
879686,1,34091,1,50409,50647,50913.43,51628.17,-504.43,-981.17,0.393385,99.85,1
879726,1,34131,1,50430,50688,50912.46,51626.29,-482.46,-938.29,0.39316,99.86,1
879766,1,34171,1,50451,50749,50911.54,51624.54,-460.54,-875.54,0.392946,99.86,1
879806,1,34211,1,50542,50849,50910.8,51622.99,-368.8,-773.99,0.392739,99.87,1
879846,1,34251,1,50530,50897,50910.04,51621.54,-380.04,-724.54,0.392539,99.87,1
879886,1,34291,1,50544,50892,50909.31,51620.08,-365.31,-728.08,0.392346,99.87,1
879926,1,34331,1,50542,50890,50908.57,51618.62,-366.57,-728.62,0.392159,99.88,1
879966,1,34371,1,50913,50949,50908.59,51617.29,4.41,-668.29,0.391969,99.88,1
880006,1,34411,1,51056,51059,50908.88,51616.17,147.12,-557.17,0.391779,99.88,1
880046,1,34451,1,50640,51131,50908.35,51615.2,-268.35,-484.2,0.391593,99.89,1
880086,1,34491,1,50665,51157,50907.86,51614.29,-242.86,-457.29,0.391411,99.89,1
880126,1,34531,1,50666,51164,50907.38,51613.39,-241.38,-449.39,0.391232,99.89,1
880166,1,34571,1,50400,51193,50906.37,51612.55,-506.37,-419.55,0.391072,99.9,1
880206,1,34611,1,50282,51238,50905.12,51611.8,-623.12,-373.8,0.39094,99.9,1
880246,1,34651,1,50718,51295,50904.75,51611.17,-186.75,-316.17,0.390811,99.9,1
880287,1,34692,1,50740,51336,50904.43,51610.62,-164.43,-274.62,0.390683,99.91,1
880327,1,34732,1,50730,51194,50904.08,51609.79,-174.08,-415.79,0.390557,99.91,1
880367,1,34772,1,50599,50866,50903.47,51608.3,-304.47,-742.3,0.390433,99.91,1
880407,1,34812,1,50466,50703,50902.59,51606.49,-436.59,-903.49,0.390316,99.91,1
880447,1,34852,1,50440,50711,50901.67,51604.7,-461.67,-893.7,0.390209,99.92,1
880487,1,34892,1,50452,50747,50900.77,51602.99,-448.77,-855.99,0.39011,99.92,1
880527,1,34932,1,50463,50786,50899.89,51601.36,-436.89,-815.36,0.390019,99.92,1
880567,1,34972,1,50495,50872,50899.09,51599.9,-404.09,-727.9,0.389936,99.92,1
880607,1,35012,1,50537,50929,50898.36,51598.56,-361.36,-669.56,0.389858,99.93,1
880647,1,35052,1,50553,50923,50897.68,51597.21,-344.68,-674.21,0.389785,99.93,1
880687,1,35092,1,50545,50937,50896.97,51595.89,-351.97,-658.89,0.389717,99.93,1
880727,1,35132,1,50566,51004,50896.31,51594.7,-330.31,-590.7,0.389653,99.93,1
880767,1,35172,1,50600,51083,50895.72,51593.68,-295.72,-510.68,0.389594,99.94,1
880807,1,35212,1,50641,51175,50895.21,51592.84,-254.21,-417.84,0.389538,99.94,1
880847,1,35252,1,50683,51262,50894.79,51592.18,-211.79,-330.18,0.389484,99.94,1
880887,1,35292,1,50712,51311,50894.43,51591.62,-182.43,-280.62,0.389432,99.94,1
880927,1,35332,1,50729,51327,50894.1,51591.09,-165.1,-264.09,0.389382,99.94,1
880968,1,35373,1,50729,51344,50893.77,51590.6,-164.77,-246.6,0.389333,99.94,1
881008,1,35413,1,50742,51383,50893.47,51590.19,-151.47,-207.19,0.389285,99.95,1
881048,1,35453,1,50753,51362,50893.19,51589.73,-140.19,-227.73,0.389239,99.95,1
881088,1,35493,1,50690,51108,50892.79,51588.77,-202.79,-480.77,0.389193,99.95,1
881128,1,35533,1,50547,50836,50892.09,51587.27,-345.09,-751.27,0.389151,99.95,1
881168,1,35573,1,50468,50782,50891.25,51585.66,-423.25,-803.66,0.389116,99.95,1
881208,1,35613,1,50467,50826,50890.4,51584.14,-423.4,-758.14,0.389088,99.95,1
881248,1,35653,1,50484,50859,50889.59,51582.69,-405.59,-723.69,0.389068,99.96,1
881288,1,35693,1,50509,50917,50888.82,51581.36,-379.82,-664.36,0.389053,99.96,1
881328,1,35733,1,50543,50963,50888.13,51580.13,-345.13,-617.13,0.389043,99.96,1
881368,1,35773,1,50545,50934,50887.45,51578.84,-342.45,-644.84,0.389038,99.96,1
881408,1,35813,1,50524,50907,50886.72,51577.5,-362.72,-670.5,0.389037,99.96,1
881448,1,35853,1,50522,50923,50886,51576.19,-364,-653.19,0.389042,99.96,1
881488,1,35893,1,50536,50968,50885.3,51574.97,-349.3,-606.97,0.389051,99.96,1
881528,1,35933,1,50557,51022,50884.64,51573.87,-327.64,-551.87,0.389065,99.96,1
881568,1,35973,1,50578,51072,50884.03,51572.86,-306.03,-500.86,0.389083,99.96,1
881609,1,36014,1,50599,51116,50883.46,51571.95,-284.46,-455.95,0.389105,99.97,1
881649,1,36054,1,50618,51159,50882.93,51571.12,-264.93,-412.12,0.389129,99.97,1
881689,1,36094,1,50631,51187,50882.42,51570.36,-251.42,-383.36,0.389157,99.97,1
881729,1,36134,1,50638,51203,50881.93,51569.62,-243.93,-366.62,0.389188,99.97,1
881769,1,36174,1,50642,51224,50881.45,51568.93,-239.45,-344.93,0.389221,99.97,1
881809,1,36214,1,50653,51189,50881,51568.18,-228,-379.18,0.389257,99.97,1
881849,1,36254,1,50588,50954,50880.41,51566.95,-292.41,-612.95,0.389294,99.97,1
881889,1,36294,1,50460,50731,50879.57,51565.28,-419.57,-834.28,0.389337,99.97,1
881929,1,36334,1,50390,50661,50878.59,51563.47,-488.59,-902.47,0.389387,99.97,1
881969,1,36374,1,50382,50678,50877.6,51561.7,-495.6,-883.7,0.389446,99.97,1
882009,1,36414,1,50394,50700,50876.64,51559.98,-482.64,-859.98,0.389513,99.97,1
882049,1,36454,1,50406,50760,50875.7,51558.38,-469.7,-798.38,0.389589,99.98,1
882089,1,36494,1,50439,50831,50874.82,51556.93,-435.82,-725.93,0.389671,99.98,1
882129,1,36534,1,50461,50844,50874,51555.5,-413,-711.5,0.389759,99.98,1
882169,1,36574,1,50449,50822,50873.15,51554.04,-424.15,-732.04,0.389853,99.98,1
882209,1,36614,1,50435,50809,50872.27,51552.55,-437.27,-743.55,0.389953,99.98,1
882249,1,36654,1,50440,50851,50871.41,51551.14,-431.41,-700.14,0.390061,99.98,1
882290,1,36695,1,50464,50935,50870.6,51549.91,-406.6,-614.91,0.390175,99.98,1
882330,1,36735,1,50488,51097,50869.83,51549.01,-381.83,-452.01,0.390296,99.98,1
882370,1,36775,1,50510,50995,50869.11,51547.9,-359.11,-552.9,0.390422,99.98,1
882410,1,36815,1,50508,51021,50868.39,51546.85,-360.39,-525.85,0.390553,99.98,1
882450,1,36855,1,50517,51054,50867.69,51545.87,-350.69,-491.87,0.390689,99.98,1
882490,1,36895,1,50539,51468,50867.03,51545.71,-328.03,-77.71,0.390832,99.98,1
882530,1,36935,1,50552,51106,50866.4,51544.83,-314.4,-438.83,0.39098,99.98,1
882570,1,36975,1,50566,51167,50865.8,51544.08,-299.8,-377.08,0.391131,99.98,1
882610,1,37015,1,50583,51152,50865.24,51543.3,-282.24,-391.3,0.391286,99.98,1
882650,1,37055,1,50535,50950,50864.58,51542.11,-329.58,-592.11,0.391443,99.98,1
882690,1,37095,1,50426,50478,50863.71,51539.99,-437.71,-1061.99,0.391597,99.99,1
882730,1,37135,1,50370,50182,50862.72,51537.27,-492.72,-1355.27,0.391744,99.99,1
882770,1,37175,1,50361,50710,50861.72,51535.62,-500.72,-825.62,0.391899,99.99,1
882810,1,37215,1,50363,50729,50860.72,51534.01,-497.72,-805.01,0.392062,99.99,1
882850,1,37255,1,50376,50786,50859.75,51532.51,-483.75,-746.51,0.392232,99.99,1
882890,1,37295,1,50401,50839,50858.84,51531.12,-457.84,-692.12,0.39241,99.99,1
882930,1,37335,1,50412,50866,50857.95,51529.8,-445.95,-663.8,0.392595,99.99,1
882970,1,37375,1,50418,50875,50857.07,51528.49,-439.07,-653.49,0.392786,99.99,1
883011,1,37416,1,50439,50880,50856.23,51527.19,-417.23,-647.19,0.392982,99.99,1
883051,1,37456,1,50524,50892,50855.57,51525.92,-331.57,-633.92,0.39318,99.99,1
883091,1,37496,1,50414,50912,50854.68,51524.7,-440.68,-612.7,0.393385,99.99,1
883131,1,37536,1,50416,50911,50853.81,51523.47,-437.81,-612.47,0.393596,99.99,1
883171,1,37576,1,50416,50901,50852.93,51522.23,-436.93,-621.23,0.393815,99.99,1
883211,1,37616,1,50847,50915,50852.92,51521.01,-5.92,-606.01,0.394027,99.99,1
883251,1,37656,1,50422,50926,50852.06,51519.82,-430.06,-593.82,0.394246,99.99,1
883291,1,37696,1,50424,50949,50851.21,51518.68,-427.21,-569.68,0.394472,99.99,1
883331,1,37736,1,50439,50964,50850.38,51517.57,-411.38,-553.57,0.394704,99.99,1
883371,1,37776,1,50447,50965,50849.58,51516.47,-402.58,-551.47,0.394942,99.99,1
883411,1,37816,1,50089,50958,50848.06,51515.35,-759.06,-557.35,0.395212,99.99,1
883451,1,37856,1,50075,50819,50846.52,51513.96,-771.52,-694.96,0.395512,99.99,1
883491,1,37896,1,50329,50687,50845.48,51512.31,-516.48,-825.31,0.395818,99.99,1
883531,1,37936,1,50296,50662,50844.38,51510.61,-548.38,-848.61,0.39613,99.99,1
883571,1,37976,1,50289,50657,50843.27,51508.9,-554.27,-851.9,0.39645,99.99,1
883611,1,38016,1,50283,50650,50842.15,51507.19,-559.15,-857.19,0.396776,99.99,1
883651,1,38056,1,50278,50637,50841.02,51505.45,-563.02,-868.45,0.39711,99.99,1
883692,1,38097,1,50269,50629,50839.88,51503.7,-570.88,-874.7,0.39745,99.99,1
883732,1,38137,1,50268,50636,50838.74,51501.96,-570.74,-865.96,0.397798,99.99,1
883772,1,38177,1,50262,50646,50837.59,51500.25,-575.59,-854.25,0.398152,99.99,1
883812,1,38217,1,50267,50660,50836.45,51498.57,-569.45,-838.57,0.398514,99.99,1
883852,1,38257,1,50271,50658,50835.32,51496.89,-564.32,-838.89,0.398882,99.99,1
883892,1,38297,1,50275,50683,50834.2,51495.27,-559.2,-812.27,0.399257,99.99,1
883932,1,38337,1,50285,50709,50833.1,51493.7,-548.1,-784.7,0.399639,99.99,1
883972,1,38377,1,50297,50721,50832.03,51492.16,-535.03,-771.16,0.400027,99.99,1
884012,1,38417,1,50297,50716,50830.96,51490.61,-533.96,-774.61,0.40042,99.99,1
884052,1,38457,1,50291,50702,50829.88,51489.03,-538.88,-787.03,0.400818,99.99,1
884092,1,38497,1,50285,50697,50828.79,51487.45,-543.79,-790.45,0.401222,99.99,1
884132,1,38537,1,50283,50700,50827.7,51485.87,-544.7,-785.87,0.401632,99.99,1
884172,1,38577,1,50281,50694,50826.61,51484.29,-545.61,-790.29,0.402047,99.99,1
884212,1,38617,1,50276,50697,50825.5,51482.72,-549.5,-785.72,0.402468,99.99,1
884252,1,38657,1,50282,50702,50824.42,51481.16,-542.42,-779.16,0.402894,99.99,1
884292,1,38697,1,50278,50701,50823.33,51479.6,-545.33,-778.6,0.403325,99.99,1
884332,1,38737,1,50273,50702,50822.23,51478.05,-549.23,-776.05,0.403762,99.98,1
884373,1,38778,1,50272,50707,50821.13,51476.51,-549.13,-769.51,0.404204,99.98,1
884413,1,38818,1,50274,50717,50820.04,51474.99,-546.04,-757.99,0.404651,99.98,1
884453,1,38858,1,50273,50728,50818.95,51473.5,-545.95,-745.5,0.405104,99.97,1
884493,1,38898,1,50275,50741,50817.86,51472.03,-542.86,-731.03,0.405563,99.97,1
884533,1,38938,1,50281,50764,50816.79,51470.62,-535.79,-706.62,0.406027,99.97,1
884573,1,38978,1,50294,50784,50815.74,51469.25,-521.74,-685.25,0.406497,99.96,1
884613,1,39018,1,50292,50787,50814.7,51467.88,-522.7,-680.88,0.406971,99.96,1
884653,1,39058,1,50295,50787,50813.66,51466.52,-518.66,-679.52,0.407451,99.95,1
884693,1,39098,1,50294,50787,50812.62,51465.16,-518.62,-678.16,0.407936,99.95,1
884733,1,39138,1,50301,50796,50811.59,51463.83,-510.59,-667.83,0.408426,99.95,1
884773,1,39178,1,50300,50797,50810.57,51462.5,-510.57,-665.5,0.40892,99.94,1
884813,1,39218,1,50298,50798,50809.55,51461.17,-511.55,-663.17,0.409419,99.94,1
884853,1,39258,1,50293,50795,50808.52,51459.84,-515.52,-664.84,0.409923,99.93,1
884893,1,39298,1,50295,50798,50807.49,51458.51,-512.49,-660.51,0.410431,99.92,1
884933,1,39338,1,50295,50803,50806.46,51457.2,-511.46,-654.2,0.410944,99.92,1
884973,1,39378,1,50286,50812,50805.43,51455.91,-519.43,-643.91,0.411463,99.91,1
885013,1,39418,1,50294,50821,50804.4,51454.64,-510.4,-633.64,0.411986,99.91,1
885054,1,39459,1,50291,50816,50803.37,51453.37,-512.37,-637.37,0.412514,99.9,1
885094,1,39499,1,50282,50791,50802.33,51452.04,-520.33,-661.04,0.413046,99.89,1
885134,1,39539,1,50265,50774,50801.26,51450.69,-536.26,-676.69,0.413584,99.89,1
885174,1,39579,1,50253,50769,50800.16,51449.32,-547.16,-680.32,0.414127,99.88,1
885214,1,39619,1,50254,50765,50799.07,51447.96,-545.07,-682.96,0.414676,99.87,1
885254,1,39659,1,50249,50765,50797.98,51446.59,-548.98,-681.59,0.415229,99.86,1
885294,1,39699,1,50247,50771,50796.87,51445.24,-549.87,-674.24,0.415789,99.86,1
885334,1,39739,1,50249,50783,50795.78,51443.92,-546.78,-660.92,0.416353,99.85,1
885374,1,39779,1,50258,50800,50794.71,51442.63,-536.71,-642.63,0.416923,99.84,1
885414,1,39819,1,50261,50805,50793.64,51441.36,-532.64,-636.36,0.417498,99.83,1
885454,1,39859,1,50260,50818,50792.57,51440.11,-532.57,-622.11,0.418079,99.82,1
885494,1,39899,1,50265,50839,50791.52,51438.91,-526.52,-599.91,0.418665,99.81,1
885534,1,39939,1,50268,50918,50790.47,51437.87,-522.47,-519.87,0.419258,99.81,1
885574,1,39979,1,50261,50809,50789.41,51436.62,-528.41,-627.62,0.419855,99.8,1
885614,1,40019,1,50241,50786,50788.32,51435.32,-547.32,-649.32,0.420458,99.79,1
885654,1,40059,1,50224,50764,50787.19,51433.98,-563.19,-669.98,0.421067,99.78,1
885694,1,40099,1,50215,51085,50786.05,51433.28,-571.05,-348.28,0.421687,99.77,1
885735,1,40140,1,50213,51266,50784.9,51432.95,-571.9,-166.95,0.422321,99.76,1
885775,1,40180,1,50216,50777,50783.77,51431.64,-567.77,-654.64,0.422961,99.75,1
885815,1,40220,1,50209,50774,50782.62,51430.32,-573.62,-656.32,0.423606,99.74,1
885855,1,40260,1,50203,50774,50781.46,51429.01,-578.46,-655.01,0.424258,99.73,1
885895,1,40300,1,50200,50544,50780.3,51427.24,-580.3,-883.24,0.424909,99.72,1
885935,1,40340,1,50194,50316,50779.13,51425.02,-585.13,-1109.02,0.425551,99.71,1
885975,1,40380,1,50188,50752,50777.95,51423.68,-589.95,-671.68,0.426199,99.7,1
886015,1,40420,1,50179,50761,50776.75,51422.35,-597.75,-661.35,0.426853,99.68,1
886055,1,40460,1,50180,50745,50775.56,51421,-595.56,-676,0.427514,99.67,1
886095,1,40500,1,50173,50734,50774.36,51419.63,-601.36,-685.63,0.428181,99.66,1
886135,1,40540,1,50170,50719,50773.15,51418.23,-603.15,-699.23,0.428853,99.65,1
886175,1,40580,1,50160,50718,50771.93,51416.83,-611.93,-698.83,0.429531,99.64,1
886215,1,40620,1,50151,50718,50770.68,51415.44,-619.68,-697.44,0.430216,99.63,1
886255,1,40660,1,50195,50714,50769.54,51414.04,-574.54,-700.04,0.430905,99.62,1
886295,1,40700,1,50148,50711,50768.29,51412.63,-620.29,-701.63,0.431599,99.6,1
886335,1,40740,1,50141,50695,50767.04,51411.2,-626.04,-716.2,0.4323,99.59,1
886375,1,40780,1,50127,50693,50765.76,51409.76,-638.76,-716.76,0.433007,99.58,1
886415,1,40820,1,50482,50684,50765.2,51408.31,-283.2,-724.31,0.433705,99.57,1
886456,1,40861,1,50492,50662,50764.65,51406.82,-272.65,-744.82,0.434393,99.55,1
886496,1,40901,1,50099,50667,50763.32,51405.34,-664.32,-738.34,0.435089,99.54,1
886536,1,40941,1,50096,50677,50761.99,51403.89,-665.99,-726.89,0.435792,99.53,1
886576,1,40981,1,50093,50679,50760.65,51402.44,-667.65,-723.44,0.436503,99.51,1
886616,1,41021,1,49805,50659,50758.74,51400.95,-953.74,-741.95,0.437243,99.5,1
886656,1,41061,1,49807,50658,50756.84,51399.47,-949.84,-741.47,0.438009,99.49,1
886696,1,41101,1,50070,50654,50755.47,51397.98,-685.47,-743.98,0.438781,99.47,1
886736,1,41141,1,50069,50648,50754.1,51396.48,-685.1,-748.48,0.439561,99.46,1
886776,1,41181,1,50065,50641,50752.72,51394.97,-687.72,-753.97,0.440347,99.45,1
886816,1,41221,1,50058,50637,50751.34,51393.46,-693.34,-756.46,0.44114,99.43,1
886856,1,41261,1,50056,50633,50749.95,51391.94,-693.95,-758.94,0.441939,99.42,1
886896,1,41301,1,50051,50636,50748.55,51390.43,-697.55,-754.43,0.442744,99.4,1
886936,1,41341,1,50046,50636,50747.14,51388.92,-701.14,-752.92,0.443556,99.39,1
886976,1,41381,1,50046,50631,50745.74,51387.4,-699.74,-756.4,0.444374,99.37,1
887016,1,41421,1,50031,50622,50744.31,51385.87,-713.31,-763.87,0.445199,99.36,1
887056,1,41461,1,50022,50613,50742.87,51384.33,-720.87,-771.33,0.446031,99.34,1
887096,1,41501,1,50016,50602,50741.42,51382.77,-725.42,-780.77,0.446869,99.33,1
887137,1,41542,1,50002,50590,50739.94,51381.18,-737.94,-791.18,0.447714,99.31,1
887177,1,41582,1,49991,50582,50738.45,51379.58,-747.45,-797.58,0.448566,99.3,1
887217,1,41622,1,49984,50579,50736.94,51377.98,-752.94,-798.98,0.449425,99.28,1
887257,1,41662,1,49975,50573,50735.41,51376.37,-760.41,-803.37,0.45029,99.26,1
887297,1,41702,1,49970,50563,50733.88,51374.75,-763.88,-811.75,0.451163,99.25,1
887337,1,41742,1,49963,50563,50732.34,51373.12,-769.34,-810.12,0.452043,99.23,1
887377,1,41782,1,49958,50561,50730.8,51371.5,-772.8,-810.5,0.452929,99.21,1
887417,1,41822,1,49950,50552,50729.24,51369.87,-779.24,-817.87,0.453822,99.2,1
887457,1,41862,1,49945,50540,50727.67,51368.21,-782.67,-828.21,0.454722,99.18,1
887497,1,41902,1,49942,50525,50726.1,51366.52,-784.1,-841.52,0.455628,99.16,1
887537,1,41942,1,49926,50513,50724.5,51364.82,-798.5,-851.82,0.45654,99.15,1
887577,1,41982,1,49916,50499,50722.89,51363.09,-806.89,-864.09,0.457458,99.13,1
887617,1,42022,1,49908,50483,50721.26,51361.33,-813.26,-878.33,0.458382,99.11,1
887657,1,42062,1,49897,50475,50719.61,51359.56,-822.61,-884.56,0.459312,99.09,1
887697,1,42102,1,49883,50456,50717.94,51357.75,-834.94,-901.75,0.460247,99.07,1
887737,1,42142,1,49868,50444,50716.24,51355.93,-848.24,-911.93,0.461189,99.06,1
887777,1,42182,1,49865,50441,50714.54,51354.1,-849.54,-913.1,0.462136,99.04,1
887818,1,42223,1,49857,50434,50712.82,51352.26,-855.82,-918.26,0.463089,99.02,1
887858,1,42263,1,49844,50419,50711.09,51350.39,-867.09,-931.39,0.464047,99,1
887898,1,42303,1,49827,50401,50709.32,51348.5,-882.32,-947.5,0.465011,98.98,1
887938,1,42343,1,49817,50392,50707.54,51346.59,-890.54,-954.59,0.465981,98.96,1
887978,1,42383,1,49809,50379,50705.74,51344.65,-896.74,-965.65,0.466956,98.94,1
888018,1,42423,1,49798,50367,50703.93,51342.7,-905.93,-975.7,0.467937,98.93,1
888058,1,42463,1,49786,50359,50702.09,51340.73,-916.09,-981.73,0.468923,98.91,1
888098,1,42503,1,49782,50356,50700.25,51338.77,-918.25,-982.77,0.469914,98.89,1
888138,1,42543,1,49782,50354,50698.41,51336.8,-916.41,-982.8,0.47091,98.87,1
888178,1,42583,1,49777,50348,50696.57,51334.82,-919.57,-986.82,0.471911,98.85,1
888218,1,42623,1,49774,50338,50694.73,51332.83,-920.73,-994.83,0.472917,98.83,1
888258,1,42663,1,49762,50325,50692.87,51330.81,-930.87,-1005.81,0.473926,98.81,1
888298,1,42703,1,49748,50317,50690.98,51328.79,-942.98,-1011.79,0.47494,98.79,1
888338,1,42743,1,49740,50307,50689.08,51326.74,-949.08,-1019.74,0.475959,98.77,1
888378,1,42783,1,49732,50294,50687.16,51324.68,-955.16,-1030.68,0.476981,98.74,1
888418,1,42823,1,49720,50290,50685.23,51322.61,-965.23,-1032.61,0.478008,98.72,1
888458,1,42863,1,49711,50285,50683.29,51320.54,-972.29,-1035.54,0.479039,98.7,1
888498,1,42903,1,49706,50269,50681.33,51318.44,-975.33,-1049.44,0.480073,98.68,1
888539,1,42944,1,49694,50259,50679.36,51316.32,-985.36,-1057.32,0.481112,98.66,1
888579,1,42984,1,49687,50256,50677.37,51314.2,-990.37,-1058.2,0.482155,98.64,1
888619,1,43024,1,49676,50254,50675.37,51312.08,-999.37,-1058.08,0.483201,98.62,1
888659,1,43064,1,49674,50253,50673.37,51309.96,-999.37,-1056.96,0.484252,98.6,1
888699,1,43104,1,49671,50251,50671.37,51307.85,-1000.37,-1056.85,0.485306,98.57,1
888739,1,43144,1,49666,50252,50669.36,51305.74,-1003.36,-1053.74,0.486365,98.55,1
888779,1,43184,1,49661,50322,50667.35,51303.77,-1006.35,-981.77,0.48743,98.53,1
888819,1,43224,1,49654,50240,50665.32,51301.65,-1011.32,-1061.65,0.488499,98.51,1
888859,1,43264,1,49652,50236,50663.3,51299.52,-1011.3,-1063.52,0.489571,98.49,1
888899,1,43304,1,49649,50231,50661.27,51297.38,-1012.27,-1066.38,0.490647,98.46,1
888939,1,43344,1,49642,50595,50659.23,51295.98,-1017.23,-700.98,0.491738,98.44,1
888979,1,43384,1,49634,50696,50657.18,51294.78,-1023.18,-598.78,0.492847,98.42,1
889019,1,43424,1,49629,50223,50655.13,51292.64,-1026.13,-1069.64,0.493959,98.39,1
889059,1,43464,1,49627,50216,50653.07,51290.49,-1026.07,-1074.49,0.495073,98.37,1
889099,1,43504,1,49616,50212,50651,51288.33,-1035,-1076.33,0.49619,98.35,1
889139,1,43544,1,49608,49914,50648.91,51285.59,-1040.91,-1371.59,0.497296,98.32,1
889179,1,43584,1,49595,49778,50646.81,51282.57,-1051.81,-1504.57,0.498385,98.3,1
889220,1,43625,1,49584,50172,50644.68,51280.35,-1060.68,-1108.35,0.499477,98.28,1
889260,1,43665,1,49576,50161,50642.55,51278.11,-1066.55,-1117.11,0.500571,98.25,1
889300,1,43705,1,49564,50158,50640.39,51275.87,-1076.39,-1117.88,0.501667,98.23,1
889340,1,43745,1,49555,50150,50638.22,51273.62,-1083.22,-1123.63,0.502767,98.21,1
889380,1,43785,1,49549,50144,50636.05,51271.37,-1087.05,-1127.37,0.503869,98.18,1
889420,1,43825,1,49547,50143,50633.87,51269.11,-1086.87,-1126.11,0.504974,98.16,1
889460,1,43865,1,49541,50151,50631.69,51266.88,-1090.69,-1115.88,0.506082,98.13,1
889500,1,43905,1,49550,50149,50629.53,51264.64,-1079.53,-1115.64,0.507193,98.11,1
889540,1,43945,1,49532,50145,50627.33,51262.41,-1095.33,-1117.41,0.508306,98.08,1
889580,1,43985,1,49529,50135,50625.14,51260.15,-1096.14,-1125.15,0.509422,98.06,1
889620,1,44025,1,49523,50127,50622.93,51257.89,-1099.93,-1130.89,0.510539,98.03,1
889660,1,44065,1,49776,50122,50621.24,51255.62,-845.24,-1133.62,0.511648,98.01,1
889700,1,44105,1,49837,50120,50619.68,51253.35,-782.68,-1133.35,0.512745,97.99,1
889740,1,44145,1,49503,50114,50617.45,51251.07,-1114.45,-1137.07,0.513845,97.96,1
889780,1,44185,1,49500,50108,50615.21,51248.79,-1115.21,-1140.79,0.514947,97.94,1
889820,1,44225,1,49494,50103,50612.97,51246.5,-1118.97,-1143.5,0.516052,97.91,1
889860,1,44265,1,49335,50099,50610.41,51244.2,-1275.41,-1145.2,0.517168,97.89,1
889900,1,44305,1,49247,50095,50607.69,51241.91,-1360.69,-1146.91,0.518298,97.86,1
889941,1,44346,1,49467,50081,50605.41,51239.59,-1138.41,-1158.59,0.51943,97.83,1
889981,1,44386,1,49462,50073,50603.12,51237.25,-1141.12,-1164.25,0.520564,97.81,1
890021,1,44426,1,49449,50068,50600.81,51234.92,-1151.81,-1166.92,0.521701,97.78,1
890061,1,44466,1,49438,50062,50598.49,51232.57,-1160.49,-1170.57,0.522839,97.76,1
890101,1,44506,1,49434,50056,50596.16,51230.22,-1162.16,-1174.22,0.523979,97.73,1
890141,1,44546,1,49429,50052,50593.83,51227.87,-1164.83,-1175.87,0.525121,97.71,1
890181,1,44586,1,49424,50054,50591.49,51225.52,-1167.49,-1171.52,0.526265,97.68,1
890221,1,44626,1,49421,50052,50589.15,51223.17,-1168.15,-1171.17,0.527411,97.65,1
890261,1,44666,1,49416,50044,50586.8,51220.82,-1170.8,-1176.82,0.528559,97.63,1
890301,1,44706,1,49413,50040,50584.46,51218.46,-1171.46,-1178.46,0.529708,97.6,1
890341,1,44746,1,49407,50029,50582.1,51216.08,-1175.1,-1187.08,0.530858,97.58,1
890381,1,44786,1,49397,50020,50579.73,51213.69,-1182.73,-1193.69,0.53201,97.55,1
890421,1,44826,1,49387,50019,50577.35,51211.3,-1190.35,-1192.3,0.533163,97.52,1
890461,1,44866,1,49385,50009,50574.97,51208.9,-1189.97,-1199.9,0.534317,97.5,1
890501,1,44906,1,49377,50004,50572.57,51206.49,-1195.57,-1202.49,0.535473,97.47,1
890541,1,44946,2,49373,49996,50570.18,51204.07,-1197.18,-1208.07,0.536629,97.44,1
890581,1,44986,2,49359,49986,50567.75,51201.64,-1208.75,-1215.64,0.537786,97.42,1
890621,1,45026,2,49350,49983,50565.32,51199.2,-1215.32,-1216.2,0.538945,97.39,1
890662,1,45067,2,49348,49983,50562.89,51196.77,-1214.89,-1213.77,0.540104,97.36,1
890702,1,45107,2,49341,49979,50560.45,51194.34,-1219.45,-1215.34,0.541265,97.34,1
890742,1,45147,2,49329,49977,50557.98,51191.9,-1228.98,-1214.9,0.542427,97.31,1
890782,1,45187,2,49320,49965,50555.51,51189.45,-1235.51,-1224.45,0.543591,97.28,1
890822,1,45227,2,49320,49958,50553.04,51186.99,-1233.04,-1228.99,0.544755,97.26,1
890862,1,45267,2,49307,49956,50550.55,51184.53,-1243.55,-1228.53,0.545921,97.23,1
890902,1,45307,2,49303,49953,50548.05,51182.07,-1245.05,-1229.07,0.547087,97.2,1
890942,1,45347,2,49299,49952,50545.56,51179.61,-1246.56,-1227.61,0.548255,97.17,1
890982,1,45387,2,49301,49949,50543.07,51177.15,-1242.07,-1228.15,0.549424,97.15,1
891022,1,45427,2,49296,49939,50540.58,51174.67,-1244.58,-1235.67,0.550594,97.12,1
891062,1,45467,2,49288,49939,50538.07,51172.2,-1250.07,-1233.2,0.551764,97.09,1
891102,1,45507,2,49284,49936,50535.57,51169.73,-1251.57,-1233.73,0.552935,97.06,1
891142,1,45547,2,49274,49927,50533.04,51167.25,-1259.04,-1240.25,0.554107,97.04,1
891182,1,45587,2,49271,49920,50530.52,51164.75,-1259.52,-1244.75,0.555279,97.01,1
891222,1,45627,2,49262,49911,50527.98,51162.25,-1265.98,-1251.25,0.556452,96.98,1
891262,1,45667,2,49252,49904,50525.43,51159.73,-1273.43,-1255.73,0.557626,96.95,1
891302,1,45707,2,49246,49896,50522.87,51157.2,-1276.88,-1261.2,0.558799,96.93,1
891343,1,45748,2,49235,49891,50520.3,51154.67,-1285.3,-1263.67,0.559973,96.9,1
891383,1,45788,2,49230,49882,50517.72,51152.13,-1287.72,-1270.13,0.561148,96.87,1
891423,1,45828,2,49221,49883,50515.13,51149.59,-1294.13,-1266.59,0.562323,96.84,1
891463,1,45868,2,49213,49880,50512.53,51147.05,-1299.53,-1267.05,0.563499,96.82,1
891503,1,45908,2,49211,49881,50509.93,51144.52,-1298.93,-1263.52,0.564675,96.79,1
891543,1,45948,2,49203,49874,50507.31,51141.98,-1304.31,-1267.98,0.565852,96.76,1
891583,1,45988,2,49202,49875,50504.7,51139.45,-1302.7,-1264.45,0.56703,96.73,1
891623,1,46028,2,49193,49872,50502.08,51136.92,-1309.08,-1264.92,0.568209,96.7,1
891663,1,46068,2,49191,49857,50499.46,51134.36,-1308.46,-1277.36,0.569387,96.68,1
891703,1,46108,2,49182,49848,50496.83,51131.79,-1314.83,-1283.79,0.570566,96.65,1
891743,1,46148,2,49180,49840,50494.2,51129.21,-1314.2,-1289.21,0.571745,96.62,1
891783,1,46188,2,49169,49832,50491.55,51126.61,-1322.55,-1294.61,0.572924,96.59,1
891823,1,46228,2,49160,49828,50488.89,51124.02,-1328.89,-1296.02,0.574103,96.56,1
891863,1,46268,2,49157,49819,50486.22,51121.41,-1329.22,-1302.41,0.575282,96.53,1
891903,1,46308,2,49148,49807,50483.55,51118.78,-1335.55,-1311.78,0.57646,96.51,1
891943,1,46348,2,49142,49804,50480.86,51116.15,-1338.86,-1312.15,0.577638,96.48,1
891983,1,46388,2,49131,49800,50478.16,51113.52,-1347.16,-1313.52,0.578815,96.45,1
892023,1,46428,2,49124,49792,50475.46,51110.87,-1351.46,-1318.88,0.579993,96.42,1
892064,1,46469,2,49122,49788,50472.75,51108.23,-1350.75,-1320.23,0.58117,96.39,1
892104,1,46509,2,49111,49780,50470.03,51105.57,-1359.03,-1325.57,0.582347,96.36,1
892144,1,46549,2,49107,49909,50467.3,51103.18,-1360.3,-1194.18,0.583528,96.33,1
892184,1,46589,2,49098,50010,50464.56,51101,-1366.56,-1091,0.584715,96.31,1
892224,1,46629,2,49093,49775,50461.82,51098.35,-1368.82,-1323.35,0.585903,96.28,1
892264,1,46669,2,49089,49771,50459.07,51095.7,-1370.07,-1324.7,0.58709,96.25,1
892304,1,46709,2,49084,49771,50456.32,51093.05,-1372.32,-1322.05,0.588278,96.22,1
892344,1,46749,2,49083,49766,50453.58,51090.39,-1370.58,-1324.39,0.589464,96.19,1
892384,1,46789,2,49078,49638,50450.83,51087.49,-1372.83,-1449.49,0.590646,96.16,1
892424,1,46829,2,49077,49761,50448.08,51084.84,-1371.08,-1323.84,0.591827,96.13,1
892464,1,46869,2,49065,49748,50445.32,51082.17,-1380.32,-1334.17,0.593008,96.11,1
892504,1,46909,2,49058,49738,50442.54,51079.48,-1384.54,-1341.48,0.594188,96.08,1
892544,1,46949,2,49047,49208,50439.75,51075.74,-1392.75,-1867.74,0.595346,96.05,1
892584,1,46989,2,49040,49711,50436.96,51073.01,-1396.96,-1362.01,0.596504,96.02,1
892624,1,47029,2,49029,49706,50434.14,51070.28,-1405.14,-1364.28,0.597661,95.99,1
892664,1,47069,2,49018,49696,50431.31,51067.53,-1413.31,-1371.53,0.598818,95.96,1
892704,1,47109,2,49012,49689,50428.47,51064.78,-1416.47,-1375.78,0.599974,95.93,1
892745,1,47150,2,49006,49684,50425.63,51062.02,-1419.63,-1378.02,0.60113,95.9,1
892785,1,47190,2,49002,49681,50422.78,51059.25,-1420.78,-1378.25,0.602284,95.87,1
892825,1,47230,2,48991,49686,50419.92,51056.51,-1428.92,-1370.51,0.603439,95.85,1
892865,1,47270,2,49093,49675,50417.27,51053.75,-1324.27,-1378.75,0.60459,95.82,1
892905,1,47310,2,49172,49672,50414.78,51050.98,-1242.78,-1378.98,0.605733,95.79,1
892945,1,47350,2,48977,49671,50411.9,51048.23,-1434.9,-1377.23,0.606877,95.76,1
892985,1,47390,2,48972,49671,50409.02,51045.47,-1437.02,-1374.47,0.60802,95.73,1
893025,1,47430,2,48971,49670,50406.15,51042.72,-1435.15,-1372.72,0.609164,95.7,1
893065,1,47470,2,48964,49667,50403.27,51039.97,-1439.27,-1372.97,0.610307,95.67,1
893105,1,47510,2,48882,49660,50400.22,51037.21,-1518.22,-1377.21,0.611452,95.64,1
893145,1,47550,2,48962,49652,50397.35,51034.45,-1435.35,-1382.45,0.612597,95.62,1
893185,1,47590,2,48954,49648,50394.46,51031.67,-1440.46,-1383.67,0.613742,95.59,1
893225,1,47630,2,48946,49644,50391.57,51028.9,-1445.57,-1384.9,0.614885,95.56,1
893265,1,47670,2,48586,49637,50387.96,51026.12,-1801.96,-1389.12,0.616042,95.53,1
893305,1,47710,2,48932,49632,50385.05,51023.33,-1453.05,-1391.33,0.617198,95.5,1
893345,1,47750,2,48925,49624,50382.13,51020.54,-1457.13,-1396.54,0.618353,95.47,1
893385,1,47790,2,48914,49612,50379.2,51017.72,-1465.2,-1405.72,0.619506,95.44,1
893426,1,47831,2,48909,49605,50376.26,51014.89,-1467.26,-1409.89,0.620659,95.41,1
893466,1,47871,2,48899,49596,50373.3,51012.06,-1474.3,-1416.06,0.62181,95.39,1
893506,1,47911,2,48888,49599,50370.34,51009.23,-1482.34,-1410.23,0.622961,95.36,1
893546,1,47951,2,48887,49597,50367.37,51006.41,-1480.37,-1409.41,0.624111,95.33,1
893586,1,47991,2,48881,49595,50364.4,51003.59,-1483.4,-1408.59,0.625261,95.3,1
893626,1,48031,2,48883,49598,50361.44,51000.78,-1478.44,-1402.78,0.626409,95.27,1
893666,1,48071,2,48879,49602,50358.47,50997.98,-1479.47,-1395.98,0.627557,95.24,1
893706,1,48111,2,48879,49607,50355.52,50995.2,-1476.52,-1388.2,0.628704,95.21,1
893746,1,48151,2,48881,49598,50352.57,50992.41,-1471.57,-1394.41,0.629851,95.18,1
893786,1,48191,2,48878,49593,50349.62,50989.61,-1471.62,-1396.61,0.630997,95.16,1
893826,1,48231,2,48872,49592,50346.66,50986.82,-1474.66,-1394.82,0.632141,95.13,1
893866,1,48271,2,48866,49589,50343.7,50984.03,-1477.7,-1395.03,0.633285,95.1,1
893906,1,48311,2,48860,49577,50340.74,50981.21,-1480.74,-1404.21,0.634428,95.07,1
893946,1,48351,2,48853,49574,50337.77,50978.4,-1484.77,-1404.4,0.635569,95.04,1
893986,1,48391,2,48846,49562,50334.79,50975.57,-1488.79,-1413.57,0.63671,95.01,1
894026,1,48431,2,48837,49559,50331.79,50972.74,-1494.79,-1413.74,0.63785,94.98,1
894066,1,48471,2,48830,49553,50328.79,50969.9,-1498.79,-1416.9,0.638988,94.95,1
894107,1,48512,2,48824,49556,50325.78,50967.07,-1501.78,-1411.07,0.640126,94.93,1
894147,1,48552,2,48823,49556,50322.77,50964.25,-1499.77,-1408.25,0.641263,94.9,1
894187,1,48592,2,48813,49552,50319.75,50961.43,-1506.75,-1409.43,0.642399,94.87,1
894227,1,48632,2,48809,49541,50316.73,50958.59,-1507.73,-1417.59,0.643534,94.84,1
894267,1,48672,2,48801,49536,50313.7,50955.74,-1512.7,-1419.74,0.644668,94.81,1
894307,1,48712,2,48795,49534,50310.67,50952.9,-1515.67,-1418.9,0.645802,94.78,1
894347,1,48752,2,48790,49532,50307.63,50950.06,-1517.63,-1418.06,0.646934,94.75,1
894387,1,48792,2,48786,49529,50304.59,50947.22,-1518.59,-1418.22,0.648066,94.72,1
894427,1,48832,2,48781,49526,50301.54,50944.38,-1520.54,-1418.38,0.649197,94.7,1
894467,1,48872,2,48785,49517,50298.51,50941.53,-1513.51,-1424.53,0.650327,94.67,1
894507,1,48912,2,48775,49513,50295.46,50938.67,-1520.46,-1425.67,0.651455,94.64,1
894547,1,48952,2,48769,49511,50292.41,50935.82,-1523.41,-1424.82,0.652583,94.61,1
894587,1,48992,2,48766,49507,50289.36,50932.96,-1523.36,-1425.96,0.65371,94.58,1
894627,1,49032,2,48764,49499,50286.31,50930.09,-1522.31,-1431.09,0.654835,94.55,1
894667,1,49072,2,48754,49496,50283.25,50927.23,-1529.25,-1431.23,0.655959,94.52,1
894707,1,49112,2,48745,49492,50280.17,50924.36,-1535.17,-1432.36,0.657082,94.5,1
894747,1,49152,2,48741,49488,50277.09,50921.48,-1536.09,-1433.48,0.658204,94.47,1
894788,1,49193,2,48732,49484,50274,50918.61,-1542,-1434.61,0.659325,94.44,1
894828,1,49233,2,48732,49488,50270.92,50915.75,-1538.92,-1427.75,0.660445,94.41,1
894868,1,49273,2,48723,49491,50267.83,50912.9,-1544.83,-1421.9,0.661565,94.38,1
894908,1,49313,2,48723,49484,50264.74,50910.05,-1541.74,-1426.05,0.662684,94.35,1
894948,1,49353,2,48717,49484,50261.64,50907.2,-1544.64,-1423.2,0.663802,94.32,1
894988,1,49393,2,48712,49487,50258.55,50904.36,-1546.55,-1417.36,0.664919,94.3,1
895028,1,49433,2,48708,49482,50255.45,50901.51,-1547.45,-1419.51,0.666036,94.27,1
895068,1,49473,2,48705,49476,50252.35,50898.66,-1547.35,-1422.66,0.667152,94.24,1
895108,1,49513,2,48706,49474,50249.26,50895.81,-1543.26,-1421.81,0.668267,94.21,1
895148,1,49553,2,48701,49465,50246.16,50892.95,-1545.16,-1427.95,0.669381,94.18,1
895188,1,49593,2,48693,49458,50243.06,50890.09,-1550.06,-1432.09,0.670494,94.15,1
895228,1,49633,2,48689,49454,50239.95,50887.21,-1550.95,-1433.21,0.671606,94.13,1
895268,1,49673,2,48682,49443,50236.84,50884.33,-1554.84,-1441.33,0.672717,94.1,1
895308,1,49713,2,48672,49436,50233.71,50881.43,-1561.71,-1445.43,0.673827,94.07,1
895348,1,49753,2,48665,49433,50230.57,50878.54,-1565.57,-1445.54,0.674935,94.04,1
895388,1,49793,2,48658,49732,50227.43,50876.25,-1569.43,-1144.25,0.67605,94.01,1
895429,1,49834,2,48653,49751,50224.28,50874,-1571.28,-1123,0.677172,93.98,1
895469,1,49874,2,48647,49420,50221.13,50871.09,-1574.13,-1451.09,0.678293,93.96,1
895509,1,49914,2,48639,49419,50217.96,50868.19,-1578.96,-1449.19,0.679413,93.93,1
895549,1,49954,2,48633,49416,50214.8,50865.29,-1581.8,-1449.29,0.680531,93.9,1
895589,1,49994,2,48629,49177,50211.62,50861.91,-1582.63,-1684.91,0.681641,93.87,1
895629,1,50034,2,48624,49173,50208.45,50858.54,-1584.45,-1685.54,0.682743,93.84,1
895669,1,50074,2,48625,49418,50205.29,50855.66,-1580.29,-1437.66,0.683844,93.82,1
895709,1,50114,2,48620,49415,50202.12,50852.78,-1582.12,-1437.78,0.684944,93.79,1
895749,1,50154,2,48622,49410,50198.96,50849.89,-1576.96,-1439.89,0.686043,93.76,1
895789,1,50194,2,48621,49405,50195.8,50847.01,-1574.8,-1442.01,0.687141,93.73,1
895829,1,50234,2,48615,49404,50192.64,50844.12,-1577.64,-1440.13,0.688238,93.7,1
895869,1,50274,2,48612,49399,50189.48,50841.23,-1577.48,-1442.23,0.689334,93.67,1
895909,1,50314,2,48605,49391,50186.31,50838.34,-1581.31,-1447.34,0.690429,93.65,1
895949,1,50354,2,48605,49378,50183.15,50835.42,-1578.15,-1457.42,0.691522,93.62,1
895989,1,50394,2,48587,49373,50179.96,50832.5,-1592.96,-1459.5,0.692614,93.59,1
896029,1,50434,2,48577,49366,50176.76,50829.56,-1599.76,-1463.56,0.693704,93.56,1
896069,1,50474,2,48571,49358,50173.55,50826.62,-1602.55,-1468.62,0.694794,93.53,1
896110,1,50515,2,48792,49350,50170.79,50823.67,-1378.79,-1473.67,0.695876,93.51,1
896150,1,50555,2,48968,49345,50168.38,50820.71,-1200.38,-1475.71,0.696946,93.48,1
896190,1,50595,2,48550,49344,50165.15,50817.76,-1615.15,-1473.76,0.698016,93.45,1
896230,1,50635,2,48545,49344,50161.91,50814.81,-1616.91,-1470.81,0.699085,93.42,1
896270,1,50675,2,48543,49344,50158.67,50811.87,-1615.67,-1467.87,0.700153,93.4,1
896310,1,50715,2,48405,49343,50155.16,50808.93,-1750.16,-1465.93,0.701225,93.37,1
896350,1,50755,2,48189,49346,50151.23,50806.01,-1962.23,-1460.01,0.702306,93.34,1
896390,1,50795,2,48535,49345,50148,50803.09,-1613,-1458.09,0.703386,93.31,1
896430,1,50835,2,48531,49343,50144.77,50800.17,-1613.77,-1457.17,0.704465,93.28,1
896470,1,50875,2,48535,49339,50141.55,50797.25,-1606.55,-1458.25,0.705543,93.26,1
896510,1,50915,2,48529,49334,50138.33,50794.32,-1609.33,-1460.32,0.70662,93.23,1
896550,1,50955,2,48524,49327,50135.1,50791.39,-1611.1,-1464.39,0.707695,93.2,1
896590,1,50995,2,48515,49328,50131.86,50788.46,-1616.86,-1460.46,0.708769,93.17,1
896630,1,51035,2,48511,49319,50128.62,50785.52,-1617.62,-1466.52,0.709843,93.15,1
896670,1,51075,2,48510,49312,50125.39,50782.58,-1615.39,-1470.58,0.710914,93.12,1
896710,1,51115,2,48502,49313,50122.14,50779.64,-1620.14,-1466.64,0.711985,93.09,1
896750,1,51155,2,48494,49313,50118.89,50776.71,-1624.89,-1463.71,0.713054,93.06,1
896790,1,51195,2,48490,49306,50115.63,50773.77,-1625.63,-1467.77,0.714122,93.04,1
896831,1,51236,2,48485,49304,50112.37,50770.83,-1627.37,-1466.83,0.715189,93.01,1
896871,1,51276,2,48474,49300,50109.09,50767.89,-1635.09,-1467.89,0.716256,92.98,1
896911,1,51316,2,48471,49295,50105.82,50764.94,-1634.82,-1469.94,0.717321,92.95,1
896951,1,51356,2,48466,49292,50102.54,50762,-1636.54,-1470,0.718385,92.93,1
896991,1,51396,2,48465,49290,50099.27,50759.05,-1634.27,-1469.05,0.719448,92.9,1
897031,1,51436,2,48459,49292,50095.99,50756.12,-1636.99,-1464.12,0.72051,92.87,1
897071,1,51476,2,48451,49295,50092.7,50753.2,-1641.7,-1458.2,0.721571,92.84,1
897111,1,51516,2,48452,49290,50089.42,50750.27,-1637.42,-1460.27,0.722631,92.82,1
897151,1,51556,2,48452,49286,50086.14,50747.35,-1634.14,-1461.35,0.723691,92.79,1
897191,1,51596,2,48454,49280,50082.88,50744.41,-1628.88,-1464.41,0.724749,92.76,1
897231,1,51636,2,48446,49278,50079.61,50741.48,-1633.61,-1463.48,0.725806,92.74,1
897271,1,51676,2,48438,49275,50076.33,50738.55,-1638.33,-1463.55,0.726862,92.71,1
897311,1,51716,2,48434,49269,50073.04,50735.61,-1639.04,-1466.61,0.727917,92.68,1
897351,1,51756,2,48432,49264,50069.76,50732.67,-1637.76,-1468.67,0.72897,92.65,1
897391,1,51796,2,48426,49258,50066.48,50729.72,-1640.48,-1471.72,0.730022,92.63,1
897431,1,51836,2,48414,49254,50063.17,50726.77,-1649.17,-1472.77,0.731073,92.6,1
897471,1,51876,2,48411,49254,50059.87,50723.83,-1648.87,-1469.83,0.732123,92.57,1
897512,1,51917,2,48404,49240,50056.56,50720.86,-1652.56,-1480.86,0.733172,92.55,1
897552,1,51957,2,48399,49235,50053.25,50717.89,-1654.25,-1482.89,0.73422,92.52,1
897592,1,51997,2,48388,49233,50049.92,50714.93,-1661.92,-1481.93,0.735266,92.49,1
897632,1,52037,2,48382,49235,50046.58,50711.97,-1664.58,-1476.97,0.736311,92.46,1
897672,1,52077,2,48378,49230,50043.25,50709.01,-1665.25,-1479.01,0.737356,92.44,1
897712,1,52117,2,48378,49228,50039.92,50706.05,-1661.92,-1478.05,0.738399,92.41,1
897752,1,52157,2,48373,49231,50036.59,50703.1,-1663.59,-1472.1,0.739441,92.38,1
897792,1,52197,2,48371,49224,50033.26,50700.14,-1662.26,-1476.14,0.740482,92.36,1
897832,1,52237,2,48370,49225,50029.93,50697.19,-1659.93,-1472.19,0.741523,92.33,1
897872,1,52277,2,48369,49224,50026.61,50694.25,-1657.61,-1470.25,0.742562,92.3,1
897912,1,52317,2,48369,49219,50023.3,50691.3,-1654.3,-1472.3,0.743599,92.28,1
897952,1,52357,2,48360,49218,50019.98,50688.35,-1659.98,-1470.35,0.744636,92.25,1
897992,1,52397,2,48356,49212,50016.65,50685.4,-1660.65,-1473.4,0.745672,92.22,1
898032,1,52437,2,48344,49198,50013.3,50682.43,-1669.3,-1484.43,0.746706,92.2,1
898072,1,52477,2,48347,49196,50009.97,50679.45,-1662.97,-1483.45,0.747738,92.17,1
898112,1,52517,2,48338,49191,50006.63,50676.48,-1668.63,-1485.48,0.74877,92.14,1
898152,1,52557,2,48334,49191,50003.29,50673.51,-1669.29,-1482.51,0.7498,92.12,1
898192,1,52597,2,48322,49182,49999.93,50670.53,-1677.93,-1488.53,0.750829,92.09,1
898233,1,52638,2,48323,49180,49996.57,50667.55,-1673.57,-1487.55,0.751856,92.06,1
898273,1,52678,2,48317,49187,49993.21,50664.59,-1676.21,-1477.59,0.752883,92.04,1
898313,1,52718,2,48309,49185,49989.85,50661.63,-1680.85,-1476.63,0.753908,92.01,1
898353,1,52758,2,48310,49186,49986.49,50658.68,-1676.49,-1472.68,0.754933,91.98,1
898393,1,52798,2,48307,49184,49983.13,50655.73,-1676.13,-1471.73,0.755956,91.96,1
898433,1,52838,2,48301,49184,49979.77,50652.79,-1678.77,-1468.79,0.756979,91.93,1
898473,1,52878,2,48298,49187,49976.4,50649.86,-1678.4,-1462.86,0.758001,91.9,1
898513,1,52918,2,48301,49186,49973.05,50646.93,-1672.05,-1460.93,0.759022,91.88,1
898553,1,52958,2,48296,49181,49969.7,50644,-1673.7,-1463,0.760042,91.85,1
898593,1,52998,2,48298,49371,49966.36,50641.46,-1668.36,-1270.46,0.761066,91.82,1
898633,1,53038,2,48292,49406,49963.01,50638.99,-1671.01,-1232.99,0.762094,91.8,1
898673,1,53078,2,48283,49161,49959.65,50636.04,-1676.65,-1475.04,0.763121,91.77,1
898713,1,53118,2,48278,49150,49956.29,50633.07,-1678.29,-1483.07,0.764146,91.75,1
898753,1,53158,2,48270,49142,49952.92,50630.09,-1682.92,-1488.09,0.76517,91.72,1
898793,1,53198,2,48264,49051,49949.54,50626.93,-1685.54,-1575.93,0.766189,91.69,1
898833,1,53238,2,48254,48991,49946.15,50623.66,-1692.15,-1632.66,0.767204,91.67,1
898873,1,53278,2,48251,49127,49942.76,50620.67,-1691.76,-1493.67,0.768217,91.64,1
898914,1,53319,2,48246,49124,49939.37,50617.68,-1693.37,-1493.68,0.769228,91.62,1
898954,1,53359,2,48237,49121,49935.97,50614.68,-1698.97,-1493.68,0.770238,91.59,1
898994,1,53399,2,48229,48514,49932.55,50610.48,-1703.55,-2096.48,0.771229,91.56,1
899034,1,53439,2,48228,49119,49929.15,50607.5,-1701.15,-1488.5,0.772218,91.54,1
899074,1,53479,2,48228,49119,49925.75,50604.53,-1697.75,-1485.53,0.773207,91.51,1
899114,1,53519,2,48225,49128,49922.35,50601.57,-1697.35,-1473.57,0.774195,91.48,1
899154,1,53559,2,48224,49133,49918.95,50598.64,-1694.95,-1465.64,0.775182,91.46,1
899194,1,53599,2,48227,49133,49915.57,50595.71,-1688.57,-1462.71,0.776169,91.43,1
899234,1,53639,2,48224,49126,49912.19,50592.77,-1688.19,-1466.77,0.777154,91.41,1
899274,1,53679,2,48222,49123,49908.81,50589.83,-1686.81,-1466.83,0.778139,91.38,1
899314,1,53719,2,48388,49121,49905.77,50586.89,-1517.77,-1465.89,0.77912,91.36,1
899354,1,53759,2,48554,49122,49903.07,50583.96,-1349.07,-1461.96,0.780092,91.33,1
899394,1,53799,2,48208,49116,49899.68,50581.03,-1691.68,-1465.03,0.781063,91.3,1
899434,1,53839,2,48206,49110,49896.29,50578.09,-1690.29,-1468.09,0.782034,91.28,1
899474,1,53879,2,48201,49104,49892.9,50575.14,-1691.9,-1471.14,0.783004,91.25,1
899514,1,53919,2,48116,49098,49889.35,50572.19,-1773.35,-1474.19,0.783975,91.23,1
899554,1,53959,2,47931,49085,49885.43,50569.22,-1954.43,-1484.22,0.784952,91.2,1
899595,1,54000,2,48175,49077,49882.02,50566.23,-1707.02,-1489.23,0.785927,91.18,1
899635,1,54040,2,48169,49080,49878.59,50563.26,-1709.59,-1483.26,0.786902,91.15,1
899675,1,54080,2,48160,49083,49875.15,50560.3,-1715.15,-1477.3,0.787876,91.13,1
899715,1,54120,2,47787,49078,49870.98,50557.34,-2083.98,-1479.34,0.788859,91.1,1
899755,1,54160,2,48160,49083,49867.55,50554.39,-1707.55,-1471.39,0.789841,91.07,1
899795,1,54200,2,48157,49080,49864.14,50551.44,-1707.14,-1471.44,0.790822,91.05,1
899835,1,54240,2,48151,49082,49860.71,50548.5,-1709.71,-1466.5,0.791802,91.02,1
899875,1,54280,2,48155,49083,49857.3,50545.57,-1702.3,-1462.57,0.792782,91,1
899915,1,54320,2,48156,49080,49853.9,50542.64,-1697.9,-1462.64,0.793761,90.97,1
899955,1,54360,2,48154,49074,49850.5,50539.7,-1696.5,-1465.7,0.794738,90.95,1
899995,1,54400,2,48149,49072,49847.1,50536.77,-1698.1,-1464.77,0.795715,90.92,1
900035,1,54440,2,48143,49069,49843.69,50533.84,-1700.69,-1464.84,0.79669,90.9,1
900075,1,54480,2,48142,49066,49840.29,50530.9,-1698.29,-1464.9,0.797665,90.87,1
900115,1,54520,2,48134,49061,49836.88,50527.96,-1702.88,-1466.96,0.798638,90.85,1
900155,1,54560,2,48133,49060,49833.47,50525.03,-1700.47,-1465.03,0.79961,90.82,1
900195,1,54600,2,48121,49053,49830.05,50522.09,-1709.05,-1469.09,0.800581,90.8,1
900235,1,54640,2,48120,49054,49826.63,50519.16,-1706.63,-1465.16,0.801551,90.77,1
900276,1,54681,2,48119,49053,49823.22,50516.23,-1704.22,-1463.23,0.802521,90.75,1
900316,1,54721,2,48111,49056,49819.8,50513.31,-1708.8,-1457.31,0.803489,90.72,1
900356,1,54761,2,48106,49059,49816.37,50510.4,-1710.37,-1451.4,0.804457,90.7,1
900396,1,54801,2,48104,49056,49812.95,50507.5,-1708.95,-1451.5,0.805424,90.67,1
900436,1,54841,2,48108,49057,49809.54,50504.6,-1701.54,-1447.6,0.80639,90.65,1
900476,1,54881,2,48103,49057,49806.13,50501.7,-1703.13,-1444.7,0.807356,90.62,1
900516,1,54921,2,48103,49061,49802.72,50498.82,-1699.72,-1437.82,0.808321,90.6,1
900556,1,54961,2,48099,49051,49799.32,50495.93,-1700.32,-1444.93,0.809285,90.57,1
900596,1,55001,2,48099,49054,49795.92,50493.05,-1696.92,-1439.05,0.810249,90.55,1
900636,1,55041,2,48096,49046,49792.52,50490.15,-1696.52,-1444.15,0.811211,90.52,1
900676,1,55081,2,48091,49045,49789.12,50487.26,-1698.12,-1442.26,0.812173,90.5,1
900716,1,55121,2,48088,49040,49785.71,50484.37,-1697.71,-1444.37,0.813134,90.47,1
900756,1,55161,2,48085,49038,49782.32,50481.48,-1697.32,-1443.48,0.814094,90.45,1
900796,1,55201,2,48081,49037,49778.91,50478.59,-1697.91,-1441.59,0.815053,90.42,1
900836,1,55241,2,48070,49030,49775.5,50475.7,-1705.5,-1445.7,0.816011,90.4,1
900876,1,55281,2,48069,49026,49772.09,50472.8,-1703.09,-1446.8,0.816968,90.37,1
900917,1,55322,2,48064,49023,49768.67,50469.9,-1704.67,-1446.9,0.817924,90.35,1
900957,1,55362,2,48061,49025,49765.26,50467.01,-1704.26,-1442.01,0.818879,90.32,1
900997,1,55402,2,48052,49019,49761.83,50464.12,-1709.83,-1445.12,0.819834,90.3,1
901037,1,55442,2,48048,49019,49758.41,50461.23,-1710.41,-1442.23,0.820788,90.28,1
901077,1,55482,2,48050,49022,49754.99,50458.35,-1704.99,-1436.35,0.821741,90.25,1
901117,1,55522,2,48047,49027,49751.58,50455.48,-1704.58,-1428.48,0.822693,90.23,1
901157,1,55562,2,48044,49028,49748.16,50452.63,-1704.16,-1424.63,0.823645,90.2,1
901197,1,55602,2,48044,49034,49744.76,50449.79,-1700.76,-1415.79,0.824597,90.18,1
901237,1,55642,2,48048,49029,49741.37,50446.95,-1693.37,-1417.95,0.825547,90.15,1
901277,1,55682,2,48042,49022,49737.97,50444.11,-1695.97,-1422.11,0.826498,90.13,1
901317,1,55722,2,48039,49020,49734.57,50441.26,-1695.57,-1421.26,0.827447,90.1,1
901357,1,55762,2,48036,49016,49731.18,50438.41,-1695.18,-1422.41,0.828396,90.08,1
901397,1,55802,2,48030,49012,49727.77,50435.56,-1697.77,-1423.56,0.829344,90.06,1
901437,1,55842,2,48026,49005,49724.37,50432.7,-1698.37,-1427.7,0.830291,90.03,1
901477,1,55882,2,48020,49005,49720.96,50429.84,-1700.96,-1424.84,0.831237,90.01,1
901517,1,55922,2,48016,49001,49717.55,50426.99,-1701.55,-1425.99,0.832182,89.98,1
901557,1,55962,2,48013,49004,49714.15,50424.14,-1701.15,-1420.14,0.833127,89.96,1
901598,1,56003,2,48008,49005,49710.74,50421.31,-1702.74,-1416.31,0.834071,89.93,1
901638,1,56043,2,48006,49009,49707.33,50418.48,-1701.33,-1409.48,0.835015,89.91,1
901678,1,56083,2,48003,49082,49703.93,50415.81,-1700.93,-1333.81,0.83596,89.89,1
901718,1,56123,2,48004,49008,49700.53,50413,-1696.53,-1405,0.836904,89.86,1
901758,1,56163,2,47997,49004,49697.12,50410.18,-1700.12,-1406.18,0.837848,89.84,1
901798,1,56203,2,47997,49008,49693.72,50407.38,-1696.72,-1399.38,0.838792,89.81,1
901838,1,56243,2,47994,49330,49690.32,50405.23,-1696.32,-1075.23,0.839742,89.79,1
901878,1,56283,2,47995,49011,49686.93,50402.44,-1691.93,-1391.44,0.840692,89.76,1
901918,1,56323,2,47995,49009,49683.55,50399.65,-1688.55,-1390.65,0.841641,89.74,1
901958,1,56363,2,47997,49005,49680.18,50396.86,-1683.18,-1391.86,0.842589,89.72,1
901998,1,56403,2,47993,49004,49676.8,50394.08,-1683.8,-1390.08,0.843536,89.69,1
902038,1,56443,2,47984,48777,49673.42,50390.84,-1689.42,-1613.84,0.844477,89.67,1
902078,1,56483,2,47986,48731,49670.05,50387.52,-1684.05,-1656.52,0.845411,89.64,1
902118,1,56523,2,47981,48990,49666.67,50384.73,-1685.67,-1394.73,0.846344,89.62,1
902158,1,56563,2,47970,48986,49663.28,50381.93,-1693.28,-1395.93,0.847276,89.6,1
902198,1,56603,2,47967,48980,49659.89,50379.13,-1692.89,-1399.13,0.848208,89.57,1
902238,1,56643,2,47961,48971,49656.49,50376.32,-1695.49,-1405.32,0.849138,89.55,1
902279,1,56684,2,47953,48969,49653.09,50373.5,-1700.09,-1404.5,0.850069,89.52,1
902319,1,56724,2,47946,48964,49649.67,50370.69,-1703.67,-1406.69,0.850998,89.5,1
902359,1,56764,2,47938,48962,49646.25,50367.87,-1708.25,-1405.87,0.851927,89.48,1
902399,1,56804,2,48028,48956,49643.02,50365.05,-1615.02,-1409.05,0.852854,89.45,1
902439,1,56844,2,47936,48961,49639.6,50362.24,-1703.6,-1401.24,0.85378,89.43,1
902479,1,56884,2,47933,48964,49636.19,50359.44,-1703.19,-1395.44,0.854705,89.4,1
902519,1,56924,2,47935,48969,49632.79,50356.66,-1697.79,-1387.66,0.85563,89.38,1
902559,1,56964,2,48339,48966,49630.2,50353.88,-1291.2,-1387.88,0.856546,89.36,1
902599,1,57004,2,47996,48961,49626.94,50351.09,-1630.94,-1390.09,0.857461,89.33,1
902639,1,57044,2,47931,48955,49623.55,50348.3,-1692.55,-1393.3,0.858375,89.31,1
902679,1,57084,2,47928,48949,49620.16,50345.51,-1692.16,-1396.51,0.859288,89.29,1
902719,1,57124,2,47921,48949,49616.76,50342.71,-1695.76,-1393.71,0.860201,89.26,1
902759,1,57164,2,47586,48940,49612.7,50339.91,-2026.7,-1399.91,0.861122,89.24,1
902799,1,57204,2,47453,48938,49608.38,50337.11,-2155.38,-1399.11,0.862053,89.21,1
902839,1,57244,2,47908,48934,49604.98,50334.3,-1696.98,-1400.3,0.862983,89.19,1
902879,1,57284,2,47901,48930,49601.58,50331.5,-1700.58,-1401.5,0.863912,89.17,1
902919,1,57324,2,47894,48927,49598.16,50328.69,-1704.16,-1401.69,0.86484,89.14,1
902960,1,57365,2,47892,48924,49594.75,50325.88,-1702.75,-1401.88,0.865767,89.12,1
903000,1,57405,2,47888,48922,49591.34,50323.07,-1703.34,-1401.07,0.866694,89.1,1
903040,1,57445,2,47879,48921,49587.92,50320.27,-1708.92,-1399.27,0.867619,89.07,1
903080,1,57485,2,47880,48916,49584.5,50317.46,-1704.5,-1401.46,0.868544,89.05,1
903120,1,57525,2,47872,48913,49581.08,50314.65,-1709.08,-1401.65,0.869467,89.03,1
903160,1,57565,2,47869,48914,49577.66,50311.85,-1708.66,-1397.85,0.87039,89,1
903200,1,57605,2,47865,48918,49574.23,50309.07,-1709.23,-1391.07,0.871313,88.98,1
903240,1,57645,2,47868,48920,49570.82,50306.29,-1702.82,-1386.29,0.872234,88.95,1
903280,1,57685,2,47873,48913,49567.43,50303.5,-1694.43,-1390.5,0.873155,88.93,1
903320,1,57725,2,47866,48912,49564.03,50300.72,-1698.03,-1388.72,0.874075,88.91,1
903360,1,57765,2,47867,48916,49560.63,50297.95,-1693.63,-1381.95,0.874993,88.88,1
903400,1,57805,2,47861,48914,49557.23,50295.19,-1696.23,-1381.19,0.875912,88.86,1
903440,1,57845,2,47857,48904,49553.84,50292.41,-1696.84,-1388.41,0.876829,88.84,1
903480,1,57885,2,47856,48904,49550.44,50289.63,-1694.44,-1385.63,0.877745,88.81,1
903520,1,57925,2,47851,48896,49547.04,50286.84,-1696.04,-1390.84,0.87866,88.79,1
903560,1,57965,2,47845,48894,49543.64,50284.06,-1698.64,-1390.06,0.879574,88.77,1
903600,1,58005,2,47838,48893,49540.23,50281.28,-1702.23,-1388.28,0.880487,88.74,1
903641,1,58046,2,47838,48884,49536.83,50278.48,-1698.83,-1394.48,0.8814,88.72,1
903681,1,58086,2,47829,48882,49533.41,50275.69,-1704.41,-1393.69,0.882311,88.7,1
903721,1,58126,2,47821,48886,49529.99,50272.91,-1708.99,-1386.91,0.883221,88.67,1
903761,1,58166,2,47820,48883,49526.57,50270.14,-1706.57,-1387.14,0.884131,88.65,1
903801,1,58206,2,47821,48888,49523.16,50267.37,-1702.16,-1379.38,0.88504,88.63,1
903841,1,58246,2,47823,48891,49519.77,50264.62,-1696.77,-1373.63,0.885948,88.6,1
903881,1,58286,2,47816,48895,49516.36,50261.89,-1700.36,-1366.89,0.886855,88.58,1
903921,1,58326,2,47816,48890,49512.96,50259.14,-1696.96,-1369.14,0.887762,88.56,1
903961,1,58366,2,47820,48885,49509.58,50256.4,-1689.58,-1371.4,0.888669,88.53,1
904001,1,58406,2,47817,48879,49506.2,50253.64,-1689.2,-1374.64,0.889574,88.51,1
904041,1,58446,2,47813,48876,49502.81,50250.89,-1689.81,-1374.89,0.890478,88.49,1
904081,1,58486,2,47812,48876,49499.43,50248.14,-1687.43,-1372.14,0.891381,88.46,1
904121,1,58526,2,47801,48868,49496.04,50245.38,-1695.04,-1377.38,0.892283,88.44,1
904161,1,58566,2,47805,48866,49492.66,50242.62,-1687.66,-1376.63,0.893184,88.42,1
904201,1,58606,2,47794,48862,49489.26,50239.86,-1695.26,-1377.86,0.894084,88.4,1
904241,1,58646,2,47789,48859,49485.86,50237.1,-1696.86,-1378.1,0.894983,88.37,1
904281,1,58686,2,47786,48854,49482.46,50234.34,-1696.46,-1380.34,0.895881,88.35,1
904322,1,58727,2,47776,48847,49479.05,50231.56,-1703.05,-1384.56,0.896778,88.33,1
904362,1,58767,2,47773,48846,49475.64,50228.79,-1702.64,-1382.79,0.897674,88.3,1
904402,1,58807,2,47771,48845,49472.24,50226.03,-1701.24,-1381.03,0.898569,88.28,1
904442,1,58847,2,47767,48845,49468.83,50223.27,-1701.83,-1378.27,0.899463,88.26,1
904482,1,58887,2,47766,48843,49465.42,50220.51,-1699.42,-1377.51,0.900356,88.23,1
904522,1,58927,2,47762,48842,49462.02,50217.75,-1700.02,-1375.75,0.901248,88.21,1
904562,1,58967,2,47757,48844,49458.61,50215.01,-1701.61,-1371.01,0.90214,88.19,1
904602,1,59007,2,47756,48846,49455.2,50212.27,-1699.2,-1366.27,0.90303,88.17,1
904642,1,59047,2,47758,48845,49451.81,50209.54,-1693.81,-1364.54,0.90392,88.14,1
904682,1,59087,2,47758,48842,49448.42,50206.8,-1690.42,-1364.8,0.904809,88.12,1
904722,1,59127,2,47760,48842,49445.05,50204.07,-1685.05,-1362.07,0.905696,88.1,1
904762,1,59167,2,47753,48842,49441.66,50201.35,-1688.66,-1359.35,0.906583,88.07,1
904802,1,59207,2,47748,48830,49438.28,50198.61,-1690.28,-1368.61,0.907469,88.05,1
904842,1,59247,2,47746,48826,49434.89,50195.87,-1688.89,-1369.87,0.908354,88.03,1
904882,1,59287,2,47743,48855,49431.51,50193.19,-1688.51,-1338.19,0.909238,88.01,1
904922,1,59327,2,47736,48821,49428.12,50190.45,-1692.12,-1369.45,0.910121,87.98,1
904962,1,59367,2,47729,48822,49424.72,50187.71,-1695.72,-1365.71,0.911003,87.96,1
905003,1,59408,2,47731,48822,49421.34,50184.98,-1690.34,-1362.98,0.911885,87.94,1
905043,1,59448,2,47725,49083,49417.95,50182.78,-1692.95,-1099.78,0.912771,87.91,1
905083,1,59488,2,47715,49124,49414.54,50180.66,-1699.54,-1056.66,0.913663,87.89,1
905123,1,59528,2,47712,48814,49411.14,50177.93,-1699.14,-1363.93,0.914555,87.87,1
905163,1,59568,2,47711,48811,49407.74,50175.2,-1696.74,-1364.2,0.915445,87.85,1
905203,1,59608,2,47706,48804,49404.34,50172.45,-1698.34,-1368.45,0.916334,87.82,1
905243,1,59648,2,47705,48629,49400.94,50169.37,-1695.94,-1540.37,0.917217,87.8,1
905283,1,59688,2,47701,48587,49397.54,50166.2,-1696.54,-1579.2,0.918093,87.78,1
905323,1,59728,2,47701,48808,49394.15,50163.49,-1693.15,-1355.49,0.918969,87.76,1
905363,1,59768,2,47705,48810,49390.77,50160.78,-1685.77,-1350.78,0.919843,87.73,1
905403,1,59808,2,47705,48806,49387.4,50158.07,-1682.4,-1352.07,0.920716,87.71,1
905443,1,59848,2,47702,48811,49384.03,50155.38,-1682.03,-1344.38,0.921589,87.69,1
905483,1,59888,2,47704,48810,49380.67,50152.69,-1676.67,-1342.69,0.92246,87.67,1
905523,1,59928,2,47702,48810,49377.31,50150.01,-1675.31,-1340.01,0.923331,87.64,1
905563,1,59968,2,47697,48805,49373.95,50147.32,-1676.95,-1342.32,0.924201,87.62,1
905603,1,60008,2,47724,48799,49370.66,50144.62,-1646.66,-1345.63,0.925068,87.6,1
905643,1,60048,2,47687,48800,49367.29,50141.94,-1680.29,-1341.94,0.925936,87.58,1
905683,1,60088,2,47681,48791,49363.92,50139.24,-1682.92,-1348.24,0.926802,87.55,1
905724,1,60129,2,47674,48780,49360.54,50136.52,-1686.54,-1356.52,0.927666,87.53,1
905764,1,60169,2,48018,48775,49357.86,50133.8,-1339.86,-1358.8,0.928523,87.51,1
905804,1,60209,2,48111,48770,49355.36,50131.07,-1244.36,-1361.07,0.92937,87.49,1
905844,1,60249,2,47655,48770,49351.96,50128.35,-1696.96,-1358.35,0.930216,87.46,1
905884,1,60289,2,47652,48765,49348.57,50125.62,-1696.57,-1360.62,0.931061,87.44,1
905924,1,60329,2,47650,48767,49345.17,50122.91,-1695.17,-1355.91,0.931906,87.42,1
905964,1,60369,2,47394,48775,49341.27,50120.21,-1947.27,-1345.21,0.932756,87.4,1
906004,1,60409,2,47253,48771,49337.09,50117.52,-2084.09,-1346.52,0.933615,87.38,1
906044,1,60449,2,47654,48776,49333.73,50114.83,-1679.73,-1338.83,0.934473,87.35,1
906084,1,60489,2,47657,48773,49330.38,50112.15,-1673.38,-1339.15,0.93533,87.33,1
906124,1,60529,2,47648,48778,49327.02,50109.48,-1679.02,-1331.48,0.936186,87.31,1
906164,1,60569,2,47649,48769,49323.66,50106.8,-1674.66,-1337.8,0.937041,87.29,1
906204,1,60609,2,47643,48767,49320.3,50104.12,-1677.3,-1337.12,0.937896,87.27,1
906244,1,60649,2,47639,48761,49316.94,50101.44,-1677.94,-1340.44,0.938749,87.24,1
906284,1,60689,2,47634,48756,49313.58,50098.75,-1679.58,-1342.75,0.939601,87.22,1
906324,1,60729,2,47629,48756,49310.21,50096.06,-1681.21,-1340.06,0.940452,87.2,1
906364,1,60769,2,47628,48752,49306.85,50093.37,-1678.85,-1341.38,0.941301,87.18,1
906405,1,60810,2,47624,48750,49303.48,50090.69,-1679.48,-1340.69,0.94215,87.16,1
906445,1,60850,2,47619,48754,49300.12,50088.02,-1681.12,-1334.02,0.942998,87.13,1
