t_ms,trial_id,t_trial_ms,phase,red_raw,ir_raw,red_dc,ir_dc,red_ac,ir_ac,R,spo2,spo2_valid
225458,1,0,0,47651,49946,47687.72,50354.78,-36.72,-408.78,0.443362,98.92,1
225498,1,40,0,47483,49542,47687.31,50353.16,-204.31,-811.16,0.443284,98.92,1
225538,1,80,0,47355,49408,47686.64,50351.27,-331.64,-943.27,0.443199,98.92,1
225578,1,120,0,47342,49465,47685.96,50349.5,-343.96,-884.5,0.443114,98.92,1
225618,1,160,0,47380,49555,47685.35,50347.91,-305.35,-792.91,0.443029,98.92,1
225658,1,200,0,47418,49639,47684.81,50346.49,-266.81,-707.49,0.442942,98.92,1
225698,1,240,0,47453,49736,47684.35,50345.27,-231.35,-609.27,0.442854,98.92,1
225739,1,281,0,47490,49787,47683.96,50344.16,-193.96,-557.16,0.442765,98.92,1
225779,1,321,0,47503,49791,47683.61,50343.05,-180.61,-552.05,0.442672,98.92,1
225819,1,361,0,47498,49800,47683.23,50341.96,-185.23,-541.96,0.442578,98.92,1
225859,1,401,0,47514,49851,47682.9,50340.98,-168.9,-489.98,0.442482,98.92,1
225899,1,441,0,47549,49940,47682.63,50340.18,-133.63,-400.18,0.442385,98.92,1
225939,1,481,0,47585,50032,47682.44,50339.57,-97.44,-307.57,0.442287,98.92,1
225979,1,521,0,47621,50105,47682.32,50339.1,-61.32,-234.1,0.442188,98.92,1
226019,1,561,0,47655,50158,47682.26,50338.74,-27.26,-180.74,0.442089,98.92,1
226059,1,601,0,47676,50198,47682.25,50338.46,-6.25,-140.46,0.441989,98.93,1
226099,1,641,0,47692,50237,47682.27,50338.26,9.73,-101.26,0.441889,98.93,1
226139,1,681,0,47709,50250,47682.32,50338.08,26.68,-88.08,0.44179,98.93,1
226179,1,721,0,47677,49994,47682.32,50337.39,-5.32,-343.39,0.441686,98.93,1
226219,1,761,0,47515,49587,47681.98,50335.89,-166.98,-748.89,0.44157,98.93,1
226259,1,801,0,47375,49428,47681.37,50334.08,-306.37,-906.08,0.441448,98.93,1
226300,1,842,0,47362,49474,47680.73,50332.36,-318.73,-858.36,0.441326,98.93,1
226340,1,882,0,47403,49559,47680.18,50330.81,-277.18,-771.81,0.441202,98.93,1
226380,1,922,0,47423,49645,47679.67,50329.44,-256.67,-684.44,0.441078,98.93,1
226420,1,962,0,47466,49742,47679.24,50328.27,-213.24,-586.27,0.440953,98.94,1
226460,1,1002,0,47502,49789,47678.89,50327.19,-176.89,-538.19,0.440827,98.94,1
226500,1,1042,0,47512,49794,47678.56,50326.12,-166.56,-532.12,0.440698,98.94,1
226540,1,1082,0,47504,49807,47678.21,50325.09,-174.21,-518.09,0.440569,98.94,1
226580,1,1122,0,47530,49864,47677.91,50324.17,-147.91,-460.17,0.440437,98.94,1
226620,1,1162,0,47565,49940,47677.69,50323.4,-112.69,-383.4,0.440305,98.94,1
226660,1,1202,0,47600,50032,47677.54,50322.82,-77.54,-290.82,0.440171,98.94,1
226700,1,1242,0,47639,50111,47677.46,50322.4,-38.46,-211.4,0.440037,98.95,1
226740,1,1282,0,47672,50168,47677.46,50322.09,-5.46,-154.09,0.439903,98.95,1
226780,1,1322,0,47690,50209,47677.48,50321.86,12.52,-112.86,0.439768,98.95,1
226820,1,1362,0,47702,50240,47677.54,50321.7,24.46,-81.7,0.439634,98.95,1
226860,1,1402,0,47716,50273,47677.61,50321.6,38.39,-48.6,0.439501,98.95,1
226901,1,1443,0,47733,50304,47677.73,50321.57,55.27,-17.57,0.439368,98.95,1
226941,1,1483,0,47747,50348,47677.87,50321.62,69.13,26.38,0.439238,98.96,1
226981,1,1523,0,47760,50391,47678.03,50321.76,81.97,69.24,0.439108,98.96,1
227021,1,1563,0,47778,50441,47678.23,50322,99.77,119,0.438982,98.96,1
227061,1,1603,0,47797,50363,47678.47,50322.08,118.53,40.92,0.438858,98.96,1
227101,1,1643,0,47691,49968,47678.5,50321.37,12.5,-353.37,0.438731,98.96,1
227141,1,1683,0,47502,49618,47678.15,50319.97,-176.15,-701.97,0.438596,98.97,1
227181,1,1723,0,47414,49553,47677.62,50318.44,-263.62,-765.44,0.438458,98.97,1
227221,1,1763,0,47431,49629,47677.13,50317.06,-246.13,-688.06,0.438319,98.97,1
227261,1,1803,0,47472,49720,47676.72,50315.87,-204.72,-595.87,0.438179,98.97,1
227301,1,1843,0,47512,49818,47676.39,50314.87,-164.39,-496.87,0.438038,98.98,1
227341,1,1883,0,47544,49878,47676.13,50314,-132.13,-436,0.437896,98.98,1
227381,1,1923,0,47560,49886,47675.9,50313.14,-115.9,-427.14,0.437751,98.98,1
227421,1,1963,0,47558,49878,47675.66,50312.28,-117.66,-434.28,0.437604,98.98,1
227461,1,2003,0,47557,49902,47675.43,50311.46,-118.43,-409.46,0.437455,98.99,1
227501,1,2043,0,47574,49957,47675.23,50310.75,-101.23,-353.75,0.437306,98.99,1
227542,1,2084,0,47603,50046,47675.08,50310.22,-72.08,-264.22,0.437156,98.99,1
227582,1,2124,0,47642,50133,47675.02,50309.87,-33.02,-176.87,0.437005,98.99,1
227622,1,2164,0,47670,50203,47675.01,50309.66,-5.01,-106.66,0.436855,99,1
227662,1,2204,0,47703,50261,47675.07,50309.56,27.93,-48.56,0.436705,99,1
227702,1,2244,0,47726,50314,47675.17,50309.57,50.83,4.43,0.436557,99,1
227742,1,2284,0,47744,50360,47675.31,50309.68,68.69,50.32,0.43641,99,1
227782,1,2324,0,47770,50407,47675.5,50309.87,94.5,97.13,0.436265,99.01,1
227822,1,2364,0,47796,50453,47675.74,50310.16,120.26,142.84,0.436123,99.01,1
227862,1,2404,0,47817,50516,47676.03,50310.57,140.97,205.43,0.435985,99.01,1
227902,1,2444,0,47842,50557,47676.36,50311.07,165.64,245.93,0.435853,99.01,1
227942,1,2484,0,47825,50370,47676.66,50311.19,148.34,58.81,0.435726,99.02,1
227982,1,2524,0,47689,49981,47676.68,50310.53,12.32,-329.53,0.435595,99.02,1
228022,1,2564,0,47535,49751,47676.4,50309.41,-141.4,-558.41,0.43546,99.02,1
228062,1,2604,0,47494,49767,47676.04,50308.33,-182.04,-541.33,0.435323,99.03,1
228102,1,2644,0,47527,49869,47675.74,50307.45,-148.74,-438.45,0.435185,99.03,1
228143,1,2685,0,47571,49980,47675.54,50306.8,-104.54,-326.8,0.435047,99.03,1
228183,1,2725,0,47616,50078,47675.42,50306.34,-59.42,-228.34,0.434909,99.03,1
228223,1,2765,0,47647,50123,47675.36,50305.98,-28.36,-182.98,0.43477,99.04,1
228263,1,2805,0,47646,50108,47675.3,50305.58,-29.3,-197.58,0.43463,99.04,1
228303,1,2845,0,47644,50100,47675.24,50305.17,-31.24,-205.17,0.43449,99.04,1
228343,1,2885,0,47651,50144,47675.2,50304.85,-24.2,-160.85,0.434349,99.05,1
228383,1,2925,0,47677,50223,47675.2,50304.69,1.8,-81.69,0.434208,99.05,1
228423,1,2965,0,47722,50316,47675.29,50304.71,46.71,11.29,0.434069,99.05,1
228463,1,3005,0,47762,50397,47675.47,50304.9,86.53,92.1,0.433931,99.05,1
228503,1,3045,0,47790,50463,47675.7,50305.21,114.3,157.79,0.433797,99.06,1
228543,1,3085,0,47813,50511,47675.98,50305.63,137.02,205.37,0.433666,99.06,1
228583,1,3125,0,47833,50556,47676.29,50306.13,156.71,249.87,0.43354,99.06,1
228623,1,3165,0,47839,50562,47676.62,50306.64,162.38,255.36,0.433419,99.07,1
228663,1,3205,0,47848,50596,47676.96,50307.22,171.04,288.78,0.433303,99.07,1
228703,1,3245,0,47864,50634,47677.34,50307.88,186.66,326.12,0.433193,99.07,1
228744,1,3286,0,47851,50481,47677.69,50308.23,173.31,172.77,0.43309,99.08,1
228784,1,3326,0,47734,50124,47677.8,50307.86,56.2,-183.86,0.432987,99.08,1
228824,1,3366,0,47596,49915,47677.64,50307.07,-81.64,-392.07,0.432881,99.08,1
228864,1,3406,0,47554,49931,47677.39,50306.32,-123.39,-375.32,0.432773,99.08,1
228904,1,3446,0,47592,50048,47677.22,50305.81,-85.22,-257.81,0.432665,99.09,1
228944,1,3486,0,47642,50180,47677.15,50305.56,-35.15,-125.56,0.432557,99.09,1
228984,1,3526,0,47695,50283,47677.19,50305.52,17.81,-22.52,0.432449,99.09,1
229024,1,3566,0,47729,50307,47677.29,50305.52,51.71,1.48,0.432343,99.1,1
229064,1,3606,0,47723,50277,47677.39,50305.46,45.61,-28.46,0.432237,99.1,1
229104,1,3646,0,47707,50259,47677.45,50305.37,29.55,-46.38,0.432132,99.1,1
229144,1,3686,0,47715,50294,47677.52,50305.36,37.48,-11.36,0.432027,99.11,1
229184,1,3726,0,47740,50368,47677.65,50305.48,62.35,62.52,0.431924,99.11,1
229224,1,3766,0,47778,50456,47677.85,50305.78,100.15,150.22,0.431823,99.11,1
229264,1,3806,0,47805,50534,47678.11,50306.24,126.89,227.76,0.431725,99.11,1
229304,1,3846,0,47833,50596,47678.42,50306.82,154.58,289.18,0.431631,99.12,1
229345,1,3887,0,47849,50632,47678.76,50307.47,170.24,324.53,0.431541,99.12,1
229385,1,3927,0,47861,50662,47679.13,50308.18,181.87,353.82,0.431456,99.12,1
229425,1,3967,0,47875,50698,47679.52,50308.96,195.48,389.04,0.431376,99.13,1
229465,1,4007,0,47892,50674,47679.95,50309.7,212.05,364.3,0.431304,99.13,1
229505,1,4047,0,47832,50392,47680.25,50309.86,151.75,82.14,0.431238,99.13,1
229545,1,4087,0,47681,50065,47680.26,50309.37,0.74,-244.37,0.43117,99.13,1
229585,1,4127,0,47588,49965,47680.07,50308.68,-92.07,-343.68,0.4311,99.14,1
229625,1,4167,0,47594,50034,47679.9,50308.14,-85.9,-274.14,0.431028,99.14,1
229665,1,4207,0,47636,50143,47679.82,50307.81,-43.82,-164.81,0.430956,99.14,1
229705,1,4247,0,47682,50254,47679.82,50307.7,2.18,-53.7,0.430884,99.14,1
229745,1,4287,0,47719,50322,47679.9,50307.73,39.1,14.27,0.430813,99.15,1
229785,1,4327,0,47730,50314,47680,50307.75,50,6.25,0.430743,99.15,1
229825,1,4367,0,47719,50279,47680.08,50307.7,38.92,-28.7,0.430673,99.15,1
229865,1,4407,0,47707,50280,47680.13,50307.64,26.87,-27.64,0.430604,99.15,1
229905,1,4447,0,47714,50328,47680.2,50307.68,33.8,20.32,0.430535,99.16,1
229946,1,4488,0,47748,50416,47680.34,50307.9,67.66,108.1,0.430468,99.16,1
229986,1,4528,0,47782,50494,47680.54,50308.28,101.46,185.72,0.430402,99.16,1
230026,1,4568,0,47809,50563,47680.8,50308.79,128.2,254.21,0.430339,99.16,1
230066,1,4608,0,47831,50610,47681.1,50309.39,149.9,300.61,0.430279,99.17,1
230106,1,4648,0,47850,50644,47681.44,50310.07,168.56,333.93,0.430222,99.17,1
230146,1,4688,0,47864,50683,47681.81,50310.81,182.19,372.19,0.43017,99.17,1
230186,1,4728,0,47877,50664,47682.2,50311.52,194.8,352.48,0.430124,99.17,1
230226,1,4768,0,47825,50386,47682.48,50311.67,142.52,74.33,0.430085,99.18,1
230266,1,4808,0,47674,50019,47682.47,50311.08,-8.47,-292.08,0.430041,99.18,1
230306,1,4848,0,47557,49887,47682.22,50310.23,-125.22,-423.23,0.429994,99.18,1
230346,1,4888,0,47545,49936,47681.95,50309.49,-136.95,-373.49,0.429946,99.18,1
230386,1,4928,0,47583,50028,47681.75,50308.93,-98.75,-280.93,0.429897,99.18,1
230426,1,4968,0,47617,50117,47681.62,50308.54,-64.62,-191.54,0.429848,99.19,1
230466,1,5008,0,47650,50190,47681.56,50308.31,-31.56,-118.31,0.429798,99.19,1
230506,1,5048,0,47670,50213,47681.54,50308.12,-11.54,-95.12,0.429749,99.19,1
230547,1,5089,0,47667,50195,47681.51,50307.89,-14.51,-112.89,0.429698,99.19,1
230587,1,5129,0,47657,50197,47681.46,50307.68,-24.46,-110.68,0.429648,99.19,1
230627,1,5169,0,47668,50246,47681.43,50307.55,-13.43,-61.55,0.429598,99.2,1
230667,1,5209,0,47689,50326,47681.45,50307.59,7.55,18.41,0.429547,99.2,1
230707,1,5249,0,47731,50422,47681.55,50307.82,49.45,114.18,0.429497,99.2,1
230747,1,5289,0,47768,50505,47681.73,50308.22,86.27,196.78,0.429448,99.2,1
230787,1,5329,0,47797,50564,47681.96,50308.73,115.04,255.27,0.4294,99.2,1
230827,1,5369,0,47823,50597,47682.24,50309.31,140.76,287.69,0.429355,99.21,1
230867,1,5409,0,47835,50621,47682.55,50309.93,152.45,311.07,0.429313,99.21,1
230907,1,5449,0,47847,50654,47682.88,50310.62,164.12,343.38,0.429274,99.21,1
230947,1,5489,0,47848,50580,47683.21,50311.16,164.79,268.84,0.42924,99.21,1
230987,1,5529,0,47764,50241,47683.38,50311.02,80.62,-70.02,0.429209,99.21,1
231027,1,5569,0,47596,49906,47683.21,50310.21,-87.21,-404.21,0.429172,99.21,1
231067,1,5609,0,47503,49821,47682.85,50309.23,-179.85,-488.23,0.429133,99.22,1
231107,1,5649,0,47507,49890,47682.5,50308.4,-175.5,-418.4,0.429095,99.22,1
231148,1,5690,0,47538,49973,47682.21,50307.73,-144.21,-334.73,0.429059,99.22,1
231188,1,5730,0,47576,50054,47682,50307.22,-106,-253.22,0.429023,99.22,1
231228,1,5770,0,47604,50128,47681.84,50306.87,-77.84,-178.87,0.428987,99.22,1
231268,1,5810,0,47626,50150,47681.73,50306.55,-55.73,-156.55,0.428952,99.22,1
231308,1,5850,0,47628,50144,47681.62,50306.23,-53.63,-162.23,0.428916,99.23,1
231348,1,5890,0,47628,50167,47681.52,50305.95,-53.52,-138.95,0.42888,99.23,1
231388,1,5930,0,47649,50228,47681.46,50305.8,-32.46,-77.8,0.428844,99.23,1
231428,1,5970,0,47681,50305,47681.46,50305.8,-0.46,-0.8,0.428808,99.23,1
231468,1,6010,0,47720,50387,47681.54,50305.96,38.46,81.04,0.428773,99.23,1
231508,1,6050,0,47753,50464,47681.68,50306.28,71.32,157.72,0.428738,99.23,1
231548,1,6090,0,47780,50519,47681.88,50306.7,98.12,212.3,0.428705,99.24,1
231588,1,6130,0,47796,50547,47682.11,50307.18,113.89,239.82,0.428672,99.24,1
231628,1,6170,0,47801,50558,47682.35,50307.69,118.65,250.31,0.428642,99.24,1
231668,1,6210,0,47810,50603,47682.61,50308.28,127.39,294.72,0.428613,99.24,1
231709,1,6251,0,47824,50616,47682.89,50308.9,141.11,307.1,0.428585,99.24,1
231749,1,6291,0,47799,50400,47683.12,50309.08,115.87,90.92,0.428563,99.24,1
231789,1,6331,0,47647,50022,47683.05,50308.51,-36.05,-286.51,0.428536,99.24,1
231829,1,6371,0,47515,49826,47682.72,50307.54,-167.72,-481.54,0.428506,99.24,1
231869,1,6411,0,47484,49846,47682.32,50306.62,-198.32,-460.62,0.428478,99.25,1
231909,1,6451,0,47518,49953,47682,50305.91,-164,-352.91,0.428453,99.25,1
231949,1,6491,0,47563,50048,47681.76,50305.4,-118.76,-257.4,0.428429,99.25,1
231989,1,6531,0,47610,50135,47681.62,50305.06,-71.62,-170.06,0.428406,99.25,1
232029,1,6571,0,47633,50175,47681.52,50304.8,-48.52,-129.8,0.428382,99.25,1
232069,1,6611,0,47636,50164,47681.43,50304.52,-45.43,-140.52,0.428358,99.25,1
232109,1,6651,0,47632,50162,47681.33,50304.23,-49.33,-142.23,0.428334,99.25,1
232149,1,6691,0,47634,50197,47681.24,50304.02,-47.24,-107.02,0.42831,99.25,1
232189,1,6731,0,47655,50271,47681.19,50303.95,-26.19,-32.95,0.428287,99.26,1
232229,1,6771,0,47700,50360,47681.23,50304.07,18.77,55.93,0.428263,99.26,1
232269,1,6811,0,47732,50433,47681.33,50304.32,50.67,128.68,0.42824,99.26,1
232310,1,6852,0,47754,50486,47681.48,50304.69,72.52,181.31,0.428216,99.26,1
232350,1,6892,0,47776,50531,47681.67,50305.14,94.33,225.86,0.428193,99.26,1
232390,1,6932,0,47790,50556,47681.89,50305.64,108.11,250.36,0.428171,99.26,1
232430,1,6972,0,47801,50581,47682.12,50306.2,118.87,274.8,0.42815,99.26,1
232470,1,7012,0,47814,50625,47682.39,50306.84,131.61,318.16,0.428129,99.26,1
232510,1,7052,0,47828,50600,47682.68,50307.42,145.32,292.58,0.428112,99.26,1
232550,1,7092,0,47766,50302,47682.85,50307.41,83.15,-5.41,0.428097,99.27,1
232590,1,7132,0,47616,49957,47682.72,50306.71,-66.72,-349.71,0.428076,99.27,1
232630,1,7172,0,47520,49867,47682.39,50305.84,-162.39,-438.84,0.428053,99.27,1
232670,1,7212,0,47518,49935,47682.07,50305.09,-164.07,-370.09,0.428033,99.27,1
232710,1,7252,0,47563,50038,47681.83,50304.56,-118.83,-266.56,0.428014,99.27,1
232750,1,7292,0,47603,50137,47681.67,50304.23,-78.67,-167.23,0.427995,99.27,1
232790,1,7332,0,47634,50198,47681.58,50304.02,-47.58,-106.02,0.427977,99.27,1
232831,1,7373,0,47645,50187,47681.51,50303.79,-36.51,-116.79,0.427958,99.27,1
232871,1,7413,0,47632,50158,47681.41,50303.5,-49.41,-145.5,0.427939,99.27,1
232911,1,7453,0,47623,50173,47681.29,50303.24,-58.29,-130.24,0.427921,99.27,1
232951,1,7493,0,47638,50230,47681.21,50303.09,-43.21,-73.09,0.427903,99.27,1
232991,1,7533,0,47672,50320,47681.19,50303.13,-9.19,16.87,0.427885,99.28,1
233031,1,7573,0,47714,50415,47681.26,50303.36,32.74,111.64,0.427866,99.28,1
233071,1,7613,0,47752,50495,47681.4,50303.74,70.6,191.26,0.427848,99.28,1
233111,1,7653,0,47784,50541,47681.61,50304.21,102.39,236.79,0.42783,99.28,1
233151,1,7693,0,47800,50571,47681.85,50304.75,118.15,266.25,0.427813,99.28,1
233191,1,7733,0,47811,50599,47682.11,50305.34,128.89,293.66,0.427797,99.28,1
233231,1,7773,0,47831,50627,47682.41,50305.98,148.59,321.02,0.427785,99.28,1
233271,1,7813,0,47821,50504,47682.68,50306.38,138.32,197.62,0.427777,99.28,1
233311,1,7853,0,47708,50136,47682.73,50306.04,25.27,-170.04,0.427768,99.28,1
233351,1,7893,0,47562,49884,47682.5,50305.2,-120.5,-421.2,0.427753,99.28,1
233392,1,7934,0,47507,49873,47682.14,50304.34,-175.14,-431.34,0.427738,99.28,1
233432,1,7974,0,47527,49979,47681.84,50303.69,-154.84,-324.69,0.427726,99.28,1
233472,1,8014,0,47575,50094,47681.62,50303.27,-106.62,-209.27,0.427716,99.28,1
233512,1,8054,0,47622,50192,47681.51,50303.05,-59.51,-111.05,0.427707,99.29,1
233552,1,8094,0,47652,50223,47681.45,50302.89,-29.45,-79.89,0.427698,99.29,1
233592,1,8134,0,47653,50207,47681.39,50302.7,-28.39,-95.7,0.427688,99.29,1
233632,1,8174,0,47642,50192,47681.32,50302.48,-39.32,-110.48,0.427679,99.29,1
233672,1,8214,0,47653,50227,47681.26,50302.33,-28.26,-75.33,0.427669,99.29,1
233712,1,8254,0,47678,50305,47681.26,50302.34,-3.26,2.66,0.427659,99.29,1
233752,1,8294,0,47715,50396,47681.33,50302.52,33.67,93.48,0.42765,99.29,1
233792,1,8334,0,47750,50474,47681.46,50302.87,68.54,171.13,0.42764,99.29,1
233832,1,8374,0,47785,50529,47681.67,50303.32,103.33,225.68,0.427631,99.29,1
233872,1,8414,0,47799,50571,47681.91,50303.86,117.09,267.14,0.427624,99.29,1
233912,1,8454,0,47810,50594,47682.16,50304.44,127.84,289.56,0.427617,99.29,1
233953,1,8495,0,47817,50619,47682.43,50305.07,134.57,313.93,0.427612,99.29,1
233993,1,8535,0,47828,50597,47682.73,50305.65,145.27,291.35,0.42761,99.29,1
234033,1,8575,0,47761,50310,47682.88,50305.66,78.12,4.34,0.427612,99.29,1
234073,1,8615,0,47604,49945,47682.73,50304.95,-78.73,-359.95,0.427605,99.29,1
234113,1,8655,0,47502,49812,47682.37,50303.96,-180.37,-491.96,0.427596,99.29,1
234153,1,8695,0,47491,49882,47681.98,50303.12,-190.98,-421.12,0.427591,99.29,1
234193,1,8735,0,47533,49985,47681.69,50302.48,-148.69,-317.48,0.427588,99.3,1
234233,1,8775,0,47578,50077,47681.48,50302.03,-103.48,-225.03,0.427586,99.3,1
234273,1,8815,0,47613,50147,47681.34,50301.72,-68.34,-154.72,0.427584,99.3,1
234313,1,8855,0,47634,50167,47681.25,50301.45,-47.25,-134.45,0.427582,99.3,1
234353,1,8895,0,47630,50152,47681.15,50301.16,-51.15,-149.16,0.42758,99.3,1
234393,1,8935,0,47627,50148,47681.04,50300.85,-54.04,-152.85,0.427577,99.3,1
234433,1,8975,0,47640,50201,47680.96,50300.65,-40.96,-99.65,0.427574,99.3,1
234473,1,9015,0,47665,50282,47680.93,50300.62,-15.93,-18.62,0.427571,99.3,1
234513,1,9055,0,47704,50371,47680.98,50300.76,23.02,70.24,0.427569,99.3,1
234554,1,9096,0,47742,50448,47681.1,50301.05,60.9,146.95,0.427566,99.3,1
234594,1,9136,0,47768,50507,47681.28,50301.47,86.72,205.53,0.427563,99.3,1
234634,1,9176,0,47782,50541,47681.48,50301.95,100.52,239.05,0.427561,99.3,1
234674,1,9216,0,47798,50570,47681.71,50302.49,116.29,267.51,0.42756,99.3,1
234714,1,9256,0,47811,50613,47681.98,50303.11,129.02,309.89,0.42756,99.3,1
234754,1,9296,0,47814,50543,47682.24,50303.59,131.76,239.41,0.427563,99.3,1
234794,1,9336,0,47727,50185,47682.33,50303.36,44.67,-118.36,0.427566,99.3,1
234834,1,9376,0,47564,49836,47682.1,50302.42,-118.1,-466.42,0.427558,99.3,1
234874,1,9416,0,47474,49751,47681.68,50301.32,-207.68,-550.32,0.427548,99.3,1
234914,1,9456,0,47471,49822,47681.26,50300.36,-210.26,-478.36,0.427541,99.3,1
234954,1,9496,0,47508,49903,47680.92,50299.57,-172.92,-396.57,0.427536,99.3,1
234994,1,9536,0,47543,49984,47680.64,50298.94,-137.64,-314.94,0.427532,99.3,1
235034,1,9576,0,47569,50054,47680.42,50298.45,-111.42,-244.45,0.427529,99.3,1
235074,1,9616,0,47593,50076,47680.25,50298.01,-87.25,-222.01,0.427526,99.3,1
235115,1,9657,0,47593,50062,47680.08,50297.54,-87.08,-235.54,0.427523,99.3,1
235155,1,9697,0,47591,50073,47679.9,50297.09,-88.9,-224.09,0.427519,99.3,1
235195,1,9737,0,47604,50138,47679.75,50296.77,-75.75,-158.77,0.427516,99.3,1
235235,1,9777,0,47638,50219,47679.67,50296.62,-41.67,-77.62,0.427514,99.3,1
235275,1,9817,0,47677,50314,47679.66,50296.65,-2.66,17.35,0.427512,99.3,1
235315,1,9857,0,47711,50398,47679.73,50296.86,31.27,101.14,0.427509,99.3,1
235355,1,9897,0,47748,50454,47679.86,50297.17,68.14,156.83,0.427506,99.3,1
235395,1,9937,0,47772,50491,47680.05,50297.56,91.95,193.44,0.427505,99.3,1
235435,1,9977,0,47786,50515,47680.26,50298,105.74,217,0.427505,99.31,1
235475,1,10017,0,47798,50544,47680.5,50298.49,117.5,245.51,0.427508,99.31,1
235515,1,10057,0,47808,50580,47680.76,50299.05,127.24,280.95,0.427511,99.31,1
235555,1,10097,0,47816,50479,47681.03,50299.41,134.97,179.59,0.427522,99.31,1
235595,1,10137,0,47706,50088,47681.08,50298.99,24.92,-210.99,0.427529,99.31,1
235635,1,10177,0,47531,49760,47680.78,50297.91,-149.78,-537.91,0.427523,99.31,1
235675,1,10217,0,47447,49701,47680.32,50296.72,-233.32,-595.72,0.427516,99.31,1
235716,1,10258,0,47462,49779,47679.88,50295.69,-217.88,-516.69,0.42751,99.31,1
235756,1,10298,0,47497,49871,47679.52,50294.84,-182.52,-423.84,0.427507,99.31,1
235796,1,10338,0,47529,49962,47679.22,50294.18,-150.22,-332.18,0.427505,99.31,1
235836,1,10378,0,47564,50024,47678.99,50293.64,-114.99,-269.64,0.427505,99.31,1
235876,1,10418,0,47585,50039,47678.8,50293.13,-93.8,-254.13,0.427503,99.31,1
235916,1,10458,0,47585,50035,47678.61,50292.61,-93.61,-257.61,0.4275,99.31,1
235956,1,10498,0,47584,50054,47678.43,50292.14,-94.43,-238.14,0.427498,99.31,1
235996,1,10538,0,47612,50120,47678.29,50291.79,-66.29,-171.79,0.427495,99.31,1
236036,1,10578,0,47646,50205,47678.23,50291.62,-32.23,-86.62,0.427492,99.31,1
236076,1,10618,0,47686,50294,47678.25,50291.63,7.75,2.37,0.427489,99.31,1
236116,1,10658,0,47716,50364,47678.32,50291.77,37.68,72.23,0.427486,99.31,1
236156,1,10698,0,47748,50415,47678.46,50292.02,69.54,122.98,0.427484,99.31,1
236196,1,10738,0,47762,50452,47678.63,50292.34,83.37,159.66,0.427484,99.31,1
236236,1,10778,0,47772,50480,47678.82,50292.71,93.18,187.29,0.427485,99.31,1
236277,1,10819,0,47779,50503,47679.02,50293.14,99.98,209.86,0.427488,99.31,1
236317,1,10859,0,47798,50544,47679.26,50293.64,118.74,250.36,0.427492,99.31,1
236357,1,10899,0,47805,50507,47679.52,50294.07,125.48,212.93,0.4275,99.31,1
236397,1,10939,0,47727,50168,47679.61,50293.82,47.39,-125.82,0.427509,99.31,1
236437,1,10979,0,47560,49801,47679.37,50292.84,-119.37,-491.84,0.427504,99.31,1
236477,1,11019,0,47457,49701,47678.93,50291.65,-221.93,-590.65,0.427496,99.31,1
236517,1,11059,0,47458,49776,47678.49,50290.62,-220.49,-514.62,0.427491,99.31,1
236557,1,11099,0,47504,49880,47678.14,50289.8,-174.14,-409.8,0.427486,99.31,1
236597,1,11139,0,47550,49982,47677.89,50289.19,-127.89,-307.19,0.427483,99.31,1
236637,1,11179,0,47591,50050,47677.71,50288.71,-86.71,-238.71,0.427478,99.31,1
236677,1,11219,0,47600,50048,47677.56,50288.23,-77.56,-240.23,0.427472,99.31,1
236717,1,11259,0,47594,50015,47677.4,50287.68,-83.4,-272.68,0.427464,99.31,1
236757,1,11299,0,47584,50023,47677.21,50287.16,-93.21,-264.16,0.427454,99.31,1
236797,1,11339,0,47594,50082,47677.05,50286.75,-83.05,-204.75,0.427445,99.31,1
236837,1,11379,0,47629,50177,47676.95,50286.53,-47.95,-109.53,0.427436,99.31,1
236878,1,11420,0,47669,50263,47676.94,50286.48,-7.94,-23.48,0.427426,99.31,1
236918,1,11460,0,47701,50333,47676.99,50286.57,24.01,46.43,0.427417,99.31,1
236958,1,11500,0,47724,50388,47677.08,50286.78,46.92,101.22,0.427408,99.31,1
236998,1,11540,0,47744,50415,47677.22,50287.04,66.78,127.96,0.4274,99.31,1
237038,1,11580,0,47755,50443,47677.37,50287.35,77.62,155.65,0.427393,99.31,1
237078,1,11620,0,47765,50481,47677.55,50287.73,87.45,193.27,0.427387,99.31,1
237118,1,11660,0,47779,50439,47677.75,50288.04,101.25,150.96,0.427384,99.31,1
237158,1,11700,0,47709,50122,47677.82,50287.71,31.18,-165.71,0.42738,99.31,1
237198,1,11740,0,47552,49774,47677.57,50286.68,-125.57,-512.68,0.427362,99.31,1
237238,1,11780,0,47455,49676,47677.12,50285.46,-222.12,-609.46,0.42734,99.31,1
237278,1,11820,0,47461,49765,47676.69,50284.42,-215.69,-519.42,0.427319,99.31,1
237318,1,11860,0,47507,49884,47676.35,50283.62,-169.35,-399.62,0.4273,99.31,1
237358,1,11900,0,47559,50005,47676.12,50283.07,-117.12,-278.07,0.427281,99.31,1
237398,1,11940,0,47604,50069,47675.97,50282.64,-71.97,-213.64,0.427262,99.31,1
237439,1,11981,0,47604,50035,47675.83,50282.15,-71.83,-247.15,0.427241,99.31,1
237479,1,12021,0,47579,49993,47675.64,50281.57,-96.64,-288.57,0.427218,99.31,1
237519,1,12061,0,47567,50002,47675.42,50281.01,-108.42,-279.01,0.427194,99.31,1
237559,1,12101,0,47582,50066,47675.23,50280.58,-93.23,-214.58,0.427172,99.31,1
237599,1,12141,0,47617,50162,47675.12,50280.35,-58.12,-118.35,0.42715,99.31,1
237639,1,12181,0,47653,50253,47675.07,50280.29,-22.07,-27.29,0.427128,99.31,1
237679,1,12221,0,47692,50324,47675.11,50280.38,16.89,43.62,0.427106,99.31,1
237719,1,12261,0,47718,50363,47675.2,50280.55,42.8,82.45,0.427085,99.31,1
237759,1,12301,0,47740,50389,47675.32,50280.77,64.68,108.23,0.427065,99.31,1
237799,1,12341,0,47746,50420,47675.47,50281.05,70.53,138.95,0.427046,99.31,1
237839,1,12381,0,47755,50386,47675.63,50281.26,79.37,104.74,0.427029,99.32,1
237879,1,12421,0,47694,50079,47675.67,50280.86,18.33,-201.86,0.427009,99.32,1
237919,1,12461,0,47528,49702,47675.37,50279.7,-147.37,-577.7,0.426974,99.32,1
237959,1,12501,0,47414,49588,47674.85,50278.32,-260.85,-690.32,0.426937,99.32,1
237999,1,12541,0,47412,49668,47674.33,50277.1,-262.33,-609.1,0.426904,99.32,1
238040,1,12582,0,47458,49781,47673.9,50276.11,-215.9,-495.11,0.426876,99.32,1
238080,1,12622,0,47507,49895,47673.57,50275.35,-166.57,-380.35,0.42685,99.32,1
238120,1,12662,0,47542,49962,47673.3,50274.72,-131.3,-312.72,0.426824,99.32,1
238160,1,12702,0,47556,49951,47673.07,50274.08,-117.07,-323.08,0.426798,99.32,1
238200,1,12742,0,47540,49907,47672.8,50273.34,-132.8,-366.34,0.42677,99.32,1
238240,1,12782,0,47526,49913,47672.51,50272.62,-146.51,-359.62,0.426743,99.32,1
238280,1,12822,0,47544,49972,47672.26,50272.02,-128.26,-300.02,0.426716,99.32,1
238320,1,12862,0,47586,50060,47672.09,50271.6,-86.09,-211.6,0.42669,99.32,1
238360,1,12902,0,47626,50147,47672,50271.36,-46,-124.36,0.426664,99.32,1
238400,1,12942,0,47657,50221,47671.97,50271.26,-14.97,-50.26,0.426638,99.32,1
238440,1,12982,0,47681,50262,47671.99,50271.24,9.01,-9.24,0.426612,99.32,1
238480,1,13022,0,47696,50289,47672.04,50271.28,23.96,17.72,0.426587,99.32,1
238520,1,13062,0,47703,50316,47672.1,50271.37,30.9,44.63,0.426562,99.32,1
238560,1,13102,0,47711,50287,47672.18,50271.4,38.82,15.6,0.426537,99.32,1
238601,1,13143,0,47645,49971,47672.12,50270.8,-27.12,-299.8,0.426506,99.32,1
238641,1,13183,0,47478,49582,47671.74,50269.43,-193.74,-687.43,0.42646,99.32,1
238681,1,13223,0,47353,49460,47671.1,50267.81,-318.1,-807.81,0.426414,99.32,1
238721,1,13263,0,47352,49532,47670.46,50266.34,-318.46,-734.34,0.426376,99.32,1
238761,1,13303,0,47397,49641,47669.92,50265.09,-272.92,-624.09,0.426344,99.32,1
238801,1,13343,0,47443,49748,47669.46,50264.06,-226.46,-516.06,0.426316,99.33,1
238841,1,13383,0,47482,49826,47669.09,50263.18,-187.09,-437.18,0.42629,99.33,1
238881,1,13423,0,47508,49831,47668.77,50262.32,-160.77,-431.32,0.426263,99.33,1
238921,1,13463,0,47500,49803,47668.43,50261.4,-168.43,-458.4,0.426234,99.33,1
238961,1,13503,0,47492,49803,47668.08,50260.49,-176.08,-457.49,0.426204,99.33,1
239001,1,13543,0,47506,49864,47667.76,50259.7,-161.76,-395.7,0.426175,99.33,1
239041,1,13583,0,47540,49946,47667.5,50259.07,-127.5,-313.07,0.426147,99.33,1
239081,1,13623,0,47580,50034,47667.33,50258.62,-87.33,-224.62,0.426119,99.33,1
239121,1,13663,0,47614,50107,47667.23,50258.32,-53.23,-151.32,0.42609,99.33,1
239161,1,13703,0,47637,50156,47667.17,50258.12,-30.17,-102.12,0.426061,99.33,1
239202,1,13744,0,47650,50177,47667.14,50257.96,-17.14,-80.96,0.426032,99.33,1
239242,1,13784,0,47660,50201,47667.12,50257.84,-7.12,-56.84,0.426003,99.33,1
239282,1,13824,0,47673,50238,47667.14,50257.8,5.86,-19.8,0.425974,99.33,1
239322,1,13864,0,47663,50091,47667.13,50257.47,-4.13,-166.47,0.425944,99.33,1
239362,1,13904,0,47539,49675,47666.87,50256.31,-127.87,-581.31,0.4259,99.33,1
239402,1,13944,0,47368,49393,47666.28,50254.58,-298.28,-861.58,0.425847,99.33,1
239442,1,13984,0,47309,49373,47665.56,50252.82,-356.56,-879.82,0.425797,99.33,1
239482,1,14024,0,47336,49462,47664.91,50251.24,-328.91,-789.24,0.425753,99.33,1
239522,1,14064,0,47377,49544,47664.33,50249.82,-287.33,-705.82,0.425711,99.34,1
239562,1,14104,0,47407,49619,47663.82,50248.56,-256.82,-629.56,0.425671,99.34,1
239602,1,14144,0,47436,49674,47663.37,50247.41,-227.37,-573.41,0.425632,99.34,1
239642,1,14184,0,47450,49676,47662.94,50246.27,-212.94,-570.27,0.425591,99.34,1
239682,1,14224,0,47445,49660,47662.51,50245.1,-217.51,-585.1,0.425549,99.34,1
239722,1,14264,0,47443,49685,47662.07,50243.98,-219.07,-558.98,0.425507,99.34,1
239762,1,14304,0,47468,49758,47661.68,50243.02,-193.68,-485.02,0.425465,99.34,1
239803,1,14345,0,47500,49845,47661.36,50242.22,-161.36,-397.22,0.425425,99.34,1
239843,1,14385,0,47536,49932,47661.11,50241.6,-125.11,-309.6,0.425384,99.34,1
239883,1,14425,0,47570,50000,47660.93,50241.12,-90.93,-241.12,0.425344,99.34,1
239923,1,14465,0,47596,50045,47660.8,50240.73,-64.8,-195.73,0.425303,99.34,1
239963,1,14505,0,47614,50075,47660.71,50240.4,-46.71,-165.4,0.425262,99.34,1
240003,1,14545,0,47623,50112,47660.64,50240.14,-37.64,-128.14,0.42522,99.34,1
240043,1,14585,0,47645,50158,47660.61,50239.98,-15.61,-81.98,0.425179,99.35,1
240083,1,14625,0,47669,50138,47660.62,50239.78,8.38,-101.78,0.425137,99.35,1
240123,1,14665,0,47607,49827,47660.52,50238.95,-53.52,-411.95,0.425088,99.35,1
240163,1,14705,0,47432,49430,47660.06,50237.34,-228.06,-807.34,0.425026,99.35,1
240203,1,14745,0,47321,49296,47659.39,50235.45,-338.39,-939.45,0.424959,99.35,1
240243,1,14785,0,47309,49353,47658.69,50233.69,-349.69,-880.69,0.424895,99.35,1
240283,1,14825,0,47346,49443,47658.06,50232.11,-312.06,-789.11,0.424833,99.35,1
240323,1,14865,0,47375,49521,47657.5,50230.69,-282.5,-709.69,0.424772,99.35,1
240364,1,14906,0,47408,49593,47657,50229.41,-249,-636.41,0.424712,99.35,1
240404,1,14946,0,47422,49612,47656.53,50228.18,-234.53,-616.18,0.424652,99.35,1
240444,1,14986,0,47412,49600,47656.04,50226.93,-244.04,-626.93,0.424593,99.35,1
240484,1,15026,0,47419,49613,47655.57,50225.7,-236.57,-612.7,0.424534,99.35,1
240524,1,15066,0,47438,49672,47655.14,50224.59,-217.14,-552.59,0.424475,99.36,1
240564,1,15106,0,47472,49767,47654.77,50223.68,-182.77,-456.68,0.424418,99.36,1
240604,1,15146,0,47512,49859,47654.49,50222.95,-142.49,-363.95,0.42436,99.36,1
240644,1,15186,0,47554,49937,47654.29,50222.38,-100.29,-285.38,0.424303,99.36,1
240684,1,15226,0,47587,49984,47654.16,50221.91,-67.16,-237.91,0.424244,99.36,1
240724,1,15266,0,47598,50017,47654.05,50221.5,-56.05,-204.5,0.424185,99.36,1
240764,1,15306,0,47616,50047,47653.97,50221.15,-37.97,-174.15,0.424126,99.36,1
240804,1,15346,0,47627,50081,47653.92,50220.87,-26.92,-139.87,0.424066,99.36,1
240844,1,15386,0,47646,50077,47653.91,50220.59,-7.91,-143.59,0.424005,99.36,1
240884,1,15426,0,47590,49802,47653.78,50219.75,-63.78,-417.75,0.423939,99.37,1
240924,1,15466,0,47431,49422,47653.34,50218.16,-222.34,-796.16,0.423863,99.37,1
240965,1,15507,0,47311,49287,47652.65,50216.3,-341.65,-929.3,0.423785,99.37,1
241005,1,15547,0,47304,49365,47651.96,50214.59,-347.96,-849.59,0.423712,99.37,1
241045,1,15587,0,47350,49477,47651.36,50213.12,-301.36,-736.12,0.423642,99.37,1
241085,1,15627,0,47391,49575,47650.84,50211.85,-259.84,-636.85,0.423574,99.37,1
241125,1,15667,0,47437,49660,47650.41,50210.75,-213.41,-550.75,0.423506,99.37,1
241165,1,15707,0,47452,49671,47650.02,50209.67,-198.02,-538.67,0.423438,99.37,1
241205,1,15747,0,47451,49646,47649.62,50208.54,-198.62,-562.54,0.423369,99.38,1
241245,1,15787,0,47448,49645,47649.21,50207.42,-201.21,-562.42,0.423299,99.38,1
241285,1,15827,0,47461,49700,47648.84,50206.41,-187.84,-506.41,0.423229,99.38,1
241325,1,15867,0,47493,49790,47648.53,50205.57,-155.53,-415.57,0.423159,99.38,1
241365,1,15907,0,47529,49873,47648.29,50204.91,-119.29,-331.91,0.423088,99.38,1
241405,1,15947,0,47564,49945,47648.12,50204.39,-84.12,-259.39,0.423018,99.38,1
241445,1,15987,0,47590,49994,47648.01,50203.97,-58.01,-209.97,0.422947,99.38,1
241485,1,16027,0,47603,50032,47647.92,50203.63,-44.92,-171.63,0.422875,99.38,1
241526,1,16068,0,47622,50061,47647.87,50203.34,-25.87,-142.34,0.422803,99.39,1
241566,1,16108,0,47608,49901,47647.79,50202.74,-39.79,-301.74,0.422729,99.39,1
241606,1,16148,0,47482,49535,47647.46,50201.41,-165.46,-666.41,0.422647,99.39,1
241646,1,16188,0,47339,49317,47646.84,50199.64,-307.84,-882.64,0.422562,99.39,1
241686,1,16228,0,47307,49353,47646.16,50197.95,-339.16,-844.95,0.42248,99.39,1
241726,1,16268,0,47346,49486,47645.57,50196.53,-299.57,-710.53,0.422403,99.39,1
241766,1,16308,0,47403,49614,47645.08,50195.36,-242.08,-581.36,0.422328,99.39,1
241806,1,16348,0,47457,49720,47644.71,50194.41,-187.71,-474.41,0.422253,99.4,1
241846,1,16388,0,47490,49741,47644.4,50193.51,-154.4,-452.51,0.422178,99.4,1
241886,1,16428,0,47484,49706,47644.08,50192.54,-160.08,-486.54,0.422102,99.4,1
241926,1,16468,0,47469,49703,47643.73,50191.56,-174.73,-488.56,0.422025,99.4,1
241966,1,16508,0,47480,49747,47643.4,50190.67,-163.4,-443.67,0.421948,99.4,1
242006,1,16548,0,47512,49836,47643.14,50189.96,-131.14,-353.96,0.421871,99.4,1
242046,1,16588,0,47544,49921,47642.95,50189.43,-98.95,-268.43,0.421794,99.4,1
242086,1,16628,0,47579,49991,47642.82,50189.04,-63.82,-198.04,0.421717,99.41,1
242127,1,16669,0,47607,50044,47642.75,50188.75,-35.75,-144.75,0.42164,99.41,1
242167,1,16709,0,47628,50111,47642.72,50188.59,-14.72,-77.59,0.421563,99.41,1
242207,1,16749,0,47629,49970,47642.7,50188.16,-13.7,-218.16,0.421485,99.41,1
242247,1,16789,0,47508,49592,47642.43,50186.96,-134.43,-594.96,0.4214,99.41,1
242287,1,16829,0,47360,49362,47641.86,50185.32,-281.86,-823.32,0.421312,99.41,1
242327,1,16869,0,47319,49397,47641.22,50183.74,-322.22,-786.74,0.421228,99.42,1
242367,1,16909,0,47362,49511,47640.66,50182.4,-278.66,-671.4,0.421147,99.42,1
242407,1,16949,0,47418,49631,47640.21,50181.3,-222.21,-550.3,0.421069,99.42,1
242447,1,16989,0,47474,49736,47639.88,50180.41,-165.88,-444.41,0.42099,99.42,1
242487,1,17029,0,47506,49789,47639.62,50179.62,-133.62,-390.62,0.420911,99.42,1
242527,1,17069,0,47512,49780,47639.36,50178.83,-127.36,-398.83,0.42083,99.42,1
242567,1,17109,0,47507,49763,47639.1,50178,-132.1,-415,0.420749,99.43,1
242607,1,17149,0,47516,49822,47638.86,50177.29,-122.86,-355.29,0.420667,99.43,1
242647,1,17189,0,47535,49902,47638.65,50176.73,-103.65,-274.73,0.420586,99.43,1
242688,1,17230,0,47573,49988,47638.52,50176.36,-65.52,-188.36,0.420504,99.43,1
242728,1,17270,0,47611,50073,47638.46,50176.15,-27.46,-103.15,0.420423,99.43,1
242768,1,17310,0,47644,50150,47638.48,50176.1,5.52,-26.1,0.420342,99.43,1
242808,1,17350,0,47665,50121,47638.53,50175.99,26.47,-54.99,0.420261,99.44,1
242848,1,17390,0,47594,49797,47638.45,50175.23,-44.45,-378.23,0.420177,99.44,1
242888,1,17430,0,47435,49484,47638.04,50173.85,-203.04,-689.85,0.420088,99.44,1
242928,1,17470,0,47362,49441,47637.49,50172.39,-275.49,-731.39,0.419999,99.44,1
242968,1,17510,0,47382,49534,47636.98,50171.11,-254.98,-637.11,0.419912,99.44,1
243008,1,17550,0,47430,49640,47636.57,50170.05,-206.57,-530.05,0.419827,99.45,1
243048,1,17590,0,47473,49750,47636.24,50169.21,-163.24,-419.21,0.419742,99.45,1
243088,1,17630,0,47519,49832,47636.01,50168.54,-117.01,-336.54,0.419657,99.45,1
243128,1,17670,0,47541,49846,47635.82,50167.89,-94.82,-321.89,0.419572,99.45,1
243168,1,17710,0,47535,49830,47635.62,50167.21,-100.62,-337.21,0.419485,99.45,1
243208,1,17750,0,47532,49856,47635.41,50166.59,-103.41,-310.59,0.419398,99.45,1
243248,1,17790,0,47553,49915,47635.25,50166.09,-82.25,-251.09,0.419311,99.46,1
243289,1,17831,0,47582,50002,47635.14,50165.77,-53.14,-163.77,0.419224,99.46,1
243329,1,17871,0,47623,50091,47635.12,50165.62,-12.12,-74.62,0.419137,99.46,1
243369,1,17911,0,47656,50178,47635.16,50165.64,20.84,12.36,0.41905,99.46,1
243409,1,17951,0,47689,50191,47635.27,50165.7,53.73,25.3,0.418964,99.46,1
243449,1,17991,0,47644,49920,47635.29,50165.21,8.71,-245.21,0.418877,99.47,1
243489,1,18031,0,47486,49566,47635,50164.01,-149,-598.01,0.418784,99.47,1
243529,1,18071,0,47393,49477,47634.51,50162.64,-241.51,-685.64,0.41869,99.47,1
243569,1,18111,0,47398,49551,47634.04,50161.42,-236.04,-610.42,0.418597,99.47,1
243609,1,18151,0,47444,49661,47633.66,50160.42,-189.66,-499.42,0.418506,99.47,1
243649,1,18191,0,47489,49771,47633.37,50159.64,-144.37,-388.64,0.418414,99.48,1
243689,1,18231,0,47534,49855,47633.17,50159.03,-99.17,-304.03,0.418322,99.48,1
243729,1,18271,0,47558,49875,47633.02,50158.46,-75.02,-283.46,0.41823,99.48,1
243769,1,18311,0,47551,49861,47632.86,50157.87,-81.86,-296.87,0.418136,99.48,1
243809,1,18351,0,47546,49875,47632.69,50157.31,-86.69,-282.31,0.418042,99.48,1
243850,1,18392,0,47565,49931,47632.55,50156.86,-67.55,-225.86,0.417948,99.49,1
243890,1,18432,0,47594,50006,47632.48,50156.55,-38.48,-150.55,0.417853,99.49,1
243930,1,18472,0,47625,50093,47632.46,50156.43,-7.46,-63.43,0.417759,99.49,1
243970,1,18512,0,47657,50158,47632.52,50156.43,24.48,1.57,0.417665,99.49,1
244010,1,18552,0,47685,50215,47632.62,50156.55,52.38,58.45,0.417572,99.49,1
244050,1,18592,0,47703,50169,47632.76,50156.58,70.24,12.42,0.417481,99.5,1
244090,1,18632,0,47616,49827,47632.73,50155.92,-16.73,-328.92,0.417386,99.5,1
244130,1,18672,0,47462,49526,47632.39,50154.66,-170.39,-628.66,0.417286,99.5,1
244170,1,18712,0,47396,49494,47631.92,50153.34,-235.92,-659.34,0.417185,99.5,1
244210,1,18752,0,47412,49588,47631.48,50152.21,-219.48,-564.21,0.417087,99.5,1
244250,1,18792,0,47458,49694,47631.13,50151.3,-173.13,-457.3,0.416989,99.51,1
244290,1,18832,0,47504,49790,47630.88,50150.58,-126.88,-360.58,0.416891,99.51,1
244330,1,18872,0,47537,49846,47630.69,50149.97,-93.69,-303.97,0.416792,99.51,1
244370,1,18912,0,47544,49836,47630.52,50149.34,-86.52,-313.34,0.416693,99.51,1
244410,1,18952,0,47528,49817,47630.32,50148.68,-102.32,-331.68,0.416593,99.52,1
244450,1,18992,0,47533,49845,47630.12,50148.07,-97.12,-303.07,0.416492,99.52,1
244491,1,19033,0,47552,49917,47629.96,50147.61,-77.96,-230.61,0.416392,99.52,1
244531,1,19073,0,47591,50008,47629.89,50147.34,-38.89,-139.34,0.416291,99.52,1
244571,1,19113,0,47621,50089,47629.87,50147.22,-8.87,-58.22,0.416191,99.52,1
244611,1,19153,0,47651,50143,47629.91,50147.21,21.09,-4.21,0.416091,99.53,1
244651,1,19193,0,47676,50195,47630.01,50147.31,45.99,47.69,0.415992,99.53,1
244691,1,19233,0,47694,50248,47630.14,50147.51,63.86,100.49,0.415894,99.53,1
244731,1,19273,0,47713,50229,47630.3,50147.68,82.7,81.32,0.415798,99.53,1
244771,1,19313,0,47659,49940,47630.36,50147.26,28.64,-207.26,0.415701,99.54,1
244811,1,19353,0,47511,49612,47630.12,50146.19,-119.12,-534.19,0.415598,99.54,1
244851,1,19393,0,47420,49555,47629.71,50145.01,-209.71,-590.01,0.415495,99.54,1
244891,1,19433,0,47430,49643,47629.31,50144.01,-199.31,-501.01,0.415393,99.54,1
244931,1,19473,0,47485,49758,47629.02,50143.24,-144.02,-385.24,0.415293,99.54,1
244971,1,19513,0,47528,49860,47628.82,50142.67,-100.82,-282.67,0.415193,99.55,1
245011,1,19553,0,47560,49915,47628.68,50142.22,-68.68,-227.22,0.415092,99.55,1
245051,1,19593,0,47567,49899,47628.56,50141.73,-61.56,-242.73,0.414991,99.55,1
245092,1,19634,0,47549,49878,47628.41,50141.21,-79.41,-263.21,0.414889,99.55,1
245132,1,19674,0,47550,49921,47628.25,50140.77,-78.25,-219.77,0.414788,99.56,1
245172,1,19714,0,47572,49988,47628.14,50140.46,-56.14,-152.46,0.414687,99.56,1
245212,1,19754,0,47617,50072,47628.12,50140.33,-11.12,-68.33,0.414586,99.56,1
245252,1,19794,0,47642,50153,47628.15,50140.36,13.85,12.64,0.414485,99.56,1
245292,1,19834,0,47674,50224,47628.24,50140.52,45.76,83.48,0.414385,99.57,1
245332,1,19874,0,47704,50266,47628.39,50140.78,75.61,125.22,0.414287,99.57,1
245372,1,19914,0,47725,50297,47628.59,50141.09,96.41,155.91,0.41419,99.57,1
245412,1,19954,0,47735,50231,47628.8,50141.27,106.2,89.73,0.414096,99.57,1
245452,1,19994,0,47633,49894,47628.81,50140.78,4.19,-246.78,0.414001,99.57,1
245492,1,20034,0,47486,49627,47628.53,50139.75,-142.53,-512.75,0.413902,99.58,1
245532,1,20074,0,47436,49632,47628.14,50138.73,-192.14,-506.73,0.413804,99.58,1
245572,1,20114,0,47462,49741,47627.81,50137.94,-165.81,-396.94,0.413708,99.58,1
245612,1,20154,0,47511,49846,47627.58,50137.36,-116.58,-291.36,0.413613,99.58,1
245653,1,20195,0,47556,49942,47627.44,50136.97,-71.44,-194.97,0.413518,99.59,1
245693,1,20235,0,47586,49987,47627.36,50136.67,-41.36,-149.67,0.413423,99.59,1
245733,1,20275,0,47585,49976,47627.28,50136.35,-42.28,-160.35,0.413329,99.59,1
245773,1,20315,0,47580,49969,47627.18,50136.02,-47.18,-167.02,0.413234,99.59,1
245813,1,20355,0,47588,50012,47627.11,50135.77,-39.11,-123.77,0.413139,99.6,1
245853,1,20395,0,47610,50100,47627.07,50135.7,-17.07,-35.7,0.413044,99.6,1
245893,1,20435,0,47654,50191,47627.13,50135.82,26.87,55.18,0.41295,99.6,1
245933,1,20475,0,47695,50270,47627.27,50136.09,67.73,133.91,0.412857,99.6,1
245973,1,20515,0,47727,50331,47627.46,50136.48,99.54,194.52,0.412765,99.6,1
246013,1,20555,0,47747,50384,47627.71,50136.97,119.29,247.03,0.412676,99.61,1
246053,1,20595,0,47771,50385,47628,50137.47,143,247.53,0.412591,99.61,1
246093,1,20635,0,47726,50112,47628.19,50137.42,97.81,-25.42,0.412508,99.61,1
246133,1,20675,0,47566,49754,47628.07,50136.65,-62.07,-382.65,0.412422,99.61,1
246173,1,20715,0,47456,49658,47627.72,50135.7,-171.72,-477.7,0.412335,99.62,1
246213,1,20755,0,47460,49731,47627.39,50134.89,-167.39,-403.89,0.41225,99.62,1
246254,1,20796,0,47503,49840,47627.14,50134.3,-124.14,-294.3,0.412167,99.62,1
246294,1,20836,0,47544,49941,47626.98,50133.91,-82.98,-192.91,0.412085,99.62,1
246334,1,20876,0,47583,50023,47626.89,50133.69,-43.89,-110.69,0.412003,99.63,1
246374,1,20916,0,47612,50046,47626.86,50133.52,-14.86,-87.52,0.41192,99.63,1
246414,1,20956,0,47607,50032,47626.82,50133.31,-19.82,-101.31,0.411838,99.63,1
246454,1,20996,0,47604,50052,47626.78,50133.15,-22.78,-81.15,0.411756,99.63,1
246494,1,21036,0,47629,50115,47626.79,50133.12,2.21,-18.12,0.411675,99.63,1
246534,1,21076,0,47663,50194,47626.86,50133.24,36.14,60.76,0.411593,99.64,1
246574,1,21116,0,47701,50277,47627.01,50133.53,73.99,143.47,0.411513,99.64,1
246614,1,21156,0,47732,50351,47627.22,50133.97,104.78,217.03,0.411435,99.64,1
246654,1,21196,0,47756,50400,47627.48,50134.5,128.52,265.5,0.411359,99.64,1
246694,1,21236,0,47784,50447,47627.79,50135.13,156.21,311.87,0.411287,99.65,1
246734,1,21276,0,47798,50463,47628.13,50135.79,169.87,327.21,0.41122,99.65,1
246774,1,21316,0,47760,50204,47628.39,50135.92,131.61,68.08,0.411159,99.65,1
246815,1,21357,0,47599,49824,47628.34,50135.3,-29.34,-311.3,0.411094,99.65,1
246855,1,21397,0,47479,49700,47628.04,50134.43,-149.04,-434.43,0.411028,99.65,1
246895,1,21437,0,47471,49768,47627.73,50133.7,-156.73,-365.7,0.410964,99.66,1
246935,1,21477,0,47515,49870,47627.5,50133.17,-112.5,-263.17,0.410901,99.66,1
246975,1,21517,0,47554,49966,47627.36,50132.84,-73.36,-166.84,0.410839,99.66,1
247015,1,21557,0,47596,50058,47627.3,50132.69,-31.3,-74.69,0.410777,99.66,1
247055,1,21597,0,47622,50101,47627.29,50132.63,-5.29,-31.63,0.410715,99.67,1
247095,1,21637,0,47632,50096,47627.3,50132.56,4.7,-36.56,0.410654,99.67,1
247135,1,21677,0,47636,50105,47627.32,50132.5,8.68,-27.5,0.410593,99.67,1
247175,1,21717,0,47649,50169,47627.36,50132.58,21.64,36.42,0.410532,99.67,1
247215,1,21757,0,47677,50249,47627.46,50132.81,49.54,116.19,0.410471,99.67,1
247255,1,21797,0,47720,50340,47627.65,50133.23,92.35,206.77,0.410411,99.68,1
247295,1,21837,0,47754,50419,47627.91,50133.8,126.09,285.2,0.410354,99.68,1
247335,1,21877,0,47780,50471,47628.21,50134.48,151.79,336.52,0.410299,99.68,1
247375,1,21917,0,47797,50512,47628.55,50135.23,168.45,376.77,0.410247,99.68,1
247416,1,21958,0,47816,50551,47628.93,50136.07,187.07,414.93,0.410199,99.68,1
247456,1,21998,0,47828,50529,47629.32,50136.86,198.68,392.14,0.410158,99.69,1
247496,1,22038,0,47759,50226,47629.59,50137.04,129.41,88.96,0.410122,99.69,1
247536,1,22078,0,47604,49886,47629.54,50136.54,-25.54,-250.54,0.410084,99.69,1
247576,1,22118,0,47510,49808,47629.3,50135.88,-119.3,-327.88,0.410045,99.69,1
247616,1,22158,0,47517,49890,47629.07,50135.39,-112.07,-245.39,0.410008,99.69,1
247656,1,22198,0,47561,49987,47628.94,50135.09,-67.94,-148.09,0.409971,99.69,1
247696,1,22238,0,47596,50071,47628.87,50134.96,-32.87,-63.96,0.409935,99.7,1
247736,1,22278,0,47640,50154,47628.89,50135,11.11,19,0.409898,99.7,1
247776,1,22318,0,47662,50182,47628.96,50135.1,33.04,46.9,0.409862,99.7,1
247816,1,22358,0,47663,50181,47629.03,50135.19,33.97,45.81,0.409827,99.7,1
247856,1,22398,0,47666,50196,47629.11,50135.31,36.89,60.69,0.409792,99.7,1
247896,1,22438,0,47677,50256,47629.2,50135.55,47.8,120.45,0.409757,99.7,1
247936,1,22478,0,47707,50336,47629.36,50135.96,77.64,200.04,0.409723,99.71,1
247976,1,22518,0,47744,50424,47629.59,50136.54,114.41,287.46,0.409689,99.71,1
248017,1,22559,0,47776,50501,47629.88,50137.27,146.12,363.73,0.409656,99.71,1
248057,1,22599,0,47808,50567,47630.24,50138.12,177.76,428.87,0.409625,99.71,1
248097,1,22639,0,47824,50620,47630.63,50139.09,193.37,480.91,0.409595,99.71,1
248137,1,22679,0,47841,50654,47631.05,50140.12,209.95,513.88,0.409568,99.71,1
248177,1,22719,0,47860,50699,47631.52,50141.24,228.48,557.76,0.409544,99.71,1
248217,1,22759,0,47880,50728,47632.02,50142.41,247.98,585.59,0.409524,99.72,1
248257,1,22799,0,47846,50488,47632.45,50143.11,213.55,344.89,0.409513,99.72,1
248297,1,22839,0,47703,50105,47632.59,50143.03,70.41,-38.03,0.409505,99.72,1
248337,1,22879,0,47577,49943,47632.48,50142.63,-55.48,-199.63,0.409495,99.72,1
248377,1,22919,0,47555,49984,47632.32,50142.32,-77.32,-158.32,0.409486,99.72,1
248417,1,22959,0,47587,50066,47632.23,50142.16,-45.23,-76.16,0.409478,99.72,1
248457,1,22999,0,47622,50144,47632.21,50142.17,-10.21,1.83,0.40947,99.72,1
248497,1,23039,0,47657,50227,47632.27,50142.34,24.73,84.66,0.409461,99.73,1
248537,1,23079,0,47689,50274,47632.38,50142.61,56.62,131.39,0.409453,99.73,1
248577,1,23119,0,47688,50278,47632.49,50142.88,55.51,135.12,0.409445,99.73,1
248618,1,23160,0,47683,50287,47632.59,50143.17,50.41,143.83,0.409437,99.73,1
248658,1,23200,0,47689,50338,47632.71,50143.56,56.29,194.44,0.409427,99.73,1
248698,1,23240,0,47718,50422,47632.88,50144.12,85.12,277.88,0.409417,99.73,1
248738,1,23280,0,47750,50512,47633.11,50144.86,116.89,367.14,0.409404,99.73,1
248778,1,23320,0,47789,50592,47633.43,50145.75,155.57,446.25,0.409389,99.73,1
248818,1,23360,0,47821,50663,47633.8,50146.79,187.2,516.21,0.409372,99.73,1
248858,1,23400,0,47852,50720,47634.24,50147.93,217.76,572.07,0.409356,99.73,1
248898,1,23440,0,47874,50763,47634.72,50149.16,239.28,613.84,0.40934,99.74,1
248938,1,23480,0,47895,50798,47635.24,50150.46,259.76,647.54,0.409326,99.74,1
248978,1,23520,0,47904,50839,47635.78,50151.84,268.22,687.16,0.409312,99.74,1
249018,1,23560,0,47923,50879,47636.36,50153.3,286.64,725.7,0.409301,99.74,1
249058,1,23600,0,47939,50919,47636.96,50154.83,302.04,764.17,0.40929,99.74,1
249098,1,23640,0,47952,50894,47637.59,50156.31,314.41,737.69,0.409286,99.74,1
249138,1,23680,0,47878,50580,47638.07,50157.16,239.93,422.84,0.40929,99.74,1
249179,1,23721,0,47714,50217,47638.23,50157.28,75.77,59.72,0.409296,99.74,1
249219,1,23761,0,47607,50095,47638.16,50157.16,-31.16,-62.16,0.409303,99.74,1
249259,1,23801,0,47598,50165,47638.09,50157.17,-40.09,7.83,0.409309,99.74,1
249299,1,23841,0,47635,50267,47638.08,50157.39,-3.08,109.61,0.409315,99.74,1
249339,1,23881,0,47680,50364,47638.17,50157.81,41.83,206.19,0.40932,99.74,1
249379,1,23921,0,47709,50437,47638.31,50158.37,70.69,278.63,0.409322,99.75,1
249419,1,23961,0,47724,50441,47638.48,50158.93,85.52,282.07,0.409323,99.75,1
249459,1,24001,0,47721,50413,47638.65,50159.44,82.35,253.56,0.409323,99.75,1
249499,1,24041,0,47714,50412,47638.8,50159.95,75.2,252.05,0.409322,99.75,1
249539,1,24081,0,47720,50462,47638.97,50160.55,81.03,301.45,0.409318,99.75,1
249579,1,24121,0,47753,50538,47639.2,50161.31,113.8,376.69,0.409312,99.75,1
249619,1,24161,0,47780,50618,47639.48,50162.23,140.52,455.77,0.409302,99.75,1
249659,1,24201,0,47817,50686,47639.84,50163.28,177.16,522.72,0.40929,99.75,1
249699,1,24241,0,47834,50740,47640.23,50164.43,193.77,575.57,0.409274,99.75,1
249739,1,24281,0,47849,50780,47640.64,50165.67,208.36,614.33,0.409254,99.75,1
249780,1,24322,0,47867,50811,47641.1,50166.96,225.9,644.04,0.409231,99.75,1
249820,1,24362,0,47878,50846,47641.57,50168.32,236.43,677.68,0.409205,99.75,1
249860,1,24402,0,47889,50872,47642.07,50169.73,246.93,702.27,0.409176,99.75,1
249900,1,24442,0,47863,50688,47642.51,50170.77,220.49,517.23,0.40915,99.75,1
249940,1,24482,0,47742,50348,47642.71,50171.12,99.29,176.87,0.409126,99.75,1
249980,1,24522,0,47615,50173,47642.66,50171.13,-27.66,1.87,0.409102,99.75,1
250020,1,24562,0,47597,50205,47642.57,50171.2,-45.57,33.8,0.409079,99.75,1
250060,1,24602,0,47630,50314,47642.54,50171.48,-12.54,142.52,0.409055,99.76,1
250100,1,24642,0,47684,50429,47642.63,50172,41.37,257,0.409029,99.76,1
250140,1,24682,0,47724,50519,47642.79,50172.7,81.21,346.3,0.408999,99.76,1
250180,1,24722,0,47745,50526,47643,50173.4,102,352.6,0.408968,99.76,1
250220,1,24762,0,47737,50484,47643.19,50174.02,93.81,309.98,0.408935,99.76,1
250260,1,24802,0,47716,50460,47643.34,50174.6,72.66,285.4,0.4089,99.76,1
250300,1,24842,0,47718,50501,47643.49,50175.25,74.51,325.75,0.408863,99.76,1
250340,1,24882,0,47739,50573,47643.68,50176.05,95.32,396.95,0.408821,99.76,1
250381,1,24923,0,47771,50652,47643.94,50177,127.06,475,0.408775,99.76,1
250421,1,24963,0,47798,50731,47644.25,50178.11,153.75,552.89,0.408723,99.76,1
250461,1,25003,0,47824,50801,47644.61,50179.36,179.39,621.64,0.408665,99.76,1
250501,1,25043,0,47849,50839,47645.02,50180.68,203.98,658.32,0.408602,99.76,1
250541,1,25083,0,47864,50883,47645.45,50182.08,218.55,700.92,0.408534,99.76,1
250581,1,25123,0,47873,50826,47645.91,50183.37,227.09,642.63,0.408465,99.76,1
250621,1,25163,0,47786,50496,47646.19,50184,139.81,312,0.408398,99.76,1
250661,1,25203,0,47640,50178,47646.18,50183.98,-6.18,-5.98,0.408331,99.77,1
250701,1,25243,0,47556,50113,47646,50183.84,-90,-70.84,0.408267,99.77,1
250741,1,25283,0,47568,50195,47645.84,50183.87,-77.84,11.13,0.408204,99.77,1
250781,1,25323,0,47602,50306,47645.76,50184.11,-43.76,121.89,0.408142,99.77,1
250821,1,25363,0,47656,50403,47645.78,50184.55,10.22,218.45,0.408078,99.77,1
250861,1,25403,0,47685,50455,47645.86,50185.09,39.14,269.91,0.408012,99.77,1
250901,1,25443,0,47679,50430,47645.93,50185.59,33.07,244.41,0.407944,99.77,1
250941,1,25483,0,47663,50387,47645.96,50185.99,17.04,201.01,0.407874,99.77,1
250982,1,25524,0,47655,50379,47645.98,50186.37,9.02,192.62,0.407804,99.77,1
251022,1,25564,0,47660,50439,47646.01,50186.88,13.99,252.12,0.40773,99.77,1
251062,1,25604,0,47687,50520,47646.09,50187.55,40.91,332.45,0.407653,99.77,1
251102,1,25644,0,47722,50603,47646.24,50188.38,75.76,414.62,0.407571,99.78,1
251142,1,25684,0,47756,50678,47646.46,50189.36,109.54,488.64,0.407484,99.78,1
251182,1,25724,0,47783,50741,47646.74,50190.47,136.26,550.53,0.40739,99.78,1
251222,1,25764,0,47804,50783,47647.05,50191.66,156.95,591.34,0.40729,99.78,1
251262,1,25804,0,47815,50695,47647.39,50192.66,167.61,502.34,0.40719,99.78,1
251302,1,25844,0,47718,50339,47647.53,50192.96,70.47,146.04,0.407091,99.78,1
251342,1,25884,0,47565,50028,47647.37,50192.63,-82.37,-164.63,0.406992,99.78,1
251382,1,25924,0,47470,49963,47647.02,50192.17,-177.02,-229.17,0.406902,99.78,1
251422,1,25964,0,47481,50029,47646.68,50191.85,-165.68,-162.85,0.40682,99.79,1
251462,1,26004,0,47510,50114,47646.41,50191.69,-136.41,-77.69,0.406744,99.79,1
251502,1,26044,0,47538,50202,47646.2,50191.71,-108.2,10.29,0.406671,99.79,1
251542,1,26084,0,47568,50258,47646.04,50191.85,-78.04,66.15,0.4066,99.79,1
251583,1,26125,0,47588,50258,47645.93,50191.98,-57.93,66.02,0.406531,99.79,1
251623,1,26165,0,47574,50243,47645.78,50192.08,-71.78,50.92,0.406463,99.79,1
251663,1,26205,0,47568,50265,47645.62,50192.23,-77.62,72.77,0.406398,99.79,1
251703,1,26245,0,47586,50327,47645.51,50192.5,-59.51,134.5,0.406332,99.8,1
251743,1,26285,0,47622,50412,47645.46,50192.94,-23.46,219.06,0.406265,99.8,1
251783,1,26325,0,47657,50507,47645.48,50193.57,11.52,313.43,0.406194,99.8,1
251823,1,26365,0,47689,50581,47645.57,50194.35,43.43,386.65,0.406118,99.8,1
251863,1,26405,0,47726,50635,47645.73,50195.23,80.27,439.77,0.406035,99.8,1
251903,1,26445,0,47745,50674,47645.93,50196.19,99.07,477.81,0.405946,99.8,1
251943,1,26485,0,47759,50670,47646.16,50197.14,112.84,472.86,0.405852,99.8,1
251983,1,26525,0,47708,50397,47646.29,50197.54,61.71,199.46,0.405758,99.81,1
252023,1,26565,0,47553,50036,47646.1,50197.22,-93.1,-161.22,0.405666,99.81,1
252063,1,26605,0,47438,49894,47645.69,50196.61,-207.69,-302.61,0.405585,99.81,1
252103,1,26645,0,47417,49928,47645.23,50196.08,-228.23,-268.08,0.405518,99.81,1
252143,1,26685,0,47444,49993,47644.83,50195.67,-200.83,-202.67,0.405464,99.81,1
252184,1,26726,0,47470,50056,47644.48,50195.39,-174.48,-139.39,0.405418,99.81,1
252224,1,26766,0,47493,50131,47644.18,50195.27,-151.18,-64.27,0.405381,99.82,1
252264,1,26806,0,47515,50170,47643.92,50195.21,-128.92,-25.21,0.405349,99.82,1
252304,1,26846,0,47521,50169,47643.68,50195.16,-122.68,-26.16,0.405322,99.82,1
252344,1,26886,0,47525,50182,47643.44,50195.14,-118.44,-13.14,0.4053,99.82,1
252384,1,26926,0,47536,50239,47643.23,50195.23,-107.23,43.77,0.405282,99.82,1
252424,1,26966,0,47559,50318,47643.06,50195.48,-84.06,122.52,0.405266,99.82,1
252464,1,27006,0,47600,50402,47642.97,50195.89,-42.97,206.11,0.405248,99.82,1
252504,1,27046,0,47644,50473,47642.98,50196.45,1.02,276.55,0.405227,99.83,1
252544,1,27086,0,47670,50532,47643.03,50197.12,26.97,334.88,0.4052,99.83,1
252584,1,27126,0,47687,50576,47643.12,50197.87,43.88,378.12,0.405167,99.83,1
252624,1,27166,0,47706,50612,47643.25,50198.7,62.75,413.3,0.405127,99.83,1
252664,1,27206,0,47723,50632,47643.41,50199.57,79.59,432.43,0.40508,99.83,1
252704,1,27246,0,47693,50436,47643.51,50200.04,49.49,235.96,0.405032,99.83,1
252744,1,27286,0,47557,50075,47643.34,50199.79,-86.34,-124.79,0.404985,99.83,1
252784,1,27326,0,47427,49884,47642.91,50199.16,-215.91,-315.16,0.404951,99.83,1
252825,1,27367,0,47387,49893,47642.4,50198.55,-255.4,-305.55,0.404935,99.84,1
252865,1,27407,0,47407,49965,47641.93,50198.09,-234.93,-233.09,0.404936,99.84,1
252905,1,27447,0,47436,50042,47641.52,50197.78,-205.52,-155.78,0.40495,99.84,1
252945,1,27487,0,47469,50114,47641.18,50197.61,-172.18,-83.61,0.404974,99.84,1
252985,1,27527,0,47496,50155,47640.89,50197.53,-144.89,-42.53,0.405005,99.84,1
253025,1,27567,0,47498,50145,47640.6,50197.42,-142.6,-52.42,0.405044,99.84,1
253065,1,27607,0,47493,50139,47640.31,50197.3,-147.31,-58.3,0.405089,99.84,1
253105,1,27647,0,47504,50184,47640.04,50197.28,-136.04,-13.28,0.405141,99.84,1
253145,1,27687,0,47529,50258,47639.82,50197.4,-110.82,60.6,0.405197,99.84,1
253185,1,27727,0,47562,50341,47639.66,50197.69,-77.66,143.31,0.405254,99.84,1
253225,1,27767,0,47595,50411,47639.57,50198.12,-44.57,212.88,0.405308,99.85,1
253265,1,27807,0,47625,50461,47639.54,50198.65,-14.54,262.35,0.405359,99.85,1
253305,1,27847,0,47645,50503,47639.55,50199.26,5.45,303.74,0.405404,99.85,1
253345,1,27887,0,47656,50535,47639.59,50199.93,16.41,335.07,0.405442,99.85,1
253386,1,27928,0,47668,50563,47639.65,50200.66,28.35,362.34,0.405473,99.85,1
253426,1,27968,0,47655,50431,47639.68,50201.12,15.32,229.88,0.405501,99.85,1
253466,1,28008,0,47541,50106,47639.48,50200.93,-98.48,-94.93,0.405533,99.85,1
253506,1,28048,0,47413,49906,47639.03,50200.34,-226.03,-294.34,0.405577,99.85,1
253546,1,28088,0,47380,49917,47638.52,50199.77,-258.52,-282.77,0.405642,99.85,1
253586,1,28128,0,47407,50014,47638.05,50199.4,-231.05,-185.4,0.405724,99.85,1
253626,1,28168,0,47443,50120,47637.66,50199.25,-194.66,-79.25,0.405819,99.85,1
253666,1,28208,0,47494,50203,47637.38,50199.25,-143.38,3.75,0.405922,99.85,1
253706,1,28248,0,47521,50217,47637.15,50199.29,-116.15,17.71,0.406029,99.85,1
253746,1,28288,0,47510,50190,47636.89,50199.27,-126.89,-9.27,0.406141,99.85,1
253786,1,28328,0,47498,50185,47636.62,50199.25,-138.62,-14.25,0.406261,99.85,1
253826,1,28368,0,47506,50227,47636.36,50199.3,-130.36,27.7,0.406386,99.85,1
253866,1,28408,0,47536,50304,47636.16,50199.52,-100.16,104.48,0.406514,99.85,1
253906,1,28448,0,47566,50385,47636.02,50199.89,-70.02,185.11,0.406641,99.85,1
253946,1,28488,0,47596,50451,47635.94,50200.39,-39.94,250.61,0.406764,99.85,1
253987,1,28529,0,47622,50501,47635.91,50200.99,-13.91,300.01,0.406881,99.85,1
254027,1,28569,0,47639,50540,47635.92,50201.67,3.08,338.33,0.406989,99.85,1
254067,1,28609,0,47655,50576,47635.96,50202.42,19.04,373.58,0.407088,99.85,1
254107,1,28649,0,47642,50429,47635.97,50202.87,6.03,226.12,0.407183,99.85,1
254147,1,28689,0,47533,50091,47635.77,50202.65,-102.77,-111.65,0.407281,99.84,1
254187,1,28729,0,47411,49902,47635.32,50202.05,-224.32,-300.05,0.407392,99.84,1
254227,1,28769,0,47366,49920,47634.78,50201.49,-268.78,-281.49,0.407525,99.84,1
254267,1,28809,0,47400,50004,47634.31,50201.09,-234.31,-197.09,0.407676,99.84,1
254307,1,28849,0,47440,50097,47633.92,50200.89,-193.92,-103.89,0.40784,99.84,1
254347,1,28889,0,47472,50187,47633.6,50200.86,-161.6,-13.86,0.408014,99.84,1
254387,1,28929,0,47493,50209,47633.32,50200.88,-140.32,8.12,0.408194,99.84,1
254427,1,28969,0,47502,50187,47633.05,50200.85,-131.05,-13.85,0.40838,99.84,1
254467,1,29009,0,47489,50176,47632.77,50200.8,-143.77,-24.8,0.408574,99.83,1
254507,1,29049,0,47495,50214,47632.5,50200.83,-137.5,13.17,0.408775,99.83,1
254548,1,29090,0,47520,50290,47632.27,50201.01,-112.27,88.99,0.408979,99.83,1
254588,1,29130,0,47551,50374,47632.11,50201.36,-81.11,172.64,0.409183,99.83,1
254628,1,29170,0,47583,50451,47632.02,50201.86,-49.02,249.14,0.409382,99.83,1
254668,1,29210,0,47613,50503,47631.98,50202.46,-18.98,300.54,0.409573,99.83,1
254708,1,29250,0,47637,50561,47631.99,50203.18,5.01,357.82,0.409754,99.82,1
254748,1,29290,0,47656,50563,47632.04,50203.91,23.96,359.09,0.409924,99.82,1
254788,1,29330,0,47616,50312,47632.01,50204.12,-16.01,107.87,0.410093,99.82,1
254828,1,29370,0,47472,49960,47631.69,50203.64,-159.69,-243.64,0.410267,99.82,1
254868,1,29410,0,47359,49821,47631.15,50202.87,-272.15,-381.87,0.410458,99.81,1
254908,1,29450,0,47340,49854,47630.57,50202.18,-290.57,-348.18,0.410673,99.81,1
254948,1,29490,0,47369,49921,47630.04,50201.61,-261.04,-280.61,0.410906,99.81,1
254988,1,29530,0,47397,49994,47629.58,50201.2,-232.58,-207.2,0.411155,99.81,1
255028,1,29570,0,47427,50070,47629.18,50200.94,-202.18,-130.94,0.411418,99.8,1
255068,1,29610,0,47454,50102,47628.83,50200.74,-174.83,-98.74,0.411691,99.8,1
255109,1,29651,0,47455,50089,47628.48,50200.52,-173.48,-111.52,0.411974,99.8,1
255149,1,29691,0,47454,50102,47628.13,50200.32,-174.13,-98.32,0.412266,99.8,1
255189,1,29731,0,47458,50151,47627.79,50200.23,-169.79,-49.23,0.412569,99.79,1
255229,1,29771,0,47490,50229,47627.52,50200.29,-137.52,28.71,0.412877,99.79,1
255269,1,29811,0,47531,50319,47627.33,50200.52,-96.33,118.48,0.413187,99.78,1
255309,1,29851,0,47570,50397,47627.21,50200.92,-57.21,196.08,0.413494,99.78,1
255349,1,29891,0,47598,50454,47627.16,50201.43,-29.16,252.57,0.413794,99.78,1
255389,1,29931,0,47626,50494,47627.16,50202.01,-1.16,291.99,0.414085,99.77,1
255429,1,29971,0,47649,50525,47627.2,50202.66,21.8,322.34,0.414367,99.77,1
255469,1,30011,1,47637,50363,47627.22,50202.98,9.78,160.02,0.414645,99.77,1
255509,1,30051,1,47504,49985,47626.97,50202.55,-122.97,-217.55,0.414923,99.76,1
255549,1,30091,1,47358,49749,47626.44,50201.64,-268.44,-452.64,0.415211,99.76,1
255589,1,30131,1,47306,49729,47625.8,50200.7,-319.8,-471.7,0.415517,99.75,1
255629,1,30171,1,47324,49792,47625.2,50199.88,-301.2,-407.88,0.415841,99.75,1
255669,1,30211,1,47348,49848,47624.64,50199.18,-276.64,-351.18,0.41618,99.74,1
255710,1,30252,1,47378,49928,47624.15,50198.63,-246.15,-270.63,0.416534,99.74,1
255750,1,30292,1,47412,49997,47623.73,50198.23,-211.73,-201.23,0.4169,99.73,1
255790,1,30332,1,47429,50020,47623.34,50197.87,-194.34,-177.87,0.417275,99.73,1
255830,1,30372,1,47431,50022,47622.96,50197.52,-191.96,-175.52,0.417659,99.72,1
255870,1,30412,1,47440,50069,47622.59,50197.27,-182.59,-128.27,0.418053,99.72,1
255910,1,30452,1,47469,50148,47622.29,50197.17,-153.29,-49.17,0.418454,99.71,1
255950,1,30492,1,47514,50240,47622.07,50197.26,-108.07,42.74,0.418858,99.71,1
255990,1,30532,1,47555,50318,47621.94,50197.5,-66.94,120.5,0.419261,99.7,1
256030,1,30572,1,47586,50384,47621.87,50197.87,-35.87,186.12,0.419659,99.7,1
256070,1,30612,1,47612,50436,47621.85,50198.35,-9.85,237.65,0.420051,99.69,1
256110,1,30652,1,47631,50470,47621.87,50198.89,9.13,271.11,0.420434,99.68,1
256150,1,30692,1,47652,50510,47621.93,50199.52,30.07,310.48,0.420806,99.68,1
256190,1,30732,1,47655,50438,47622,50200,33,238,0.421172,99.67,1
256230,1,30772,1,47561,50096,47621.88,50199.79,-60.88,-103.79,0.421537,99.67,1
256270,1,30812,1,47404,49796,47621.45,50198.98,-217.45,-402.98,0.421903,99.66,1
256311,1,30853,1,47327,49725,47620.86,50198.04,-293.86,-473.04,0.422277,99.65,1
256351,1,30893,1,47332,49791,47620.28,50197.23,-288.28,-406.23,0.422665,99.65,1
256391,1,30933,1,47360,49864,47619.76,50196.56,-259.76,-332.56,0.423064,99.64,1
256431,1,30973,1,47395,49941,47619.31,50196.05,-224.31,-255.05,0.423475,99.63,1
256471,1,31013,1,47434,50030,47618.94,50195.72,-184.94,-165.72,0.423893,99.63,1
256511,1,31053,1,47459,50072,47618.62,50195.47,-159.62,-123.47,0.424318,99.62,1
256551,1,31093,1,47470,50072,47618.32,50195.23,-148.32,-123.23,0.424748,99.61,1
256591,1,31133,1,47477,50091,47618.04,50195.02,-141.04,-104.02,0.425183,99.6,1
256631,1,31173,1,47493,50152,47617.79,50194.93,-124.79,-42.93,0.425622,99.6,1
256671,1,31213,1,47530,50246,47617.62,50195.04,-87.62,50.96,0.426062,99.59,1
256711,1,31253,1,47568,50342,47617.52,50195.33,-49.52,146.67,0.426499,99.58,1
256751,1,31293,1,47609,50416,47617.5,50195.77,-8.5,220.23,0.42693,99.57,1
256791,1,31333,1,47638,50468,47617.55,50196.32,20.45,271.68,0.427352,99.57,1
256831,1,31373,1,47657,50511,47617.63,50196.95,39.37,314.05,0.427762,99.56,1
256871,1,31413,1,47671,50545,47617.74,50197.65,53.26,347.35,0.428159,99.55,1
256912,1,31454,1,47685,50574,47617.87,50198.4,67.12,375.6,0.428541,99.54,1
256952,1,31494,1,47705,50619,47618.05,50199.25,86.95,419.75,0.428907,99.54,1
256992,1,31534,1,47717,50676,47618.25,50200.2,98.75,475.8,0.429253,99.53,1
257032,1,31574,1,47748,50729,47618.51,50201.26,129.49,527.74,0.429576,99.52,1
257072,1,31614,1,47732,50547,47618.74,50201.95,113.26,345.05,0.429892,99.51,1
257112,1,31654,1,47594,50166,47618.69,50201.88,-24.69,-35.88,0.430207,99.5,1
257152,1,31694,1,47450,49942,47618.36,50201.36,-168.36,-259.36,0.430525,99.5,1
257192,1,31734,1,47407,49947,47617.93,50200.85,-210.93,-253.85,0.430852,99.49,1
257232,1,31774,1,47450,50036,47617.6,50200.52,-167.6,-164.52,0.431186,99.48,1
257272,1,31814,1,47489,50131,47617.34,50200.39,-128.34,-69.39,0.431525,99.47,1
257312,1,31854,1,47529,50218,47617.16,50200.42,-88.16,17.58,0.431866,99.46,1
257352,1,31894,1,47555,50248,47617.04,50200.52,-62.04,47.48,0.432207,99.46,1
257392,1,31934,1,47553,50236,47616.91,50200.59,-63.91,35.41,0.432549,99.45,1
257432,1,31974,1,47539,50223,47616.76,50200.64,-77.76,22.36,0.432892,99.44,1
257472,1,32014,1,47544,50259,47616.61,50200.75,-72.61,58.25,0.433235,99.43,1
257513,1,32055,1,47572,50327,47616.52,50201.01,-44.52,125.99,0.433577,99.42,1
257553,1,32095,1,47599,50409,47616.49,50201.43,-17.49,207.57,0.433913,99.41,1
257593,1,32135,1,47635,50490,47616.53,50202,18.47,288,0.43424,99.41,1
257633,1,32175,1,47663,50557,47616.62,50202.71,46.38,354.29,0.434553,99.4,1
257673,1,32215,1,47694,50608,47616.78,50203.53,77.22,404.47,0.43485,99.39,1
257713,1,32255,1,47712,50646,47616.97,50204.41,95.03,441.59,0.435131,99.38,1
257753,1,32295,1,47727,50669,47617.19,50205.34,109.81,463.66,0.435394,99.37,1
257793,1,32335,1,47735,50610,47617.43,50206.16,117.57,403.84,0.435646,99.37,1
257833,1,32375,1,47662,50334,47617.52,50206.41,44.48,127.59,0.435896,99.36,1
257873,1,32415,1,47530,50067,47617.35,50206.14,-87.35,-139.14,0.436147,99.35,1
257913,1,32455,1,47458,50007,47617.03,50205.74,-159.03,-198.74,0.436404,99.34,1
257953,1,32495,1,47466,50074,47616.73,50205.48,-150.73,-131.48,0.436667,99.33,1
257993,1,32535,1,47509,50170,47616.52,50205.41,-107.52,-35.41,0.436934,99.33,1
258033,1,32575,1,47549,50275,47616.38,50205.55,-67.38,69.45,0.437201,99.32,1
258073,1,32615,1,47581,50329,47616.31,50205.8,-35.31,123.2,0.437467,99.31,1
258114,1,32656,1,47589,50308,47616.26,50206,-27.26,102,0.437731,99.3,1
258154,1,32696,1,47572,50283,47616.17,50206.16,-44.17,76.84,0.437994,99.3,1
258194,1,32736,1,47565,50292,47616.07,50206.33,-51.07,85.67,0.438257,99.29,1
258234,1,32776,1,47577,50348,47615.99,50206.62,-38.99,141.38,0.438518,99.28,1
258274,1,32816,1,47616,50442,47615.99,50207.09,0.01,234.91,0.438772,99.27,1
258314,1,32856,1,47654,50531,47616.07,50207.74,37.93,323.26,0.439015,99.27,1
258354,1,32896,1,47688,50607,47616.21,50208.54,71.79,398.46,0.439243,99.26,1
258394,1,32936,1,47721,50661,47616.43,50209.45,104.57,451.55,0.439455,99.25,1
258434,1,32976,1,47744,50696,47616.68,50210.42,127.32,485.58,0.439649,99.24,1
258474,1,33016,1,47737,50563,47616.93,50211.12,120.07,351.87,0.439837,99.24,1
258514,1,33056,1,47625,50208,47616.94,50211.12,8.06,-3.12,0.440024,99.23,1
258554,1,33096,1,47475,49947,47616.66,50210.59,-141.66,-263.59,0.440213,99.22,1
258594,1,33136,1,47419,49909,47616.27,50209.99,-197.27,-300.99,0.440409,99.22,1
258634,1,33176,1,47426,49981,47615.89,50209.54,-189.89,-228.54,0.440614,99.21,1
258674,1,33216,1,47458,50071,47615.57,50209.26,-157.57,-138.26,0.440828,99.2,1
258715,1,33257,1,47497,50166,47615.34,50209.17,-118.34,-43.17,0.441046,99.2,1
258755,1,33297,1,47537,50234,47615.18,50209.22,-78.18,24.78,0.441267,99.19,1
258795,1,33337,1,47544,50241,47615.04,50209.29,-71.04,31.71,0.441489,99.18,1
258835,1,33377,1,47536,50211,47614.88,50209.29,-78.88,1.71,0.441713,99.17,1
258875,1,33417,1,47539,50230,47614.73,50209.34,-75.73,20.66,0.441939,99.17,1
258915,1,33457,1,47551,50290,47614.61,50209.5,-63.61,80.5,0.442165,99.16,1
258955,1,33497,1,47585,50360,47614.55,50209.8,-29.55,150.2,0.442389,99.15,1
258995,1,33537,1,47620,50434,47614.56,50210.25,5.44,223.75,0.442606,99.15,1
259035,1,33577,1,47655,50489,47614.64,50210.81,40.36,278.19,0.442815,99.14,1
259075,1,33617,1,47671,50528,47614.75,50211.45,56.25,316.55,0.443015,99.14,1
259115,1,33657,1,47675,50481,47614.87,50211.98,60.13,269.02,0.443208,99.13,1
259155,1,33697,1,47597,50189,47614.84,50211.94,-17.84,-22.94,0.4434,99.12,1
259195,1,33737,1,47461,49926,47614.54,50211.37,-153.54,-285.37,0.443594,99.12,1
259235,1,33777,1,47384,49877,47614.07,50210.7,-230.07,-333.7,0.443799,99.11,1
259275,1,33817,1,47392,49944,47613.63,50210.17,-221.63,-266.17,0.444019,99.1,1
259316,1,33858,1,47427,50026,47613.26,50209.8,-186.26,-183.8,0.44425,99.1,1
259356,1,33898,1,47466,50116,47612.97,50209.62,-146.97,-93.62,0.444489,99.09,1
259396,1,33938,1,47500,50196,47612.74,50209.59,-112.74,-13.59,0.444732,99.08,1
259436,1,33978,1,47525,50235,47612.57,50209.64,-87.57,25.36,0.444979,99.08,1
259476,1,34018,1,47532,50229,47612.41,50209.68,-80.41,19.32,0.445228,99.07,1
259516,1,34058,1,47530,50241,47612.24,50209.74,-82.24,31.26,0.445479,99.07,1
259556,1,34098,1,47534,50244,47612.09,50209.81,-78.09,34.19,0.445732,99.06,1
259596,1,34138,1,47536,50233,47611.93,50209.86,-75.93,23.14,0.445987,99.05,1
259636,1,34178,1,47533,50209,47611.78,50209.86,-78.78,-0.86,0.446244,99.05,1
259676,1,34218,1,47519,50201,47611.59,50209.84,-92.59,-8.84,0.446504,99.04,1
259716,1,34258,1,47515,50226,47611.4,50209.88,-96.4,16.12,0.446768,99.03,1
259756,1,34298,1,47532,50274,47611.25,50210.01,-79.25,63.99,0.447034,99.03,1
259796,1,34338,1,47560,50319,47611.14,50210.23,-51.14,108.77,0.447299,99.02,1
259836,1,34378,1,47566,50251,47611.05,50210.31,-45.05,40.69,0.447564,99.02,1
259876,1,34418,1,47489,50078,47610.81,50210.05,-121.81,-132.05,0.447833,99.01,1
259916,1,34458,1,47418,49990,47610.43,50209.61,-192.43,-219.61,0.448113,99,1
259957,1,34499,1,47401,50003,47610.01,50209.2,-209.01,-206.2,0.448409,99,1
259997,1,34539,1,47406,50051,47609.61,50208.88,-203.61,-157.88,0.44872,98.99,1
260037,1,34579,1,47436,50110,47609.26,50208.69,-173.26,-98.69,0.449045,98.98,1
260077,1,34619,1,47457,50115,47608.95,50208.5,-151.95,-93.5,0.449378,98.98,1
260117,1,34659,1,47455,50088,47608.64,50208.26,-153.64,-120.26,0.44972,98.97,1
260157,1,34699,1,47434,50086,47608.3,50208.02,-174.3,-122.02,0.450073,98.96,1
260197,1,34739,1,47444,50121,47607.97,50207.85,-163.97,-86.85,0.450438,98.96,1
260237,1,34779,1,47470,50182,47607.7,50207.8,-137.7,-25.8,0.450811,98.95,1
260277,1,34819,1,47504,50263,47607.49,50207.91,-103.49,55.09,0.451188,98.94,1
260317,1,34859,1,47537,50330,47607.35,50208.16,-70.35,121.84,0.451564,98.94,1
260357,1,34899,1,47562,50377,47607.26,50208.5,-45.26,168.5,0.451935,98.93,1
260397,1,34939,1,47583,50414,47607.21,50208.91,-24.21,205.09,0.4523,98.92,1
260437,1,34979,1,47598,50453,47607.2,50209.4,-9.2,243.6,0.452654,98.91,1
260477,1,35019,1,47613,50501,47607.21,50209.98,5.79,291.02,0.452995,98.91,1
260517,1,35059,1,47633,50552,47607.26,50210.67,25.74,341.33,0.453318,98.9,1
260558,1,35100,1,47659,50611,47607.37,50211.47,51.63,399.53,0.453619,98.89,1
260598,1,35140,1,47680,50674,47607.52,50212.39,72.48,461.61,0.453892,98.89,1
260638,1,35180,1,47699,50720,47607.7,50213.41,91.3,506.59,0.454135,98.88,1
260678,1,35220,1,47720,50752,47607.93,50214.49,112.07,537.51,0.454347,98.87,1
260718,1,35260,1,47731,50792,47608.17,50215.64,122.83,576.36,0.454527,98.86,1
260758,1,35300,1,47742,50829,47608.44,50216.87,133.56,612.13,0.454674,98.86,1
260798,1,35340,1,47760,50872,47608.75,50218.18,151.25,653.82,0.454786,98.85,1
260838,1,35380,1,47787,50923,47609.11,50219.59,177.89,703.41,0.454865,98.84,1
260878,1,35420,1,47808,50981,47609.5,50221.12,198.5,759.88,0.45491,98.84,1
260918,1,35460,1,47827,51030,47609.94,50222.73,217.06,807.27,0.454922,98.83,1
260958,1,35500,1,47848,51061,47610.42,50224.41,237.58,836.59,0.454905,98.83,1
260998,1,35540,1,47860,51084,47610.92,50226.13,249.08,857.87,0.454861,98.82,1
261038,1,35580,1,47859,51101,47611.41,50227.88,247.59,873.12,0.454792,98.81,1
261078,1,35620,1,47864,51129,47611.92,50229.69,252.08,899.31,0.454699,98.81,1
261119,1,35661,1,47878,51169,47612.46,50231.57,265.54,937.43,0.454584,98.8,1
261159,1,35701,1,47893,51216,47613.02,50233.54,279.98,982.46,0.454446,98.8,1
261199,1,35741,1,47912,51263,47613.62,50235.59,298.38,1027.41,0.454289,98.79,1
261239,1,35781,1,47925,51287,47614.24,50237.7,310.76,1049.3,0.454115,98.79,1
261279,1,35821,1,47935,51314,47614.89,50239.85,320.11,1074.15,0.453925,98.79,1
261319,1,35861,1,47936,51323,47615.53,50242.02,320.47,1080.98,0.453721,98.78,1
261359,1,35901,1,47942,51335,47616.18,50244.21,325.82,1090.79,0.453506,98.78,1
261399,1,35941,1,47952,51351,47616.86,50246.42,335.14,1104.58,0.45328,98.77,1
261439,1,35981,1,47958,51378,47617.54,50248.69,340.46,1129.31,0.453044,98.77,1
261479,1,36021,1,47971,51409,47618.25,50251.01,352.75,1157.99,0.452799,98.77,1
261519,1,36061,1,47979,51452,47618.97,50253.41,360.03,1198.59,0.452546,98.77,1
261559,1,36101,1,47994,51487,47619.72,50255.88,374.28,1231.12,0.452285,98.76,1
261599,1,36141,1,48013,51506,47620.51,50258.38,392.49,1247.62,0.452019,98.76,1
261639,1,36181,1,48008,51508,47621.29,50260.88,386.71,1247.12,0.451747,98.76,1
261679,1,36221,1,48007,51515,47622.06,50263.39,384.94,1251.61,0.45147,98.76,1
261720,1,36262,1,48001,51519,47622.82,50265.9,378.18,1253.1,0.451188,98.76,1
261760,1,36302,1,48003,51540,47623.58,50268.45,379.42,1271.55,0.450901,98.76,1
261800,1,36342,1,48012,51570,47624.36,50271.05,387.64,1298.95,0.450608,98.76,1
261840,1,36382,1,48025,51599,47625.16,50273.71,399.84,1325.29,0.450311,98.76,1
261880,1,36422,1,48027,51616,47625.96,50276.4,401.04,1339.6,0.45001,98.76,1
261920,1,36462,1,48037,51639,47626.79,50279.12,410.21,1359.88,0.449705,98.76,1
261960,1,36502,1,48038,51644,47627.61,50281.86,410.39,1362.14,0.449396,98.76,1
262000,1,36542,1,48042,51646,47628.44,50284.59,413.56,1361.41,0.449085,98.76,1
262040,1,36582,1,48042,51641,47629.27,50287.3,412.73,1353.7,0.448772,98.76,1
262080,1,36622,1,48049,51659,47630.11,50290.05,418.89,1368.95,0.448457,98.76,1
262120,1,36662,1,48050,51684,47630.95,50292.84,419.05,1391.16,0.44814,98.76,1
262160,1,36702,1,48062,51708,47631.81,50295.67,430.19,1412.33,0.447821,98.76,1
262200,1,36742,1,48066,51726,47632.68,50298.53,433.32,1427.47,0.4475,98.76,1
262240,1,36782,1,48069,51727,47633.55,50301.39,435.45,1425.61,0.447178,98.76,1
262280,1,36822,1,48063,51723,47634.41,50304.23,428.59,1418.77,0.446855,98.77,1
262321,1,36863,1,48059,51728,47635.27,50307.08,423.73,1420.92,0.446529,98.77,1
262361,1,36903,1,48057,51739,47636.11,50309.95,420.89,1429.05,0.446202,98.77,1
262401,1,36943,1,48057,51753,47636.95,50312.83,420.05,1440.17,0.445872,98.77,1
262441,1,36983,1,48059,51771,47637.8,50315.75,421.2,1455.25,0.445541,98.78,1
262481,1,37023,1,48067,51785,47638.66,50318.69,428.34,1466.31,0.445207,98.78,1
262521,1,37063,1,48072,51804,47639.52,50321.66,432.48,1482.34,0.444872,98.78,1
262561,1,37103,1,48076,51828,47640.4,50324.68,435.6,1503.32,0.444534,98.78,1
262601,1,37143,1,48087,51840,47641.29,50327.71,445.71,1512.29,0.444196,98.79,1
262641,1,37183,1,48098,51856,47642.21,50330.77,455.79,1525.23,0.443857,98.79,1
262681,1,37223,1,48098,51870,47643.12,50333.85,454.88,1536.15,0.443517,98.79,1
262721,1,37263,1,48094,51882,47644.02,50336.95,449.98,1545.05,0.443176,98.8,1
262761,1,37303,1,48103,51890,47644.94,50340.05,458.06,1549.95,0.442834,98.8,1
262801,1,37343,1,48094,51895,47645.84,50343.16,448.16,1551.84,0.44249,98.81,1
262841,1,37383,1,48095,51903,47646.74,50346.28,448.26,1556.72,0.442146,98.81,1
262881,1,37423,1,48096,51905,47647.64,50349.4,448.36,1555.6,0.4418,98.82,1
262922,1,37464,1,48095,51915,47648.53,50352.53,446.47,1562.47,0.441454,98.82,1
262962,1,37504,1,48094,51919,47649.42,50355.66,444.58,1563.34,0.441105,98.82,1
263002,1,37544,1,48088,51928,47650.3,50358.81,437.7,1569.19,0.440756,98.83,1
263042,1,37584,1,48089,51932,47651.18,50361.96,437.82,1570.04,0.440405,98.83,1
263082,1,37624,1,48092,51946,47652.06,50365.12,439.94,1580.88,0.440052,98.84,1
263122,1,37664,1,48095,51968,47652.95,50368.33,442.05,1599.67,0.439698,98.84,1
263162,1,37704,1,48101,51987,47653.85,50371.57,447.15,1615.43,0.439342,98.85,1
263202,1,37744,1,48105,51990,47654.75,50374.81,450.25,1615.19,0.438985,98.85,1
263242,1,37784,1,48108,51987,47655.66,50378.04,452.34,1608.96,0.438628,98.86,1
263282,1,37824,1,48107,51988,47656.56,50381.26,450.44,1606.74,0.438269,98.87,1
263322,1,37864,1,48098,51986,47657.44,50384.47,440.56,1601.53,0.43791,98.87,1
263362,1,37904,1,48098,51986,47658.32,50387.67,439.68,1598.33,0.437549,98.88,1
263402,1,37944,1,48092,51987,47659.19,50390.87,432.81,1596.13,0.437187,98.88,1
263442,1,37984,1,48090,51994,47660.05,50394.08,429.95,1599.92,0.436824,98.89,1
263482,1,38024,1,48086,51999,47660.91,50397.29,425.09,1601.71,0.43646,98.89,1
263523,1,38065,1,48086,51997,47661.76,50400.49,424.24,1596.51,0.436094,98.9,1
263563,1,38105,1,48086,52009,47662.61,50403.71,423.39,1605.29,0.435727,98.91,1
263603,1,38145,1,48080,52020,47663.45,50406.94,416.55,1613.06,0.435358,98.91,1
263643,1,38185,1,48079,52023,47664.28,50410.18,414.72,1612.82,0.434987,98.92,1
263683,1,38225,1,48079,52025,47665.11,50413.41,413.89,1611.59,0.434615,98.93,1
263723,1,38265,1,48072,52029,47665.93,50416.64,406.07,1612.36,0.434241,98.93,1
263763,1,38305,1,48076,52036,47666.75,50419.88,409.25,1616.12,0.433865,98.94,1
263803,1,38345,1,48082,52040,47667.58,50423.12,414.42,1616.88,0.433488,98.95,1
263843,1,38385,1,48080,52042,47668.4,50426.36,411.6,1615.64,0.43311,98.95,1
263883,1,38425,1,48080,52045,47669.23,50429.6,410.77,1615.4,0.43273,98.96,1
263923,1,38465,1,48073,52049,47670.04,50432.84,402.96,1616.16,0.432349,98.97,1
263963,1,38505,1,48074,52052,47670.84,50436.07,403.16,1615.93,0.431967,98.97,1
264003,1,38545,1,48075,52061,47671.65,50439.32,403.35,1621.68,0.431583,98.98,1
264043,1,38585,1,48068,52075,47672.45,50442.6,395.55,1632.4,0.431197,98.99,1
264083,1,38625,1,48071,52087,47673.24,50445.89,397.76,1641.11,0.43081,98.99,1
264124,1,38666,1,48073,52089,47674.04,50449.18,398.96,1639.82,0.430421,99,1
264164,1,38706,1,48068,52086,47674.83,50452.45,393.17,1633.55,0.430031,99.01,1
264204,1,38746,1,48056,52090,47675.59,50455.73,380.41,1634.27,0.429639,99.02,1
264244,1,38786,1,48059,52082,47676.36,50458.98,382.64,1623.02,0.429245,99.02,1
264284,1,38826,1,48056,52081,47677.12,50462.23,378.87,1618.77,0.42885,99.03,1
264324,1,38866,1,48046,52086,47677.86,50465.48,368.14,1620.52,0.428453,99.04,1
264364,1,38906,1,48046,52080,47678.6,50468.71,367.4,1611.29,0.428054,99.05,1
264404,1,38946,1,48046,52068,47679.34,50471.91,366.66,1596.09,0.427653,99.06,1
264444,1,38986,1,48040,52067,47680.06,50475.1,359.94,1591.9,0.427251,99.06,1
264484,1,39026,1,48037,52071,47680.77,50478.29,356.23,1592.71,0.426847,99.07,1
264524,1,39066,1,48033,52069,47681.48,50481.47,351.52,1587.53,0.426442,99.08,1
264564,1,39106,1,48031,52053,47682.18,50484.62,348.82,1568.38,0.426035,99.09,1
264604,1,39146,1,48022,52053,47682.86,50487.75,339.14,1565.25,0.425627,99.1,1
264644,1,39186,1,48015,52050,47683.52,50490.88,331.48,1559.12,0.425216,99.1,1
264684,1,39226,1,48013,52050,47684.18,50494,328.82,1556,0.424805,99.11,1
264725,1,39267,1,48006,52059,47684.83,50497.13,321.17,1561.87,0.424391,99.12,1
264765,1,39307,1,48004,52069,47685.47,50500.28,318.53,1568.72,0.423975,99.13,1
264805,1,39347,2,48005,52061,47686.11,50503.4,318.89,1557.6,0.423557,99.14,1
264845,1,39387,2,47998,52058,47686.73,50506.51,311.27,1551.49,0.423138,99.15,1
264885,1,39427,2,47999,52055,47687.36,50509.61,311.64,1545.39,0.422717,99.15,1
264925,1,39467,2,47994,52055,47687.97,50512.7,306.03,1542.3,0.422294,99.16,1
264965,1,39507,2,47992,52056,47688.58,50515.79,303.42,1540.21,0.421869,99.17,1
265005,1,39547,2,47994,52068,47689.2,50518.89,304.8,1549.11,0.421443,99.18,1
265045,1,39587,2,47993,52067,47689.8,50521.99,303.2,1545.01,0.421014,99.19,1
265085,1,39627,2,47985,52065,47690.39,50525.08,294.61,1539.92,0.420585,99.2,1
265125,1,39667,2,47986,52063,47690.99,50528.16,295.01,1534.84,0.420153,99.21,1
265165,1,39707,2,47985,52060,47691.58,50531.22,293.42,1528.78,0.41972,99.22,1
265205,1,39747,2,47973,52049,47692.14,50534.26,280.86,1514.74,0.419285,99.23,1
265245,1,39787,2,47962,52046,47692.68,50537.28,269.32,1508.72,0.418848,99.23,1
265286,1,39828,2,47963,52037,47693.22,50540.28,269.78,1496.72,0.41841,99.24,1
265326,1,39868,2,47950,52038,47693.74,50543.28,256.26,1494.72,0.417969,99.25,1
265366,1,39908,2,47942,52033,47694.23,50546.26,247.77,1486.74,0.417527,99.26,1
265406,1,39948,2,47939,52032,47694.73,50549.23,244.27,1482.77,0.417082,99.27,1
265446,1,39988,2,47947,52038,47695.23,50552.21,251.77,1485.79,0.416636,99.28,1
265486,1,40028,2,47937,52045,47695.71,50555.2,241.29,1489.8,0.416188,99.29,1
265526,1,40068,2,47935,52049,47696.2,50558.19,238.8,1490.81,0.415738,99.3,1
265566,1,40108,2,47936,52040,47696.68,50561.15,239.32,1478.85,0.415286,99.31,1
265606,1,40148,2,47934,52041,47697.15,50564.11,236.85,1476.89,0.414832,99.32,1
265646,1,40188,2,47926,52034,47697.61,50567.05,228.39,1466.95,0.414376,99.33,1
265686,1,40228,2,47919,52032,47698.05,50569.98,220.95,1462.02,0.413919,99.34,1
265726,1,40268,2,47920,52026,47698.5,50572.9,221.5,1453.1,0.41346,99.35,1
265766,1,40308,2,47919,52027,47698.94,50575.81,220.06,1451.19,0.412998,99.36,1
265806,1,40348,2,47908,52024,47699.36,50578.71,208.64,1445.29,0.412536,99.37,1
265846,1,40388,2,47903,52021,47699.77,50581.59,203.23,1439.41,0.412071,99.38,1
265887,1,40429,2,47903,52018,47700.18,50584.47,202.82,1433.53,0.411604,99.39,1
265927,1,40469,2,47896,52021,47700.57,50587.34,195.43,1433.66,0.411136,99.4,1
265967,1,40509,2,47890,52024,47700.95,50590.22,189.05,1433.78,0.410665,99.41,1
266007,1,40549,2,47890,52025,47701.33,50593.09,188.67,1431.91,0.410193,99.42,1
266047,1,40589,2,47884,52023,47701.7,50595.95,182.3,1427.05,0.409719,99.43,1
266087,1,40629,2,47883,52026,47702.06,50598.81,180.94,1427.19,0.409243,99.44,1
266127,1,40669,2,47878,52023,47702.41,50601.66,175.59,1421.34,0.408765,99.45,1
266167,1,40709,2,47882,52024,47702.77,50604.51,179.23,1419.49,0.408285,99.46,1
266207,1,40749,2,47878,52030,47703.12,50607.36,174.88,1422.64,0.407803,99.47,1
266247,1,40789,2,47877,52033,47703.47,50610.21,173.53,1422.79,0.40732,99.48,1
266287,1,40829,2,47872,52027,47703.81,50613.05,168.19,1413.95,0.406835,99.49,1
266327,1,40869,2,47868,52027,47704.14,50615.88,163.86,1411.12,0.406347,99.5,1
266367,1,40909,2,47863,52016,47704.46,50618.68,158.54,1397.32,0.405859,99.51,1
266407,1,40949,2,47854,52020,47704.76,50621.48,149.24,1398.52,0.405368,99.52,1
266447,1,40989,2,47858,52025,47705.07,50624.29,152.93,1400.71,0.404876,99.53,1
266488,1,41030,2,47851,52027,47705.36,50627.1,145.64,1399.9,0.404381,99.54,1
266528,1,41070,2,47852,52030,47705.65,50629.91,146.35,1400.09,0.403885,99.55,1
266568,1,41110,2,47845,52033,47705.93,50632.72,139.07,1400.28,0.403388,99.56,1
266608,1,41150,2,47845,52038,47706.21,50635.53,138.79,1402.47,0.402888,99.58,1
266648,1,41190,2,47849,52049,47706.5,50638.36,142.5,1410.64,0.402387,99.59,1
266688,1,41230,2,47848,52059,47706.79,50641.2,141.21,1417.8,0.401883,99.6,1
266728,1,41270,2,47843,52053,47707.06,50644.03,135.94,1408.97,0.401378,99.61,1
266768,1,41310,2,47846,52053,47707.34,50646.85,138.66,1406.15,0.400871,99.62,1
266808,1,41350,2,47848,52056,47707.62,50649.67,140.38,1406.33,0.400363,99.63,1
266848,1,41390,2,47842,52054,47707.89,50652.48,134.11,1401.52,0.399853,99.64,1
266888,1,41430,2,47842,52066,47708.16,50655.3,133.84,1410.7,0.399341,99.65,1
266928,1,41470,2,47843,52073,47708.43,50658.14,134.57,1414.86,0.398828,99.66,1
266968,1,41510,2,47843,52071,47708.7,50660.97,134.3,1410.03,0.398313,99.67,1
267008,1,41550,2,47835,52065,47708.95,50663.78,126.05,1401.22,0.397796,99.68,1
267048,1,41590,2,47830,52060,47709.19,50666.57,120.81,1393.43,0.397277,99.69,1
267089,1,41631,2,47824,52050,47709.42,50669.34,114.58,1380.66,0.396757,99.7,1
267129,1,41671,2,47817,52046,47709.64,50672.09,107.36,1373.91,0.396236,99.71,1
267169,1,41711,2,47811,52044,47709.84,50674.84,101.16,1369.16,0.395713,99.72,1
267209,1,41751,2,47804,52041,47710.03,50677.57,93.97,1363.43,0.395188,99.73,1
267249,1,41791,2,47802,52050,47710.21,50680.32,91.79,1369.68,0.394662,99.74,1
267289,1,41831,2,47800,52051,47710.39,50683.06,89.61,1367.94,0.394134,99.74,1
267329,1,41871,2,47808,52055,47710.59,50685.81,97.41,1369.19,0.393604,99.75,1
267369,1,41911,2,47809,52050,47710.79,50688.54,98.21,1361.46,0.393074,99.76,1
267409,1,41951,2,47806,52048,47710.98,50691.26,95.02,1356.74,0.392541,99.77,1
267449,1,41991,2,47800,52052,47711.16,50693.98,88.84,1358.02,0.392007,99.77,1
267489,1,42031,2,47800,52053,47711.34,50696.7,88.66,1356.3,0.391472,99.78,1
267529,1,42071,2,47801,52054,47711.52,50699.41,89.48,1354.59,0.390936,99.79,1
267569,1,42111,2,47796,52057,47711.69,50702.13,84.31,1354.87,0.390398,99.79,1
267609,1,42151,2,47789,52050,47711.85,50704.82,77.15,1345.18,0.389858,99.8,1
267650,1,42192,2,47783,52051,47711.99,50707.52,71.01,1343.48,0.389317,99.81,1
267690,1,42232,2,47780,52043,47712.13,50710.19,67.87,1332.81,0.388775,99.81,1
267730,1,42272,2,47776,52047,47712.26,50712.87,63.74,1334.13,0.388232,99.82,1
267770,1,42312,2,47774,52041,47712.38,50715.52,61.62,1325.48,0.387687,99.82,1
267810,1,42352,2,47772,52053,47712.5,50718.2,59.5,1334.8,0.387141,99.83,1
267850,1,42392,2,47772,52060,47712.62,50720.88,59.38,1339.12,0.386593,99.83,1
267890,1,42432,2,47767,52064,47712.73,50723.57,54.27,1340.43,0.386044,99.84,1
267930,1,42472,2,47774,52061,47712.86,50726.25,61.14,1334.75,0.385494,99.84,1
267970,1,42512,2,47773,52061,47712.98,50728.92,60.02,1332.08,0.384943,99.85,1
268010,1,42552,2,47773,52064,47713.1,50731.59,59.9,1332.41,0.38439,99.85,1
268050,1,42592,2,47775,52067,47713.23,50734.26,61.77,1332.74,0.38439,99.85,0
268090,1,42632,2,47770,52058,47713.34,50736.91,56.66,1321.09,0.38439,99.85,0
268130,1,42672,2,47762,52049,47713.44,50739.54,48.56,1309.46,0.38439,99.85,0
268170,1,42712,2,47758,52054,47713.53,50742.16,44.47,1311.84,0.38439,99.85,0
268210,1,42752,2,47754,52056,47713.61,50744.79,40.39,1311.21,0.38439,99.85,0
268251,1,42793,2,47760,52046,47713.7,50747.4,46.3,1298.6,0.38439,99.85,0
268291,1,42833,2,47738,52040,47713.75,50749.98,24.25,1290.02,0.38439,99.85,0
268331,1,42873,2,47734,52041,47713.8,50752.57,20.2,1288.43,0.38439,99.85,0
268371,1,42913,2,47729,52035,47713.83,50755.13,15.17,1279.87,0.38439,99.85,0
268411,1,42953,2,47727,52034,47713.86,50757.69,13.14,1276.31,0.38439,99.85,0
268451,1,42993,2,47720,52050,47713.87,50760.28,6.13,1289.72,0.38439,99.85,0
268491,1,43033,2,47719,52049,47713.88,50762.86,5.12,1286.14,0.38439,99.85,0
268531,1,43073,2,47734,52052,47713.92,50765.43,20.08,1286.57,0.38439,99.85,0
268571,1,43113,2,47731,52052,47713.96,50768.01,17.04,1283.99,0.38439,99.85,0
268611,1,43153,2,47732,52055,47714,50770.58,18,1284.42,0.38439,99.85,0
268651,1,43193,2,47730,52055,47714.03,50773.15,15.97,1281.85,0.38439,99.85,0
268691,1,43233,2,47723,52060,47714.05,50775.73,8.95,1284.27,0.38439,99.85,0
268731,1,43273,2,47728,52059,47714.08,50778.29,13.92,1280.71,0.38439,99.85,0
268771,1,43313,2,47718,52056,47714.09,50780.85,3.91,1275.15,0.38439,99.85,0
268811,1,43353,2,47712,52049,47714.08,50783.39,-2.08,1265.61,0.38439,99.85,0
268852,1,43394,2,47707,52046,47714.07,50785.92,-7.07,1260.08,0.38439,99.85,0
268892,1,43434,2,47702,52055,47714.05,50788.46,-12.05,1266.54,0.38439,99.85,0
268932,1,43474,2,47704,52058,47714.03,50791,-10.03,1267,0.38439,99.85,0
268972,1,43514,2,47702,52055,47714,50793.53,-12,1261.47,0.38439,99.85,0
269012,1,43554,2,47704,52057,47713.98,50796.05,-9.98,1260.95,0.38439,99.85,0
269052,1,43594,2,47696,52062,47713.95,50798.59,-17.95,1263.41,0.38439,99.85,0
269092,1,43634,2,47701,52058,47713.93,50801.11,-12.93,1256.89,0.38439,99.85,0
269132,1,43674,2,47706,52056,47713.91,50803.62,-7.91,1252.38,0.38439,99.85,0
269172,1,43714,2,47696,52052,47713.87,50806.12,-17.87,1245.88,0.38439,99.85,0
269212,1,43754,2,47691,52052,47713.83,50808.61,-22.83,1243.39,0.38439,99.85,0
269252,1,43794,2,47693,52043,47713.79,50811.08,-20.79,1231.92,0.38439,99.85,0
269292,1,43834,2,47686,52036,47713.74,50813.53,-27.74,1222.47,0.38439,99.85,0
269332,1,43874,2,47678,52030,47713.67,50815.96,-35.67,1214.04,0.38439,99.85,0
269372,1,43914,2,47671,52027,47713.58,50818.39,-42.58,1208.61,0.38439,99.85,0
269413,1,43955,2,47667,52021,47713.49,50820.79,-46.49,1200.21,0.38439,99.85,0
269453,1,43995,2,47659,52009,47713.38,50823.17,-54.38,1185.83,0.38439,99.85,0
269493,1,44035,2,47646,52001,47713.25,50825.53,-67.25,1175.47,0.38439,99.85,0
269533,1,44075,2,47645,51993,47713.11,50827.86,-68.11,1165.14,0.38439,99.85,0
269573,1,44115,2,47644,51989,47712.97,50830.19,-68.97,1158.81,0.38439,99.85,0
269613,1,44155,2,47637,51993,47712.82,50832.52,-75.82,1160.48,0.38439,99.85,0
269653,1,44195,2,47637,51992,47712.67,50834.84,-75.67,1157.16,0.38439,99.85,0
269693,1,44235,2,47638,51985,47712.52,50837.14,-74.52,1147.86,0.38439,99.85,0
269733,1,44275,2,47634,51976,47712.36,50839.41,-78.36,1136.59,0.38439,99.85,0
269773,1,44315,2,47628,51971,47712.2,50841.68,-84.2,1129.32,0.38439,99.85,0
269813,1,44355,2,47625,51967,47712.02,50843.93,-87.02,1123.07,0.38439,99.85,0
269853,1,44395,2,47622,51960,47711.84,50846.17,-89.84,1113.83,0.38439,99.85,0
269893,1,44435,2,47616,51953,47711.65,50848.38,-95.65,1104.62,0.38439,99.85,0
269933,1,44475,2,47610,51952,47711.45,50850.59,-101.45,1101.41,0.38439,99.85,0
269973,1,44515,2,47603,51951,47711.23,50852.79,-108.23,1098.21,0.38439,99.85,0
270014,1,44556,2,47604,51965,47711.02,50855.02,-107.02,1109.98,0.38439,99.85,0
270054,1,44596,2,47606,51988,47710.81,50857.29,-104.81,1130.71,0.38439,99.85,0
270094,1,44636,2,47612,52007,47710.62,50859.59,-98.62,1147.41,0.38439,99.85,0
270134,1,44676,2,47615,52012,47710.43,50861.89,-95.43,1150.11,0.38439,99.85,0
270174,1,44716,2,47619,52020,47710.25,50864.21,-91.25,1155.79,0.38439,99.85,0
270214,1,44756,2,47621,52035,47710.07,50866.55,-89.07,1168.45,0.38439,99.85,0
270254,1,44796,2,47623,52044,47709.9,50868.91,-86.9,1175.09,0.38439,99.85,0
270294,1,44836,2,47633,52050,47709.75,50871.27,-76.75,1178.73,0.38439,99.85,0
270334,1,44876,2,47634,52059,47709.6,50873.64,-75.6,1185.36,0.38439,99.85,0
270374,1,44916,2,47638,52073,47709.46,50876.04,-71.46,1196.96,0.38439,99.85,0
270414,1,44956,2,47633,52058,47709.3,50878.41,-76.3,1179.59,0.38439,99.85,0
270454,1,44996,2,47627,52061,47709.14,50880.77,-82.14,1180.23,0.38439,99.85,0
270494,1,45036,2,47627,52060,47708.98,50883.13,-81.98,1176.87,0.38439,99.85,0
270534,1,45076,2,47621,52055,47708.8,50885.48,-87.8,1169.52,0.38439,99.85,0
270575,1,45117,2,47615,52042,47708.61,50887.79,-93.61,1154.21,0.38439,99.85,0
270615,1,45157,2,47612,52046,47708.42,50890.11,-96.42,1155.89,0.38439,99.85,0
270655,1,45197,2,47611,52056,47708.23,50892.44,-97.23,1163.56,0.38439,99.85,0
270695,1,45237,2,47605,52060,47708.02,50894.77,-103.02,1165.23,0.38439,99.85,0
270735,1,45277,2,47613,52066,47707.83,50897.12,-94.83,1168.88,0.38439,99.85,0
270775,1,45317,2,47610,52071,47707.64,50899.46,-97.64,1171.54,0.38439,99.85,0
270815,1,45357,2,47608,52067,47707.44,50901.8,-99.44,1165.2,0.38439,99.85,0
270855,1,45397,2,47612,52065,47707.25,50904.13,-95.25,1160.87,0.38439,99.85,0
270895,1,45437,2,47613,52066,47707.06,50906.45,-94.06,1159.55,0.38439,99.85,0
270935,1,45477,2,47618,52074,47706.88,50908.79,-88.88,1165.21,0.38439,99.85,0
270975,1,45517,2,47608,52084,47706.69,50911.14,-98.69,1172.86,0.38439,99.85,0
271015,1,45557,2,47611,52080,47706.5,50913.48,-95.5,1166.52,0.38439,99.85,0
271055,1,45597,2,47605,52077,47706.29,50915.81,-101.29,1161.19,0.38439,99.85,0
271095,1,45637,2,47602,52077,47706.09,50918.13,-104.09,1158.87,0.38439,99.85,0
271135,1,45677,2,47599,52078,47705.87,50920.45,-106.87,1157.55,0.38439,99.85,0
271176,1,45718,2,47601,52079,47705.66,50922.77,-104.66,1156.23,0.38439,99.85,0
271216,1,45758,2,47594,52078,47705.44,50925.09,-111.44,1152.91,0.38439,99.85,0
271256,1,45798,2,47596,52083,47705.22,50927.4,-109.22,1155.6,0.38439,99.85,0
271296,1,45838,2,47590,52081,47704.99,50929.71,-114.99,1151.29,0.38439,99.85,0
271336,1,45878,2,47590,52083,47704.76,50932.02,-114.76,1150.98,0.38439,99.85,0
271376,1,45918,2,47590,52092,47704.54,50934.34,-114.54,1157.66,0.38439,99.85,0
271416,1,45958,2,47590,52101,47704.31,50936.68,-114.31,1164.32,0.38439,99.85,0
271456,1,45998,2,47594,52101,47704.09,50939,-110.09,1162,0.38439,99.85,0
271496,1,46038,2,47598,52098,47703.88,50941.32,-105.88,1156.68,0.38439,99.85,0
271536,1,46078,2,47596,52095,47703.66,50943.63,-107.66,1151.37,0.38439,99.85,0
271576,1,46118,2,47590,52103,47703.44,50945.95,-113.44,1157.05,0.38439,99.85,0
271616,1,46158,2,47588,52105,47703.21,50948.27,-115.21,1156.73,0.38439,99.85,0
271656,1,46198,2,47591,52104,47702.98,50950.59,-111.98,1153.41,0.38439,99.85,0
271696,1,46238,2,47584,52103,47702.75,50952.89,-118.75,1150.11,0.38439,99.85,0
271736,1,46278,2,47587,52099,47702.52,50955.18,-115.52,1143.82,0.38439,99.85,0
271777,1,46319,2,47581,52097,47702.27,50957.47,-121.27,1139.53,0.38439,99.85,0
271817,1,46359,2,47575,52105,47702.02,50959.77,-127.02,1145.23,0.38439,99.85,0
271857,1,46399,2,47573,52108,47701.76,50962.06,-128.76,1145.94,0.38439,99.85,0
271897,1,46439,2,47573,52111,47701.5,50964.36,-128.5,1146.64,0.38439,99.85,0
271937,1,46479,2,47579,52126,47701.26,50966.69,-122.26,1159.31,0.38439,99.85,0
271977,1,46519,2,47583,52132,47701.03,50969.02,-118.03,1162.98,0.38439,99.85,0
272017,1,46559,2,47585,52134,47700.8,50971.35,-115.8,1162.65,0.38439,99.85,0
272057,1,46599,2,47588,52132,47700.57,50973.68,-112.57,1158.32,0.38439,99.85,0
272097,1,46639,2,47586,52138,47700.35,50976,-114.35,1162,0.38439,99.85,0
272137,1,46679,2,47581,52141,47700.11,50978.34,-119.11,1162.66,0.38439,99.85,0
272177,1,46719,2,47583,52134,47699.87,50980.65,-116.87,1153.35,0.38439,99.85,0
272217,1,46759,2,47584,52129,47699.64,50982.95,-115.64,1146.05,0.38439,99.85,0
272257,1,46799,2,47572,52132,47699.39,50985.25,-127.39,1146.75,0.38439,99.85,0
272297,1,46839,2,47572,52133,47699.14,50987.54,-127.14,1145.46,0.38439,99.85,0
272338,1,46880,2,47571,52135,47698.88,50989.84,-127.88,1145.16,0.38439,99.85,0
272378,1,46920,2,47568,52146,47698.62,50992.15,-130.62,1153.85,0.38439,99.85,0
272418,1,46960,2,47569,52151,47698.36,50994.47,-129.36,1156.53,0.38439,99.85,0
272458,1,47000,2,47572,52149,47698.11,50996.78,-126.11,1152.22,0.38439,99.85,0
272498,1,47040,2,47566,52149,47697.85,50999.09,-131.85,1149.91,0.38439,99.85,0
272538,1,47080,2,47563,52159,47697.58,51001.41,-134.58,1157.59,0.38439,99.85,0
272578,1,47120,2,47574,52162,47697.34,51003.73,-123.34,1158.27,0.38439,99.85,0
272618,1,47160,2,47578,52165,47697.1,51006.05,-119.1,1158.95,0.38439,99.85,0
272658,1,47200,2,47572,52166,47696.85,51008.37,-124.85,1157.63,0.38439,99.85,0
272698,1,47240,2,47571,52165,47696.6,51010.69,-125.6,1154.31,0.38439,99.85,0
272738,1,47280,2,47568,52158,47696.34,51012.99,-128.34,1145.01,0.38439,99.85,0
272778,1,47320,2,47565,52158,47696.08,51015.28,-131.08,1142.72,0.38439,99.85,0
272818,1,47360,2,47564,52157,47695.82,51017.57,-131.82,1139.43,0.38439,99.85,0
272858,1,47400,2,47554,52153,47695.54,51019.84,-141.54,1133.16,0.38439,99.85,0
272899,1,47441,2,47549,52149,47695.24,51022.1,-146.24,1126.9,0.38439,99.85,0
272939,1,47481,2,47544,52147,47694.94,51024.35,-150.94,1122.65,0.38439,99.85,0
272979,1,47521,2,47543,52151,47694.64,51026.6,-151.64,1124.4,0.38439,99.85,0
273019,1,47561,2,47546,52151,47694.34,51028.85,-148.34,1122.15,0.38439,99.85,0
273059,1,47601,2,47548,52156,47694.05,51031.11,-146.05,1124.89,0.38439,99.85,0
273099,1,47641,2,47546,52164,47693.76,51033.37,-147.76,1130.63,0.38439,99.85,0
273139,1,47681,2,47551,52168,47693.47,51035.64,-142.47,1132.36,0.38439,99.85,0
273179,1,47721,2,47552,52167,47693.19,51037.91,-141.19,1129.09,0.38439,99.85,0
273219,1,47761,2,47551,52155,47692.91,51040.14,-141.91,1114.86,0.38439,99.85,0
273259,1,47801,2,47548,52150,47692.62,51042.36,-144.62,1107.64,0.38439,99.85,0
273299,1,47841,2,47541,52147,47692.32,51044.57,-151.32,1102.43,0.38439,99.85,0
273339,1,47881,2,47539,52141,47692.02,51046.77,-153.02,1094.23,0.38439,99.85,0
273379,1,47921,2,47533,52133,47691.7,51048.94,-158.7,1084.06,0.38439,99.85,0
273419,1,47961,2,47526,52128,47691.37,51051.1,-165.37,1076.9,0.38439,99.85,0
273460,1,48002,2,47519,52121,47691.02,51053.24,-172.02,1067.76,0.38439,99.85,0
273500,1,48042,2,47513,52116,47690.67,51055.37,-177.67,1060.63,0.38439,99.85,0
273540,1,48082,2,47510,52119,47690.31,51057.5,-180.31,1061.5,0.38439,99.85,0
273580,1,48122,2,47511,52116,47689.95,51059.61,-178.95,1056.39,0.38439,99.85,0
273620,1,48162,2,47510,52119,47689.59,51061.73,-179.59,1057.27,0.38439,99.85,0
273660,1,48202,2,47505,52123,47689.23,51063.86,-184.23,1059.14,0.38439,99.85,0
273700,1,48242,2,47513,52120,47688.87,51065.97,-175.87,1054.03,0.38439,99.85,0
273740,1,48282,2,47523,52115,47688.54,51068.07,-165.54,1046.93,0.38439,99.85,0
273780,1,48322,2,47505,52115,47688.18,51070.16,-183.18,1044.84,0.38439,99.85,0
273820,1,48362,2,47505,52116,47687.81,51072.26,-182.81,1043.74,0.38439,99.85,0
273860,1,48402,2,47508,52118,47687.45,51074.35,-179.45,1043.65,0.38439,99.85,0
273900,1,48442,2,47499,52113,47687.08,51076.43,-188.08,1036.57,0.38439,99.85,0
273940,1,48482,2,47486,52111,47686.68,51078.5,-200.68,1032.5,0.38439,99.85,0
273980,1,48522,2,47491,52109,47686.29,51080.56,-195.29,1028.44,0.38439,99.85,0
274021,1,48563,2,47488,52103,47685.89,51082.61,-197.89,1020.39,0.38439,99.85,0
274061,1,48603,2,47485,52108,47685.49,51084.66,-200.49,1023.34,0.38439,99.85,0
274101,1,48643,2,47480,52113,47685.08,51086.72,-205.08,1026.28,0.38439,99.85,0
274141,1,48683,2,47479,52116,47684.67,51088.78,-205.67,1027.22,0.38439,99.85,0
274181,1,48723,2,47483,52120,47684.27,51090.84,-201.27,1029.16,0.38439,99.85,0
274221,1,48763,2,47485,52129,47683.87,51092.92,-198.87,1036.08,0.38439,99.85,0
274261,1,48803,2,47492,52135,47683.48,51095,-191.48,1040,0.38439,99.85,0
274301,1,48843,2,47492,52136,47683.1,51097.09,-191.1,1038.91,0.38439,99.85,0
274341,1,48883,2,47496,52140,47682.73,51099.17,-186.73,1040.83,0.38439,99.85,0
274381,1,48923,2,47495,52147,47682.36,51101.27,-187.36,1045.73,0.38439,99.85,0
274421,1,48963,2,47494,52143,47681.98,51103.36,-187.98,1039.64,0.38439,99.85,0
274461,1,49003,2,47490,52137,47681.6,51105.43,-191.6,1031.57,0.38439,99.85,0
274501,1,49043,2,47482,52130,47681.2,51107.48,-199.2,1022.52,0.38439,99.85,0
274541,1,49083,2,47476,52131,47680.79,51109.52,-204.79,1021.48,0.38439,99.85,0
274582,1,49124,2,47478,52132,47680.38,51111.57,-202.38,1020.43,0.38439,99.85,0
274622,1,49164,2,47477,52139,47679.98,51113.62,-202.98,1025.38,0.38439,99.85,0
274662,1,49204,2,47476,52147,47679.57,51115.69,-203.57,1031.31,0.38439,99.85,0
274702,1,49244,2,47478,52149,47679.17,51117.76,-201.17,1031.24,0.38439,99.85,0
274742,1,49284,2,47473,52159,47678.76,51119.84,-205.76,1039.16,0.38439,99.85,0
274782,1,49324,2,47480,52160,47678.36,51121.92,-198.36,1038.08,0.38439,99.85,0
274822,1,49364,2,47481,52160,47677.97,51124,-196.97,1036,0.38439,99.85,0
274862,1,49404,2,47485,52167,47677.59,51126.09,-192.59,1040.91,0.38439,99.85,0
274902,1,49444,2,47488,52170,47677.21,51128.18,-189.21,1041.82,0.38439,99.85,0
274942,1,49484,2,47483,52168,47676.82,51130.26,-193.82,1037.74,0.38439,99.85,0
274982,1,49524,2,47484,52164,47676.44,51132.33,-192.44,1031.67,0.38439,99.85,0
275022,1,49564,2,47477,52163,47676.04,51134.39,-199.04,1028.61,0.38439,99.85,0
275062,1,49604,2,47477,52168,47675.64,51136.46,-198.64,1031.54,0.38439,99.85,0
275103,1,49645,2,47475,52163,47675.24,51138.52,-200.24,1024.48,0.38439,99.85,0
275143,1,49685,2,47470,52168,47674.83,51140.57,-204.83,1027.43,0.38439,99.85,0
275183,1,49725,2,47464,52169,47674.41,51142.63,-210.41,1026.37,0.38439,99.85,0
275223,1,49765,2,47466,52163,47674,51144.68,-208,1018.32,0.38439,99.85,0
275263,1,49805,2,47461,52173,47673.57,51146.73,-212.57,1026.27,0.38439,99.85,0
275303,1,49845,2,47470,52183,47673.16,51148.81,-203.16,1034.19,0.38439,99.85,0
275343,1,49885,2,47472,52189,47672.76,51150.89,-200.76,1038.11,0.38439,99.85,0
275383,1,49925,2,47477,52192,47672.37,51152.97,-195.37,1039.03,0.38439,99.85,0
275423,1,49965,2,47476,52195,47671.98,51155.06,-195.98,1039.94,0.38439,99.85,0
275463,1,50005,2,47477,52193,47671.59,51157.14,-194.59,1035.86,0.38439,99.85,0
275503,1,50045,2,47472,52184,47671.19,51159.19,-199.19,1024.81,0.38439,99.85,0
275543,1,50085,2,47467,52180,47670.79,51161.23,-203.79,1018.77,0.38439,99.85,0
275583,1,50125,2,47463,52181,47670.37,51163.27,-207.37,1017.73,0.38439,99.85,0
275624,1,50166,2,47457,52180,47669.95,51165.31,-212.95,1014.69,0.38439,99.85,0
275664,1,50206,2,47456,52184,47669.52,51167.35,-213.52,1016.65,0.38439,99.85,0
275704,1,50246,2,47450,52179,47669.08,51169.37,-219.08,1009.63,0.38439,99.85,0
275744,1,50286,2,47455,52179,47668.66,51171.39,-213.66,1007.61,0.38439,99.85,0
275784,1,50326,2,47456,52188,47668.23,51173.43,-212.23,1014.57,0.38439,99.85,0
275824,1,50366,2,47456,52192,47667.81,51175.46,-211.81,1016.54,0.38439,99.85,0
275864,1,50406,2,47460,52195,47667.39,51177.5,-207.39,1017.5,0.38439,99.85,0
275904,1,50446,2,47465,52195,47666.99,51179.54,-201.99,1015.46,0.38439,99.85,0
275944,1,50486,2,47463,52194,47666.59,51181.57,-203.59,1012.43,0.38439,99.85,0
275984,1,50526,2,47457,52195,47666.17,51183.6,-209.17,1011.4,0.38439,99.85,0
276024,1,50566,2,47459,52193,47665.75,51185.62,-206.75,1007.38,0.38439,99.85,0
276064,1,50606,2,47457,52203,47665.34,51187.65,-208.34,1015.35,0.38439,99.85,0
276104,1,50646,2,47452,52200,47664.91,51189.68,-212.91,1010.32,0.38439,99.85,0
276144,1,50686,2,47445,52194,47664.47,51191.69,-219.47,1002.31,0.38439,99.85,0
276185,1,50727,2,47454,52191,47664.05,51193.69,-210.05,997.31,0.38439,99.85,0
276225,1,50767,2,47445,52192,47663.62,51195.69,-218.62,996.31,0.38439,99.85,0
276265,1,50807,2,47438,52193,47663.17,51197.68,-225.17,995.32,0.38439,99.85,0
276305,1,50847,2,47439,52196,47662.72,51199.68,-223.72,996.32,0.38439,99.85,0
276345,1,50887,2,47440,52201,47662.28,51201.68,-222.28,999.32,0.38439,99.85,0
276385,1,50927,2,47434,52208,47661.82,51203.7,-227.82,1004.3,0.38439,99.85,0
276425,1,50967,2,47447,52213,47661.39,51205.72,-214.39,1007.28,0.38439,99.85,0
276465,1,51007,2,47449,52208,47660.97,51207.73,-211.97,1000.27,0.38439,99.85,0
276505,1,51047,2,47449,52204,47660.55,51209.72,-211.55,994.28,0.38439,99.85,0
276545,1,51087,2,47432,52201,47660.09,51211.7,-228.09,989.3,0.38439,99.85,0
276585,1,51127,2,47443,52194,47659.66,51213.67,-216.66,980.33,0.38439,99.85,0
276625,1,51167,2,47438,52187,47659.21,51215.62,-221.21,971.38,0.38439,99.85,0
276665,1,51207,2,47433,52182,47658.76,51217.55,-225.76,964.45,0.38439,99.85,0
276705,1,51247,2,47426,52177,47658.3,51219.47,-232.3,957.53,0.38439,99.85,0
276746,1,51288,2,47422,52171,47657.82,51221.38,-235.82,949.62,0.38439,99.85,0
276786,1,51328,2,47418,52173,47657.35,51223.29,-239.35,949.71,0.38439,99.85,0
276826,1,51368,2,47414,52181,47656.86,51225.2,-242.86,955.8,0.38439,99.85,0
276866,1,51408,2,47416,52182,47656.38,51227.12,-240.38,954.88,0.38439,99.85,0
276906,1,51448,2,47417,52184,47655.91,51229.03,-238.91,954.97,0.38439,99.85,0
276946,1,51488,2,47420,52191,47655.44,51230.96,-235.44,960.04,0.38439,99.85,0
276986,1,51528,2,47423,52189,47654.97,51232.87,-231.97,956.12,0.38439,99.85,0
277026,1,51568,2,47421,52185,47654.51,51234.78,-233.51,950.22,0.38439,99.85,0
277066,1,51608,2,47421,52181,47654.04,51236.68,-233.04,944.32,0.38439,99.85,0
277106,1,51648,2,47417,52183,47653.57,51238.57,-236.57,944.43,0.38439,99.85,0
277146,1,51688,2,47413,52176,47653.09,51240.45,-240.09,935.55,0.38439,99.85,0
277186,1,51728,2,47410,52165,47652.61,51242.3,-242.61,922.7,0.38439,99.85,0
277226,1,51768,2,47406,52160,47652.11,51244.13,-246.11,915.87,0.38439,99.85,0
277266,1,51808,2,47402,52162,47651.61,51245.97,-249.61,916.03,0.38439,99.85,0
277307,1,51849,2,47402,52160,47651.12,51247.8,-249.12,912.2,0.38439,99.85,0
277347,1,51889,2,47400,52163,47650.62,51249.63,-250.62,913.37,0.38439,99.85,0
277387,1,51929,2,47395,52169,47650.11,51251.47,-255.11,917.53,0.38439,99.85,0
277427,1,51969,2,47394,52170,47649.59,51253.31,-255.59,916.69,0.38439,99.85,0
277467,1,52009,2,47396,52166,47649.09,51255.14,-253.09,910.86,0.38439,99.85,0
277507,1,52049,2,47390,52171,47648.57,51256.97,-258.57,914.03,0.38439,99.85,0
277547,1,52089,2,47388,52170,47648.05,51258.8,-260.05,911.2,0.38439,99.85,0
277587,1,52129,2,47401,52175,47647.56,51260.63,-246.56,914.37,0.38439,99.85,0
277627,1,52169,2,47401,52175,47647.07,51262.46,-246.07,912.54,0.383838,99.86,1
277667,1,52209,2,47398,52175,47646.57,51264.29,-248.57,910.71,0.383291,99.86,1
277707,1,52249,2,47394,52176,47646.07,51266.11,-252.07,909.89,0.382747,99.87,1
277747,1,52289,2,47395,52162,47645.57,51267.9,-250.57,894.1,0.382208,99.87,1
277787,1,52329,2,47387,52161,47645.05,51269.69,-258.05,891.31,0.381673,99.87,1
277827,1,52369,2,47380,52158,47644.52,51271.47,-264.52,886.53,0.381143,99.88,1
277867,1,52409,2,47382,52160,47644,51273.25,-262,886.75,0.380618,99.88,1
277908,1,52450,2,47382,52158,47643.48,51275.02,-261.48,882.98,0.380097,99.88,1
277948,1,52490,2,47377,52158,47642.95,51276.78,-265.95,881.22,0.379581,99.89,1
277988,1,52530,2,47373,52161,47642.41,51278.55,-269.41,882.45,0.37907,99.89,1
278028,1,52570,2,47376,52162,47641.87,51280.32,-265.87,881.68,0.378563,99.89,1
278068,1,52610,2,47379,52177,47641.35,51282.11,-262.35,894.89,0.378061,99.9,1
278108,1,52650,2,47381,52180,47640.83,51283.91,-259.83,896.09,0.377563,99.9,1
278148,1,52690,2,47388,52186,47640.33,51285.71,-252.33,900.29,0.377069,99.9,1
278188,1,52730,2,47387,52183,47639.82,51287.51,-252.82,895.49,0.376579,99.91,1
278228,1,52770,2,47383,52177,47639.31,51289.29,-256.31,887.71,0.376093,99.91,1
278268,1,52810,2,47381,52180,47638.8,51291.07,-257.8,888.93,0.375611,99.91,1
278308,1,52850,2,47380,52178,47638.28,51292.85,-258.28,885.15,0.375133,99.91,1
278348,1,52890,2,47376,52184,47637.76,51294.63,-261.76,889.37,0.374659,99.92,1
278388,1,52930,2,47374,52180,47637.23,51296.41,-263.23,883.59,0.37419,99.92,1
278428,1,52970,2,47370,52184,47636.7,51298.18,-266.7,885.82,0.373725,99.92,1
278469,1,53011,2,47374,52177,47636.17,51299.94,-262.17,877.06,0.373264,99.92,1
278509,1,53051,2,47372,52181,47635.64,51301.7,-263.64,879.3,0.372807,99.93,1
278549,1,53091,2,47365,52185,47635.11,51303.47,-270.11,881.53,0.372354,99.93,1
278589,1,53131,2,47367,52190,47634.57,51305.25,-267.57,884.75,0.371905,99.93,1
278629,1,53171,2,47368,52189,47634.04,51307.02,-266.04,881.98,0.371461,99.93,1
278669,1,53211,2,47369,52203,47633.51,51308.81,-264.51,894.19,0.371021,99.94,1
278709,1,53251,2,47373,52211,47632.99,51310.61,-259.99,900.39,0.370584,99.94,1
278749,1,53291,2,47381,52211,47632.49,51312.41,-251.49,898.59,0.370151,99.94,1
278789,1,53331,2,47384,52211,47631.99,51314.21,-247.99,896.79,0.369721,99.94,1
278829,1,53371,2,47377,52215,47631.48,51316.02,-254.48,898.98,0.369294,99.94,1
278869,1,53411,2,47376,52212,47630.98,51317.81,-254.98,894.19,0.368871,99.94,1
278909,1,53451,2,47382,52212,47630.48,51319.6,-248.48,892.4,0.368451,99.95,1
278949,1,53491,2,47380,52205,47629.98,51321.37,-249.98,883.63,0.368034,99.95,1
278989,1,53531,2,47380,52207,47629.48,51323.14,-249.48,883.86,0.36762,99.95,1
279029,1,53571,2,47372,52216,47628.96,51324.93,-256.96,891.07,0.36721,99.95,1
279070,1,53612,2,47370,52219,47628.45,51326.72,-258.45,892.28,0.366803,99.95,1
279110,1,53652,2,47370,52229,47627.93,51328.52,-257.93,900.48,0.3664,99.95,1
279150,1,53692,2,47367,52231,47627.41,51330.33,-260.41,900.67,0.366,99.95,1
279190,1,53732,2,47363,52234,47626.89,51332.14,-263.89,901.86,0.365604,99.96,1
279230,1,53772,2,47370,52239,47626.37,51333.95,-256.37,905.05,0.365211,99.96,1
279270,1,53812,2,47374,52245,47625.87,51335.78,-251.87,909.22,0.36482,99.96,1
279310,1,53852,2,47376,52254,47625.37,51337.61,-249.37,916.39,0.364433,99.96,1
279350,1,53892,2,47384,52253,47624.89,51339.45,-240.89,913.55,0.364048,99.96,1
279390,1,53932,2,47382,52255,47624.41,51341.28,-242.41,913.72,0.363666,99.96,1
279430,1,53972,2,47380,52261,47623.92,51343.12,-243.92,917.88,0.363286,99.96,1
279470,1,54012,2,47384,52257,47623.44,51344.95,-239.44,912.05,0.362908,99.96,1
279510,1,54052,2,47381,52257,47622.95,51346.77,-241.95,910.23,0.362533,99.97,1
279550,1,54092,2,47374,52250,47622.46,51348.58,-248.46,901.42,0.362161,99.97,1
279590,1,54132,2,47375,52254,47621.96,51350.39,-246.96,903.61,0.361791,99.97,1
279631,1,54173,2,47375,52247,47621.47,51352.18,-246.47,894.82,0.361425,99.97,1
279671,1,54213,2,47367,52246,47620.96,51353.97,-253.96,892.03,0.361061,99.97,1
279711,1,54253,2,47364,52253,47620.45,51355.77,-256.45,897.23,0.3607,99.97,1
279751,1,54293,2,47371,52257,47619.96,51357.58,-248.96,899.42,0.360341,99.97,1
279791,1,54333,2,47370,52261,47619.46,51359.39,-249.46,901.61,0.359986,99.97,1
279831,1,54373,2,47373,52272,47618.96,51361.21,-245.96,910.79,0.359633,99.97,1
279871,1,54413,2,47371,52277,47618.47,51363.05,-247.47,913.95,0.359282,99.97,1
279911,1,54453,2,47379,52283,47617.99,51364.89,-238.99,918.11,0.358933,99.97,1
279951,1,54493,2,47379,52280,47617.52,51366.72,-238.52,913.28,0.358587,99.98,1
279991,1,54533,2,47378,52278,47617.04,51368.54,-239.04,909.46,0.358243,99.98,1
280031,1,54573,2,47375,52273,47616.55,51370.35,-241.55,902.65,0.357901,99.98,1
280071,1,54613,2,47374,52267,47616.07,51372.14,-242.07,894.86,0.357561,99.98,1
280111,1,54653,2,47368,52267,47615.57,51373.94,-247.57,893.06,0.357224,99.98,1
280151,1,54693,2,47363,52265,47615.07,51375.72,-252.07,889.28,0.356889,99.98,1
280191,1,54733,2,47364,52263,47614.57,51377.5,-250.57,885.5,0.356557,99.98,1
280232,1,54774,2,47361,52254,47614.06,51379.25,-253.06,874.75,0.356228,99.98,1
280272,1,54814,2,47354,52248,47613.54,51380.99,-259.54,867.01,0.355902,99.98,1
280312,1,54854,2,47348,52248,47613.01,51382.73,-265.01,865.27,0.355579,99.98,1
280352,1,54894,2,47348,52238,47612.48,51384.44,-264.48,853.56,0.35526,99.98,1
280392,1,54934,2,47345,52235,47611.95,51386.14,-266.95,848.86,0.354944,99.98,1
280432,1,54974,2,47338,52236,47611.4,51387.84,-273.4,848.16,0.354631,99.98,1
280472,1,55014,2,47342,52241,47610.86,51389.55,-268.86,851.45,0.354322,99.98,1
280512,1,55054,2,47348,52246,47610.34,51391.26,-262.34,854.74,0.354015,99.98,1
280552,1,55094,2,47352,52245,47609.82,51392.97,-257.82,852.03,0.353712,99.98,1
280592,1,55134,2,47345,52255,47609.3,51394.7,-264.3,860.3,0.353412,99.99,1
280632,1,55174,2,47347,52249,47608.77,51396.41,-261.77,852.59,0.353114,99.99,1
280672,1,55214,2,47346,52243,47608.25,51398.1,-262.25,844.9,0.35282,99.99,1
280712,1,55254,2,47342,52238,47607.72,51399.78,-265.72,838.22,0.352529,99.99,1
280752,1,55294,2,47333,52232,47607.17,51401.45,-274.17,830.55,0.352241,99.99,1
280792,1,55334,2,47332,52229,47606.62,51403.1,-274.62,825.9,0.351957,99.99,1
280833,1,55375,2,47330,52223,47606.07,51404.74,-276.07,818.26,0.351677,99.99,1
280873,1,55415,2,47322,52223,47605.5,51406.38,-283.5,816.62,0.3514,99.99,1
280913,1,55455,2,47319,52217,47604.93,51408,-285.93,809,0.351128,99.99,1
280953,1,55495,2,47323,52225,47604.37,51409.64,-281.37,815.36,0.350859,99.99,1
280993,1,55535,2,47324,52234,47603.81,51411.29,-279.81,822.71,0.350594,99.99,1
281033,1,55575,2,47322,52242,47603.25,51412.95,-281.25,829.05,0.350332,99.99,1
281073,1,55615,2,47335,52255,47602.71,51414.63,-267.71,840.37,0.350073,99.99,1
281113,1,55655,2,47339,52263,47602.19,51416.33,-263.19,846.67,0.349817,99.99,1
281153,1,55695,2,47339,52262,47601.66,51418.02,-262.66,843.98,0.349564,99.99,1
281193,1,55735,2,47339,52272,47601.14,51419.73,-262.14,852.27,0.349313,99.99,1
281233,1,55775,2,47344,52274,47600.63,51421.45,-256.63,852.55,0.349065,99.99,1
281273,1,55815,2,47343,52278,47600.11,51423.16,-257.11,854.84,0.348818,99.99,1
281313,1,55855,2,47344,52285,47599.6,51424.89,-255.6,860.11,0.348574,99.99,1
281353,1,55895,2,47343,52293,47599.09,51426.62,-256.09,866.37,0.348333,99.99,1
281394,1,55936,2,47346,52293,47598.59,51428.36,-252.59,864.64,0.348093,99.99,1
281434,1,55976,2,47343,52295,47598.07,51430.09,-255.07,864.91,0.347855,99.99,1
281474,1,56016,2,47340,52304,47597.56,51431.84,-257.56,872.16,0.34762,99.99,1
281514,1,56056,2,47339,52310,47597.04,51433.6,-258.04,876.4,0.347386,99.99,1
281554,1,56096,2,47353,52317,47596.55,51435.37,-243.55,881.63,0.347155,99.99,1
281594,1,56136,2,47348,52320,47596.06,51437.14,-248.06,882.86,0.346924,99.99,1
281634,1,56176,2,47351,52326,47595.57,51438.92,-244.57,887.08,0.346696,99.99,1
281674,1,56216,2,47355,52330,47595.09,51440.7,-240.09,889.3,0.346468,99.99,1
281714,1,56256,2,47361,52333,47594.62,51442.49,-233.62,890.51,0.346242,99.99,1
281754,1,56296,2,47358,52346,47594.15,51444.3,-236.15,901.7,0.346016,99.99,1
281794,1,56336,2,47377,52349,47593.71,51446.11,-216.71,902.89,0.345791,99.99,1
281834,1,56376,2,47361,52348,47593.25,51447.91,-232.25,900.09,0.345567,99.99,1
281874,1,56416,2,47362,52351,47592.79,51449.72,-230.79,901.28,0.345344,99.99,1
281914,1,56456,2,47361,52353,47592.33,51451.53,-231.33,901.47,0.345122,99.99,1
281955,1,56497,2,47362,52357,47591.87,51453.34,-229.87,903.66,0.3449,99.99,1
281995,1,56537,2,47347,52363,47591.38,51455.16,-244.38,907.84,0.34468,99.99,1
282035,1,56577,2,47358,52376,47590.91,51457.01,-232.91,918.99,0.344461,100,1
282075,1,56617,2,47361,52381,47590.46,51458.86,-229.46,922.14,0.344242,100,1
282115,1,56657,2,47366,52390,47590.01,51460.72,-224.01,929.28,0.344023,100,1
282155,1,56697,2,47367,52391,47589.56,51462.58,-222.56,928.42,0.343805,100,1
282195,1,56737,2,47366,52393,47589.12,51464.45,-223.12,928.55,0.343588,100,1
282235,1,56777,2,47371,52395,47588.68,51466.31,-217.68,928.69,0.34337,100,1
282275,1,56817,2,47379,52396,47588.27,51468.17,-209.27,927.83,0.343152,100,1
282315,1,56857,2,47374,52404,47587.84,51470.04,-213.84,933.96,0.342935,100,1
282355,1,56897,2,47373,52394,47587.41,51471.89,-214.41,922.11,0.342717,100,1
282395,1,56937,2,47377,52398,47586.99,51473.74,-209.99,924.26,0.3425,100,1
282435,1,56977,2,47372,52398,47586.56,51475.59,-214.56,922.41,0.342283,100,1
282475,1,57017,2,47368,52399,47586.12,51477.44,-218.12,921.56,0.342066,100,1
282516,1,57058,2,47365,52391,47585.68,51479.27,-220.68,911.73,0.34185,100,1
282556,1,57098,2,47362,52390,47585.24,51481.09,-223.24,908.91,0.341634,100,1
282596,1,57138,2,47357,52390,47584.78,51482.91,-227.78,907.09,0.341419,100,1
282636,1,57178,2,47358,52396,47584.33,51484.74,-226.33,911.26,0.341204,100,1
282676,1,57218,2,47362,52409,47583.88,51486.59,-221.88,922.41,0.34099,100,1
282716,1,57258,2,47370,52420,47583.46,51488.46,-213.46,931.54,0.340776,100,1
282756,1,57298,2,47369,52418,47583.03,51490.32,-214.03,927.68,0.340562,100,1
282796,1,57338,2,47372,52414,47582.61,51492.17,-210.61,921.83,0.340348,100,1
282836,1,57378,2,47370,52413,47582.18,51494.01,-212.18,918.99,0.340135,100,1
282876,1,57418,2,47370,52411,47581.76,51495.85,-211.76,915.15,0.339921,100,1
282916,1,57458,2,47371,52405,47581.34,51497.67,-210.34,907.33,0.339708,100,1
282956,1,57498,2,47368,52412,47580.91,51499.5,-212.91,912.5,0.339495,100,1
282996,1,57538,2,47361,52417,47580.48,51501.33,-219.48,915.67,0.339282,100,1
283036,1,57578,2,47363,52406,47580.04,51503.14,-217.04,902.86,0.33907,100,1
283077,1,57619,2,47355,52399,47579.59,51504.94,-224.59,894.06,0.338858,100,1
283117,1,57659,2,47350,52411,47579.14,51506.75,-229.14,904.25,0.338648,100,1
283157,1,57699,2,47350,52416,47578.68,51508.57,-228.68,907.43,0.338438,100,1
283197,1,57739,2,47362,52429,47578.25,51510.41,-216.25,918.59,0.338228,100,1
283237,1,57779,2,47362,52438,47577.82,51512.27,-215.82,925.73,0.338019,100,1
283277,1,57819,2,47369,52444,47577.4,51514.13,-208.4,929.87,0.337809,100,1
283317,1,57859,2,47371,52441,47576.99,51515.99,-205.99,925.01,0.3376,100,1
283357,1,57899,2,47368,52434,47576.57,51517.82,-208.57,916.18,0.33739,100,1
283397,1,57939,2,47370,52441,47576.16,51519.67,-206.16,921.33,0.337181,100,1
283437,1,57979,2,47367,52443,47575.74,51521.52,-208.74,921.48,0.336972,100,1
283477,1,58019,2,47364,52434,47575.32,51523.35,-211.32,910.65,0.336762,100,1
283517,1,58059,2,47365,52427,47574.9,51525.16,-209.9,901.84,0.336553,100,1
283557,1,58099,2,47360,52423,47574.47,51526.95,-214.47,896.05,0.336345,100,1
283598,1,58140,2,47352,52415,47574.03,51528.73,-222.03,886.27,0.336137,100,1
283638,1,58180,2,47347,52406,47573.57,51530.49,-226.57,875.51,0.33593,100,1
283678,1,58220,2,47343,52412,47573.11,51532.25,-230.11,879.75,0.335725,100,1
283718,1,58260,2,47343,52421,47572.65,51534.03,-229.65,886.97,0.33552,100,1
283758,1,58300,2,47345,52409,47572.2,51535.78,-227.2,873.22,0.335317,100,1
283798,1,58340,2,47345,52414,47571.75,51537.54,-226.75,876.46,0.335114,100,1
283838,1,58380,2,47346,52424,47571.3,51539.31,-225.3,884.69,0.334912,100,1
283878,1,58420,2,47351,52423,47570.86,51541.08,-219.86,881.92,0.334711,100,1
283918,1,58460,2,47351,52422,47570.42,51542.84,-219.42,879.16,0.334511,100,1
283958,1,58500,2,47354,52428,47569.99,51544.62,-215.99,883.38,0.334311,100,1
283998,1,58540,2,47350,52437,47569.55,51546.4,-219.55,890.6,0.334112,100,1
284038,1,58580,2,47355,52432,47569.12,51548.18,-214.12,883.82,0.333914,100,1
284078,1,58620,2,47354,52425,47568.7,51549.93,-214.7,875.07,0.333715,100,1
284118,1,58660,2,47346,52428,47568.25,51551.69,-222.25,876.31,0.333518,100,1
284158,1,58700,2,47342,52427,47567.8,51553.44,-225.8,873.56,0.333322,100,1
284199,1,58741,2,47343,52425,47567.35,51555.19,-224.35,869.81,0.333127,100,1
284239,1,58781,2,47342,52424,47566.9,51556.93,-224.9,867.07,0.332932,100,1
284279,1,58821,2,47337,52433,47566.44,51558.68,-229.44,874.32,0.332739,100,1
284319,1,58861,2,47336,52422,47565.98,51560.41,-229.98,861.59,0.332547,100,1
284359,1,58901,2,47335,52419,47565.52,51562.12,-230.52,856.87,0.332356,100,1
284399,1,58941,2,47342,52429,47565.07,51563.86,-223.07,865.14,0.332166,100,1
284439,1,58981,2,47345,52433,47564.64,51565.6,-219.64,867.4,0.331976,100,1
284479,1,59021,2,47339,52437,47564.19,51567.34,-225.19,869.66,0.331788,100,1
284519,1,59061,2,47343,52436,47563.75,51569.08,-220.75,866.92,0.3316,100,1
284559,1,59101,2,47343,52434,47563.3,51570.81,-220.3,863.19,0.331414,100,1
284599,1,59141,2,47333,52428,47562.84,51572.53,-229.84,855.47,0.331228,100,1
284639,1,59181,2,47338,52429,47562.39,51574.24,-224.39,854.76,0.331043,100,1
284679,1,59221,2,47335,52432,47561.94,51575.96,-226.94,856.04,0.33086,100,1
284719,1,59261,2,47338,52437,47561.5,51577.68,-223.5,859.32,0.330677,100,1
284759,1,59301,2,47335,52436,47561.04,51579.4,-226.04,856.6,0.330495,100,1
284800,1,59342,2,47331,52432,47560.59,51581.11,-229.59,850.89,0.330315,100,1
284840,1,59382,2,47327,52437,47560.12,51582.82,-233.12,854.18,0.330136,100,1
284880,1,59422,2,47329,52443,47559.66,51584.55,-230.66,858.45,0.329958,100,1
284920,1,59462,2,47328,52444,47559.2,51586.27,-231.2,857.73,0.329781,100,1
284960,1,59502,2,47331,52447,47558.74,51587.99,-227.74,859.01,0.329605,100,1
285000,1,59542,2,47332,52452,47558.29,51589.72,-226.29,862.28,0.32943,100,1
285040,1,59582,2,47340,52454,47557.86,51591.45,-217.86,862.55,0.329256,100,1
285080,1,59622,2,47337,52451,47557.41,51593.17,-220.41,857.83,0.329082,100,1
285120,1,59662,2,47341,52452,47556.98,51594.89,-215.98,857.11,0.328909,100,1
285160,1,59702,2,47340,52453,47556.55,51596.61,-216.55,856.39,0.328737,100,1
285200,1,59742,2,47334,52448,47556.11,51598.31,-222.11,849.69,0.328565,100,1
285240,1,59782,2,47334,52448,47555.66,51600.01,-221.66,847.99,0.328395,100,1
285280,1,59822,2,47328,52445,47555.21,51601.7,-227.21,843.3,0.328225,100,1
285320,1,59862,2,47325,52442,47554.75,51603.38,-229.75,838.62,0.328057,100,1
285361,1,59903,2,47325,52435,47554.29,51605.05,-229.29,829.95,0.32789,100,1
285401,1,59943,2,47318,52435,47553.82,51606.71,-235.82,828.29,0.327724,100,1
285441,1,59983,2,47313,52435,47553.34,51608.36,-240.34,826.64,0.32756,100,1
285481,1,60023,2,47311,52431,47552.86,51610.01,-241.86,820.99,0.327398,100,1
285521,1,60063,2,47315,52442,47552.38,51611.68,-237.38,830.32,0.327238,100,1
285561,1,60103,2,47315,52449,47551.91,51613.35,-236.91,835.65,0.327079,100,1
285601,1,60143,2,47315,52455,47551.44,51615.04,-236.44,839.96,0.326921,100,1
285641,1,60183,2,47323,52451,47550.98,51616.71,-227.98,834.29,0.326764,100,1
285681,1,60223,2,47321,52446,47550.52,51618.37,-229.52,827.63,0.326609,100,1
285721,1,60263,2,47325,52449,47550.07,51620.03,-225.07,828.97,0.326454,100,1
285761,1,60303,2,47314,52440,47549.6,51621.67,-235.6,818.33,0.326301,100,1
285801,1,60343,2,47321,52438,47549.14,51623.3,-228.14,814.7,0.326149,100,1
285841,1,60383,2,47313,52439,47548.67,51624.94,-235.67,814.06,0.325999,100,1
285881,1,60423,2,47311,52431,47548.2,51626.55,-237.2,804.45,0.32585,100,1
285921,1,60463,2,47302,52426,47547.71,51628.15,-245.71,797.85,0.325704,100,1
285962,1,60504,2,47300,52419,47547.21,51629.73,-247.21,789.27,0.325559,100,1
286002,1,60544,2,47300,52417,47546.72,51631.31,-246.72,785.69,0.325417,100,1
286042,1,60584,2,47297,52434,47546.22,51632.91,-249.22,801.09,0.325276,100,1
286082,1,60624,2,47298,52434,47545.72,51634.52,-247.72,799.48,0.325138,100,1
286122,1,60664,2,47303,52437,47545.24,51636.12,-242.24,800.88,0.325001,100,1
286162,1,60704,2,47296,52441,47544.74,51637.73,-248.74,803.27,0.324866,100,1
286202,1,60744,2,47301,52449,47544.26,51639.36,-243.26,809.64,0.324733,100,1
286242,1,60784,2,47312,52456,47543.79,51640.99,-231.79,815.01,0.324601,100,1
286282,1,60824,2,47309,52454,47543.32,51642.62,-234.32,811.38,0.324471,100,1
286322,1,60864,2,47312,52459,47542.86,51644.25,-230.86,814.75,0.324341,100,1
286362,1,60904,2,47312,52456,47542.4,51645.87,-230.4,810.12,0.324213,100,1
286402,1,60944,2,47309,52449,47541.94,51647.48,-232.94,801.52,0.324086,100,1
286442,1,60984,2,47302,52447,47541.46,51649.09,-239.46,797.91,0.32396,100,1
286482,1,61024,2,47299,52451,47540.97,51650.69,-241.97,800.31,0.323836,100,1
286522,1,61064,2,47298,52458,47540.49,51652.31,-242.49,805.69,0.323714,100,1
286563,1,61105,2,47296,52460,47540,51653.93,-244,806.07,0.323593,100,1
286603,1,61145,2,47294,52447,47539.51,51655.51,-245.51,791.49,0.323474,100,1
286643,1,61185,2,47292,52452,47539.02,51657.11,-247.02,794.89,0.323357,100,1
286683,1,61225,2,47290,52452,47538.52,51658.7,-248.52,793.3,0.323242,100,1
286723,1,61265,2,47293,52453,47538.03,51660.29,-245.03,792.71,0.323129,100,1
286763,1,61305,2,47294,52453,47537.54,51661.87,-243.54,791.13,0.323017,100,1
286803,1,61345,2,47299,52463,47537.07,51663.48,-238.07,799.52,0.322907,100,1
286843,1,61385,2,47302,52462,47536.6,51665.07,-234.6,796.93,0.322797,100,1
286883,1,61425,2,47303,52461,47536.13,51666.67,-233.13,794.33,0.322689,100,1
286923,1,61465,2,47300,52468,47535.66,51668.27,-235.66,799.73,0.322583,100,1
286963,1,61505,2,47301,52464,47535.19,51669.87,-234.19,794.13,0.322477,100,1
287003,1,61545,2,47304,52465,47534.73,51671.46,-230.73,793.54,0.322373,100,1
287043,1,61585,2,47294,52457,47534.25,51673.03,-240.25,783.97,0.32227,100,1
287083,1,61625,2,47290,52452,47533.76,51674.59,-243.76,777.41,0.322169,100,1
287123,1,61665,2,47284,52449,47533.26,51676.14,-249.26,772.86,0.322069,100,1
287164,1,61706,2,47284,52442,47532.77,51677.67,-248.77,764.33,0.321972,100,1
287204,1,61746,2,47281,52454,47532.26,51679.23,-251.26,774.77,0.321877,100,1
287244,1,61786,2,47284,52454,47531.77,51680.78,-247.77,773.22,0.321783,100,1
287284,1,61826,2,47280,52451,47531.26,51682.32,-251.26,768.68,0.321692,100,1
287324,1,61866,2,47279,52450,47530.76,51683.86,-251.76,766.14,0.321602,100,1
