t_ms,trial_id,t_trial_ms,phase,red_raw,ir_raw,red_dc,ir_dc,red_ac,ir_ac,R,spo2,spo2_valid
3791023,1,0,0,48081,48645,48215.36,48479.03,-134.36,165.97,0.543431,96.64,1
3791063,1,40,0,48090,48663,48215.11,48479.40,-125.11,183.60,0.543949,96.64,1
3791103,1,80,0,48103,48677,48214.89,48479.79,-111.89,197.21,0.544463,96.63,1
3791143,1,120,0,48094,48598,48214.65,48480.03,-120.65,117.97,0.544978,96.62,1
3791183,1,160,0,48023,48478,48214.27,48480.03,-191.27,-2.03,0.545504,96.61,1
3791223,1,200,0,47974,48424,48213.79,48479.92,-239.79,-55.92,0.546047,96.61,1
3791263,1,240,0,47974,48453,48213.31,48479.87,-239.31,-26.87,0.546608,96.60,1
3791303,1,280,0,48002,48510,48212.89,48479.93,-210.89,30.07,0.547182,96.59,1
3791343,1,320,0,48034,48564,48212.53,48480.10,-178.53,83.90,0.547764,96.58,1
3791383,1,360,0,48056,48603,48212.22,48480.34,-156.22,122.66,0.548350,96.57,1
3791423,1,400,0,48056,48581,48211.91,48480.55,-155.91,100.45,0.548940,96.56,1
3791463,1,440,0,48049,48562,48211.58,48480.71,-162.58,81.29,0.549537,96.55,1
3791503,1,480,0,48039,48556,48211.24,48480.86,-172.24,75.14,0.550141,96.55,1
3791543,1,520,0,48040,48562,48210.90,48481.03,-170.90,80.97,0.550752,96.54,1
3791583,1,560,0,48040,48564,48210.56,48481.20,-170.56,82.80,0.551371,96.53,1
3791623,1,600,0,48046,48587,48210.23,48481.41,-164.23,105.59,0.551994,96.52,1
3791663,1,640,0,48053,48613,48209.92,48481.67,-156.92,131.33,0.552621,96.51,1
3791703,1,680,0,48065,48640,48209.63,48481.99,-144.63,158.01,0.553249,96.50,1
3791744,1,721,0,48076,48664,48209.36,48482.36,-133.36,181.64,0.553874,96.49,1
3791784,1,761,0,48085,48693,48209.12,48482.78,-124.12,210.22,0.554495,96.48,1
3791824,1,801,0,48099,48719,48208.90,48483.25,-109.90,235.75,0.555106,96.47,1
3791864,1,841,0,48092,48675,48208.66,48483.63,-116.66,191.37,0.555712,96.45,1
3791904,1,881,0,48042,48545,48208.33,48483.76,-166.33,61.24,0.556326,96.44,1
3791944,1,921,0,47982,48450,48207.88,48483.69,-225.88,-33.69,0.556957,96.43,1
3791984,1,961,0,47960,48451,48207.38,48483.63,-247.38,-32.63,0.557608,96.42,1
3792024,1,1001,0,47973,48487,48206.91,48483.64,-233.91,3.36,0.558277,96.41,1
3792064,1,1041,0,47987,48519,48206.48,48483.71,-219.48,35.29,0.558962,96.40,1
3792104,1,1081,0,48011,48562,48206.09,48483.86,-195.09,78.14,0.559657,96.39,1
3792144,1,1121,0,48030,48573,48205.73,48484.04,-175.73,88.96,0.560359,96.37,1
3792184,1,1161,0,48028,48558,48205.38,48484.19,-177.38,73.81,0.561070,96.36,1
3792224,1,1201,0,48023,48547,48205.02,48484.32,-182.02,62.68,0.561790,96.35,1
3792264,1,1241,0,48019,48554,48204.64,48484.46,-185.64,69.54,0.562520,96.34,1
3792304,1,1281,0,48023,48574,48204.28,48484.64,-181.28,89.36,0.563258,96.33,1
3792344,1,1321,0,48034,48591,48203.94,48484.85,-169.94,106.15,0.564002,96.31,1
3792384,1,1361,0,48043,48608,48203.62,48485.10,-160.62,122.90,0.564750,96.30,1
3792424,1,1401,0,48053,48632,48203.32,48485.39,-150.32,146.61,0.565499,96.29,1
3792464,1,1441,0,48058,48652,48203.03,48485.73,-145.03,166.27,0.566247,96.27,1
3792504,1,1481,0,48069,48673,48202.77,48486.11,-133.77,186.89,0.566991,96.26,1
3792544,1,1521,0,48078,48687,48202.52,48486.51,-124.52,200.49,0.567728,96.25,1
3792585,1,1562,0,48076,48646,48202.27,48486.83,-126.27,159.17,0.568463,96.23,1
3792625,1,1602,0,48022,48499,48201.91,48486.86,-179.91,12.14,0.569208,96.22,1
3792665,1,1642,0,47946,48389,48201.39,48486.66,-255.39,-97.66,0.569974,96.20,1
3792705,1,1682,0,47912,48361,48200.82,48486.41,-288.82,-125.41,0.570766,96.19,1
3792745,1,1722,0,47917,48400,48200.25,48486.24,-283.25,-86.24,0.571585,96.18,1
3792785,1,1762,0,47943,48430,48199.74,48486.13,-256.74,-56.13,0.572425,96.16,1
3792825,1,1802,0,47960,48459,48199.26,48486.07,-239.26,-27.07,0.573286,96.15,1
3792865,1,1842,0,47974,48475,48198.81,48486.05,-224.81,-11.05,0.574163,96.13,1
3792905,1,1882,0,47974,48472,48198.36,48486.03,-224.36,-14.03,0.575057,96.12,1
3792945,1,1922,0,47969,48458,48197.91,48485.97,-228.91,-27.97,0.575968,96.10,1
3792985,1,1962,0,47969,48472,48197.45,48485.95,-228.45,-13.95,0.576897,96.09,1
3793025,1,2002,0,47983,48490,48197.02,48485.95,-214.02,4.05,0.577842,96.07,1
3793065,1,2042,0,47997,48513,48196.62,48486.01,-199.62,26.99,0.578798,96.05,1
3793105,1,2082,0,48008,48542,48196.25,48486.12,-188.25,55.88,0.579765,96.04,1
3793145,1,2122,0,48019,48560,48195.90,48486.27,-176.90,73.73,0.580740,96.02,1
3793185,1,2162,0,48030,48570,48195.57,48486.44,-165.57,83.56,0.581721,96.00,1
3793225,1,2202,0,48038,48586,48195.25,48486.64,-157.25,99.36,0.582705,95.99,1
3793265,1,2242,0,48041,48597,48194.95,48486.86,-153.95,110.14,0.583692,95.97,1
3793305,1,2282,0,48046,48605,48194.65,48487.10,-148.65,117.90,0.584680,95.95,1
3793345,1,2322,0,48037,48543,48194.34,48487.21,-157.34,55.79,0.585674,95.93,1
3793385,1,2362,0,47974,48393,48193.90,48487.02,-219.90,-94.02,0.586682,95.92,1
3793425,1,2402,0,47900,48287,48193.31,48486.62,-293.31,-199.62,0.587709,95.90,1
3793466,1,2443,0,47878,48281,48192.68,48486.21,-314.68,-205.21,0.588757,95.88,1
3793506,1,2483,0,47890,48297,48192.08,48485.84,-302.08,-188.84,0.589827,95.86,1
3793546,1,2523,0,47902,48329,48191.50,48485.52,-289.50,-156.52,0.590918,95.84,1
3793586,1,2563,0,47909,48359,48190.94,48485.27,-281.94,-126.27,0.592031,95.82,1
3793626,1,2603,0,47930,48373,48190.42,48485.05,-260.42,-112.05,0.593163,95.80,1
3793666,1,2643,0,47934,48367,48189.91,48484.82,-255.91,-117.82,0.594313,95.78,1
3793706,1,2683,0,47933,48359,48189.39,48484.57,-256.39,-125.57,0.595480,95.76,1
3793746,1,2723,0,47934,48373,48188.89,48484.34,-254.89,-111.34,0.596664,95.74,1
3793786,1,2763,0,47940,48398,48188.39,48484.17,-248.39,-86.17,0.597865,95.72,1
3793826,1,2803,0,47959,48427,48187.93,48484.06,-228.93,-57.06,0.599083,95.70,1
3793866,1,2843,0,47976,48451,48187.51,48483.99,-211.51,-32.99,0.600314,95.68,1
3793906,1,2883,0,47990,48475,48187.12,48483.98,-197.12,-8.98,0.601558,95.66,1
3793946,1,2923,0,47999,48484,48186.74,48483.98,-187.74,0.02,0.602811,95.64,1
3793986,1,2963,0,48002,48495,48186.37,48484.00,-184.37,11.00,0.604075,95.61,1
3794026,1,3003,0,48008,48508,48186.02,48484.05,-178.02,23.95,0.605347,95.59,1
3794066,1,3043,0,48016,48521,48185.68,48484.12,-169.68,36.88,0.606627,95.57,1
3794106,1,3083,0,48019,48511,48185.35,48484.18,-166.35,26.82,0.607914,95.55,1
3794146,1,3123,0,47993,48397,48184.96,48484.01,-191.96,-87.01,0.609209,95.52,1
3794186,1,3163,0,47914,48254,48184.43,48483.55,-270.43,-229.55,0.610507,95.50,1
3794226,1,3203,0,47867,48203,48183.79,48482.99,-316.79,-279.99,0.611807,95.47,1
3794266,1,3243,0,47868,48229,48183.16,48482.48,-315.16,-253.48,0.613116,95.45,1
3794307,1,3284,0,47885,48259,48182.57,48482.04,-297.57,-223.04,0.614435,95.43,1
3794347,1,3324,0,47907,48297,48182.02,48481.67,-275.02,-184.67,0.615764,95.40,1
3794387,1,3364,0,47920,48320,48181.50,48481.35,-261.50,-161.35,0.617106,95.38,1
3794427,1,3404,0,47925,48315,48180.98,48481.02,-255.98,-166.02,0.618457,95.35,1
3794467,1,3444,0,47917,48296,48180.46,48480.65,-263.46,-184.65,0.619816,95.33,1
3794507,1,3484,0,47916,48301,48179.93,48480.29,-263.93,-179.29,0.621184,95.30,1
3794547,1,3524,0,47923,48316,48179.42,48479.96,-256.42,-163.96,0.622561,95.27,1
3794587,1,3564,0,47936,48348,48178.93,48479.70,-242.93,-131.70,0.623950,95.25,1
3794627,1,3604,0,47953,48378,48178.48,48479.50,-225.48,-101.50,0.625349,95.22,1
3794667,1,3644,0,47964,48397,48178.06,48479.34,-214.06,-82.34,0.626760,95.20,1
3794707,1,3684,0,47977,48418,48177.66,48479.21,-200.66,-61.21,0.628180,95.17,1
3794747,1,3724,0,47991,48433,48177.29,48479.12,-186.29,-46.13,0.629609,95.14,1
3794787,1,3764,0,48001,48442,48176.93,48479.05,-175.93,-37.05,0.631045,95.11,1
3794827,1,3804,0,48002,48454,48176.59,48479.00,-174.59,-25.00,0.632488,95.09,1
3794867,1,3844,0,47994,48372,48176.22,48478.79,-182.22,-106.79,0.633936,95.06,1
3794907,1,3884,0,47926,48220,48175.72,48478.27,-249.72,-258.27,0.635371,95.03,1
3794947,1,3924,0,47867,48154,48175.11,48477.62,-308.11,-323.62,0.636788,95.00,1
3794987,1,3964,0,47861,48163,48174.48,48477.00,-313.48,-314.00,0.638194,94.97,1
3795027,1,4004,0,47878,48201,48173.89,48476.45,-295.89,-275.45,0.639593,94.94,1
3795067,1,4044,0,47898,48241,48173.34,48475.98,-275.34,-234.98,0.640992,94.91,1
3795107,1,4084,0,47916,48269,48172.82,48475.56,-256.82,-206.56,0.642393,94.89,1
3795148,1,4125,0,47928,48265,48172.34,48475.14,-244.34,-210.14,0.643791,94.86,1
3795188,1,4165,0,47921,48249,48171.84,48474.70,-250.84,-225.70,0.645185,94.83,1
3795228,1,4205,0,47912,48243,48171.32,48474.23,-259.32,-231.23,0.646577,94.80,1
3795268,1,4245,0,47917,48259,48170.81,48473.80,-253.81,-214.80,0.647967,94.77,1
3795308,1,4285,0,47931,48293,48170.33,48473.45,-239.33,-180.45,0.649360,94.74,1
3795348,1,4325,0,47946,48319,48169.88,48473.14,-223.88,-154.14,0.650756,94.71,1
3795388,1,4365,0,47961,48348,48169.46,48472.89,-208.46,-124.89,0.652157,94.68,1
3795428,1,4405,0,47973,48371,48169.07,48472.68,-196.07,-101.68,0.653564,94.65,1
3795468,1,4445,0,47982,48393,48168.70,48472.53,-186.70,-79.53,0.654977,94.62,1
3795508,1,4485,0,47998,48411,48168.36,48472.41,-170.36,-61.41,0.656395,94.58,1
3795548,1,4525,0,47992,48348,48168.01,48472.16,-176.01,-124.16,0.657813,94.55,1
3795588,1,4565,0,47935,48189,48167.55,48471.59,-232.55,-282.59,0.659209,94.52,1
3795628,1,4605,0,47870,48097,48166.95,48470.85,-296.95,-373.85,0.660569,94.49,1
3795668,1,4645,0,47855,48111,48166.33,48470.13,-311.33,-359.13,0.661903,94.46,1
3795708,1,4685,0,47872,48140,48165.75,48469.47,-293.75,-329.47,0.663217,94.43,1
3795748,1,4725,0,47890,48164,48165.20,48468.86,-275.20,-304.86,0.664514,94.40,1
3795788,1,4765,0,47913,48206,48164.69,48468.34,-251.69,-262.34,0.665802,94.37,1
3795828,1,4805,0,47925,48213,48164.21,48467.83,-239.21,-254.83,0.667078,94.34,1
3795868,1,4845,0,47925,48204,48163.74,48467.30,-238.74,-263.30,0.668342,94.30,1
3795908,1,4885,0,47927,48198,48163.27,48466.76,-236.27,-268.76,0.669592,94.27,1
3795948,1,4925,0,47923,48215,48162.79,48466.26,-239.79,-251.26,0.670833,94.24,1
3795988,1,4965,0,47941,48242,48162.34,48465.81,-221.34,-223.81,0.672067,94.21,1
3796029,1,5006,0,47957,48271,48161.93,48465.42,-204.93,-194.42,0.673297,94.18,1
3796069,1,5046,0,47969,48298,48161.55,48465.09,-192.55,-167.09,0.674525,94.15,1
3796109,1,5086,0,47984,48327,48161.20,48464.82,-177.20,-137.82,0.675752,94.12,1
3796149,1,5126,0,47996,48356,48160.87,48464.60,-164.87,-108.60,0.676981,94.09,1
3796189,1,5166,0,48007,48363,48160.56,48464.40,-153.56,-101.40,0.678209,94.05,1
3796229,1,5206,0,47985,48254,48160.21,48463.98,-175.21,-209.98,0.679427,94.02,1
3796269,1,5246,0,47916,48096,48159.72,48463.25,-243.72,-367.25,0.680608,93.99,1
3796309,1,5286,0,47855,48035,48159.11,48462.39,-304.11,-427.39,0.681745,93.96,1
3796349,1,5326,0,47851,48046,48158.50,48461.56,-307.50,-415.56,0.682847,93.93,1
3796389,1,5366,0,47870,48068,48157.93,48460.77,-287.93,-392.77,0.683918,93.90,1
3796429,1,5406,0,47890,48088,48157.39,48460.03,-267.39,-372.03,0.684961,93.87,1
3796469,1,5446,0,47913,48128,48156.90,48459.36,-243.90,-331.36,0.685983,93.84,1
3796509,1,5486,0,47937,48149,48156.46,48458.74,-219.46,-309.74,0.686985,93.81,1
3796549,1,5526,0,47937,48142,48156.03,48458.11,-219.03,-316.11,0.687967,93.78,1
3796589,1,5566,0,47937,48147,48155.59,48457.49,-218.59,-310.49,0.688929,93.75,1
3796629,1,5606,0,47943,48159,48155.16,48456.89,-212.16,-297.89,0.689876,93.72,1
3796669,1,5646,0,47965,48185,48154.79,48456.35,-189.79,-271.35,0.690807,93.69,1
3796709,1,5686,0,47981,48217,48154.44,48455.87,-173.44,-238.87,0.691727,93.66,1
3796749,1,5726,0,47989,48238,48154.11,48455.44,-165.11,-217.44,0.692639,93.63,1
3796789,1,5766,0,47999,48264,48153.80,48455.05,-154.80,-191.05,0.693544,93.60,1
3796829,1,5806,0,48010,48291,48153.52,48454.73,-143.52,-163.73,0.694445,93.57,1
3796869,1,5846,0,48021,48312,48153.25,48454.44,-132.25,-142.44,0.695342,93.54,1
3796910,1,5887,0,48027,48283,48153.00,48454.10,-126.00,-171.10,0.696232,93.51,1
3796950,1,5927,0,47981,48128,48152.66,48453.45,-171.66,-325.45,0.697096,93.49,1
3796990,1,5967,0,47899,47998,48152.15,48452.54,-253.15,-454.54,0.697916,93.46,1
3797030,1,6007,0,47866,47971,48151.58,48451.58,-285.58,-480.58,0.698692,93.43,1
3797070,1,6047,0,47873,47992,48151.02,48450.66,-278.02,-458.66,0.699432,93.40,1
3797110,1,6087,0,47888,48004,48150.50,48449.77,-262.50,-445.77,0.700138,93.38,1
3797150,1,6127,0,47903,48041,48150.01,48448.95,-247.01,-407.95,0.700818,93.35,1
3797190,1,6167,0,47931,48088,48149.57,48448.23,-218.57,-360.23,0.701477,93.32,1
3797230,1,6207,0,47950,48107,48149.17,48447.55,-199.17,-340.55,0.702118,93.30,1
3797270,1,6247,0,47953,48104,48148.78,48446.87,-195.78,-342.87,0.702739,93.27,1
3797310,1,6287,0,47957,48111,48148.40,48446.20,-191.40,-335.20,0.703343,93.24,1
3797350,1,6327,0,47971,48141,48148.04,48445.59,-177.04,-304.59,0.703933,93.22,1
3797390,1,6367,0,47987,48170,48147.72,48445.04,-160.72,-275.04,0.704511,93.19,1
3797430,1,6407,0,48003,48202,48147.43,48444.55,-144.43,-242.55,0.705079,93.17,1
3797470,1,6447,0,48018,48229,48147.18,48444.12,-129.18,-215.12,0.705640,93.14,1
3797510,1,6487,0,48028,48252,48146.94,48443.74,-118.94,-191.74,0.706195,93.12,1
3797550,1,6527,0,48039,48272,48146.72,48443.39,-107.72,-171.39,0.706745,93.10,1
3797590,1,6567,0,48046,48285,48146.52,48443.08,-100.52,-158.08,0.707291,93.07,1
3797630,1,6607,0,48058,48305,48146.35,48442.80,-88.35,-137.80,0.707833,93.05,1
3797670,1,6647,0,48066,48325,48146.19,48442.57,-80.19,-117.57,0.708372,93.03,1
3797710,1,6687,0,48073,48353,48146.04,48442.39,-73.04,-89.39,0.708908,93.01,1
3797750,1,6727,0,48087,48375,48145.93,48442.26,-58.93,-67.26,0.709444,92.98,1
3797791,1,6768,0,48097,48406,48145.83,48442.19,-48.83,-36.19,0.709978,92.96,1
3797831,1,6808,0,48112,48428,48145.76,48442.16,-33.76,-14.16,0.710511,92.94,1
3797871,1,6848,0,48124,48442,48145.72,48442.16,-21.72,-0.16,0.711042,92.92,1
3797911,1,6888,0,48099,48322,48145.62,48441.92,-46.63,-119.92,0.711569,92.90,1
3797951,1,6928,0,48012,48144,48145.36,48441.33,-133.36,-297.33,0.712079,92.88,1
3797991,1,6968,0,47947,48067,48144.96,48440.58,-197.96,-373.58,0.712565,92.86,1
3798031,1,7008,0,47942,48079,48144.56,48439.86,-202.56,-360.86,0.713032,92.83,1
3798071,1,7048,0,47954,48104,48144.18,48439.19,-190.18,-335.19,0.713482,92.81,1
3798111,1,7088,0,47960,48132,48143.81,48438.57,-183.81,-306.57,0.713921,92.79,1
3798151,1,7128,0,47982,48176,48143.49,48438.05,-161.49,-262.05,0.714350,92.78,1
3798191,1,7168,0,48010,48199,48143.22,48437.57,-133.22,-238.57,0.714771,92.76,1
3798231,1,7208,0,48014,48189,48142.96,48437.08,-128.96,-248.08,0.715182,92.74,1
3798271,1,7248,0,48008,48189,48142.70,48436.58,-134.70,-247.58,0.715583,92.72,1
3798311,1,7288,0,48019,48204,48142.45,48436.12,-123.45,-232.12,0.715976,92.70,1
3798351,1,7328,0,48029,48238,48142.22,48435.72,-113.22,-197.72,0.716363,92.68,1
3798391,1,7368,0,48046,48276,48142.03,48435.41,-96.03,-159.41,0.716746,92.66,1
3798431,1,7408,0,48061,48295,48141.87,48435.12,-80.87,-140.12,0.717126,92.65,1
3798471,1,7448,0,48074,48316,48141.74,48434.89,-67.74,-118.89,0.717503,92.63,1
3798511,1,7488,0,48085,48341,48141.62,48434.70,-56.63,-93.70,0.717878,92.61,1
3798551,1,7528,0,48091,48355,48141.52,48434.54,-50.52,-79.54,0.718250,92.59,1
3798591,1,7568,0,48097,48364,48141.44,48434.40,-44.44,-70.40,0.718622,92.58,1
3798631,1,7608,0,48103,48380,48141.36,48434.29,-38.36,-54.29,0.718992,92.56,1
3798671,1,7648,0,48110,48397,48141.30,48434.22,-31.30,-37.22,0.719361,92.54,1
3798712,1,7689,0,48116,48420,48141.25,48434.19,-25.25,-14.19,0.719729,92.53,1
3798752,1,7729,0,48129,48439,48141.23,48434.20,-12.23,4.80,0.720095,92.51,1
3798792,1,7769,0,48122,48373,48141.19,48434.08,-19.19,-61.08,0.720460,92.50,1
3798832,1,7809,0,48059,48228,48141.02,48433.67,-82.02,-205.67,0.720816,92.48,1
3798872,1,7849,0,48003,48163,48140.75,48433.13,-137.75,-270.13,0.721160,92.47,1
3798912,1,7889,0,47994,48173,48140.46,48432.61,-146.46,-259.61,0.721494,92.45,1
3798952,1,7929,0,48013,48206,48140.20,48432.16,-127.20,-226.16,0.721820,92.44,1
3798992,1,7969,0,48030,48256,48139.98,48431.81,-109.98,-175.81,0.722142,92.42,1
3799032,1,8009,0,48055,48302,48139.82,48431.55,-84.82,-129.55,0.722461,92.41,1
3799072,1,8049,0,48076,48317,48139.69,48431.32,-63.69,-114.32,0.722778,92.39,1
3799112,1,8089,0,48080,48315,48139.57,48431.09,-59.57,-116.09,0.723092,92.38,1
3799152,1,8129,0,48081,48312,48139.46,48430.86,-58.46,-118.86,0.723402,92.36,1
3799192,1,8169,0,48088,48336,48139.36,48430.67,-51.36,-94.67,0.723711,92.35,1
3799232,1,8209,0,48097,48367,48139.27,48430.54,-42.27,-63.54,0.724018,92.34,1
3799272,1,8249,0,48117,48407,48139.23,48430.50,-22.23,-23.50,0.724324,92.32,1
3799312,1,8289,0,48129,48436,48139.21,48430.51,-10.21,5.49,0.724630,92.31,1
3799352,1,8329,0,48143,48460,48139.22,48430.57,3.78,29.43,0.724934,92.30,1
3799392,1,8369,0,48153,48488,48139.25,48430.68,13.75,57.32,0.725236,92.28,1
3799432,1,8409,0,48162,48509,48139.29,48430.84,22.71,78.16,0.725537,92.27,1
3799472,1,8449,0,48169,48525,48139.36,48431.03,29.64,93.97,0.725834,92.26,1
3799512,1,8489,0,48180,48543,48139.44,48431.26,40.56,111.74,0.726128,92.25,1
3799553,1,8530,0,48186,48562,48139.53,48431.52,46.47,130.48,0.726417,92.23,1
3799593,1,8570,0,48193,48582,48139.64,48431.82,53.36,150.18,0.726700,92.22,1
3799633,1,8610,0,48194,48540,48139.75,48432.04,54.25,107.96,0.726981,92.21,1
3799673,1,8650,0,48133,48389,48139.74,48431.95,-6.74,-42.95,0.727260,92.20,1
3799713,1,8690,0,48068,48291,48139.60,48431.67,-71.60,-140.67,0.727535,92.19,1
3799753,1,8730,0,48043,48290,48139.41,48431.39,-96.41,-141.39,0.727808,92.18,1
3799793,1,8770,0,48060,48311,48139.25,48431.15,-79.25,-120.15,0.728078,92.16,1
3799833,1,8810,0,48075,48335,48139.12,48430.96,-64.12,-95.96,0.728347,92.15,1
3799873,1,8850,0,48081,48372,48139.01,48430.84,-58.01,-58.84,0.728615,92.14,1
3799913,1,8890,0,48098,48401,48138.93,48430.79,-40.93,-29.79,0.728883,92.13,1
3799953,1,8930,0,48109,48405,48138.87,48430.73,-29.87,-25.73,0.729151,92.12,1
3799993,1,8970,0,48112,48401,48138.82,48430.68,-26.82,-29.68,0.729418,92.11,1
3800033,1,9010,0,48115,48404,48138.77,48430.62,-23.77,-26.62,0.729683,92.10,1
3800073,1,9050,0,48122,48432,48138.74,48430.63,-16.74,1.37,0.729949,92.09,1
3800113,1,9090,0,48135,48463,48138.73,48430.70,-3.73,32.30,0.730213,92.08,1
3800153,1,9130,0,48149,48487,48138.75,48430.81,10.25,56.19,0.730475,92.07,1
3800193,1,9170,0,48161,48508,48138.80,48430.96,22.20,77.04,0.730736,92.06,1
3800233,1,9210,0,48171,48527,48138.87,48431.16,32.13,95.84,0.730993,92.05,1
3800273,1,9250,0,48177,48547,48138.95,48431.39,38.05,115.61,0.731245,92.04,1
3800313,1,9290,0,48182,48564,48139.03,48431.66,42.97,132.34,0.731493,92.03,1
3800353,1,9330,0,48188,48578,48139.13,48431.95,48.87,146.05,0.731734,92.02,1
3800393,1,9370,0,48193,48591,48139.24,48432.27,53.76,158.73,0.731968,92.01,1
3800434,1,9411,0,48199,48609,48139.36,48432.62,59.64,176.37,0.732193,92.00,1
3800474,1,9451,0,48209,48639,48139.50,48433.04,69.50,205.96,0.732407,91.99,1
3800514,1,9491,0,48214,48633,48139.65,48433.44,74.35,199.56,0.732611,91.98,1
3800554,1,9531,0,48182,48515,48139.73,48433.61,42.27,81.39,0.732812,91.97,1
3800594,1,9571,0,48108,48373,48139.67,48433.48,-31.67,-60.48,0.733013,91.96,1
3800634,1,9611,0,48062,48333,48139.52,48433.29,-77.52,-100.29,0.733213,91.95,1
3800674,1,9651,0,48061,48349,48139.36,48433.12,-78.36,-84.12,0.733413,91.95,1
3800714,1,9691,0,48071,48360,48139.23,48432.97,-68.23,-72.97,0.733613,91.94,1
3800754,1,9731,0,48077,48387,48139.10,48432.88,-62.10,-45.88,0.733813,91.93,1
3800794,1,9771,0,48097,48443,48139.02,48432.90,-42.02,10.10,0.734014,91.92,1
3800834,1,9811,0,48120,48467,48138.98,48432.97,-18.98,34.03,0.734215,91.91,1
3800874,1,9851,0,48126,48473,48138.96,48433.05,-12.96,39.95,0.734414,91.90,1
3800914,1,9891,0,48130,48476,48138.95,48433.14,-8.95,42.86,0.734612,91.90,1
3800954,1,9931,0,48133,48489,48138.93,48433.25,-5.93,55.75,0.734808,91.89,1
3800994,1,9971,0,48146,48523,48138.95,48433.43,7.05,89.57,0.735001,91.88,1
3801034,1,10011,0,48161,48547,48139.00,48433.66,22.00,113.34,0.735189,91.87,1
3801074,1,10051,0,48171,48570,48139.06,48433.93,31.94,136.07,0.735371,91.86,1
3801114,1,10091,0,48182,48591,48139.15,48434.25,42.85,156.75,0.735545,91.86,1
3801154,1,10131,0,48187,48614,48139.25,48434.61,47.75,179.39,0.735709,91.85,1
3801194,1,10171,0,48199,48629,48139.37,48435.00,59.63,194.00,0.735861,91.84,1
3801234,1,10211,0,48201,48641,48139.49,48435.41,61.51,205.59,0.736000,91.83,1
3801274,1,10251,0,48207,48655,48139.63,48435.86,67.37,219.14,0.736126,91.83,1
3801315,1,10292,0,48214,48669,48139.78,48436.32,74.22,232.68,0.736235,91.82,1
3801355,1,10332,0,48219,48694,48139.94,48436.84,79.06,257.16,0.736327,91.81,1
3801395,1,10372,0,48227,48718,48140.11,48437.40,86.89,280.60,0.736396,91.81,1
3801435,1,10412,0,48231,48706,48140.30,48437.94,90.70,268.06,0.736448,91.80,1
3801475,1,10452,0,48197,48579,48140.41,48438.23,56.59,140.77,0.736495,91.79,1
3801515,1,10492,0,48120,48438,48140.37,48438.23,-20.37,-0.23,0.736541,91.79,1
3801555,1,10532,0,48083,48410,48140.26,48438.17,-57.26,-28.17,0.736590,91.78,1
3801595,1,10572,0,48080,48431,48140.14,48438.16,-60.14,-7.16,0.736640,91.78,1
3801635,1,10612,0,48092,48456,48140.04,48438.20,-48.04,17.80,0.736691,91.77,1
3801675,1,10652,0,48107,48489,48139.98,48438.30,-32.98,50.70,0.736742,91.76,1
3801715,1,10692,0,48124,48504,48139.95,48438.43,-15.95,65.57,0.736792,91.76,1
3801755,1,10732,0,48128,48504,48139.92,48438.56,-11.92,65.44,0.736840,91.75,1
3801795,1,10772,0,48127,48487,48139.90,48438.66,-12.90,48.34,0.736887,91.75,1
3801835,1,10812,0,48118,48492,48139.86,48438.77,-21.86,53.23,0.736934,91.74,1
3801875,1,10852,0,48123,48515,48139.82,48438.92,-16.82,76.08,0.736978,91.74,1
3801915,1,10892,0,48140,48547,48139.82,48439.14,0.18,107.86,0.737019,91.73,1
3801955,1,10932,0,48157,48580,48139.86,48439.42,17.14,140.58,0.737052,91.73,1
3801995,1,10972,0,48168,48608,48139.92,48439.76,28.08,168.24,0.737076,91.72,1
3802035,1,11012,0,48180,48632,48140.00,48440.15,40.00,191.85,0.737088,91.72,1
3802075,1,11052,0,48188,48647,48140.10,48440.56,47.90,206.44,0.737088,91.71,1
3802115,1,11092,0,48190,48656,48140.20,48441.00,49.80,215.00,0.737073,91.71,1
3802156,1,11133,0,48196,48667,48140.31,48441.45,55.69,225.55,0.737042,91.71,1
3802196,1,11173,0,48202,48681,48140.44,48441.93,61.56,239.07,0.736996,91.70,1
3802236,1,11213,0,48205,48705,48140.57,48442.46,64.43,262.54,0.736930,91.70,1
3802276,1,11253,0,48217,48730,48140.72,48443.04,76.28,286.96,0.736841,91.70,1
3802316,1,11293,0,48218,48699,48140.87,48443.55,77.12,255.45,0.736737,91.69,1
3802356,1,11333,0,48176,48574,48140.95,48443.81,35.05,130.19,0.736628,91.69,1
3802396,1,11373,0,48117,48491,48140.90,48443.90,-23.90,47.10,0.736519,91.69,1
3802436,1,11413,0,48098,48498,48140.81,48444.01,-42.81,53.99,0.736410,91.68,1
3802476,1,11453,0,48113,48547,48140.76,48444.22,-27.76,102.78,0.736300,91.68,1
3802516,1,11493,0,48138,48590,48140.75,48444.51,-2.75,145.49,0.736182,91.68,1
3802556,1,11533,0,48156,48621,48140.79,48444.87,15.21,176.13,0.736056,91.68,1
3802596,1,11573,0,48172,48632,48140.85,48445.24,31.15,186.76,0.735919,91.67,1
3802636,1,11613,0,48173,48617,48140.91,48445.59,32.09,171.41,0.735775,91.67,1
3802676,1,11653,0,48164,48614,48140.96,48445.93,23.04,168.07,0.735622,91.67,1
3802716,1,11693,0,48162,48620,48141.00,48446.27,21.00,173.73,0.735461,91.67,1
3802756,1,11733,0,48168,48643,48141.06,48446.67,26.94,196.33,0.735289,91.67,1
3802796,1,11773,0,48179,48670,48141.14,48447.12,37.86,222.88,0.735102,91.66,1
3802836,1,11813,0,48193,48693,48141.24,48447.61,51.76,245.39,0.734900,91.66,1
3802876,1,11853,0,48199,48712,48141.36,48448.14,57.64,263.86,0.734681,91.66,1
3802916,1,11893,0,48209,48728,48141.50,48448.70,67.50,279.30,0.734442,91.66,1
3802956,1,11933,0,48211,48742,48141.64,48449.29,69.36,292.71,0.734183,91.66,1
3802996,1,11973,0,48215,48754,48141.79,48449.90,73.21,304.10,0.733902,91.66,1
3803037,1,12014,0,48219,48771,48141.94,48450.54,77.06,320.46,0.733599,91.66,1
3803077,1,12054,0,48229,48795,48142.12,48451.23,86.88,343.77,0.733271,91.66,1
3803117,1,12094,0,48239,48816,48142.31,48451.96,96.69,364.04,0.732917,91.66,1
3803157,1,12134,0,48237,48763,48142.50,48452.59,94.50,310.41,0.732547,91.66,1
3803197,1,12174,0,48178,48617,48142.57,48452.92,35.43,164.08,0.732172,91.66,1
3803237,1,12214,0,48113,48521,48142.52,48453.05,-29.52,67.95,0.731797,91.66,1
3803277,1,12254,0,48096,48523,48142.43,48453.20,-46.43,69.80,0.731424,91.67,1
3803317,1,12294,0,48104,48558,48142.35,48453.41,-38.35,104.59,0.731051,91.67,1
3803357,1,12334,0,48123,48581,48142.31,48453.66,-19.31,127.34,0.730675,91.67,1
3803397,1,12374,0,48139,48607,48142.31,48453.97,-3.31,153.03,0.730294,91.67,1
3803437,1,12414,0,48149,48629,48142.32,48454.32,6.68,174.68,0.729907,91.67,1
3803477,1,12454,0,48155,48619,48142.35,48454.66,12.65,164.34,0.729515,91.68,1
3803517,1,12494,0,48151,48613,48142.37,48454.97,8.63,158.03,0.729117,91.68,1
3803557,1,12534,0,48150,48621,48142.39,48455.30,7.61,165.70,0.728715,91.68,1
3803597,1,12574,0,48156,48645,48142.41,48455.68,13.59,189.32,0.728305,91.69,1
3803637,1,12614,0,48167,48675,48142.46,48456.12,24.54,218.87,0.727884,91.69,1
3803677,1,12654,0,48185,48696,48142.55,48456.61,42.45,239.39,0.727453,91.69,1
3803717,1,12694,0,48198,48716,48142.66,48457.12,55.34,258.87,0.727009,91.70,1
3803757,1,12734,0,48201,48730,48142.78,48457.67,58.22,272.33,0.726552,91.70,1
3803797,1,12774,0,48204,48744,48142.91,48458.25,61.09,285.75,0.726080,91.71,1
3803837,1,12814,0,48207,48758,48143.04,48458.85,63.96,299.15,0.725593,91.71,1
3803877,1,12854,0,48221,48774,48143.19,48459.48,77.81,314.52,0.725090,91.72,1
3803918,1,12895,0,48218,48778,48143.34,48460.12,74.66,317.88,0.724570,91.72,1
3803958,1,12935,0,48224,48807,48143.51,48460.81,80.49,346.19,0.724032,91.73,1
3803998,1,12975,0,48234,48822,48143.69,48461.54,90.31,360.46,0.723476,91.73,1
3804038,1,13015,0,48230,48775,48143.87,48462.16,86.13,312.84,0.722907,91.74,1
3804078,1,13055,0,48177,48619,48143.93,48462.48,33.07,156.52,0.722336,91.74,1
3804118,1,13095,0,48103,48503,48143.85,48462.56,-40.85,40.44,0.721768,91.75,1
3804158,1,13135,0,48076,48493,48143.72,48462.62,-67.72,30.37,0.721204,91.76,1
3804198,1,13175,0,48081,48520,48143.59,48462.74,-62.59,57.26,0.720644,91.76,1
3804238,1,13215,0,48090,48536,48143.49,48462.89,-53.49,73.11,0.720087,91.77,1
3804278,1,13255,0,48104,48560,48143.41,48463.09,-39.41,96.91,0.719530,91.78,1
3804318,1,13295,0,48124,48585,48143.37,48463.33,-19.37,121.67,0.718973,91.79,1
3804358,1,13335,0,48130,48582,48143.34,48463.57,-13.34,118.43,0.718415,91.79,1
3804398,1,13375,0,48131,48572,48143.32,48463.79,-12.32,108.21,0.717856,91.80,1
3804438,1,13415,0,48125,48574,48143.29,48464.01,-18.29,109.99,0.717296,91.81,1
3804478,1,13455,0,48132,48594,48143.27,48464.27,-11.27,129.73,0.716735,91.82,1
3804518,1,13495,0,48144,48620,48143.27,48464.59,0.73,155.41,0.716170,91.83,1
3804558,1,13535,0,48161,48638,48143.30,48464.93,17.70,173.07,0.715601,91.83,1
3804598,1,13575,0,48165,48658,48143.35,48465.32,21.65,192.68,0.715027,91.84,1
3804638,1,13615,0,48176,48681,48143.41,48465.75,32.59,215.25,0.714445,91.85,1
3804678,1,13655,0,48182,48694,48143.49,48466.21,38.51,227.79,0.713857,91.86,1
3804718,1,13695,0,48185,48700,48143.58,48466.68,41.42,233.32,0.713260,91.87,1
3804759,1,13736,0,48187,48708,48143.67,48467.16,43.33,240.84,0.712655,91.88,1
3804799,1,13776,0,48197,48727,48143.78,48467.68,53.22,259.32,0.712040,91.89,1
3804839,1,13816,0,48199,48755,48143.89,48468.26,55.11,286.74,0.711414,91.90,1
3804879,1,13856,0,48210,48778,48144.02,48468.88,65.98,309.12,0.710776,91.91,1
3804919,1,13896,0,48217,48776,48144.17,48469.50,72.83,306.50,0.710125,91.92,1
3804959,1,13936,0,48192,48651,48144.27,48469.86,47.73,181.14,0.709473,91.93,1
3804999,1,13976,0,48115,48491,48144.21,48469.90,-29.21,21.10,0.708823,91.94,1
3805039,1,14016,0,48057,48439,48144.04,48469.84,-87.04,-30.84,0.708181,91.95,1
3805079,1,14056,0,48057,48461,48143.87,48469.82,-86.87,-8.82,0.707546,91.96,1
3805119,1,14096,0,48071,48480,48143.72,48469.85,-72.72,10.15,0.706918,91.97,1
3805159,1,14136,0,48086,48499,48143.61,48469.91,-57.61,29.09,0.706293,91.98,1
3805199,1,14176,0,48100,48527,48143.52,48470.02,-43.52,56.98,0.705672,91.99,1
3805239,1,14216,0,48116,48533,48143.47,48470.15,-27.47,62.85,0.705052,92.01,1
3805279,1,14256,0,48111,48527,48143.41,48470.27,-32.41,56.73,0.704435,92.02,1
3805319,1,14296,0,48105,48522,48143.33,48470.37,-38.33,51.63,0.703819,92.03,1
3805359,1,14336,0,48109,48541,48143.27,48470.51,-34.27,70.49,0.703206,92.04,1
3805399,1,14376,0,48124,48566,48143.23,48470.70,-19.23,95.30,0.702593,92.05,1
3805439,1,14416,0,48138,48589,48143.22,48470.94,-5.22,118.06,0.701979,92.06,1
3805479,1,14456,0,48145,48609,48143.22,48471.22,1.78,137.78,0.701363,92.08,1
3805519,1,14496,0,48154,48630,48143.25,48471.54,10.75,158.46,0.700744,92.09,1
3805559,1,14536,0,48163,48643,48143.29,48471.88,19.71,171.12,0.700121,92.10,1
3805599,1,14576,0,48168,48655,48143.34,48472.25,24.66,182.75,0.699493,92.11,1
3805640,1,14617,0,48167,48663,48143.38,48472.63,23.62,190.37,0.698860,92.13,1
3805680,1,14657,0,48177,48679,48143.45,48473.05,33.55,205.95,0.698222,92.14,1
3805720,1,14697,0,48185,48699,48143.54,48473.50,41.46,225.50,0.697577,92.15,1
3805760,1,14737,0,48187,48733,48143.63,48474.02,43.37,258.98,0.696922,92.16,1
3805800,1,14777,0,48202,48750,48143.75,48474.57,58.25,275.43,0.696257,92.18,1
3805840,1,14817,0,48207,48702,48143.87,48475.03,63.13,226.97,0.695588,92.19,1
3805880,1,14857,0,48152,48542,48143.89,48475.17,8.11,66.83,0.694920,92.20,1
3805920,1,14897,0,48069,48422,48143.74,48475.06,-74.74,-53.06,0.694259,92.22,1
3805960,1,14937,0,48039,48404,48143.54,48474.92,-104.54,-70.92,0.693608,92.23,1
3806000,1,14977,0,48055,48428,48143.36,48474.83,-88.36,-46.83,0.692965,92.24,1
3806040,1,15017,0,48067,48443,48143.21,48474.77,-76.21,-31.77,0.692330,92.26,1
3806080,1,15057,0,48078,48471,48143.08,48474.76,-65.08,-3.76,0.691700,92.27,1
3806120,1,15097,0,48094,48494,48142.98,48474.80,-48.98,19.20,0.691074,92.28,1
3806160,1,15137,0,48099,48488,48142.89,48474.82,-43.89,13.18,0.690451,92.30,1
3806200,1,15177,0,48096,48481,48142.80,48474.84,-46.80,6.16,0.689833,92.31,1
3806240,1,15217,0,48089,48480,48142.70,48474.85,-53.70,5.15,0.689219,92.32,1
3806280,1,15257,0,48100,48502,48142.61,48474.90,-42.61,27.10,0.688608,92.34,1
3806320,1,15297,0,48114,48527,48142.55,48475.01,-28.55,51.99,0.688000,92.35,1
3806360,1,15337,0,48124,48551,48142.52,48475.16,-18.52,75.84,0.687392,92.37,1
3806400,1,15377,0,48131,48572,48142.50,48475.36,-11.50,96.64,0.686784,92.38,1
3806440,1,15417,0,48142,48593,48142.50,48475.59,-0.50,117.41,0.686175,92.39,1
3806481,1,15458,0,48147,48606,48142.51,48475.86,4.49,130.14,0.685564,92.41,1
3806521,1,15498,0,48153,48617,48142.53,48476.14,10.47,140.86,0.684951,92.42,1
3806561,1,15538,0,48157,48632,48142.56,48476.45,14.44,155.55,0.684334,92.44,1
3806601,1,15578,0,48160,48649,48142.60,48476.80,17.40,172.20,0.683713,92.45,1
3806641,1,15618,0,48171,48666,48142.66,48477.18,28.34,188.82,0.683086,92.46,1
3806681,1,15658,0,48182,48691,48142.73,48477.61,39.27,213.39,0.682452,92.48,1
3806721,1,15698,0,48191,48711,48142.83,48478.08,48.17,232.92,0.681812,92.49,1
3806761,1,15738,0,48188,48644,48142.92,48478.41,45.08,165.59,0.681169,92.51,1
3806801,1,15778,0,48121,48471,48142.88,48478.40,-21.88,-7.40,0.680528,92.52,1
3806841,1,15818,0,48048,48370,48142.69,48478.18,-94.69,-108.18,0.679896,92.54,1
3806881,1,15858,0,48031,48365,48142.47,48477.96,-111.47,-112.96,0.679275,92.55,1
3806921,1,15898,0,48048,48390,48142.28,48477.78,-94.28,-87.78,0.678664,92.57,1
3806961,1,15938,0,48058,48405,48142.11,48477.64,-84.11,-72.64,0.678061,92.58,1
3807001,1,15978,0,48070,48437,48141.97,48477.56,-71.97,-40.56,0.677464,92.59,1
3807041,1,16018,0,48081,48458,48141.85,48477.52,-60.85,-19.52,0.676873,92.61,1
3807081,1,16058,0,48087,48445,48141.74,48477.46,-54.74,-32.46,0.676287,92.62,1
3807121,1,16098,0,48081,48431,48141.62,48477.37,-60.62,-46.37,0.675706,92.64,1
3807161,1,16138,0,48079,48441,48141.49,48477.30,-62.49,-36.30,0.675130,92.65,1
3807201,1,16178,0,48085,48461,48141.38,48477.27,-56.38,-16.27,0.674559,92.67,1
3807241,1,16218,0,48097,48488,48141.29,48477.29,-44.29,10.71,0.673992,92.68,1
3807281,1,16258,0,48108,48512,48141.23,48477.36,-33.23,34.64,0.673428,92.70,1
3807322,1,16299,0,48120,48533,48141.18,48477.47,-21.18,55.53,0.672865,92.71,1
3807362,1,16339,0,48126,48553,48141.16,48477.62,-15.16,75.37,0.672303,92.72,1
3807402,1,16379,0,48134,48561,48141.14,48477.79,-7.14,83.21,0.671740,92.74,1
3807442,1,16419,0,48138,48584,48141.14,48478.01,-3.14,105.99,0.671177,92.75,1
3807482,1,16459,0,48147,48597,48141.15,48478.25,5.85,118.75,0.670611,92.77,1
3807522,1,16499,0,48156,48610,48141.18,48478.51,14.82,131.49,0.670043,92.78,1
3807562,1,16539,0,48165,48636,48141.23,48478.83,23.77,157.17,0.669471,92.80,1
3807602,1,16579,0,48178,48661,48141.31,48479.20,36.69,181.80,0.668893,92.81,1
3807642,1,16619,0,48188,48669,48141.40,48479.58,46.60,189.42,0.668311,92.83,1
3807682,1,16659,0,48168,48547,48141.46,48479.71,26.54,67.29,0.667729,92.84,1
3807722,1,16699,0,48085,48377,48141.34,48479.51,-56.34,-102.51,0.667151,92.85,1
3807762,1,16739,0,48035,48311,48141.13,48479.18,-106.13,-168.18,0.666580,92.87,1
3807802,1,16779,0,48028,48328,48140.91,48478.87,-112.91,-150.87,0.666020,92.88,1
3807842,1,16819,0,48042,48355,48140.71,48478.63,-98.71,-123.63,0.665468,92.90,1
3807882,1,16859,0,48052,48377,48140.54,48478.43,-88.54,-101.43,0.664925,92.91,1
3807922,1,16899,0,48069,48412,48140.39,48478.29,-71.39,-66.29,0.664388,92.93,1
3807962,1,16939,0,48087,48415,48140.29,48478.17,-53.29,-63.17,0.663855,92.94,1
3808002,1,16979,0,48081,48404,48140.17,48478.02,-59.17,-74.02,0.663326,92.96,1
3808042,1,17019,0,48073,48396,48140.04,48477.86,-67.04,-81.86,0.662802,92.97,1
3808082,1,17059,0,48077,48409,48139.91,48477.72,-62.91,-68.72,0.662283,92.98,1
3808122,1,17099,0,48089,48435,48139.81,48477.63,-50.81,-42.63,0.661768,93.00,1
3808163,1,17140,0,48101,48462,48139.73,48477.60,-38.73,-15.60,0.661257,93.01,1
3808203,1,17180,0,48108,48484,48139.67,48477.62,-31.67,6.38,0.660748,93.03,1
3808243,1,17220,0,48123,48504,48139.64,48477.67,-16.64,26.33,0.660241,93.04,1
3808283,1,17260,0,48127,48524,48139.62,48477.77,-12.62,46.23,0.659735,93.05,1
3808323,1,17300,0,48138,48543,48139.61,48477.90,-1.61,65.10,0.659230,93.07,1
3808363,1,17340,0,48147,48561,48139.63,48478.07,7.37,82.93,0.658723,93.08,1
3808403,1,17380,0,48156,48574,48139.66,48478.26,16.34,95.74,0.658216,93.10,1
3808443,1,17420,0,48166,48598,48139.72,48478.50,26.28,119.50,0.657707,93.11,1
3808483,1,17460,0,48180,48627,48139.80,48478.80,40.20,148.20,0.657195,93.12,1
3808523,1,17500,0,48196,48649,48139.91,48479.14,56.09,169.86,0.656680,93.14,1
3808563,1,17540,0,48204,48639,48140.04,48479.46,63.96,159.54,0.656164,93.15,1
3808603,1,17580,0,48181,48506,48140.12,48479.51,40.88,26.49,0.655652,93.16,1
3808643,1,17620,0,48095,48340,48140.04,48479.23,-45.04,-139.23,0.655137,93.18,1
3808683,1,17660,0,48041,48286,48139.84,48478.85,-98.84,-192.85,0.654626,93.19,1
3808723,1,17700,0,48038,48309,48139.64,48478.51,-101.64,-169.51,0.654121,93.21,1
3808763,1,17740,0,48059,48338,48139.48,48478.23,-80.48,-140.23,0.653621,93.22,1
3808803,1,17780,0,48075,48359,48139.35,48477.99,-64.35,-118.99,0.653122,93.23,1
3808843,1,17820,0,48091,48392,48139.25,48477.82,-48.25,-85.82,0.652626,93.25,1
3808883,1,17860,0,48102,48393,48139.18,48477.65,-37.18,-84.65,0.652131,93.26,1
3808923,1,17900,0,48090,48370,48139.08,48477.43,-49.08,-107.43,0.651638,93.27,1
3808963,1,17940,0,48082,48366,48138.97,48477.21,-56.97,-111.21,0.651146,93.29,1
3809003,1,17980,0,48084,48379,48138.86,48477.02,-54.86,-98.02,0.650656,93.30,1
3809044,1,18021,0,48100,48405,48138.78,48476.87,-38.78,-71.87,0.650169,93.31,1
3809084,1,18061,0,48114,48435,48138.73,48476.79,-24.73,-41.79,0.649683,93.33,1
3809124,1,18101,0,48129,48460,48138.71,48476.76,-9.71,-16.76,0.649199,93.34,1
3809164,1,18141,0,48134,48483,48138.71,48476.77,-4.71,6.23,0.648716,93.35,1
3809204,1,18181,0,48147,48496,48138.73,48476.81,8.27,19.19,0.648234,93.37,1
3809244,1,18221,0,48153,48502,48138.76,48476.86,14.24,25.14,0.647754,93.38,1
3809284,1,18261,0,48161,48514,48138.80,48476.94,22.20,37.06,0.647276,93.39,1
3809324,1,18301,0,48168,48535,48138.86,48477.05,29.14,57.95,0.646800,93.41,1
3809364,1,18341,0,48174,48562,48138.93,48477.23,35.07,84.77,0.646324,93.42,1
3809404,1,18381,0,48189,48592,48139.04,48477.46,49.96,114.54,0.645848,93.43,1
3809444,1,18421,0,48203,48584,48139.16,48477.67,63.84,106.33,0.645377,93.45,1
3809484,1,18461,0,48178,48459,48139.24,48477.64,38.76,-18.64,0.644908,93.46,1
3809524,1,18501,0,48101,48310,48139.17,48477.30,-38.17,-167.30,0.644434,93.47,1
3809564,1,18541,0,48058,48277,48139.01,48476.90,-81.01,-199.90,0.643956,93.48,1
3809604,1,18581,0,48065,48311,48138.86,48476.57,-73.86,-165.57,0.643479,93.50,1
3809644,1,18621,0,48088,48358,48138.76,48476.34,-50.76,-118.34,0.643003,93.51,1
3809684,1,18661,0,48117,48401,48138.71,48476.19,-21.71,-75.19,0.642526,93.52,1
3809724,1,18701,0,48134,48424,48138.71,48476.09,-4.71,-52.09,0.642050,93.54,1
3809764,1,18741,0,48134,48407,48138.70,48475.95,-4.70,-68.95,0.641574,93.55,1
3809804,1,18781,0,48117,48386,48138.66,48475.77,-21.66,-89.77,0.641097,93.56,1
3809844,1,18821,0,48111,48386,48138.60,48475.59,-27.60,-89.59,0.640620,93.57,1
3809884,1,18861,0,48116,48403,48138.56,48475.45,-22.56,-72.45,0.640144,93.59,1
3809925,1,18902,0,48130,48434,48138.54,48475.36,-8.54,-41.36,0.639668,93.60,1
3809965,1,18942,0,48142,48458,48138.55,48475.33,3.45,-17.33,0.639193,93.61,1
3810005,1,18982,0,48154,48489,48138.58,48475.36,15.42,13.64,0.638721,93.62,1
3810045,1,19022,0,48166,48508,48138.64,48475.42,27.36,32.58,0.638250,93.64,1
3810085,1,19062,0,48175,48525,48138.71,48475.52,36.29,49.48,0.637782,93.65,1
3810125,1,19102,0,48184,48535,48138.80,48475.64,45.20,59.36,0.637318,93.66,1
3810165,1,19142,0,48190,48545,48138.91,48475.79,51.09,69.21,0.636857,93.67,1
3810205,1,19182,0,48198,48571,48139.03,48475.98,58.97,95.02,0.636400,93.69,1
3810245,1,19222,0,48210,48601,48139.18,48476.23,70.82,124.77,0.635947,93.70,1
3810285,1,19262,0,48217,48553,48139.33,48476.38,77.67,76.62,0.635503,93.71,1
3810325,1,19302,0,48167,48391,48139.39,48476.21,27.61,-85.21,0.635059,93.72,1
3810365,1,19342,0,48091,48267,48139.29,48475.80,-48.29,-208.80,0.634603,93.74,1
3810405,1,19382,0,48062,48255,48139.14,48475.36,-77.14,-220.36,0.634140,93.75,1
3810445,1,19422,0,48070,48286,48139.00,48474.98,-69.00,-188.98,0.633672,93.76,1
3810485,1,19462,0,48090,48309,48138.91,48474.64,-48.91,-165.64,0.633200,93.77,1
3810525,1,19502,0,48101,48341,48138.83,48474.38,-37.83,-133.38,0.632725,93.79,1
3810565,1,19542,0,48119,48364,48138.79,48474.16,-19.79,-110.16,0.632248,93.80,1
3810605,1,19582,0,48126,48362,48138.77,48473.94,-12.77,-111.94,0.631768,93.81,1
3810645,1,19622,0,48120,48358,48138.73,48473.71,-18.73,-115.71,0.631285,93.82,1
3810685,1,19662,0,48116,48368,48138.69,48473.50,-22.69,-105.50,0.630800,93.83,1
3810725,1,19702,0,48128,48395,48138.67,48473.34,-10.67,-78.34,0.630315,93.85,1
3810765,1,19742,0,48144,48426,48138.68,48473.25,5.32,-47.25,0.629830,93.86,1
3810806,1,19783,0,48162,48456,48138.73,48473.21,23.27,-17.21,0.629348,93.87,1
3810846,1,19823,0,48174,48479,48138.80,48473.22,35.20,5.78,0.628869,93.88,1
3810886,1,19863,0,48181,48502,48138.89,48473.28,42.11,28.72,0.628394,93.90,1
3810926,1,19903,0,48190,48523,48138.99,48473.38,51.01,49.62,0.627925,93.91,1
3810966,1,19943,0,48199,48539,48139.11,48473.52,59.89,65.48,0.627461,93.92,1
3811006,1,19983,0,48209,48556,48139.25,48473.68,69.75,82.32,0.627005,93.93,1
3811046,1,20023,0,48218,48570,48139.41,48473.88,78.59,96.12,0.626558,93.94,1
3811086,1,20063,0,48231,48601,48139.59,48474.13,91.41,126.87,0.626120,93.96,1
3811126,1,20103,0,48240,48631,48139.80,48474.45,100.20,156.55,0.625692,93.97,1
3811166,1,20143,0,48252,48608,48140.02,48474.72,111.98,133.28,0.625279,93.98,1
3811206,1,20183,0,48209,48438,48140.16,48474.65,68.84,-36.65,0.624876,93.99,1
3811246,1,20223,0,48120,48262,48140.12,48474.22,-20.12,-212.22,0.624456,94.00,1
3811286,1,20263,0,48070,48221,48139.98,48473.72,-69.98,-252.72,0.624020,94.02,1
3811326,1,20303,0,48070,48243,48139.84,48473.26,-69.84,-230.26,0.623574,94.03,1
3811366,1,20343,0,48083,48255,48139.73,48472.82,-56.73,-217.82,0.623116,94.04,1
3811406,1,20383,0,48085,48268,48139.62,48472.41,-54.62,-204.41,0.622650,94.05,1
3811446,1,20423,0,48102,48300,48139.55,48472.07,-37.55,-172.07,0.622176,94.06,1
3811486,1,20463,0,48118,48314,48139.50,48471.75,-21.50,-157.75,0.621696,94.08,1
3811526,1,20503,0,48118,48305,48139.46,48471.42,-21.46,-166.42,0.621209,94.09,1
3811566,1,20543,0,48110,48306,48139.40,48471.09,-29.40,-165.09,0.620714,94.10,1
3811606,1,20583,0,48118,48323,48139.36,48470.80,-21.36,-147.80,0.620215,94.11,1
3811646,1,20623,0,48131,48358,48139.34,48470.57,-8.34,-112.57,0.619712,94.12,1
3811687,1,20664,0,48146,48386,48139.36,48470.41,6.64,-84.41,0.619209,94.13,1
3811727,1,20704,0,48159,48415,48139.40,48470.30,19.60,-55.30,0.618706,94.15,1
3811767,1,20744,0,48172,48443,48139.46,48470.24,32.54,-27.24,0.618207,94.16,1
3811807,1,20784,0,48187,48466,48139.56,48470.23,47.44,-4.23,0.617714,94.17,1
3811847,1,20824,0,48193,48481,48139.67,48470.26,53.33,10.74,0.617226,94.18,1
3811887,1,20864,0,48205,48499,48139.80,48470.32,65.20,28.68,0.616748,94.19,1
3811927,1,20904,0,48211,48519,48139.95,48470.41,71.05,48.59,0.616279,94.21,1
3811967,1,20944,0,48222,48540,48140.11,48470.55,81.89,69.45,0.615822,94.22,1
3812007,1,20984,0,48235,48572,48140.30,48470.76,94.70,101.24,0.615378,94.23,1
3812047,1,21024,0,48249,48594,48140.52,48471.00,108.48,123.00,0.614951,94.24,1
3812087,1,21064,0,48257,48537,48140.76,48471.14,116.24,65.86,0.614547,94.25,1
3812127,1,21104,0,48197,48345,48140.87,48470.89,56.13,-125.89,0.614144,94.27,1
3812167,1,21144,0,48105,48207,48140.80,48470.36,-35.80,-263.36,0.613717,94.28,1
3812207,1,21184,0,48067,48197,48140.66,48469.81,-73.66,-272.81,0.613272,94.29,1
3812247,1,21224,0,48083,48225,48140.54,48469.32,-57.54,-244.32,0.612813,94.30,1
3812287,1,21264,0,48095,48240,48140.45,48468.87,-45.45,-228.87,0.612341,94.31,1
3812327,1,21304,0,48107,48262,48140.39,48468.45,-33.39,-206.45,0.611857,94.32,1
3812367,1,21344,0,48124,48301,48140.36,48468.12,-16.36,-167.12,0.611366,94.34,1
3812407,1,21384,0,48132,48304,48140.34,48467.79,-8.34,-163.79,0.610867,94.35,1
3812447,1,21424,0,48131,48297,48140.32,48467.45,-9.32,-170.45,0.610361,94.36,1
3812487,1,21464,0,48133,48299,48140.31,48467.12,-7.31,-168.12,0.609846,94.37,1
3812528,1,21505,0,48141,48327,48140.32,48466.84,0.68,-139.84,0.609327,94.38,1
3812568,1,21545,0,48156,48353,48140.35,48466.61,15.65,-113.61,0.608806,94.40,1
3812608,1,21585,0,48173,48392,48140.41,48466.46,32.59,-74.46,0.608286,94.41,1
3812648,1,21625,0,48185,48420,48140.50,48466.37,44.50,-46.38,0.607771,94.42,1
3812688,1,21665,0,48198,48445,48140.62,48466.33,57.38,-21.33,0.607263,94.43,1
3812728,1,21705,0,48206,48463,48140.75,48466.33,65.25,-3.33,0.606763,94.44,1
3812768,1,21745,0,48215,48481,48140.90,48466.36,74.10,14.64,0.606275,94.46,1
3812808,1,21785,0,48227,48506,48141.07,48466.44,85.93,39.56,0.605802,94.47,1
3812848,1,21825,0,48237,48525,48141.27,48466.56,95.73,58.44,0.605344,94.48,1
3812888,1,21865,0,48247,48549,48141.48,48466.73,105.52,82.27,0.604905,94.49,1
3812928,1,21905,0,48261,48578,48141.72,48466.95,119.28,111.05,0.604488,94.50,1
3812968,1,21945,0,48279,48599,48142.00,48467.21,137.00,131.79,0.604098,94.51,1
3813008,1,21985,0,48273,48522,48142.26,48467.32,130.74,54.68,0.603736,94.53,1
3813048,1,22025,0,48205,48323,48142.38,48467.04,62.62,-144.04,0.603375,94.54,1
3813088,1,22065,0,48115,48198,48142.33,48466.50,-27.33,-268.50,0.602988,94.55,1
3813128,1,22105,0,48088,48197,48142.22,48465.96,-54.22,-268.96,0.602581,94.56,1
3813168,1,22145,0,48100,48226,48142.14,48465.48,-42.14,-239.48,0.602159,94.57,1
3813208,1,22185,0,48115,48243,48142.09,48465.04,-27.09,-222.04,0.601721,94.58,1
3813248,1,22225,0,48128,48275,48142.06,48464.66,-14.06,-189.66,0.601274,94.60,1
3813288,1,22265,0,48146,48306,48142.07,48464.34,3.93,-158.34,0.600819,94.61,1
3813328,1,22305,0,48150,48307,48142.08,48464.03,7.92,-157.03,0.600358,94.62,1
3813368,1,22345,0,48144,48298,48142.09,48463.70,1.91,-165.70,0.599889,94.63,1
3813409,1,22386,0,48142,48305,48142.09,48463.38,-0.09,-158.38,0.599414,94.64,1
3813449,1,22426,0,48152,48323,48142.11,48463.10,9.89,-140.10,0.598934,94.65,1
3813489,1,22466,0,48164,48361,48142.15,48462.89,21.85,-101.89,0.598453,94.67,1
3813529,1,22506,0,48178,48393,48142.23,48462.76,35.77,-69.76,0.597974,94.68,1
3813569,1,22546,0,48192,48421,48142.33,48462.68,49.67,-41.68,0.597500,94.69,1
3813609,1,22586,0,48207,48444,48142.46,48462.64,64.54,-18.64,0.597034,94.70,1
3813649,1,22626,0,48218,48461,48142.61,48462.64,75.39,-1.64,0.596580,94.71,1
3813689,1,22666,0,48226,48485,48142.78,48462.68,83.22,22.32,0.596138,94.72,1
3813729,1,22706,0,48235,48504,48142.96,48462.77,92.04,41.23,0.595712,94.73,1
3813769,1,22746,0,48246,48522,48143.17,48462.89,102.83,59.11,0.595304,94.75,1
3813809,1,22786,0,48260,48547,48143.41,48463.05,116.59,83.95,0.594918,94.76,1
3813849,1,22826,0,48272,48575,48143.66,48463.28,128.34,111.72,0.594557,94.77,1
3813889,1,22866,0,48287,48597,48143.95,48463.55,143.05,133.45,0.594224,94.78,1
3813929,1,22906,0,48288,48548,48144.24,48463.72,143.76,84.28,0.593923,94.79,1
3813969,1,22946,0,48223,48363,48144.40,48463.52,78.60,-100.52,0.593628,94.80,1
3814009,1,22986,0,48132,48210,48144.38,48463.02,-12.38,-253.02,0.593311,94.81,1
3814049,1,23026,0,48092,48191,48144.28,48462.48,-52.28,-271.48,0.592971,94.82,1
3814089,1,23066,0,48108,48225,48144.21,48462.00,-36.21,-237.00,0.592614,94.83,1
3814129,1,23106,0,48124,48245,48144.17,48461.57,-20.17,-216.57,0.592243,94.85,1
3814169,1,23146,0,48132,48277,48144.14,48461.20,-12.14,-184.20,0.591861,94.86,1
3814209,1,23186,0,48147,48308,48144.15,48460.90,2.85,-152.90,0.591473,94.87,1
3814249,1,23226,0,48159,48308,48144.18,48460.59,14.82,-152.59,0.591078,94.88,1
3814290,1,23267,0,48151,48296,48144.20,48460.27,6.80,-164.27,0.590676,94.89,1
3814330,1,23307,0,48147,48297,48144.21,48459.94,2.79,-162.94,0.590266,94.90,1
3814370,1,23347,0,48154,48327,48144.23,48459.68,9.77,-132.68,0.589852,94.91,1
3814410,1,23387,0,48167,48364,48144.27,48459.48,22.73,-95.48,0.589437,94.92,1
3814450,1,23427,0,48186,48388,48144.36,48459.34,41.64,-71.34,0.589024,94.93,1
3814490,1,23467,0,48205,48418,48144.48,48459.26,60.52,-41.26,0.588618,94.94,1
3814530,1,23507,0,48214,48447,48144.62,48459.24,69.38,-12.24,0.588221,94.95,1
3814570,1,23547,0,48223,48469,48144.78,48459.26,78.22,9.74,0.587836,94.96,1
3814610,1,23587,0,48237,48491,48144.96,48459.32,92.04,31.68,0.587465,94.97,1
3814650,1,23627,0,48248,48506,48145.17,48459.42,102.83,46.58,0.587112,94.98,1
3814690,1,23667,0,48259,48524,48145.40,48459.55,113.60,64.45,0.586780,94.99,1
3814730,1,23707,0,48267,48549,48145.65,48459.73,121.35,89.27,0.586470,95.00,1
3814770,1,23747,0,48280,48565,48145.92,48459.94,134.08,105.06,0.586187,95.01,1
3814810,1,23787,0,48289,48592,48146.21,48460.20,142.79,131.80,0.585929,95.02,1
3814850,1,23827,0,48292,48561,48146.50,48460.41,145.50,100.59,0.585702,95.03,1
3814890,1,23867,0,48247,48382,48146.70,48460.25,100.30,-78.25,0.585489,95.04,1
3814930,1,23907,0,48149,48220,48146.71,48459.77,2.29,-239.77,0.585253,95.05,1
3814970,1,23947,0,48103,48183,48146.62,48459.22,-43.62,-276.22,0.584992,95.06,1
3815010,1,23987,0,48106,48219,48146.54,48458.74,-40.54,-239.74,0.584712,95.07,1
3815050,1,24027,0,48122,48242,48146.50,48458.30,-24.50,-216.30,0.584418,95.08,1
3815091,1,24068,0,48134,48271,48146.47,48457.93,-12.47,-186.93,0.584112,95.09,1
3815131,1,24108,0,48150,48300,48146.48,48457.61,3.52,-157.61,0.583798,95.10,1
3815171,1,24148,0,48155,48301,48146.50,48457.30,8.50,-156.30,0.583478,95.11,1
3815211,1,24188,0,48145,48294,48146.50,48456.98,-1.50,-162.98,0.583149,95.12,1
3815251,1,24228,0,48147,48297,48146.50,48456.66,0.50,-159.66,0.582812,95.13,1
3815291,1,24268,0,48151,48315,48146.52,48456.37,4.48,-141.37,0.582469,95.14,1
3815331,1,24308,0,48171,48353,48146.57,48456.17,24.43,-103.17,0.582125,95.15,1
3815371,1,24348,0,48187,48385,48146.65,48456.03,40.35,-71.03,0.581783,95.16,1
3815411,1,24388,0,48198,48417,48146.75,48455.95,51.25,-38.95,0.581446,95.17,1
3815451,1,24428,0,48214,48442,48146.89,48455.92,67.11,-13.92,0.581116,95.18,1
3815491,1,24468,0,48225,48454,48147.05,48455.92,77.95,-1.92,0.580797,95.18,1
3815531,1,24508,0,48240,48467,48147.23,48455.94,92.77,11.06,0.580493,95.19,1
3815571,1,24548,0,48243,48478,48147.43,48455.99,95.57,22.01,0.580205,95.20,1
3815611,1,24588,0,48249,48493,48147.63,48456.06,101.37,36.94,0.579933,95.21,1
3815651,1,24628,0,48255,48511,48147.84,48456.17,107.16,54.83,0.579679,95.22,1
3815691,1,24668,0,48261,48532,48148.07,48456.32,112.93,75.68,0.579444,95.23,1
3815731,1,24708,0,48273,48555,48148.32,48456.52,124.68,98.48,0.579230,95.24,1
3815771,1,24748,0,48267,48462,48148.56,48456.54,118.44,5.46,0.579039,95.25,1
3815811,1,24788,0,48186,48279,48148.63,48456.18,37.37,-177.18,0.578838,95.26,1
3815851,1,24828,0,48111,48199,48148.56,48455.67,-37.56,-256.67,0.578613,95.26,1
3815892,1,24869,0,48106,48213,48148.48,48455.18,-42.48,-242.18,0.578370,95.27,1
3815932,1,24909,0,48123,48250,48148.43,48454.77,-25.43,-204.77,0.578112,95.28,1
3815972,1,24949,0,48135,48286,48148.40,48454.44,-13.40,-168.44,0.577845,95.29,1
3816012,1,24989,0,48153,48329,48148.41,48454.19,4.59,-125.19,0.577573,95.30,1
3816052,1,25029,0,48167,48333,48148.45,48453.95,18.55,-120.95,0.577298,95.30,1
3816092,1,25069,0,48159,48314,48148.47,48453.67,10.53,-139.67,0.577016,95.31,1
3816132,1,25109,0,48155,48309,48148.49,48453.38,6.51,-144.38,0.576728,95.32,1
3816172,1,25149,0,48156,48331,48148.50,48453.14,7.50,-122.14,0.576435,95.33,1
3816212,1,25189,0,48172,48372,48148.55,48452.98,23.45,-80.98,0.576141,95.34,1
3816252,1,25229,0,48190,48404,48148.64,48452.88,41.36,-48.88,0.575850,95.35,1
3816292,1,25269,0,48212,48429,48148.77,48452.83,63.23,-23.83,0.575567,95.35,1
3816332,1,25309,0,48225,48448,48148.92,48452.82,76.08,-4.82,0.575293,95.36,1
3816372,1,25349,0,48235,48466,48149.09,48452.85,85.91,13.15,0.575033,95.37,1
3816412,1,25389,0,48239,48475,48149.27,48452.90,89.73,22.10,0.574786,95.38,1
3816452,1,25429,0,48243,48487,48149.46,48452.97,93.54,34.03,0.574554,95.38,1
3816492,1,25469,0,48249,48507,48149.66,48453.08,99.34,53.92,0.574337,95.39,1
3816532,1,25509,0,48258,48524,48149.87,48453.22,108.12,70.78,0.574138,95.40,1
3816572,1,25549,0,48273,48551,48150.12,48453.42,122.88,97.58,0.573960,95.41,1
3816612,1,25589,0,48265,48479,48150.35,48453.47,114.65,25.53,0.573803,95.41,1
3816652,1,25629,0,48195,48305,48150.44,48453.17,44.56,-148.17,0.573641,95.42,1
3816692,1,25669,0,48121,48199,48150.38,48452.66,-29.38,-253.66,0.573453,95.43,1
3816733,1,25710,0,48096,48207,48150.27,48452.18,-54.27,-245.18,0.573246,95.44,1
3816773,1,25750,0,48117,48248,48150.21,48451.77,-33.21,-203.77,0.573026,95.44,1
3816813,1,25790,0,48132,48286,48150.17,48451.44,-18.17,-165.44,0.572796,95.45,1
3816853,1,25830,0,48151,48325,48150.18,48451.19,0.82,-126.19,0.572560,95.46,1
3816893,1,25870,0,48161,48337,48150.20,48450.96,10.80,-113.96,0.572321,95.46,1
3816933,1,25910,0,48164,48322,48150.23,48450.70,13.77,-128.70,0.572076,95.47,1
3816973,1,25950,0,48157,48320,48150.24,48450.44,6.76,-130.44,0.571825,95.48,1
3817013,1,25990,0,48158,48338,48150.26,48450.22,7.74,-112.22,0.571571,95.49,1
3817053,1,26030,0,48169,48377,48150.30,48450.07,18.70,-73.07,0.571315,95.49,1
3817093,1,26070,0,48193,48412,48150.38,48450.00,42.62,-38.00,0.571063,95.50,1
3817133,1,26110,0,48219,48437,48150.52,48449.98,68.48,-12.98,0.570819,95.51,1
3817173,1,26150,0,48225,48467,48150.67,48450.01,74.33,16.99,0.570586,95.51,1
3817213,1,26190,0,48237,48484,48150.84,48450.08,86.16,33.92,0.570364,95.52,1
3817253,1,26230,0,48242,48503,48151.03,48450.19,90.97,52.81,0.570157,95.53,1
3817293,1,26270,0,48248,48513,48151.22,48450.31,96.78,62.69,0.569963,95.53,1
3817333,1,26310,0,48255,48526,48151.43,48450.46,103.57,75.54,0.569786,95.54,1
3817373,1,26350,0,48262,48552,48151.65,48450.67,110.35,101.33,0.569625,95.55,1
3817413,1,26390,0,48276,48560,48151.90,48450.89,124.10,109.11,0.569485,95.55,1
3817453,1,26430,0,48252,48445,48152.11,48450.87,99.89,-5.87,0.569362,95.56,1
3817493,1,26470,0,48162,48246,48152.12,48450.46,9.88,-204.46,0.569220,95.57,1
3817534,1,26511,0,48087,48154,48152.00,48449.87,-65.00,-295.87,0.569048,95.57,1
3817574,1,26551,0,48067,48161,48151.83,48449.30,-84.83,-288.30,0.568855,95.58,1
3817614,1,26591,0,48078,48184,48151.68,48448.77,-73.68,-264.77,0.568643,95.58,1
3817654,1,26631,0,48084,48197,48151.55,48448.26,-67.55,-251.26,0.568415,95.59,1
3817694,1,26671,0,48095,48233,48151.44,48447.83,-56.44,-214.83,0.568176,95.60,1
3817734,1,26711,0,48116,48261,48151.37,48447.46,-35.37,-186.46,0.567927,95.60,1
3817774,1,26751,0,48125,48262,48151.32,48447.09,-26.32,-185.09,0.567668,95.61,1
3817814,1,26791,0,48122,48261,48151.26,48446.72,-29.26,-185.72,0.567399,95.62,1
3817854,1,26831,0,48124,48278,48151.20,48446.38,-27.20,-168.38,0.567122,95.62,1
3817894,1,26871,0,48139,48313,48151.18,48446.12,-12.18,-133.12,0.566841,95.63,1
3817934,1,26911,0,48160,48343,48151.20,48445.91,8.80,-102.91,0.566556,95.63,1
3817974,1,26951,0,48176,48374,48151.25,48445.77,24.75,-71.77,0.566271,95.64,1
3818014,1,26991,0,48189,48398,48151.33,48445.68,37.67,-47.68,0.565989,95.65,1
3818054,1,27031,0,48200,48421,48151.43,48445.63,48.57,-24.63,0.565711,95.65,1
3818094,1,27071,0,48205,48437,48151.54,48445.61,53.46,-8.61,0.565439,95.66,1
3818134,1,27111,0,48214,48448,48151.66,48445.62,62.34,2.38,0.565174,95.67,1
3818174,1,27151,0,48224,48465,48151.80,48445.66,72.20,19.34,0.564917,95.67,1
3818214,1,27191,0,48228,48485,48151.96,48445.74,76.04,39.26,0.564671,95.68,1
3818254,1,27231,0,48238,48513,48152.13,48445.87,85.87,67.12,0.564435,95.68,1
3818294,1,27271,0,48243,48511,48152.31,48446.01,90.69,64.99,0.564211,95.69,1
3818334,1,27311,0,48214,48373,48152.44,48445.86,61.56,-72.86,0.563993,95.70,1
3818375,1,27352,0,48121,48179,48152.37,48445.33,-31.37,-266.33,0.563750,95.70,1
3818415,1,27392,0,48051,48109,48152.17,48444.66,-101.17,-335.66,0.563483,95.71,1
3818455,1,27432,0,48041,48129,48151.95,48444.03,-110.95,-315.03,0.563202,95.72,1
3818495,1,27472,0,48047,48146,48151.74,48443.44,-104.74,-297.44,0.562909,95.72,1
3818535,1,27512,0,48056,48163,48151.55,48442.88,-95.55,-279.88,0.562607,95.73,1
3818575,1,27552,0,48071,48202,48151.39,48442.40,-80.39,-240.40,0.562297,95.74,1
3818615,1,27592,0,48095,48233,48151.28,48441.98,-56.28,-208.98,0.561979,95.74,1
3818655,1,27632,0,48101,48228,48151.18,48441.55,-50.18,-213.55,0.561653,95.75,1
3818695,1,27672,0,48092,48235,48151.06,48441.14,-59.06,-206.14,0.561320,95.75,1
3818735,1,27712,0,48099,48258,48150.96,48440.78,-51.96,-182.78,0.560982,95.76,1
3818775,1,27752,0,48117,48290,48150.89,48440.48,-33.89,-150.48,0.560641,95.77,1
3818815,1,27792,0,48137,48325,48150.87,48440.25,-13.87,-115.25,0.560297,95.77,1
3818855,1,27832,0,48155,48358,48150.87,48440.09,4.12,-82.09,0.559952,95.78,1
3818895,1,27872,0,48166,48381,48150.91,48439.97,15.09,-58.97,0.559607,95.79,1
3818935,1,27912,0,48173,48401,48150.95,48439.89,22.05,-38.89,0.559264,95.80,1
3818975,1,27952,0,48182,48418,48151.02,48439.85,30.98,-21.85,0.558923,95.80,1
3819015,1,27992,0,48192,48434,48151.10,48439.84,40.90,-5.84,0.558586,95.81,1
3819055,1,28032,0,48203,48450,48151.20,48439.86,51.80,10.14,0.558254,95.82,1
3819095,1,28072,0,48207,48475,48151.32,48439.93,55.68,35.07,0.557927,95.82,1
3819135,1,28112,0,48215,48509,48151.45,48440.07,63.55,68.93,0.557606,95.83,1
3819175,1,28152,0,48233,48539,48151.61,48440.27,81.39,98.73,0.557293,95.84,1
3819215,1,28192,0,48238,48526,48151.79,48440.44,86.21,85.56,0.556990,95.84,1
3819256,1,28233,0,48202,48378,48151.89,48440.32,50.11,-62.32,0.556691,95.85,1
3819296,1,28273,0,48107,48199,48151.80,48439.84,-44.80,-240.84,0.556377,95.86,1
3819336,1,28313,0,48044,48155,48151.58,48439.27,-107.58,-284.27,0.556057,95.87,1
3819376,1,28353,0,48042,48176,48151.36,48438.74,-109.36,-262.74,0.555736,95.87,1
3819416,1,28393,0,48055,48199,48151.17,48438.27,-96.17,-239.27,0.555412,95.88,1
3819456,1,28433,0,48061,48224,48150.99,48437.84,-89.99,-213.84,0.555088,95.89,1
3819496,1,28473,0,48082,48267,48150.86,48437.50,-68.86,-170.50,0.554763,95.90,1
3819536,1,28513,0,48101,48300,48150.76,48437.23,-49.76,-137.23,0.554437,95.90,1
3819576,1,28553,0,48106,48300,48150.67,48436.95,-44.67,-136.95,0.554110,95.91,1
3819616,1,28593,0,48106,48304,48150.58,48436.69,-44.58,-132.69,0.553782,95.92,1
3819656,1,28633,0,48111,48326,48150.50,48436.47,-39.50,-110.47,0.553454,95.92,1
3819696,1,28673,0,48126,48365,48150.45,48436.33,-24.45,-71.33,0.553126,95.93,1
3819736,1,28713,0,48147,48395,48150.45,48436.25,-3.45,-41.25,0.552798,95.94,1
3819776,1,28753,0,48158,48433,48150.46,48436.24,7.54,-3.24,0.552472,95.95,1
3819816,1,28793,0,48174,48461,48150.51,48436.29,23.49,24.71,0.552147,95.95,1
3819856,1,28833,0,48186,48482,48150.58,48436.39,35.42,45.61,0.551824,95.96,1
3819896,1,28873,0,48199,48497,48150.68,48436.51,48.32,60.49,0.551505,95.97,1
3819936,1,28913,0,48204,48520,48150.79,48436.68,53.21,83.32,0.551189,95.98,1
3819976,1,28953,0,48214,48541,48150.92,48436.89,63.08,104.11,0.550877,95.98,1
3820016,1,28993,0,48219,48563,48151.05,48437.14,67.95,125.86,0.550569,95.99,1
3820056,1,29033,0,48229,48596,48151.21,48437.46,77.79,158.54,0.550262,96.00,1
3820097,1,29074,0,48244,48621,48151.40,48437.83,92.60,183.17,0.549960,96.01,1
3820137,1,29114,0,48258,48642,48151.61,48438.24,106.39,203.76,0.549663,96.01,1
3820177,1,29154,0,48247,48563,48151.80,48438.49,95.20,124.51,0.549377,96.02,1
3820217,1,29194,0,48170,48383,48151.84,48438.38,18.16,-55.38,0.549090,96.03,1
3820257,1,29234,0,48089,48280,48151.72,48438.06,-62.72,-158.06,0.548803,96.04,1
3820297,1,29274,0,48075,48288,48151.57,48437.76,-76.57,-149.76,0.548519,96.04,1
3820337,1,29314,0,48087,48320,48151.44,48437.53,-64.44,-117.53,0.548237,96.05,1
3820377,1,29354,0,48097,48346,48151.33,48437.34,-54.33,-91.34,0.547959,96.06,1
3820417,1,29394,0,48109,48378,48151.25,48437.23,-42.25,-59.23,0.547683,96.07,1
3820457,1,29434,0,48129,48412,48151.20,48437.18,-22.20,-25.18,0.547408,96.07,1
3820497,1,29474,0,48140,48413,48151.18,48437.13,-11.18,-24.13,0.547134,96.08,1
3820537,1,29514,0,48133,48403,48151.15,48437.06,-18.15,-34.06,0.546861,96.09,1
3820577,1,29554,0,48138,48421,48151.12,48437.03,-13.13,-16.03,0.546589,96.10,1
3820617,1,29594,0,48151,48453,48151.12,48437.06,-0.13,15.94,0.546318,96.10,1
3820657,1,29634,0,48164,48491,48151.15,48437.17,12.85,53.83,0.546046,96.11,1
3820697,1,29674,0,48182,48517,48151.21,48437.33,30.79,79.67,0.545776,96.12,1
3820737,1,29714,0,48192,48539,48151.30,48437.54,40.70,101.46,0.545505,96.13,1
3820777,1,29754,0,48205,48562,48151.41,48437.79,53.59,124.21,0.545234,96.13,1
3820817,1,29794,0,48210,48576,48151.52,48438.06,58.48,137.94,0.544964,96.14,1
3820857,1,29834,0,48217,48591,48151.66,48438.37,65.34,152.63,0.544693,96.15,1
3820897,1,29874,0,48217,48608,48151.79,48438.71,65.21,169.29,0.544421,96.16,1
3820938,1,29915,0,48228,48625,48151.94,48439.09,76.06,185.91,0.544147,96.16,1
3820978,1,29955,0,48240,48656,48152.12,48439.52,87.88,216.48,0.543871,96.17,1
3821018,1,29995,0,48252,48691,48152.32,48440.02,99.68,250.98,0.543592,96.18,1
3821058,1,30035,1,48263,48681,48152.54,48440.51,110.46,240.49,0.543314,96.18,1
3821098,1,30075,1,48226,48548,48152.69,48440.72,73.31,107.28,0.543042,96.19,1
3821138,1,30115,1,48144,48413,48152.67,48440.67,-8.67,-27.67,0.542771,96.20,1
3821178,1,30155,1,48107,48395,48152.58,48440.58,-45.58,-45.58,0.542503,96.21,1
3821218,1,30195,1,48124,48445,48152.53,48440.59,-28.53,4.41,0.542238,96.21,1
3821258,1,30235,1,48145,48488,48152.51,48440.69,-7.51,47.31,0.541972,96.22,1
3821298,1,30275,1,48168,48536,48152.54,48440.88,15.46,95.12,0.541705,96.23,1
3821338,1,30315,1,48187,48566,48152.61,48441.13,34.39,124.87,0.541435,96.23,1
3821378,1,30355,1,48197,48557,48152.70,48441.36,44.30,115.64,0.541165,96.24,1
3821418,1,30395,1,48194,48545,48152.79,48441.57,41.21,103.43,0.540895,96.25,1
3821458,1,30435,1,48189,48553,48152.86,48441.79,36.14,111.21,0.540623,96.26,1
3821498,1,30475,1,48197,48586,48152.95,48442.08,44.05,143.92,0.540349,96.26,1
3821538,1,30515,1,48214,48617,48153.07,48442.43,60.93,174.57,0.540072,96.27,1
3821578,1,30555,1,48231,48644,48153.23,48442.84,77.77,201.16,0.539792,96.28,1
3821618,1,30595,1,48249,48677,48153.42,48443.31,95.58,233.69,0.539510,96.28,1
3821658,1,30635,1,48253,48697,48153.62,48443.82,99.38,253.18,0.539225,96.29,1
3821698,1,30675,1,48258,48713,48153.83,48444.36,104.17,268.64,0.538935,96.30,1
3821738,1,30715,1,48268,48731,48154.06,48444.93,113.94,286.07,0.538642,96.31,1
3821779,1,30756,1,48274,48749,48154.30,48445.54,119.70,303.46,0.538345,96.31,1
3821819,1,30796,1,48281,48772,48154.56,48446.19,126.44,325.81,0.538042,96.32,1
3821859,1,30836,1,48292,48803,48154.84,48446.91,137.16,356.09,0.537733,96.33,1
3821899,1,30876,1,48300,48821,48155.13,48447.66,144.87,373.34,0.537418,96.33,1
3821939,1,30916,1,48290,48729,48155.40,48448.22,134.60,280.78,0.537108,96.34,1
3821979,1,30956,1,48216,48556,48155.52,48448.44,60.48,107.56,0.536802,96.35,1
3822019,1,30996,1,48148,48478,48155.50,48448.50,-7.50,29.50,0.536496,96.36,1
3822059,1,31036,1,48136,48491,48155.46,48448.58,-19.46,42.42,0.536192,96.36,1
3822099,1,31076,1,48152,48528,48155.46,48448.74,-3.46,79.26,0.535886,96.37,1
3822139,1,31116,1,48162,48550,48155.48,48448.95,6.52,101.05,0.535580,96.38,1
3822179,1,31156,1,48186,48585,48155.54,48449.22,30.46,135.78,0.535270,96.38,1
3822219,1,31196,1,48205,48615,48155.64,48449.55,49.36,165.45,0.534958,96.39,1
3822259,1,31236,1,48216,48623,48155.76,48449.90,60.24,173.10,0.534644,96.40,1
3822299,1,31276,1,48220,48622,48155.89,48450.24,64.11,171.76,0.534329,96.41,1
3822339,1,31316,1,48211,48631,48156.00,48450.61,55.00,180.39,0.534011,96.41,1
3822379,1,31356,1,48220,48653,48156.13,48451.01,63.87,201.99,0.533690,96.42,1
3822419,1,31396,1,48236,48677,48156.29,48451.46,79.71,225.54,0.533366,96.43,1
3822459,1,31436,1,48247,48704,48156.48,48451.97,90.52,252.03,0.533038,96.44,1
3822499,1,31476,1,48262,48744,48156.69,48452.56,105.31,291.44,0.532706,96.44,1
3822539,1,31516,1,48276,48770,48156.93,48453.20,119.07,316.80,0.532371,96.45,1
3822579,1,31556,1,48285,48785,48157.18,48453.86,127.82,331.14,0.532032,96.46,1
3822620,1,31597,1,48290,48799,48157.45,48454.55,132.55,344.45,0.531692,96.47,1
3822660,1,31637,1,48293,48798,48157.72,48455.24,135.28,342.76,0.531349,96.47,1
3822700,1,31677,1,48301,48821,48158.01,48455.97,142.99,365.03,0.531005,96.48,1
3822740,1,31717,1,48310,48847,48158.32,48456.76,151.68,390.24,0.530658,96.49,1
3822780,1,31757,1,48314,48870,48158.63,48457.59,155.37,412.41,0.530308,96.50,1
3822820,1,31797,1,48324,48872,48158.96,48458.42,165.04,413.58,0.529956,96.50,1
3822860,1,31837,1,48303,48747,48159.25,48459.00,143.75,288.00,0.529612,96.51,1
3822900,1,31877,1,48216,48560,48159.36,48459.20,56.64,100.80,0.529271,96.52,1
3822940,1,31917,1,48146,48492,48159.34,48459.27,-13.34,32.73,0.528931,96.53,1
3822980,1,31957,1,48137,48484,48159.29,48459.32,-22.29,24.68,0.528593,96.53,1
3823020,1,31997,1,48141,48487,48159.26,48459.37,-18.26,27.63,0.528255,96.54,1
3823060,1,32037,1,48145,48482,48159.23,48459.42,-14.23,22.58,0.527919,96.55,1
3823100,1,32077,1,48149,48498,48159.21,48459.50,-10.21,38.50,0.527584,96.56,1
3823140,1,32117,1,48154,48504,48159.20,48459.59,-5.20,44.41,0.527249,96.57,1
3823180,1,32157,1,48160,48499,48159.21,48459.66,0.79,39.34,0.526915,96.57,1
3823220,1,32197,1,48155,48496,48159.20,48459.74,-4.20,36.26,0.526582,96.58,1
3823260,1,32237,1,48149,48481,48159.18,48459.78,-10.18,21.22,0.526250,96.59,1
3823300,1,32277,1,48143,48459,48159.15,48459.78,-16.15,-0.78,0.525919,96.60,1
3823340,1,32317,1,48138,48472,48159.11,48459.81,-21.11,12.19,0.525590,96.60,1
3823380,1,32357,1,48145,48502,48159.08,48459.89,-14.08,42.11,0.525261,96.61,1
3823420,1,32397,1,48156,48524,48159.07,48460.02,-3.07,63.98,0.524933,96.62,1
3823461,1,32438,1,48170,48567,48159.10,48460.24,10.90,106.76,0.524603,96.63,1
3823501,1,32478,1,48188,48601,48159.16,48460.52,28.84,140.48,0.524272,96.64,1
3823541,1,32518,1,48198,48629,48159.23,48460.86,38.77,168.14,0.523937,96.64,1
3823581,1,32558,1,48209,48649,48159.34,48461.24,49.66,187.76,0.523600,96.65,1
3823621,1,32598,1,48208,48650,48159.43,48461.62,48.57,188.38,0.523259,96.66,1
3823661,1,32638,1,48210,48650,48159.54,48462.00,50.46,188.00,0.522915,96.67,1
3823701,1,32678,1,48216,48647,48159.65,48462.37,56.35,184.63,0.522570,96.68,1
3823741,1,32718,1,48204,48586,48159.74,48462.62,44.26,123.38,0.522224,96.68,1
3823781,1,32758,1,48141,48436,48159.70,48462.57,-18.70,-26.57,0.521880,96.69,1
3823821,1,32798,1,48067,48323,48159.52,48462.29,-92.52,-139.29,0.521544,96.70,1
3823861,1,32838,1,48041,48289,48159.29,48461.95,-118.29,-172.95,0.521220,96.71,1
3823901,1,32878,1,48039,48306,48159.05,48461.63,-120.05,-155.63,0.520909,96.72,1
3823941,1,32918,1,48050,48321,48158.83,48461.35,-108.83,-140.35,0.520609,96.72,1
3823981,1,32958,1,48063,48359,48158.64,48461.15,-95.64,-102.15,0.520318,96.73,1
3824021,1,32998,1,48088,48396,48158.50,48461.02,-70.50,-65.02,0.520034,96.74,1
3824061,1,33038,1,48090,48381,48158.36,48460.86,-68.36,-79.86,0.519755,96.75,1
3824101,1,33078,1,48077,48353,48158.20,48460.64,-81.20,-107.64,0.519482,96.76,1
3824141,1,33118,1,48062,48325,48158.01,48460.37,-96.01,-135.37,0.519216,96.76,1
3824181,1,33158,1,48049,48308,48157.79,48460.07,-108.79,-152.07,0.518961,96.77,1
3824221,1,33198,1,48044,48323,48157.57,48459.80,-113.57,-136.80,0.518718,96.78,1
3824262,1,33239,1,48055,48344,48157.36,48459.57,-102.36,-115.57,0.518485,96.79,1
3824302,1,33279,1,48063,48334,48157.18,48459.32,-94.18,-125.32,0.518260,96.80,1
3824342,1,33319,1,48058,48352,48156.98,48459.10,-98.98,-107.10,0.518044,96.80,1
3824382,1,33359,1,48058,48348,48156.79,48458.88,-98.79,-110.88,0.517838,96.81,1
3824422,1,33399,1,48056,48362,48156.59,48458.69,-100.59,-96.69,0.517642,96.82,1
3824462,1,33439,1,48061,48372,48156.39,48458.52,-95.39,-86.52,0.517456,96.83,1
3824502,1,33479,1,48070,48389,48156.22,48458.38,-86.22,-69.38,0.517278,96.83,1
3824542,1,33519,1,48079,48422,48156.07,48458.31,-77.07,-36.31,0.517107,96.84,1
3824582,1,33559,1,48088,48430,48155.93,48458.25,-67.93,-28.25,0.516942,96.85,1
3824622,1,33599,1,48078,48357,48155.78,48458.05,-77.78,-101.05,0.516782,96.85,1
3824662,1,33639,1,48025,48221,48155.52,48457.58,-130.52,-236.58,0.516629,96.86,1
3824702,1,33679,1,47959,48134,48155.12,48456.93,-196.12,-322.93,0.516495,96.87,1
3824742,1,33719,1,47940,48129,48154.70,48456.28,-214.70,-327.28,0.516386,96.87,1
3824782,1,33759,1,47946,48129,48154.28,48455.62,-208.28,-326.62,0.516298,96.88,1
3824822,1,33799,1,47953,48161,48153.87,48455.04,-200.87,-294.04,0.516230,96.89,1
3824862,1,33839,1,47964,48177,48153.50,48454.48,-189.50,-277.48,0.516180,96.89,1
3824902,1,33879,1,47976,48203,48153.14,48453.98,-177.14,-250.98,0.516145,96.90,1
3824942,1,33919,1,47976,48196,48152.79,48453.46,-176.79,-257.46,0.516124,96.91,1
3824982,1,33959,1,47972,48194,48152.43,48452.95,-180.43,-258.95,0.516117,96.91,1
3825022,1,33999,1,47965,48188,48152.05,48452.42,-187.05,-264.42,0.516126,96.92,1
3825062,1,34039,1,47958,48182,48151.67,48451.88,-193.67,-269.88,0.516151,96.92,1
3825103,1,34080,1,47965,48172,48151.30,48451.32,-186.30,-279.32,0.516188,96.93,1
3825143,1,34120,1,47956,48173,48150.91,48450.77,-194.91,-277.77,0.516239,96.93,1
3825183,1,34160,1,47956,48194,48150.52,48450.25,-194.52,-256.25,0.516306,96.94,1
3825223,1,34200,1,47962,48214,48150.14,48449.78,-188.14,-235.78,0.516388,96.94,1
3825263,1,34240,1,47966,48229,48149.78,48449.34,-183.78,-220.34,0.516487,96.95,1
3825303,1,34280,1,47978,48244,48149.43,48448.93,-171.43,-204.93,0.516598,96.95,1
3825343,1,34320,1,47981,48258,48149.10,48448.55,-168.10,-190.55,0.516723,96.95,1
3825383,1,34360,1,47994,48305,48148.79,48448.27,-154.79,-143.27,0.516862,96.96,1
3825423,1,34400,1,48005,48320,48148.50,48448.01,-143.50,-128.01,0.517012,96.96,1
3825463,1,34440,1,47985,48240,48148.18,48447.60,-163.18,-207.60,0.517172,96.96,1
3825503,1,34480,1,47936,48137,48147.76,48446.98,-211.76,-309.98,0.517342,96.97,1
3825543,1,34520,1,47906,48095,48147.28,48446.27,-241.28,-351.27,0.517525,96.97,1
3825583,1,34560,1,47897,48098,48146.78,48445.58,-249.78,-347.58,0.517724,96.97,1
3825623,1,34600,1,47905,48125,48146.30,48444.94,-241.30,-319.94,0.517939,96.98,1
3825663,1,34640,1,47916,48145,48145.84,48444.34,-229.84,-299.34,0.518168,96.98,1
3825703,1,34680,1,47927,48176,48145.40,48443.80,-218.40,-267.80,0.518411,96.98,1
3825743,1,34720,1,47941,48200,48144.99,48443.32,-203.99,-243.32,0.518668,96.98,1
3825783,1,34760,1,47954,48209,48144.61,48442.85,-190.61,-233.85,0.518934,96.98,1
3825823,1,34800,1,47945,48194,48144.21,48442.35,-199.21,-248.35,0.519211,96.98,1
3825863,1,34840,1,47927,48147,48143.78,48441.76,-216.78,-294.76,0.519497,96.98,1
3825903,1,34880,1,47900,48109,48143.30,48441.10,-243.30,-332.10,0.519792,96.99,1
3825943,1,34920,1,47883,48090,48142.78,48440.40,-259.78,-350.40,0.520100,96.99,1
3825984,1,34961,1,47875,48073,48142.24,48439.66,-267.24,-366.66,0.520418,96.99,1
3826024,1,35001,1,47874,48088,48141.71,48438.96,-267.71,-350.96,0.520749,96.99,1
3826064,1,35041,1,47879,48108,48141.18,48438.30,-262.18,-330.30,0.521094,96.99,1
3826104,1,35081,1,47886,48136,48140.68,48437.70,-254.68,-301.70,0.521453,96.98,1
3826144,1,35121,1,47894,48156,48140.18,48437.14,-246.18,-281.14,0.521826,96.98,1
3826184,1,35161,1,47909,48171,48139.72,48436.61,-230.72,-265.61,0.522211,96.98,1
3826224,1,35201,1,47915,48197,48139.27,48436.13,-224.27,-239.13,0.522609,96.98,1
3826264,1,35241,1,47923,48222,48138.84,48435.70,-215.84,-213.70,0.523020,96.98,1
3826304,1,35281,1,47927,48217,48138.42,48435.27,-211.42,-218.27,0.523442,96.98,1
3826344,1,35321,1,47918,48195,48137.98,48434.79,-219.98,-239.79,0.523875,96.98,1
3826384,1,35361,1,47912,48182,48137.53,48434.28,-225.53,-252.28,0.524318,96.97,1
3826424,1,35401,1,47910,48180,48137.08,48433.77,-227.08,-253.77,0.524771,96.97,1
3826464,1,35441,1,47905,48179,48136.61,48433.27,-231.61,-254.27,0.525236,96.97,1
3826504,1,35481,1,47907,48184,48136.16,48432.77,-229.16,-248.77,0.525710,96.96,1
3826544,1,35521,1,47900,48178,48135.68,48432.26,-235.68,-254.26,0.526196,96.96,1
3826584,1,35561,1,47899,48179,48135.21,48431.76,-236.21,-252.76,0.526693,96.96,1
3826624,1,35601,1,47897,48173,48134.73,48431.24,-237.73,-258.24,0.527200,96.95,1
3826664,1,35641,1,47899,48198,48134.27,48430.78,-235.27,-232.78,0.527720,96.95,1
3826704,1,35681,1,47901,48211,48133.80,48430.34,-232.80,-219.34,0.528253,96.94,1
3826744,1,35721,1,47908,48229,48133.35,48429.94,-225.35,-200.94,0.528798,96.94,1
3826784,1,35761,1,47913,48251,48132.91,48429.58,-219.91,-178.58,0.529358,96.93,1
3826825,1,35802,1,47919,48259,48132.48,48429.24,-213.48,-170.24,0.529929,96.93,1
3826865,1,35842,1,47918,48266,48132.06,48428.92,-214.06,-162.92,0.530514,96.92,1
3826905,1,35882,1,47917,48264,48131.63,48428.59,-214.63,-164.59,0.531113,96.92,1
3826945,1,35922,1,47911,48261,48131.19,48428.26,-220.19,-167.26,0.531724,96.91,1
3826985,1,35962,1,47910,48272,48130.75,48427.95,-220.75,-155.95,0.532351,96.90,1
3827025,1,36002,1,47909,48258,48130.30,48427.61,-221.30,-169.61,0.532991,96.90,1
3827065,1,36042,1,47907,48260,48129.86,48427.27,-222.86,-167.27,0.533644,96.89,1
3827105,1,36082,1,47893,48255,48129.39,48426.93,-236.39,-171.93,0.534314,96.88,1
3827145,1,36122,1,47894,48249,48128.92,48426.57,-234.92,-177.57,0.534998,96.87,1
3827185,1,36162,1,47888,48251,48128.44,48426.22,-240.44,-175.22,0.535699,96.87,1
3827225,1,36202,1,47893,48238,48127.97,48425.85,-234.97,-187.85,0.536413,96.86,1
3827265,1,36242,1,47879,48236,48127.47,48425.47,-248.47,-189.47,0.537142,96.85,1
3827305,1,36282,1,47881,48250,48126.98,48425.12,-245.98,-175.12,0.537889,96.84,1
3827345,1,36322,1,47885,48269,48126.50,48424.80,-241.50,-155.80,0.538652,96.83,1
3827385,1,36362,1,47888,48289,48126.02,48424.54,-238.02,-135.54,0.539433,96.82,1
3827425,1,36402,1,47895,48308,48125.56,48424.30,-230.56,-116.30,0.540231,96.81,1
3827465,1,36442,1,47901,48320,48125.11,48424.10,-224.11,-104.10,0.541046,96.80,1
3827505,1,36482,1,47901,48329,48124.66,48423.91,-223.66,-94.91,0.541878,96.79,1
3827545,1,36522,1,47904,48339,48124.22,48423.74,-220.22,-84.74,0.542727,96.78,1
3827585,1,36562,1,47900,48346,48123.78,48423.59,-223.78,-77.59,0.543593,96.77,1
3827625,1,36602,1,47895,48346,48123.32,48423.44,-228.32,-77.44,0.544478,96.76,1
3827666,1,36643,1,47893,48346,48122.86,48423.29,-229.86,-77.29,0.545382,96.75,1
3827706,1,36683,1,47890,48349,48122.39,48423.14,-232.39,-74.14,0.546305,96.73,1
3827746,1,36723,1,47886,48355,48121.92,48423.00,-235.92,-68.00,0.547249,96.72,1
3827786,1,36763,1,47888,48358,48121.46,48422.87,-233.46,-64.87,0.548212,96.71,1
3827826,1,36803,2,47882,48364,48120.98,48422.75,-238.98,-58.75,0.549197,96.70,1
3827866,1,36843,2,47880,48358,48120.50,48422.62,-240.50,-64.62,0.550202,96.68,1
3827906,1,36883,2,47876,48358,48120.01,48422.50,-244.01,-64.50,0.551230,96.67,1
3827946,1,36923,2,47870,48360,48119.51,48422.37,-249.51,-62.37,0.552280,96.65,1
3827986,1,36963,2,47865,48358,48119.00,48422.24,-254.00,-64.24,0.553355,96.64,1
3828026,1,37003,2,47861,48359,48118.49,48422.12,-257.49,-63.12,0.554454,96.62,1
3828066,1,37043,2,47861,48357,48117.97,48421.99,-256.97,-64.99,0.555577,96.61,1
3828106,1,37083,2,47863,48353,48117.46,48421.85,-254.46,-68.85,0.556723,96.59,1
3828146,1,37123,2,47855,48347,48116.94,48421.70,-261.94,-74.70,0.557894,96.58,1
3828186,1,37163,2,47847,48340,48116.40,48421.54,-269.40,-81.54,0.559090,96.56,1
3828226,1,37203,2,47841,48349,48115.85,48421.39,-274.85,-72.39,0.560314,96.54,1
3828266,1,37243,2,47838,48347,48115.30,48421.25,-277.30,-74.25,0.561566,96.53,1
3828306,1,37283,2,47840,48354,48114.75,48421.11,-274.75,-67.11,0.562845,96.51,1
3828346,1,37323,2,47840,48357,48114.20,48420.98,-274.20,-63.98,0.564150,96.49,1
3828386,1,37363,2,47837,48365,48113.64,48420.87,-276.64,-55.88,0.565484,96.47,1
3828426,1,37403,2,47830,48364,48113.08,48420.76,-283.08,-56.76,0.566847,96.45,1
3828466,1,37443,2,47829,48363,48112.51,48420.65,-283.51,-57.65,0.568240,96.43,1
3828506,1,37483,2,47820,48356,48111.93,48420.52,-291.93,-64.52,0.569663,96.41,1
3828547,1,37524,2,47813,48341,48111.33,48420.36,-298.33,-79.36,0.571117,96.39,1
3828587,1,37564,2,47805,48331,48110.72,48420.19,-305.72,-89.19,0.572603,96.37,1
3828627,1,37604,2,47792,48328,48110.08,48420.00,-318.08,-92.00,0.574124,96.35,1
3828667,1,37644,2,47785,48327,48109.43,48419.82,-324.43,-92.82,0.575681,96.33,1
3828707,1,37684,2,47782,48329,48108.78,48419.64,-326.78,-90.64,0.577274,96.30,1
3828747,1,37724,2,47782,48329,48108.13,48419.46,-326.13,-90.46,0.578903,96.28,1
3828787,1,37764,2,47782,48329,48107.48,48419.28,-325.48,-90.28,0.580567,96.26,1
3828827,1,37804,2,47777,48330,48106.82,48419.11,-329.82,-89.11,0.582268,96.23,1
3828867,1,37844,2,47772,48330,48106.15,48418.93,-334.15,-88.93,0.584005,96.21,1
3828907,1,37884,2,47771,48327,48105.48,48418.75,-334.48,-91.75,0.585779,96.18,1
3828947,1,37924,2,47765,48321,48104.80,48418.55,-339.80,-97.55,0.587589,96.15,1
3828987,1,37964,2,47757,48313,48104.11,48418.34,-347.11,-105.34,0.589437,96.13,1
3829027,1,38004,2,47750,48311,48103.40,48418.12,-353.40,-107.12,0.591324,96.10,1
3829067,1,38044,2,47750,48308,48102.69,48417.91,-352.69,-109.91,0.593248,96.07,1
3829107,1,38084,2,47743,48301,48101.97,48417.67,-358.97,-116.67,0.595210,96.04,1
3829147,1,38124,2,47739,48291,48101.25,48417.42,-362.25,-126.42,0.597209,96.02,1
3829187,1,38164,2,47722,48288,48100.49,48417.16,-378.49,-129.16,0.599248,95.99,1
3829227,1,38204,2,47723,48282,48099.73,48416.89,-376.73,-134.89,0.601325,95.95,1
3829267,1,38244,2,47716,48277,48098.97,48416.61,-382.97,-139.61,0.603441,95.92,1
3829307,1,38284,2,47710,48274,48098.19,48416.33,-388.19,-142.33,0.605595,95.89,1
3829347,1,38324,2,47700,48272,48097.39,48416.04,-397.39,-144.04,0.607790,95.86,1
3829388,1,38365,2,47698,48266,48096.60,48415.74,-398.60,-149.74,0.610024,95.83,1
3829428,1,38405,2,47688,48268,48095.78,48415.45,-407.78,-147.45,0.612299,95.79,1
3829468,1,38445,2,47685,48266,48094.96,48415.15,-409.96,-149.15,0.614614,95.76,1
3829508,1,38485,2,47679,48261,48094.13,48414.84,-415.13,-153.84,0.616970,95.72,1
3829548,1,38525,2,47671,48267,48093.29,48414.55,-422.29,-147.55,0.619369,95.69,1
3829588,1,38565,2,47670,48263,48092.44,48414.25,-422.44,-151.25,0.621808,95.65,1
3829628,1,38605,2,47667,48265,48091.59,48413.95,-424.59,-148.95,0.624290,95.61,1
3829668,1,38645,2,47668,48262,48090.74,48413.65,-422.74,-151.65,0.626810,95.57,1
3829708,1,38685,2,47655,48264,48089.87,48413.36,-434.87,-149.36,0.629373,95.53,1
3829748,1,38725,2,47657,48258,48089.01,48413.05,-432.01,-155.05,0.631976,95.49,1
3829788,1,38765,2,47654,48259,48088.14,48412.74,-434.14,-153.74,0.634619,95.45,1
3829828,1,38805,2,47651,48263,48087.27,48412.44,-436.27,-149.44,0.637301,95.41,1
3829868,1,38845,2,47655,48259,48086.41,48412.14,-431.41,-153.14,0.640021,95.37,1
3829908,1,38885,2,47650,48264,48085.54,48411.84,-435.54,-147.84,0.642780,95.33,1
3829948,1,38925,2,47644,48259,48084.65,48411.54,-440.65,-152.54,0.645577,95.28,1
3829988,1,38965,2,47640,48254,48083.77,48411.22,-443.77,-157.22,0.648411,95.24,1
3830028,1,39005,2,47635,48250,48082.87,48410.90,-447.87,-160.90,0.651282,95.19,1
3830068,1,39045,2,47627,48238,48081.96,48410.56,-454.96,-172.56,0.654187,95.14,1
3830108,1,39085,2,47619,48230,48081.04,48410.20,-462.04,-180.20,0.657125,95.10,1
3830148,1,39125,2,47610,48221,48080.09,48409.82,-470.09,-188.82,0.660096,95.05,1
3830188,1,39165,2,47605,48218,48079.14,48409.44,-474.14,-191.44,0.663098,95.00,1
3830228,1,39205,2,47593,48209,48078.17,48409.04,-485.17,-200.04,0.666130,94.95,1
3830269,1,39246,2,47590,48205,48077.20,48408.63,-487.20,-203.63,0.669192,94.90,1
3830309,1,39286,2,47579,48194,48076.20,48408.20,-497.20,-214.20,0.672281,94.85,1
3830349,1,39326,2,47570,48189,48075.19,48407.77,-505.19,-218.77,0.675396,94.80,1
3830389,1,39366,2,47564,48193,48074.17,48407.34,-510.17,-214.34,0.678541,94.74,1
3830429,1,39406,2,47559,48188,48073.14,48406.90,-514.14,-218.90,0.681712,94.69,1
3830469,1,39446,2,47555,48180,48072.11,48406.45,-517.11,-226.45,0.684907,94.64,1
3830509,1,39486,2,47548,48163,48071.06,48405.96,-523.06,-242.96,0.688121,94.58,1
3830549,1,39526,2,47535,48153,48069.99,48405.46,-534.99,-252.46,0.691350,94.53,1
3830589,1,39566,2,47524,48140,48068.90,48404.93,-544.90,-264.93,0.694593,94.47,1
3830629,1,39606,2,47512,48128,48067.79,48404.37,-555.79,-276.37,0.697845,94.41,1
3830669,1,39646,2,47505,48118,48066.66,48403.80,-561.66,-285.80,0.701104,94.35,1
3830709,1,39686,2,47503,48116,48065.54,48403.23,-562.54,-287.23,0.704368,94.29,1
3830749,1,39726,2,47499,48121,48064.40,48402.67,-565.40,-281.67,0.707641,94.23,1
3830789,1,39766,2,47500,48120,48063.27,48402.11,-563.27,-282.11,0.710919,94.17,1
3830829,1,39806,2,47499,48121,48062.14,48401.54,-563.14,-280.54,0.714205,94.11,1
3830869,1,39846,2,47493,48125,48061.01,48400.99,-568.01,-275.99,0.717499,94.05,1
3830909,1,39886,2,47490,48128,48059.87,48400.45,-569.87,-272.45,0.720804,93.99,1
3830949,1,39926,2,47488,48132,48058.73,48399.91,-570.73,-267.91,0.724121,93.93,1
3830989,1,39966,2,47489,48139,48057.59,48399.39,-568.59,-260.39,0.727452,93.86,1
3831029,1,40006,2,47490,48153,48056.46,48398.90,-566.46,-245.90,0.730800,93.80,1
3831069,1,40046,2,47491,48157,48055.33,48398.42,-564.33,-241.42,0.734167,93.74,1
3831109,1,40086,2,47488,48167,48054.20,48397.96,-566.20,-230.96,0.737555,93.67,1
3831149,1,40126,2,47485,48167,48053.06,48397.50,-568.06,-230.50,0.740965,93.60,1
3831190,1,40167,2,47481,48169,48051.91,48397.04,-570.91,-228.04,0.744397,93.54,1
3831230,1,40207,2,47480,48172,48050.77,48396.59,-570.77,-224.59,0.747852,93.47,1
3831270,1,40247,2,47479,48173,48049.63,48396.14,-570.63,-223.14,0.751329,93.40,1
3831310,1,40287,2,47469,48172,48048.47,48395.70,-579.47,-223.70,0.754829,93.33,1
3831350,1,40327,2,47466,48170,48047.30,48395.25,-581.30,-225.25,0.758352,93.27,1
3831390,1,40367,2,47460,48164,48046.13,48394.79,-586.13,-230.79,0.761895,93.20,1
3831430,1,40407,2,47455,48159,48044.95,48394.32,-589.95,-235.32,0.765458,93.13,1
3831470,1,40447,2,47451,48159,48043.77,48393.85,-592.77,-234.85,0.769041,93.06,1
3831510,1,40487,2,47442,48158,48042.56,48393.38,-600.56,-235.38,0.772644,92.98,1
3831550,1,40527,2,47441,48165,48041.36,48392.93,-600.36,-227.93,0.776269,92.91,1
3831590,1,40567,2,47444,48160,48040.16,48392.46,-596.16,-232.46,0.779913,92.84,1
3831630,1,40607,2,47437,48152,48038.96,48391.98,-601.96,-239.98,0.783573,92.77,1
3831670,1,40647,2,47430,48140,48037.74,48391.48,-607.74,-251.48,0.787246,92.69,1
3831710,1,40687,2,47417,48134,48036.50,48390.96,-619.50,-256.96,0.790932,92.62,1
3831750,1,40727,2,47409,48122,48035.25,48390.43,-626.25,-268.43,0.794627,92.55,1
3831790,1,40767,2,47400,48111,48033.98,48389.87,-633.98,-278.87,0.798328,92.47,1
3831830,1,40807,2,47393,48100,48032.70,48389.29,-639.70,-289.29,0.802031,92.40,1
3831870,1,40847,2,47388,48091,48031.41,48388.70,-643.41,-297.70,0.805733,92.32,1
3831910,1,40887,2,47379,48086,48030.10,48388.09,-651.10,-302.09,0.809433,92.24,1
3831950,1,40927,2,47368,48083,48028.78,48387.48,-660.78,-304.48,0.813133,92.17,1
3831990,1,40967,2,47363,48076,48027.45,48386.86,-664.45,-310.86,0.816829,92.09,1
3832031,1,41008,2,47356,48071,48026.11,48386.23,-670.11,-315.23,0.820521,92.01,1
3832071,1,41048,2,47348,48065,48024.75,48385.59,-676.75,-320.59,0.824208,91.93,1
3832111,1,41088,2,47338,48063,48023.38,48384.95,-685.38,-321.95,0.827891,91.85,1
3832151,1,41128,2,47328,48060,48021.99,48384.30,-693.99,-324.30,0.831571,91.77,1
3832191,1,41168,2,47329,48060,48020.61,48383.65,-691.61,-323.65,0.835247,91.69,1
3832231,1,41208,2,47325,48051,48019.21,48382.98,-694.21,-331.98,0.838915,91.61,1
3832271,1,41248,2,47316,48050,48017.81,48382.32,-701.81,-332.32,0.842578,91.53,1
3832311,1,41288,2,47312,48041,48016.40,48381.64,-704.40,-340.64,0.846231,91.45,1
3832351,1,41328,2,47307,48044,48014.98,48380.96,-707.98,-336.96,0.849878,91.37,1
3832391,1,41368,2,47299,48042,48013.55,48380.29,-714.55,-338.29,0.853519,91.29,1
3832431,1,41408,2,47296,48033,48012.12,48379.60,-716.12,-346.60,0.857150,91.21,1
3832471,1,41448,2,47295,48029,48010.68,48378.90,-715.68,-349.90,0.860770,91.13,1
3832511,1,41488,2,47291,48022,48009.25,48378.19,-718.25,-356.19,0.864377,91.04,1
3832551,1,41528,2,47276,48011,48007.78,48377.45,-731.78,-366.45,0.867970,90.96,1
3832591,1,41568,2,47273,48008,48006.31,48376.71,-733.31,-368.71,0.871547,90.88,1
3832631,1,41608,2,47264,47999,48004.83,48375.96,-740.83,-376.96,0.875108,90.80,1
3832671,1,41648,2,47257,47992,48003.33,48375.20,-746.33,-383.20,0.878650,90.71,1
3832711,1,41688,2,47253,47991,48001.83,48374.43,-748.83,-383.43,0.882174,90.63,1
3832751,1,41728,2,47244,47978,48000.32,48373.64,-756.32,-395.64,0.885678,90.55,1
3832791,1,41768,2,47236,47968,47998.79,48372.83,-762.79,-404.83,0.889159,90.46,1
3832831,1,41808,2,47224,47957,47997.24,48372.00,-773.24,-415.00,0.892615,90.38,1
3832871,1,41848,2,47216,47949,47995.68,48371.15,-779.68,-422.15,0.896046,90.30,1
3832912,1,41889,2,47205,47938,47994.10,48370.29,-789.10,-432.29,0.899449,90.21,1
3832952,1,41929,2,47199,47930,47992.51,48369.41,-793.51,-439.41,0.902823,90.13,1
3832992,1,41969,2,47191,47927,47990.91,48368.53,-799.91,-441.53,0.906170,90.05,1
3833032,1,42009,2,47180,47926,47989.29,48367.64,-809.29,-441.64,0.909492,89.96,1
3833072,1,42049,2,47174,47923,47987.66,48366.76,-813.66,-443.76,0.912790,89.88,1
3833112,1,42089,2,47170,47916,47986.02,48365.86,-816.02,-449.86,0.916062,89.80,1
3833152,1,42129,2,47168,47912,47984.39,48364.95,-816.39,-452.95,0.919309,89.71,1
3833192,1,42169,2,47165,47912,47982.75,48364.05,-817.75,-452.05,0.922531,89.63,1
3833232,1,42209,2,47152,47917,47981.09,48363.15,-829.09,-446.15,0.925734,89.55,1
3833272,1,42249,2,47154,47911,47979.44,48362.25,-825.44,-451.25,0.928916,89.46,1
3833312,1,42289,2,47154,47912,47977.79,48361.35,-823.79,-449.35,0.932077,89.38,1
3833352,1,42329,2,47148,47899,47976.13,48360.43,-828.13,-461.43,0.935215,89.30,1
3833392,1,42369,2,47144,47895,47974.46,48359.50,-830.46,-464.50,0.938329,89.22,1
3833432,1,42409,2,47138,47879,47972.79,48358.54,-834.79,-479.54,0.941416,89.13,1
3833472,1,42449,2,47128,47876,47971.11,48357.57,-843.11,-481.57,0.944477,89.05,1
3833512,1,42489,2,47116,47872,47969.40,48356.61,-853.40,-484.61,0.947513,88.97,1
3833552,1,42529,2,47114,47866,47967.69,48355.62,-853.69,-489.62,0.950524,88.89,1
3833592,1,42569,2,47110,47859,47965.97,48354.63,-855.97,-495.63,0.953509,88.80,1
3833632,1,42609,2,47103,47855,47964.25,48353.64,-861.25,-498.64,0.956468,88.72,1
3833672,1,42649,2,47101,47855,47962.52,48352.64,-861.52,-497.64,0.959403,88.64,1
3833712,1,42689,2,47091,47853,47960.78,48351.64,-869.78,-498.64,0.962315,88.56,1
3833752,1,42729,2,47089,47851,47959.04,48350.64,-870.04,-499.64,0.965204,88.48,1
3833793,1,42770,2,47082,47847,47957.28,48349.64,-875.28,-502.64,0.968072,88.40,1
3833833,1,42810,2,47076,47837,47955.52,48348.61,-879.52,-511.61,0.970916,88.32,1
3833873,1,42850,2,47068,47830,47953.75,48347.58,-885.75,-517.58,0.973737,88.24,1
3833913,1,42890,2,47051,47825,47951.94,48346.54,-900.94,-521.54,0.976535,88.16,1
3833953,1,42930,2,47044,47818,47950.12,48345.48,-906.12,-527.48,0.979312,88.08,1
3833993,1,42970,2,47042,47806,47948.31,48344.40,-906.31,-538.40,0.982064,88.00,1
3834033,1,43010,2,47041,47814,47946.50,48343.34,-905.50,-529.34,0.984794,87.92,1
3834073,1,43050,2,47032,47810,47944.67,48342.28,-912.67,-532.28,0.987503,87.84,1
3834113,1,43090,2,47031,47819,47942.84,48341.23,-911.84,-522.23,0.990195,87.77,1
3834153,1,43130,2,47032,47820,47941.02,48340.19,-909.02,-520.19,0.992870,87.69,1
3834193,1,43170,2,47034,47819,47939.21,48339.14,-905.21,-520.14,0.995528,87.61,1
3834233,1,43210,2,47036,47819,47937.41,48338.11,-901.41,-519.11,0.998169,87.53,1
3834273,1,43250,2,47025,47816,47935.58,48337.06,-910.58,-521.06,1.000794,87.46,1
3834313,1,43290,2,47026,47814,47933.77,48336.02,-907.77,-522.02,1.003404,87.38,1
3834353,1,43330,2,47013,47806,47931.93,48334.96,-918.93,-528.96,1.005997,87.31,1
3834393,1,43370,2,47008,47800,47930.08,48333.89,-922.08,-533.89,1.008574,87.23,1
3834433,1,43410,2,47000,47787,47928.22,48332.80,-928.22,-545.80,1.011132,87.16,1
3834473,1,43450,2,46996,47785,47926.36,48331.70,-930.36,-546.70,1.013673,87.08,1
3834513,1,43490,2,46990,47784,47924.48,48330.61,-934.48,-546.61,1.016196,87.01,1
3834553,1,43530,2,46985,47780,47922.61,48329.51,-937.61,-549.51,1.018703,86.93,1
3834593,1,43570,2,46978,47773,47920.72,48328.39,-942.72,-555.39,1.021193,86.86,1
3834634,1,43611,2,46976,47776,47918.83,48327.29,-942.83,-551.29,1.023667,86.78,1
3834674,1,43651,2,46967,47773,47916.93,48326.18,-949.93,-553.18,1.026125,86.71,1
3834714,1,43691,2,46962,47778,47915.02,48325.09,-953.02,-547.09,1.028571,86.64,1
3834754,1,43731,2,46960,47772,47913.11,48323.98,-953.11,-551.98,1.031003,86.57,1
3834794,1,43771,2,46952,47771,47911.19,48322.88,-959.19,-551.88,1.033422,86.49,1
3834834,1,43811,2,46945,47762,47909.26,48321.76,-964.26,-559.76,1.035827,86.42,1
3834874,1,43851,2,46942,47761,47907.32,48320.64,-965.32,-559.64,1.038218,86.35,1
3834914,1,43891,2,46936,47767,47905.38,48319.53,-969.38,-552.53,1.040599,86.28,1
3834954,1,43931,2,46935,47772,47903.44,48318.44,-968.44,-546.44,1.042970,86.21,1
3834994,1,43971,2,46936,47775,47901.51,48317.35,-965.51,-542.35,1.045332,86.14,1
3835034,1,44011,2,46932,47777,47899.57,48316.27,-967.57,-539.27,1.047685,86.07,1
3835074,1,44051,2,46936,47780,47897.64,48315.20,-961.64,-535.20,1.050030,86.00,1
3835114,1,44091,2,46936,47775,47895.72,48314.12,-959.72,-539.12,1.052367,85.93,1
3835154,1,44131,2,46934,47780,47893.80,48313.06,-959.80,-533.06,1.054696,85.86,1
3835194,1,44171,2,46926,47771,47891.87,48311.98,-965.87,-540.98,1.057016,85.79,1
3835234,1,44211,2,46917,47767,47889.92,48310.89,-972.92,-543.89,1.059329,85.72,1
3835274,1,44251,2,46908,47755,47887.96,48309.78,-979.96,-554.78,1.061631,85.66,1
3835314,1,44291,2,46906,47743,47886.00,48308.64,-980.00,-565.64,1.063922,85.59,1
3835354,1,44331,2,46898,47737,47884.02,48307.50,-986.02,-570.50,1.066202,85.52,1
3835394,1,44371,2,46890,47732,47882.03,48306.36,-992.03,-574.36,1.068470,85.45,1
3835434,1,44411,2,46877,47730,47880.02,48305.20,-1003.02,-575.20,1.070727,85.39,1
3835474,1,44451,2,46874,47722,47878.01,48304.04,-1004.01,-582.04,1.072972,85.32,1
3835514,1,44491,2,46869,47719,47876.00,48302.87,-1007.00,-583.87,1.075206,85.26,1
3835555,1,44532,2,46859,47705,47873.96,48301.68,-1014.96,-596.68,1.077428,85.19,1
3835595,1,44572,2,46852,47699,47871.92,48300.47,-1019.92,-601.47,1.079636,85.12,1
3835635,1,44612,2,46848,47699,47869.87,48299.27,-1021.87,-600.27,1.081831,85.06,1
3835675,1,44652,2,46838,47698,47867.81,48298.07,-1029.81,-600.07,1.084016,84.99,1
3835715,1,44692,2,46833,47699,47865.74,48296.87,-1032.74,-597.87,1.086189,84.93,1
3835755,1,44732,2,46835,47699,47863.68,48295.68,-1028.68,-596.68,1.088352,84.87,1
3835795,1,44772,2,46832,47702,47861.62,48294.49,-1029.62,-592.49,1.090506,84.80,1
3835835,1,44812,2,46829,47707,47859.56,48293.32,-1030.56,-586.32,1.092651,84.74,1
3835875,1,44852,2,46830,47709,47857.50,48292.15,-1027.50,-583.15,1.094789,84.68,1
3835915,1,44892,2,46822,47707,47855.43,48290.98,-1033.43,-583.98,1.096919,84.61,1
3835955,1,44932,2,46823,47700,47853.37,48289.80,-1030.37,-589.80,1.099041,84.55,1
3835995,1,44972,2,46818,47694,47851.30,48288.61,-1033.30,-594.61,1.101153,84.49,1
3836035,1,45012,2,46811,47693,47849.22,48287.42,-1038.22,-594.42,1.103257,84.43,1
3836075,1,45052,2,46810,47694,47847.14,48286.23,-1037.14,-592.23,1.105353,84.36,1
3836115,1,45092,2,46801,47689,47845.05,48285.04,-1044.05,-596.04,1.107440,84.30,1
3836155,1,45132,2,46800,47677,47842.96,48283.82,-1042.96,-606.82,1.109518,84.24,1
3836195,1,45172,2,46794,47678,47840.86,48282.61,-1046.86,-604.61,1.111587,84.18,1
3836235,1,45212,2,46784,47676,47838.75,48281.40,-1054.75,-605.40,1.113647,84.12,1
3836275,1,45252,2,46781,47679,47836.64,48280.20,-1055.64,-601.20,1.115700,84.06,1
3836315,1,45292,2,46777,47677,47834.52,48278.99,-1057.52,-601.99,1.117745,84.00,1
3836355,1,45332,2,46773,47671,47832.40,48277.78,-1059.40,-606.78,1.119783,83.94,1
3836396,1,45373,2,46770,47680,47830.27,48276.58,-1060.27,-596.58,1.121814,83.88,1
3836436,1,45413,2,46764,47673,47828.14,48275.37,-1064.14,-602.37,1.123838,83.82,1
3836476,1,45453,2,46761,47678,47826.01,48274.18,-1065.01,-596.18,1.125857,83.76,1
3836516,1,45493,2,46757,47686,47823.87,48273.00,-1066.87,-587.00,1.127872,83.70,1
3836556,1,45533,2,46752,47684,47821.73,48271.83,-1069.73,-587.83,1.129883,83.64,1
3836596,1,45573,2,46748,47682,47819.59,48270.65,-1071.59,-588.65,1.131890,83.59,1
3836636,1,45613,2,46749,47678,47817.45,48269.46,-1068.45,-591.46,1.133893,83.53,1
3836676,1,45653,2,46746,47683,47815.30,48268.29,-1069.30,-585.29,1.135891,83.47,1
3836716,1,45693,2,46742,47686,47813.16,48267.13,-1071.16,-581.13,1.137887,83.41,1
3836756,1,45733,2,46740,47686,47811.02,48265.97,-1071.02,-579.97,1.139880,83.36,1
3836796,1,45773,2,46740,47683,47808.87,48264.80,-1068.88,-581.80,1.141869,83.30,1
3836836,1,45813,2,46743,47683,47806.75,48263.64,-1063.75,-580.64,1.143855,83.24,1
3836876,1,45853,2,46739,47676,47804.61,48262.46,-1065.61,-586.46,1.145836,83.18,1
3836916,1,45893,2,46728,47667,47802.46,48261.27,-1074.46,-594.27,1.147813,83.13,1
3836956,1,45933,2,46717,47664,47800.29,48260.08,-1083.29,-596.08,1.149785,83.07,1
3836996,1,45973,2,46717,47660,47798.13,48258.88,-1081.13,-598.88,1.151752,83.02,1
3837036,1,46013,2,46707,47655,47795.95,48257.68,-1088.95,-602.68,1.153714,82.96,1
3837076,1,46053,2,46708,47655,47793.77,48256.47,-1085.77,-601.47,1.155672,82.90,1
3837116,1,46093,2,46703,47648,47791.59,48255.26,-1088.59,-607.26,1.157624,82.85,1
3837156,1,46133,2,46693,47645,47789.40,48254.04,-1096.40,-609.04,1.159570,82.79,1
3837196,1,46173,2,46688,47642,47787.20,48252.82,-1099.20,-610.82,1.161512,82.74,1
3837236,1,46213,2,46677,47637,47784.98,48251.59,-1107.98,-614.59,1.163448,82.68,1
3837277,1,46254,2,46675,47629,47782.76,48250.34,-1107.76,-621.34,1.165378,82.63,1
3837317,1,46294,2,46672,47623,47780.54,48249.09,-1108.54,-626.09,1.167302,82.58,1
3837357,1,46334,2,46657,47620,47778.29,48247.83,-1121.29,-627.83,1.169220,82.52,1
3837397,1,46374,2,46650,47615,47776.04,48246.57,-1126.04,-631.57,1.171132,82.47,1
3837437,1,46414,2,46645,47608,47773.78,48245.29,-1128.78,-637.29,1.173037,82.41,1
3837477,1,46454,2,46639,47602,47771.51,48244.00,-1132.51,-642.00,1.174936,82.36,1
3837517,1,46494,2,46637,47601,47769.24,48242.72,-1132.24,-641.72,1.176827,82.31,1
3837557,1,46534,2,46632,47603,47766.96,48241.44,-1134.96,-638.44,1.178713,82.25,1
3837597,1,46574,2,46628,47605,47764.69,48240.17,-1136.69,-635.17,1.180593,82.20,1
3837637,1,46614,2,46625,47599,47762.41,48238.89,-1137.41,-639.89,1.182467,82.15,1
3837677,1,46654,2,46625,47595,47760.14,48237.60,-1135.14,-642.60,1.184335,82.09,1
3837717,1,46694,2,46624,47596,47757.87,48236.32,-1133.87,-640.32,1.186196,82.04,1
3837757,1,46734,2,46615,47579,47755.58,48235.01,-1140.58,-656.01,1.188050,81.99,1
3837797,1,46774,2,46605,47574,47753.28,48233.69,-1148.28,-659.69,1.189895,81.94,1
3837837,1,46814,2,46595,47568,47750.96,48232.36,-1155.96,-664.36,1.191733,81.89,1
3837877,1,46854,2,46591,47559,47748.64,48231.01,-1157.64,-672.01,1.193563,81.83,1
3837917,1,46894,2,46588,47554,47746.32,48229.66,-1158.32,-675.66,1.195383,81.78,1
3837957,1,46934,2,46581,47548,47744.00,48228.30,-1163.00,-680.30,1.197194,81.73,1
3837997,1,46974,2,46577,47548,47741.66,48226.94,-1164.66,-678.94,1.198996,81.68,1
3838037,1,47014,2,46566,47540,47739.31,48225.57,-1173.31,-685.57,1.200790,81.63,1
3838077,1,47054,2,46557,47534,47736.95,48224.18,-1179.95,-690.18,1.202574,81.58,1
3838118,1,47095,2,46551,47533,47734.58,48222.80,-1183.58,-689.80,1.204351,81.53,1
3838158,1,47135,2,46548,47535,47732.21,48221.43,-1184.21,-686.43,1.206119,81.48,1
3838198,1,47175,2,46544,47535,47729.83,48220.05,-1185.83,-685.05,1.207880,81.43,1
3838238,1,47215,2,46536,47531,47727.45,48218.68,-1191.45,-687.68,1.209633,81.38,1
3838278,1,47255,2,46534,47533,47725.06,48217.31,-1191.06,-684.31,1.211380,81.33,1
3838318,1,47295,2,46534,47531,47722.68,48215.94,-1188.68,-684.94,1.213119,81.28,1
3838358,1,47335,2,46530,47525,47720.29,48214.56,-1190.29,-689.56,1.214851,81.23,1
3838398,1,47375,2,46523,47533,47717.90,48213.20,-1194.90,-680.20,1.216578,81.18,1
3838438,1,47415,2,46522,47528,47715.51,48211.82,-1193.51,-683.82,1.218298,81.13,1
3838478,1,47455,2,46517,47533,47713.11,48210.47,-1196.11,-677.47,1.220012,81.08,1
3838518,1,47495,2,46516,47527,47710.72,48209.10,-1194.72,-682.10,1.221721,81.03,1
3838558,1,47535,2,46517,47526,47708.33,48207.74,-1191.33,-681.74,1.223423,80.98,1
3838598,1,47575,2,46514,47525,47705.95,48206.37,-1191.95,-681.37,1.225120,80.94,1
3838638,1,47615,2,46510,47523,47703.55,48205.01,-1193.55,-682.01,1.226810,80.89,1
3838678,1,47655,2,46507,47523,47701.16,48203.64,-1194.16,-680.64,1.228495,80.84,1
3838718,1,47695,2,46502,47521,47698.77,48202.28,-1196.77,-681.28,1.230174,80.79,1
3838758,1,47735,2,46498,47518,47696.37,48200.91,-1198.37,-682.91,1.231848,80.74,1
3838798,1,47775,2,46491,47515,47693.96,48199.54,-1202.96,-684.54,1.233516,80.70,1
3838838,1,47815,2,46486,47515,47691.54,48198.18,-1205.54,-683.18,1.235179,80.65,1
3838878,1,47855,2,46477,47511,47689.11,48196.80,-1212.11,-685.80,1.236838,80.60,1
3838918,1,47895,2,46472,47506,47686.68,48195.42,-1214.68,-689.42,1.238491,80.55,1
3838959,1,47936,2,46469,47502,47684.25,48194.04,-1215.25,-692.04,1.240138,80.51,1
3838999,1,47976,2,46467,47506,47681.81,48192.66,-1214.81,-686.66,1.241781,80.46,1
3839039,1,48016,2,46460,47503,47679.37,48191.28,-1219.37,-688.28,1.243419,80.42,1
3839079,1,48056,2,46453,47509,47676.92,48189.92,-1223.92,-680.92,1.245053,80.37,1
3839119,1,48096,2,46454,47505,47674.47,48188.55,-1220.47,-683.55,1.246684,80.32,1
3839159,1,48136,2,46453,47505,47672.03,48187.18,-1219.03,-682.18,1.248310,80.28,1
3839199,1,48176,2,46447,47503,47669.58,48185.82,-1222.58,-682.82,1.249933,80.23,1
3839239,1,48216,2,46442,47511,47667.13,48184.47,-1225.13,-673.47,1.251553,80.19,1
3839279,1,48256,2,46442,47513,47664.68,48183.13,-1222.68,-670.13,1.253171,80.14,1
3839319,1,48296,2,46444,47512,47662.24,48181.79,-1218.24,-669.79,1.254786,80.09,1
3839359,1,48336,2,46444,47511,47659.80,48180.45,-1215.80,-669.45,1.256398,80.05,1
3839399,1,48376,2,46441,47506,47657.37,48179.10,-1216.37,-673.10,1.258007,80.00,1
3839439,1,48416,2,46435,47505,47654.92,48177.75,-1219.92,-672.75,1.259613,79.96,1
3839479,1,48456,2,46426,47499,47652.46,48176.40,-1226.46,-677.40,1.261215,79.92,1
3839519,1,48496,2,46425,47492,47650.01,48175.03,-1225.01,-683.03,1.262814,79.87,1
3839559,1,48536,2,46420,47490,47647.55,48173.66,-1227.55,-683.66,1.264410,79.83,1
3839599,1,48576,2,46413,47484,47645.09,48172.29,-1232.09,-688.29,1.266001,79.78,1
3839639,1,48616,2,46407,47483,47642.61,48170.91,-1235.61,-687.91,1.267588,79.74,1
3839679,1,48656,2,46398,47476,47640.12,48169.52,-1242.12,-693.52,1.269172,79.69,1
3839720,1,48697,2,46390,47470,47637.62,48168.12,-1247.62,-698.12,1.270751,79.65,1
3839760,1,48737,2,46385,47467,47635.12,48166.72,-1250.12,-699.72,1.272326,79.61,1
3839800,1,48777,2,46379,47469,47632.61,48165.32,-1253.61,-696.32,1.273898,79.56,1
3839840,1,48817,2,46375,47472,47630.09,48163.94,-1255.09,-691.94,1.275467,79.52,1
3839880,1,48857,2,46371,47466,47627.57,48162.54,-1256.57,-696.54,1.277032,79.48,1
3839920,1,48897,2,46372,47464,47625.06,48161.15,-1253.06,-697.15,1.278594,79.43,1
3839960,1,48937,2,46365,47464,47622.54,48159.75,-1257.54,-695.75,1.280152,79.39,1
3840000,1,48977,2,46359,47469,47620.02,48158.37,-1261.02,-689.37,1.281708,79.35,1
3840040,1,49017,2,46361,47466,47617.50,48156.99,-1256.50,-690.99,1.283261,79.30,1
3840080,1,49057,2,46361,47465,47614.99,48155.61,-1253.99,-690.61,1.284811,79.26,1
3840120,1,49097,2,46357,47455,47612.47,48154.21,-1255.47,-699.21,1.286357,79.22,1
3840160,1,49137,2,46356,47451,47609.96,48152.80,-1253.96,-701.80,1.287899,79.18,1
3840200,1,49177,2,46346,47451,47607.43,48151.40,-1261.43,-700.40,1.289438,79.13,1
3840240,1,49217,2,46338,47450,47604.89,48150.00,-1266.89,-700.00,1.290973,79.09,1
3840280,1,49257,2,46336,47443,47602.36,48148.59,-1266.36,-705.59,1.292504,79.05,1
3840320,1,49297,2,46331,47435,47599.82,48147.16,-1268.82,-712.16,1.294031,79.01,1
3840360,1,49337,2,46326,47431,47597.27,48145.73,-1271.27,-714.73,1.295553,78.97,1
3840400,1,49377,2,46317,47427,47594.71,48144.29,-1277.71,-717.29,1.297071,78.92,1
3840440,1,49417,2,46315,47423,47592.15,48142.85,-1277.15,-719.85,1.298584,78.88,1
3840480,1,49457,2,46308,47423,47589.59,48141.41,-1281.59,-718.41,1.300093,78.84,1
3840520,1,49497,2,46304,47419,47587.02,48139.97,-1283.02,-720.97,1.301598,78.80,1
3840561,1,49538,2,46298,47410,47584.44,48138.51,-1286.44,-728.51,1.303097,78.76,1
3840601,1,49578,2,46289,47400,47581.85,48137.04,-1292.85,-737.04,1.304591,78.72,1
3840641,1,49618,2,46284,47403,47579.25,48135.57,-1295.25,-732.57,1.306080,78.68,1
3840681,1,49658,2,46280,47406,47576.66,48134.11,-1296.66,-728.11,1.307565,78.63,1
3840721,1,49698,2,46279,47403,47574.06,48132.65,-1295.06,-729.65,1.309045,78.59,1
3840761,1,49738,2,46271,47398,47571.46,48131.18,-1300.46,-733.18,1.310520,78.55,1
3840801,1,49778,2,46268,47399,47568.85,48129.71,-1300.85,-730.71,1.311992,78.51,1
3840841,1,49818,2,46264,47404,47566.24,48128.27,-1302.24,-724.27,1.313459,78.47,1
3840881,1,49858,2,46260,47407,47563.63,48126.82,-1303.63,-719.82,1.314924,78.43,1
3840921,1,49898,2,46257,47407,47561.02,48125.39,-1304.02,-718.39,1.316386,78.39,1
3840961,1,49938,2,46265,47404,47558.43,48123.95,-1293.43,-719.95,1.317844,78.35,1
3841001,1,49978,2,46255,47393,47555.82,48122.48,-1300.82,-729.48,1.319298,78.31,1
3841041,1,50018,2,46250,47391,47553.21,48121.02,-1303.21,-730.02,1.320748,78.27,1
3841081,1,50058,2,46247,47392,47550.61,48119.57,-1303.61,-727.57,1.322195,78.23,1
3841121,1,50098,2,46243,47395,47547.99,48118.12,-1304.99,-723.12,1.323638,78.19,1
3841161,1,50138,2,46243,47393,47545.38,48116.67,-1302.38,-723.67,1.325077,78.15,1
3841201,1,50178,2,46240,47394,47542.77,48115.22,-1302.77,-721.22,1.326514,78.11,1
3841241,1,50218,2,46236,47392,47540.16,48113.78,-1304.16,-721.78,1.327947,78.07,1
3841281,1,50258,2,46231,47392,47537.54,48112.34,-1306.54,-720.34,1.329377,78.03,1
3841321,1,50298,2,46223,47381,47534.91,48110.87,-1311.91,-729.87,1.330804,78.00,1
3841361,1,50338,2,46220,47376,47532.29,48109.41,-1312.29,-733.41,1.332227,77.96,1
3841402,1,50379,2,46212,47366,47529.64,48107.92,-1317.64,-741.92,1.333645,77.92,1
3841442,1,50419,2,46203,47360,47526.99,48106.43,-1323.99,-746.43,1.335059,77.88,1
3841482,1,50459,2,46195,47357,47524.33,48104.93,-1329.33,-747.93,1.336469,77.84,1
3841522,1,50499,2,46192,47359,47521.66,48103.44,-1329.66,-744.44,1.337874,77.80,1
3841562,1,50539,2,46185,47357,47518.99,48101.95,-1333.99,-744.95,1.339276,77.76,1
3841602,1,50579,2,46186,47356,47516.33,48100.45,-1330.33,-744.45,1.340674,77.72,1
3841642,1,50619,2,46178,47351,47513.65,48098.96,-1335.65,-747.96,1.342068,77.69,1
3841682,1,50659,2,46179,47357,47510.98,48097.47,-1331.98,-740.47,1.343458,77.65,1
3841722,1,50699,2,46177,47358,47508.32,48096.00,-1331.32,-738.00,1.344846,77.61,1
3841762,1,50739,2,46172,47363,47505.64,48094.53,-1333.64,-731.53,1.346230,77.57,1
3841802,1,50779,2,46176,47368,47502.99,48093.08,-1326.99,-725.08,1.347613,77.53,1
3841842,1,50819,2,46174,47366,47500.33,48091.62,-1326.33,-725.62,1.348993,77.50,1
3841882,1,50859,2,46176,47367,47497.68,48090.18,-1321.68,-723.18,1.350371,77.46,1
3841922,1,50899,2,46176,47362,47495.04,48088.72,-1319.04,-726.72,1.351746,77.42,1
3841962,1,50939,2,46164,47361,47492.38,48087.27,-1328.38,-726.27,1.353119,77.38,1
3842002,1,50979,2,46161,47355,47489.72,48085.80,-1328.72,-730.80,1.354489,77.35,1
3842042,1,51019,2,46161,47351,47487.07,48084.33,-1326.07,-733.33,1.355856,77.31,1
3842082,1,51059,2,46151,47346,47484.39,48082.86,-1333.39,-736.86,1.357220,77.27,1
3842122,1,51099,2,46143,47341,47481.71,48081.37,-1338.71,-740.37,1.358580,77.23,1
3842162,1,51139,2,46139,47337,47479.03,48079.88,-1340.03,-742.88,1.359938,77.20,1
3842202,1,51179,2,46135,47329,47476.34,48078.38,-1341.34,-749.38,1.361291,77.16,1
3842243,1,51220,2,46127,47327,47473.64,48076.88,-1346.64,-749.88,1.362641,77.12,1
3842283,1,51260,2,46122,47326,47470.94,48075.38,-1348.94,-749.38,1.363987,77.09,1
3842323,1,51300,2,46115,47322,47468.23,48073.88,-1353.23,-751.88,1.365330,77.05,1
3842363,1,51340,2,46110,47328,47465.52,48072.39,-1355.52,-744.39,1.366670,77.01,1
3842403,1,51380,2,46110,47329,47462.80,48070.90,-1352.80,-741.90,1.368008,76.98,1
3842443,1,51420,2,46107,47316,47460.09,48069.39,-1353.09,-753.39,1.369342,76.94,1
3842483,1,51460,2,46101,47323,47457.37,48067.90,-1356.38,-744.90,1.370674,76.91,1
3842523,1,51500,2,46101,47321,47454.66,48066.41,-1353.66,-745.41,1.372002,76.87,1
3842563,1,51540,2,46094,47323,47451.95,48064.93,-1357.95,-741.93,1.373328,76.83,1
3842603,1,51580,2,46090,47322,47449.22,48063.44,-1359.22,-741.44,1.374653,76.80,1
3842643,1,51620,2,46092,47321,47446.51,48061.96,-1354.51,-740.96,1.375974,76.76,1
3842683,1,51660,2,46096,47321,47443.81,48060.48,-1347.81,-739.48,1.377293,76.73,1
3842723,1,51700,2,46093,47318,47441.11,48058.99,-1348.11,-740.99,1.378610,76.69,1
3842763,1,51740,2,46091,47318,47438.41,48057.51,-1347.41,-739.51,1.379923,76.65,1
3842803,1,51780,2,46083,47315,47435.70,48056.03,-1352.70,-741.03,1.381234,76.62,1
3842843,1,51820,2,46078,47305,47432.98,48054.53,-1354.98,-749.53,1.382542,76.58,1
3842883,1,51860,2,46073,47295,47430.27,48053.01,-1357.27,-758.01,1.383846,76.55,1
3842923,1,51900,2,46066,47298,47427.54,48051.50,-1361.54,-753.50,1.385147,76.51,1
3842963,1,51940,2,46058,47285,47424.80,48049.97,-1366.80,-764.97,1.386443,76.48,1
3843003,1,51980,2,46047,47282,47422.05,48048.43,-1375.05,-766.43,1.387736,76.44,1
3843044,1,52021,2,46047,47281,47419.30,48046.90,-1372.30,-765.90,1.389025,76.41,1
3843084,1,52061,2,46038,47274,47416.54,48045.36,-1378.54,-771.36,1.390310,76.37,1
3843124,1,52101,2,46038,47268,47413.78,48043.80,-1375.78,-775.80,1.391591,76.34,1
3843164,1,52141,2,46026,47261,47411.01,48042.24,-1385.01,-781.24,1.392867,76.30,1
3843204,1,52181,2,46015,47242,47408.22,48040.64,-1393.22,-798.64,1.394137,76.27,1
3843244,1,52221,2,46004,47226,47405.41,48039.01,-1401.41,-813.01,1.395401,76.23,1
3843284,1,52261,2,45998,47221,47402.60,48037.37,-1404.60,-816.37,1.396658,76.20,1
3843324,1,52301,2,45990,47216,47399.77,48035.73,-1409.77,-819.73,1.397908,76.16,1
3843364,1,52341,2,45984,47209,47396.94,48034.08,-1412.94,-825.08,1.399151,76.13,1
3843404,1,52381,2,45977,47205,47394.10,48032.43,-1417.10,-827.43,1.400388,76.10,1
3843444,1,52421,2,45977,47206,47391.27,48030.77,-1414.27,-824.77,1.401617,76.06,1
3843484,1,52461,2,45979,47209,47388.45,48029.13,-1409.45,-820.13,1.402840,76.03,1
3843524,1,52501,2,45973,47213,47385.62,48027.50,-1412.62,-814.50,1.404058,75.99,1
3843564,1,52541,2,45976,47222,47382.80,48025.89,-1406.80,-803.89,1.405271,75.96,1
3843604,1,52581,2,45976,47227,47379.99,48024.29,-1403.99,-797.29,1.406479,75.93,1
3843644,1,52621,2,45979,47225,47377.19,48022.70,-1398.19,-797.70,1.407682,75.89,1
3843684,1,52661,2,45974,47232,47374.38,48021.11,-1400.38,-789.11,1.408882,75.86,1
3843724,1,52701,2,45975,47233,47371.59,48019.54,-1396.59,-786.54,1.410078,75.83,1
3843764,1,52741,2,45972,47236,47368.79,48017.97,-1396.79,-781.97,1.411271,75.79,1
3843804,1,52781,2,45968,47236,47365.99,48016.41,-1397.99,-780.41,1.412460,75.76,1
3843845,1,52822,2,45967,47232,47363.19,48014.84,-1396.19,-782.84,1.413646,75.73,1
3843885,1,52862,2,45963,47227,47360.39,48013.27,-1397.39,-786.27,1.414829,75.69,1
3843925,1,52902,2,45956,47240,47357.58,48011.72,-1401.58,-771.72,1.416009,75.66,1
3843965,1,52942,2,45958,47243,47354.79,48010.19,-1396.79,-767.19,1.417187,75.63,1
3844005,1,52982,2,45955,47252,47351.99,48008.67,-1396.99,-756.67,1.418364,75.60,1
3844045,1,53022,2,45962,47269,47349.21,48007.20,-1387.21,-738.20,1.419541,75.56,1
3844085,1,53062,2,45966,47271,47346.45,48005.72,-1380.45,-734.72,1.420718,75.53,1
3844125,1,53102,2,45969,47283,47343.69,48004.28,-1374.69,-721.28,1.421895,75.50,1
3844165,1,53142,2,45963,47278,47340.93,48002.82,-1377.93,-724.82,1.423073,75.47,1
3844205,1,53182,2,45957,47277,47338.16,48001.37,-1381.16,-724.37,1.424252,75.43,1
3844245,1,53222,2,45955,47275,47335.40,47999.92,-1380.40,-724.92,1.425430,75.40,1
3844285,1,53262,2,45955,47270,47332.64,47998.46,-1377.64,-728.46,1.426609,75.37,1
3844325,1,53302,2,45954,47270,47329.88,47997.01,-1375.88,-727.01,1.427788,75.34,1
3844365,1,53342,2,45955,47271,47327.13,47995.56,-1372.13,-724.56,1.428966,75.31,1
3844405,1,53382,2,45953,47277,47324.39,47994.12,-1371.39,-717.12,1.430146,75.27,1
3844445,1,53422,2,45950,47283,47321.64,47992.70,-1371.64,-709.70,1.431326,75.24,1
3844485,1,53462,2,45951,47280,47318.90,47991.27,-1367.90,-711.27,1.432506,75.21,1
3844525,1,53502,2,45947,47279,47316.16,47989.85,-1369.16,-710.85,1.433688,75.18,1
3844565,1,53542,2,45942,47274,47313.41,47988.42,-1371.41,-714.42,1.434870,75.15,1
3844605,1,53582,2,45939,47268,47310.67,47986.98,-1371.67,-718.98,1.436052,75.12,1
3844645,1,53622,2,45934,47269,47307.91,47985.55,-1373.91,-716.55,1.437234,75.08,1
3844685,1,53662,2,45925,47265,47305.15,47984.11,-1380.15,-719.11,1.438417,75.05,1
3844725,1,53702,2,45922,47263,47302.38,47982.66,-1380.38,-719.66,1.439600,75.02,1
3844766,1,53743,2,45919,47253,47299.62,47981.21,-1380.62,-728.21,1.440783,74.99,1
3844806,1,53783,2,45909,47248,47296.84,47979.74,-1387.84,-731.74,1.441965,74.96,1
3844846,1,53823,2,45907,47250,47294.06,47978.29,-1387.06,-728.29,1.443147,74.93,1
3844886,1,53863,2,45897,47254,47291.27,47976.84,-1394.27,-722.84,1.444329,74.90,1
3844926,1,53903,2,45894,47254,47288.47,47975.39,-1394.47,-721.39,1.445513,74.87,1
3844966,1,53943,2,45900,47252,47285.70,47973.95,-1385.70,-721.95,1.446696,74.84,1
3845006,1,53983,2,45897,47258,47282.92,47972.52,-1385.92,-714.52,1.447880,74.80,1
3845046,1,54023,2,45894,47257,47280.14,47971.09,-1386.14,-714.09,1.449065,74.77,1
3845086,1,54063,2,45886,47257,47277.36,47969.66,-1391.36,-712.66,1.450251,74.74,1
3845126,1,54103,2,45888,47258,47274.58,47968.24,-1386.58,-710.24,1.451437,74.71,1
3845166,1,54143,2,45894,47255,47271.82,47966.81,-1377.82,-711.81,1.452624,74.68,1
3845206,1,54183,2,45883,47245,47269.04,47965.37,-1386.04,-720.37,1.453811,74.65,1
3845246,1,54223,2,45884,47247,47266.27,47963.94,-1382.27,-716.94,1.454998,74.62,1
3845286,1,54263,2,45878,47249,47263.50,47962.51,-1385.50,-713.51,1.456186,74.59,1
3845326,1,54303,2,45875,47249,47260.72,47961.08,-1385.72,-712.08,1.457374,74.56,1
3845366,1,54343,2,45872,47246,47257.94,47959.65,-1385.94,-713.65,1.458562,74.53,1
3845406,1,54383,2,45869,47239,47255.16,47958.21,-1386.16,-719.21,1.459751,74.50,1
3845446,1,54423,2,45866,47239,47252.39,47956.77,-1386.39,-717.77,1.460939,74.47,1
3845486,1,54463,2,45859,47230,47249.60,47955.32,-1390.60,-725.32,1.462126,74.44,1
3845526,1,54503,2,45851,47229,47246.80,47953.87,-1395.80,-724.87,1.463314,74.40,1
3845566,1,54543,2,45848,47227,47244.01,47952.41,-1396.01,-725.41,1.464501,74.37,1
3845607,1,54584,2,45842,47227,47241.20,47950.96,-1399.20,-723.96,1.465688,74.34,1
3845647,1,54624,2,45837,47218,47238.39,47949.50,-1401.39,-731.50,1.466875,74.31,1
3845687,1,54664,2,45835,47220,47235.59,47948.04,-1400.59,-728.04,1.468061,74.28,1
3845727,1,54704,2,45827,47215,47232.77,47946.58,-1405.77,-731.58,1.469246,74.25,1
3845767,1,54744,2,45823,47222,47229.96,47945.13,-1406.96,-723.13,1.470432,74.22,1
3845807,1,54784,2,45821,47217,47227.14,47943.68,-1406.14,-726.68,1.471618,74.19,1
3845847,1,54824,2,45820,47221,47224.33,47942.23,-1404.33,-721.23,1.472803,74.16,1
3845887,1,54864,2,45816,47220,47221.51,47940.79,-1405.51,-720.79,1.473989,74.13,1
3845927,1,54904,2,45814,47223,47218.70,47939.36,-1404.70,-716.36,1.475176,74.10,1
3845967,1,54944,2,45810,47225,47215.88,47937.93,-1405.88,-712.93,1.476363,74.07,1
3846007,1,54984,2,45810,47221,47213.07,47936.50,-1403.07,-715.50,1.477551,74.04,1
3846047,1,55024,2,45810,47220,47210.27,47935.06,-1400.27,-715.06,1.478739,74.01,1
3846087,1,55064,2,45803,47216,47207.45,47933.62,-1404.45,-717.62,1.479927,73.98,1
3846127,1,55104,2,45806,47212,47204.65,47932.18,-1398.65,-720.18,1.481115,73.95,1
3846167,1,55144,2,45801,47210,47201.85,47930.74,-1400.85,-720.74,1.482302,73.92,1
3846207,1,55184,2,45791,47211,47199.03,47929.30,-1408.03,-718.30,1.483490,73.89,1
3846247,1,55224,2,45791,47205,47196.21,47927.86,-1405.21,-722.86,1.484678,73.86,1
3846287,1,55264,2,45789,47203,47193.40,47926.41,-1404.40,-723.41,1.485865,73.83,1
3846327,1,55304,2,45785,47203,47190.58,47924.96,-1405.58,-721.96,1.487051,73.80,1
3846367,1,55344,2,45775,47194,47187.75,47923.50,-1412.75,-729.50,1.488238,73.77,1
3846407,1,55384,2,45772,47194,47184.92,47922.04,-1412.92,-728.04,1.489423,73.74,1
3846447,1,55424,2,45768,47192,47182.09,47920.59,-1414.09,-728.59,1.490608,73.71,1
3846487,1,55464,2,45765,47187,47179.26,47919.12,-1414.26,-732.12,1.491792,73.68,1
3846528,1,55505,2,45762,47184,47176.43,47917.65,-1414.43,-733.65,1.492975,73.65,1
3846568,1,55545,2,45754,47179,47173.58,47916.18,-1419.58,-737.18,1.494157,73.62,1
3846608,1,55585,2,45747,47181,47170.73,47914.71,-1423.73,-733.71,1.495339,73.59,1
3846648,1,55625,2,45744,47183,47167.88,47913.25,-1423.88,-730.25,1.496520,73.56,1
3846688,1,55665,2,45738,47179,47165.02,47911.78,-1427.02,-732.78,1.497701,73.53,1
3846728,1,55705,2,45738,47178,47162.17,47910.31,-1424.17,-732.31,1.498881,73.50,1
3846768,1,55745,2,45734,47179,47159.31,47908.85,-1425.31,-729.85,1.500060,73.47,1
3846808,1,55785,2,45732,47181,47156.46,47907.40,-1424.46,-726.40,1.501240,73.44,1
3846848,1,55825,2,45731,47178,47153.61,47905.94,-1422.61,-727.94,1.502419,73.41,1
3846888,1,55865,2,45727,47182,47150.76,47904.50,-1423.76,-722.50,1.503598,73.38,1
3846928,1,55905,2,45727,47175,47147.91,47903.04,-1420.91,-728.04,1.504777,73.35,1
3846968,1,55945,2,45724,47172,47145.06,47901.58,-1421.06,-729.58,1.505955,73.32,1
3847008,1,55985,2,45722,47171,47142.22,47900.12,-1420.22,-729.12,1.507132,73.29,1
3847048,1,56025,2,45716,47171,47139.37,47898.66,-1423.37,-727.66,1.508308,73.26,1
3847088,1,56065,2,45715,47169,47136.52,47897.20,-1421.52,-728.20,1.509484,73.23,1
3847128,1,56105,2,45706,47165,47133.66,47895.74,-1427.66,-730.74,1.510660,73.20,1
3847168,1,56145,2,45708,47165,47130.81,47894.28,-1422.81,-729.28,1.511834,73.17,1
3847208,1,56185,2,45704,47160,47127.96,47892.81,-1423.96,-732.81,1.513008,73.14,1
3847248,1,56225,2,45700,47155,47125.10,47891.34,-1425.10,-736.34,1.514180,73.11,1
3847288,1,56265,2,45693,47149,47122.24,47889.85,-1429.24,-740.85,1.515351,73.08,1
3847328,1,56305,2,45687,47144,47119.37,47888.36,-1432.37,-744.36,1.516520,73.05,1
3847368,1,56345,2,45675,47138,47116.48,47886.86,-1441.48,-748.86,1.517688,73.02,1
3847409,1,56386,2,45671,47131,47113.59,47885.35,-1442.59,-754.35,1.518853,72.99,1
3847449,1,56426,2,45667,47135,47110.70,47883.85,-1443.70,-748.85,1.520017,72.96,1
3847489,1,56466,2,45663,47135,47107.80,47882.35,-1444.80,-747.35,1.521180,72.93,1
3847529,1,56506,2,45658,47136,47104.91,47880.86,-1446.91,-744.86,1.522341,72.90,1
3847569,1,56546,2,45656,47136,47102.01,47879.37,-1446.01,-743.37,1.523502,72.87,1
3847609,1,56586,2,45656,47131,47099.12,47877.87,-1443.12,-746.87,1.524660,72.84,1
3847649,1,56626,2,45653,47128,47096.23,47876.37,-1443.23,-748.37,1.525818,72.81,1
3847689,1,56666,2,45643,47129,47093.32,47874.88,-1450.32,-745.88,1.526974,72.78,1
3847729,1,56706,2,45641,47126,47090.42,47873.39,-1449.42,-747.39,1.528129,72.75,1
3847769,1,56746,2,45637,47131,47087.51,47871.90,-1450.51,-740.90,1.529283,72.72,1
3847809,1,56786,2,45644,47131,47084.62,47870.42,-1440.63,-739.42,1.530436,72.69,1
3847849,1,56826,2,45643,47124,47081.74,47868.93,-1438.74,-744.93,1.531588,72.66,1
3847889,1,56866,2,45636,47124,47078.85,47867.44,-1442.85,-743.44,1.532738,72.63,1
3847929,1,56906,2,45632,47126,47075.96,47865.96,-1443.96,-739.96,1.533887,72.61,1
3847969,1,56946,2,45628,47119,47073.07,47864.47,-1445.07,-745.47,1.535034,72.58,1
3848009,1,56986,2,45626,47110,47070.17,47862.96,-1444.17,-752.96,1.536180,72.55,1
3848049,1,57026,2,45618,47104,47067.27,47861.45,-1449.27,-757.45,1.537323,72.52,1
3848089,1,57066,2,45610,47104,47064.36,47859.93,-1454.36,-755.93,1.538464,72.49,1
3848129,1,57106,2,45604,47097,47061.44,47858.41,-1457.44,-761.41,1.539603,72.46,1
3848170,1,57147,2,45599,47096,47058.52,47856.89,-1459.52,-760.89,1.540740,72.43,1
3848210,1,57187,2,45595,47092,47055.59,47855.36,-1460.59,-763.36,1.541874,72.40,1
3848250,1,57227,2,45591,47093,47052.66,47853.84,-1461.66,-760.84,1.543006,72.37,1
3848290,1,57267,2,45586,47100,47049.73,47852.33,-1463.73,-752.33,1.544137,72.34,1
3848330,1,57307,2,45583,47092,47046.79,47850.81,-1463.79,-758.81,1.545267,72.31,1
3848370,1,57347,2,45582,47093,47043.86,47849.29,-1461.86,-756.29,1.546394,72.28,1
3848410,1,57387,2,45578,47093,47040.93,47847.78,-1462.93,-754.78,1.547520,72.25,1
3848450,1,57427,2,45575,47098,47038.00,47846.28,-1463.00,-748.28,1.548645,72.22,1
3848490,1,57467,2,45574,47098,47035.08,47844.79,-1461.08,-746.79,1.549770,72.20,1
3848530,1,57507,2,45586,47102,47032.18,47843.30,-1446.18,-741.30,1.550892,72.17,1
3848570,1,57547,2,45578,47097,47029.27,47841.81,-1451.27,-744.81,1.552014,72.14,1
3848610,1,57587,2,45573,47089,47026.36,47840.30,-1453.36,-751.30,1.553134,72.11,1
3848650,1,57627,2,45567,47091,47023.45,47838.81,-1456.45,-747.81,1.554252,72.08,1
3848690,1,57667,2,45561,47085,47020.52,47837.30,-1459.52,-752.30,1.555369,72.05,1
3848730,1,57707,2,45554,47083,47017.59,47835.79,-1463.59,-752.79,1.556484,72.02,1
3848770,1,57747,2,45552,47076,47014.66,47834.27,-1462.66,-758.27,1.557597,71.99,1
3848810,1,57787,2,45549,47068,47011.73,47832.74,-1462.73,-764.74,1.558708,71.96,1
3848850,1,57827,2,45542,47068,47008.79,47831.21,-1466.79,-763.21,1.559816,71.94,1
3848890,1,57867,2,45539,47065,47005.86,47829.68,-1466.86,-764.68,1.560923,71.91,1
3848930,1,57907,2,45531,47057,47002.91,47828.14,-1471.91,-771.14,1.562026,71.88,1
3848970,1,57947,2,45526,47052,46999.95,47826.59,-1473.95,-774.59,1.563126,71.85,1
3849011,1,57988,2,45520,47046,46997.00,47825.03,-1477.00,-779.03,1.564224,71.82,1
3849051,1,58028,2,45514,47039,46994.03,47823.46,-1480.03,-784.46,1.565318,71.79,1
3849091,1,58068,2,45504,47040,46991.05,47821.89,-1487.05,-781.89,1.566409,71.76,1
3849131,1,58108,2,45503,47041,46988.07,47820.33,-1485.07,-779.33,1.567497,71.74,1
3849171,1,58148,2,45497,47037,46985.09,47818.77,-1488.09,-781.77,1.568583,71.71,1
3849211,1,58188,2,45497,47038,46982.12,47817.21,-1485.12,-779.21,1.569666,71.68,1
3849251,1,58228,2,45493,47039,46979.14,47815.65,-1486.14,-776.65,1.570746,71.65,1
3849291,1,58268,2,45490,47037,46976.16,47814.10,-1486.16,-777.10,1.571824,71.62,1
3849331,1,58308,2,45488,47040,46973.19,47812.55,-1485.19,-772.55,1.572900,71.59,1
3849371,1,58348,2,45488,47030,46970.22,47810.99,-1482.22,-780.99,1.573973,71.56,1
3849411,1,58388,2,45486,47025,46967.25,47809.42,-1481.25,-784.42,1.575042,71.54,1
3849451,1,58428,2,45480,47023,46964.28,47807.85,-1484.28,-784.85,1.576108,71.51,1
3849491,1,58468,2,45473,47018,46961.30,47806.27,-1488.30,-788.27,1.577171,71.48,1
3849531,1,58508,2,45467,47014,46958.31,47804.69,-1491.31,-790.69,1.578231,71.45,1
3849571,1,58548,2,45467,47007,46955.33,47803.09,-1488.33,-796.09,1.579286,71.42,1
3849611,1,58588,2,45457,47002,46952.33,47801.49,-1495.33,-799.49,1.580338,71.40,1
3849651,1,58628,2,45454,46999,46949.34,47799.89,-1495.34,-800.89,1.581386,71.37,1
3849691,1,58668,2,45445,46996,46946.33,47798.28,-1501.33,-802.28,1.582429,71.34,1
3849731,1,58708,2,45439,46989,46943.32,47796.66,-1504.32,-807.66,1.583469,71.31,1
3849772,1,58749,2,45434,46981,46940.30,47795.04,-1506.30,-814.04,1.584504,71.28,1
3849812,1,58789,2,45431,46981,46937.29,47793.41,-1506.29,-812.41,1.585535,71.26,1
3849852,1,58829,2,45425,46979,46934.26,47791.78,-1509.26,-812.78,1.586562,71.23,1
3849892,1,58869,2,45418,46982,46931.23,47790.16,-1513.23,-808.16,1.587584,71.20,1
3849932,1,58909,2,45418,46981,46928.21,47788.55,-1510.21,-807.55,1.588603,71.17,1
3849972,1,58949,2,45412,46980,46925.18,47786.93,-1513.18,-806.93,1.589619,71.15,1
3850012,1,58989,2,45415,46982,46922.16,47785.32,-1507.16,-803.32,1.590631,71.12,1
3850052,1,59029,2,45409,46978,46919.13,47783.71,-1510.13,-805.71,1.591640,71.09,1
3850092,1,59069,2,45409,46984,46916.11,47782.11,-1507.11,-798.11,1.592646,71.07,1
3850132,1,59109,2,45404,46987,46913.09,47780.52,-1509.09,-793.52,1.593649,71.04,1
3850172,1,59149,2,45410,46985,46910.09,47778.93,-1500.09,-793.93,1.594649,71.01,1
3850212,1,59189,2,45407,46981,46907.08,47777.34,-1500.08,-796.34,1.595647,70.98,1
3850252,1,59229,2,45402,46981,46904.07,47775.75,-1502.07,-794.75,1.596641,70.96,1
3850292,1,59269,2,45398,46974,46901.06,47774.14,-1503.06,-800.14,1.597632,70.93,1
3850332,1,59309,2,45391,46972,46898.04,47772.54,-1507.04,-800.54,1.598620,70.90,1
3850372,1,59349,2,45388,46965,46895.02,47770.93,-1507.02,-805.93,1.599604,70.88,1
3850412,1,59389,2,45385,46963,46892.00,47769.32,-1507.00,-806.32,1.600585,70.85,1
3850452,1,59429,2,45382,46960,46888.98,47767.70,-1506.98,-807.70,1.601562,70.82,1
3850492,1,59469,2,45372,46959,46885.95,47766.08,-1513.95,-807.08,1.602536,70.80,1
3850532,1,59509,2,45368,46954,46882.92,47764.46,-1514.92,-810.46,1.603506,70.77,1
3850572,1,59549,2,45366,46952,46879.89,47762.84,-1513.89,-810.84,1.604473,70.74,1
3850613,1,59590,2,45358,46951,46876.84,47761.21,-1518.84,-810.21,1.605436,70.72,1
3850653,1,59630,2,45355,46947,46873.80,47759.59,-1518.80,-812.59,1.606396,70.69,1
3850693,1,59670,2,45353,46954,46870.76,47757.98,-1517.76,-803.98,1.607354,70.66,1
3850733,1,59710,2,45352,46959,46867.73,47756.38,-1515.73,-797.38,1.608309,70.64,1
3850773,1,59750,2,45347,46963,46864.69,47754.79,-1517.69,-791.79,1.609262,70.61,1
3850813,1,59790,2,45352,46962,46861.66,47753.21,-1509.66,-791.21,1.610213,70.59,1
3850853,1,59830,2,45348,46963,46858.64,47751.63,-1510.64,-788.63,1.611162,70.56,1
3850893,1,59870,2,45346,46972,46855.61,47750.07,-1509.61,-778.07,1.612110,70.53,1
3850933,1,59910,2,45348,46974,46852.60,47748.52,-1504.60,-774.52,1.613058,70.51,1
3850973,1,59950,2,45345,46973,46849.58,47746.97,-1504.58,-773.97,1.614004,70.48,1
3851013,1,59990,2,45349,46973,46846.58,47745.42,-1497.58,-772.42,1.614949,70.46,1
3851053,1,60030,2,45347,46976,46843.59,47743.88,-1496.59,-767.88,1.615894,70.43,1
3851093,1,60070,2,45346,46975,46840.59,47742.35,-1494.59,-767.35,1.616837,70.41,1
