t_ms,phase,red_raw,ir_raw,red_dc,ir_dc,red_ac,ir_ac,OD_red,OD_ir,R,spo2,spo2_valid
22,0,50913,61900,49344.92,59972.19,1568.08,1927.81,0.000000,0.000000,0.998894,85.02,1
32,0,50910,61900,49348.05,59976.05,1561.95,1923.95,0.000000,0.000000,0.998877,85.02,1
42,0,50910,61902,49351.18,59979.90,1558.82,1922.10,0.000000,0.000000,0.998859,85.02,1
53,0,50904,61894,49354.28,59983.73,1549.72,1910.27,0.000000,0.000000,0.998841,85.02,1
65,0,50901,61901,49357.37,59987.56,1543.63,1913.44,0.000000,0.000000,0.998822,85.02,1
75,0,50902,61900,49360.46,59991.39,1541.54,1908.61,0.000000,0.000000,0.998803,85.02,1
84,0,50901,61896,49363.55,59995.20,1537.45,1900.80,0.000000,0.000000,0.998784,85.02,1
93,0,50903,61902,49366.63,59999.02,1536.37,1902.98,0.000000,0.000000,0.998765,85.02,1
101,0,50901,61903,49369.70,60002.83,1531.30,1900.17,0.000000,0.000000,0.998745,85.02,1
111,0,50899,61902,49372.76,60006.63,1526.24,1895.37,0.000000,0.000000,0.998725,85.02,1
120,0,50900,61905,49375.81,60010.43,1524.19,1894.57,0.000000,0.000000,0.998704,85.02,1
132,0,50904,61898,49378.87,60014.20,1525.13,1883.80,0.000000,0.000000,0.998684,85.02,1
143,0,50908,61893,49381.93,60017.96,1526.07,1875.04,0.000000,0.000000,0.998663,85.03,1
152,0,50905,61899,49384.98,60021.72,1520.02,1877.28,0.000000,0.000000,0.998642,85.03,1
162,0,50913,61886,49388.04,60025.45,1524.96,1860.55,0.000000,0.000000,0.998621,85.03,1
165,0,50907,61895,49391.07,60029.20,1515.93,1865.80,0.000000,0.000000,0.998600,85.03,1
172,0,50908,61902,49394.11,60032.94,1513.89,1869.06,0.000000,0.000000,0.998579,85.03,1
181,0,50907,61901,49397.14,60036.68,1509.86,1864.32,0.000000,0.000000,0.998558,85.03,1
190,0,50909,61902,49400.16,60040.41,1508.84,1861.59,0.000000,0.000000,0.998537,85.03,1
200,0,50906,61905,49403.17,60044.14,1502.83,1860.86,0.000000,0.000000,0.998515,85.03,1
211,0,50903,61903,49406.17,60047.86,1496.83,1855.14,0.000000,0.000000,0.998493,85.03,1
224,0,50905,61907,49409.17,60051.58,1495.83,1855.42,0.000000,0.000000,0.998470,85.03,1
234,0,50911,61908,49412.18,60055.29,1498.82,1852.71,0.000000,0.000000,0.998448,85.03,1
244,0,50915,61914,49415.18,60059.01,1499.82,1854.99,0.000000,0.000000,0.998425,85.03,1
257,0,50917,61919,49418.19,60062.73,1498.81,1856.27,0.000000,0.000000,0.998402,85.03,1
268,0,50920,61918,49421.19,60066.45,1498.81,1851.55,0.000000,0.000000,0.998379,85.03,1
279,0,50924,61917,49424.20,60070.15,1499.80,1846.85,0.000000,0.000000,0.998356,85.03,1
296,0,50915,61921,49427.18,60073.85,1487.82,1847.15,0.000000,0.000000,0.998332,85.03,1
310,0,50925,61923,49430.18,60077.55,1494.82,1845.45,0.000000,0.000000,0.998308,85.03,1
318,0,50925,61924,49433.17,60081.25,1491.83,1842.75,0.000000,0.000000,0.998284,85.03,1
327,0,50926,61924,49436.16,60084.93,1489.84,1839.07,0.000000,0.000000,0.998260,85.03,1
334,0,50938,61921,49439.16,60088.61,1498.84,1832.39,0.000000,0.000000,0.998236,85.03,1
341,0,50934,61922,49442.16,60092.27,1491.84,1829.73,0.000000,0.000000,0.998212,85.03,1
351,0,50934,61919,49445.14,60095.93,1488.86,1823.07,0.000000,0.000000,0.998189,85.04,1
361,0,50935,61923,49448.12,60099.59,1486.88,1823.41,0.000000,0.000000,0.998165,85.04,1
371,0,50934,61922,49451.09,60103.23,1482.91,1818.77,0.000000,0.000000,0.998141,85.04,1
389,0,50936,61921,49454.07,60106.87,1481.93,1814.13,0.000000,0.000000,0.998118,85.04,1
397,0,50935,61918,49457.03,60110.49,1477.97,1807.51,0.000000,0.000000,0.998094,85.04,1
402,0,50939,61918,49460.00,60114.11,1479.00,1803.89,0.000000,0.000000,0.998071,85.04,1
425,0,50934,61919,49462.95,60117.72,1471.05,1801.28,0.000000,0.000000,0.998048,85.04,1
440,0,50935,61918,49465.89,60121.32,1469.11,1796.68,0.000000,0.000000,0.998025,85.04,1
450,0,50936,61922,49468.83,60124.93,1467.17,1797.07,0.000000,0.000000,0.998002,85.04,1
457,0,50938,61917,49471.77,60128.51,1466.23,1788.49,0.000000,0.000000,0.997979,85.04,1
465,0,50939,61919,49474.71,60132.09,1464.29,1786.91,0.000000,0.000000,0.997956,85.04,1
469,0,50936,61924,49477.64,60135.68,1458.36,1788.32,0.000000,0.000000,0.997934,85.04,1
473,0,50932,61925,49480.55,60139.26,1451.45,1785.74,0.000000,0.000000,0.997911,85.04,1
486,0,50939,61927,49483.46,60142.84,1455.54,1784.16,0.000000,0.000000,0.997889,85.04,1
499,0,50940,61932,49486.38,60146.42,1453.62,1785.58,0.000000,0.000000,0.997866,85.04,1
511,0,50939,61925,49489.29,60149.98,1449.71,1775.02,0.000000,0.000000,0.997844,85.04,1
521,0,50937,61926,49492.18,60153.53,1444.82,1772.47,0.000000,0.000000,0.997821,85.04,1
538,0,50935,61919,49495.07,60157.06,1439.93,1761.94,0.000000,0.000000,0.997799,85.04,1
547,0,50940,61926,49497.96,60160.60,1442.04,1765.40,0.000000,0.000000,0.997777,85.05,1
555,0,50934,61931,49500.84,60164.14,1433.16,1766.86,0.000000,0.000000,0.997755,85.05,1
563,0,50940,61927,49503.71,60167.67,1436.29,1759.33,0.000000,0.000000,0.997732,85.05,1
573,0,50950,61933,49506.61,60171.20,1443.39,1761.80,0.000000,0.000000,0.997710,85.05,1
583,0,50935,61938,49509.47,60174.74,1425.53,1763.26,0.000000,0.000000,0.997688,85.05,1
593,0,50945,61935,49512.34,60178.26,1432.66,1756.74,0.000000,0.000000,0.997666,85.05,1
603,0,50944,61941,49515.20,60181.79,1428.80,1759.21,0.000000,0.000000,0.997644,85.05,1
610,0,50948,61940,49518.07,60185.31,1429.93,1754.69,0.000000,0.000000,0.997621,85.05,1
621,0,50946,61944,49520.93,60188.83,1425.07,1755.17,0.000000,0.000000,0.997599,85.05,1
633,0,50948,61942,49523.78,60192.34,1424.22,1749.66,0.000000,0.000000,0.997577,85.05,1
647,0,50943,61934,49526.62,60195.82,1416.38,1738.18,0.000000,0.000000,0.997554,85.05,1
658,0,50944,61929,49529.46,60199.29,1414.54,1729.71,0.000000,0.000000,0.997532,85.05,1
666,0,50942,61931,49532.29,60202.75,1409.71,1728.25,0.000000,0.000000,0.997510,85.05,1
676,0,50942,61937,49535.11,60206.22,1406.89,1730.78,0.000000,0.000000,0.997488,85.05,1
683,0,50945,61928,49537.93,60209.67,1407.07,1718.33,0.000000,0.000000,0.997466,85.05,1
694,0,50942,61926,49540.73,60213.10,1401.27,1712.90,0.000000,0.000000,0.997444,85.05,1
706,0,50941,61928,49543.54,60216.53,1397.46,1711.47,0.000000,0.000000,0.997422,85.05,1
719,0,50935,61931,49546.32,60219.96,1388.68,1711.04,0.000000,0.000000,0.997400,85.05,1
728,0,50943,61928,49549.11,60223.38,1393.89,1704.62,0.000000,0.000000,0.997379,85.06,1
734,0,50939,61931,49551.89,60226.80,1387.11,1704.20,0.000000,0.000000,0.997357,85.06,1
745,0,50940,61935,49554.67,60230.21,1385.33,1704.79,0.000000,0.000000,0.997335,85.06,1
755,0,50942,61929,49557.45,60233.61,1384.55,1695.39,0.000000,0.000000,0.997314,85.06,1
766,0,50943,61924,49560.22,60237.00,1382.78,1687.00,0.000000,0.000000,0.997292,85.06,1
774,0,50936,61924,49562.98,60240.37,1373.02,1683.63,0.000000,0.000000,0.997271,85.06,1
785,0,50940,61921,49565.73,60243.73,1374.27,1677.27,0.000000,0.000000,0.997250,85.06,1
794,0,50943,61924,49568.48,60247.10,1374.52,1676.90,0.000000,0.000000,0.997229,85.06,1
804,0,50941,61922,49571.23,60250.45,1369.77,1671.55,0.000000,0.000000,0.997208,85.06,1
813,0,50933,61923,49573.96,60253.80,1359.04,1669.20,0.000000,0.000000,0.997187,85.06,1
822,0,50933,61921,49576.68,60257.13,1356.32,1663.87,0.000000,0.000000,0.997166,85.06,1
834,0,50936,61926,49579.39,60260.47,1356.61,1665.53,0.000000,0.000000,0.997146,85.06,1
841,0,50933,61911,49582.10,60263.77,1350.90,1647.23,0.000000,0.000000,0.997125,85.06,1
850,0,50933,61921,49584.80,60267.09,1348.20,1653.91,0.000000,0.000000,0.997105,85.06,1
859,0,50929,61920,49587.50,60270.40,1341.50,1649.60,0.000000,0.000000,0.997084,85.06,1
868,0,50932,61930,49590.19,60273.72,1341.81,1656.28,0.000000,0.000000,0.997063,85.06,1
878,0,50932,61929,49592.87,60277.03,1339.13,1651.97,0.000000,0.000000,0.997043,85.06,1
886,0,50930,61937,49595.55,60280.35,1334.45,1656.65,0.000000,0.000000,0.997021,85.06,1
894,0,50935,61931,49598.23,60283.66,1336.77,1647.34,0.000000,0.000000,0.997000,85.06,1
903,0,50939,61936,49600.91,60286.96,1338.09,1649.04,0.000000,0.000000,0.996979,85.07,1
913,0,50939,61937,49603.59,60290.26,1335.41,1646.74,0.000000,0.000000,0.996958,85.07,1
924,0,50945,61933,49606.27,60293.55,1338.73,1639.45,0.000000,0.000000,0.996936,85.07,1
936,0,50941,61937,49608.94,60296.84,1332.06,1640.16,0.000000,0.000000,0.996915,85.07,1
945,0,50944,61941,49611.61,60300.12,1332.39,1640.88,0.000000,0.000000,0.996894,85.07,1
955,0,50952,61947,49614.30,60303.42,1337.70,1643.58,0.000000,0.000000,0.996872,85.07,1
963,0,50944,61935,49616.96,60306.69,1327.04,1628.31,0.000000,0.000000,0.996851,85.07,1
972,0,50948,61942,49619.62,60309.96,1328.38,1632.04,0.000000,0.000000,0.996829,85.07,1
978,0,50951,61942,49622.29,60313.23,1328.71,1628.77,0.000000,0.000000,0.996808,85.07,1
988,0,50955,61944,49624.95,60316.49,1330.05,1627.51,0.000000,0.000000,0.996787,85.07,1
1000,0,50952,61948,49627.61,60319.75,1324.39,1628.25,0.000000,0.000000,0.996766,85.07,1
1010,0,50950,61956,49630.25,60323.03,1319.75,1632.97,0.000000,0.000000,0.996744,85.07,1
1020,0,50953,61962,49632.90,60326.31,1320.10,1635.69,0.000000,0.000000,0.996723,85.07,1
1031,0,50962,61961,49635.56,60329.58,1326.44,1631.42,0.000000,0.000000,0.996701,85.07,1
1041,0,50967,61966,49638.23,60332.85,1328.77,1633.15,0.000000,0.000000,0.996680,85.07,1
1054,0,50967,61968,49640.89,60336.12,1326.11,1631.88,0.000000,0.000000,0.996658,85.07,1
1064,0,50970,61975,49643.55,60339.41,1326.45,1635.59,0.000000,0.000000,0.996636,85.07,1
1073,0,50975,61978,49646.21,60342.68,1328.79,1635.32,0.000000,0.000000,0.996614,85.07,1
1082,0,50976,61974,49648.87,60345.95,1327.13,1628.05,0.000000,0.000000,0.996592,85.07,1
1092,0,50974,61976,49651.52,60349.21,1322.48,1626.79,0.000000,0.000000,0.996571,85.08,1
1101,0,50978,61982,49654.18,60352.48,1323.82,1629.52,0.000000,0.000000,0.996549,85.08,1
1117,0,50973,61987,49656.82,60355.75,1316.18,1631.25,0.000000,0.000000,0.996527,85.08,1
1125,0,50978,61984,49659.46,60359.00,1318.54,1625.00,0.000000,0.000000,0.996505,85.08,1
1134,0,50981,61989,49662.11,60362.27,1318.89,1626.73,0.000000,0.000000,0.996482,85.08,1
1141,0,50980,61981,49664.74,60365.50,1315.26,1615.50,0.000000,0.000000,0.996460,85.08,1
1147,0,50980,61993,49667.37,60368.76,1312.63,1624.24,0.000000,0.000000,0.996438,85.08,1
1151,0,50978,61992,49670.00,60372.01,1308.00,1619.99,0.000000,0.000000,0.996415,85.08,1
1163,0,50981,61977,49672.62,60375.22,1308.38,1601.78,0.000000,0.000000,0.996392,85.08,1
1174,0,50972,61984,49675.22,60378.44,1296.78,1605.56,0.000000,0.000000,0.996370,85.08,1
1191,0,50983,61996,49677.84,60381.68,1305.16,1614.32,0.000000,0.000000,0.996347,85.08,1
1204,0,50983,61992,49680.45,60384.90,1302.55,1607.10,0.000000,0.000000,0.996324,85.08,1
1213,0,50989,61998,49683.07,60388.12,1305.93,1609.88,0.000000,0.000000,0.996300,85.08,1
1227,0,50988,61993,49685.68,60391.34,1302.32,1601.66,0.000000,0.000000,0.996277,85.08,1
1239,0,50989,61995,49688.29,60394.54,1300.71,1600.46,0.000000,0.000000,0.996254,85.08,1
1252,0,50991,61993,49690.89,60397.74,1300.11,1595.26,0.000000,0.000000,0.996231,85.08,1
1261,0,50990,61999,49693.49,60400.95,1296.51,1598.05,0.000000,0.000000,0.996208,85.08,1
1272,0,50987,61990,49696.08,60404.12,1290.92,1585.88,0.000000,0.000000,0.996185,85.08,1
1282,0,50986,61990,49698.66,60407.30,1287.34,1582.70,0.000000,0.000000,0.996162,85.09,1
1296,0,50986,61998,49701.24,60410.48,1284.76,1587.52,0.000000,0.000000,0.996139,85.09,1
1305,0,50991,61995,49703.82,60413.65,1287.18,1581.35,0.000000,0.000000,0.996116,85.09,1
1318,0,50990,62000,49706.39,60416.83,1283.61,1583.17,0.000000,0.000000,0.996093,85.09,1
1326,0,50989,62000,49708.96,60420.00,1280.04,1580.00,0.000000,0.000000,0.996069,85.09,1
1337,0,50985,62000,49711.52,60423.16,1273.48,1576.84,0.000000,0.000000,0.996046,85.09,1
1351,0,50991,61999,49714.07,60426.31,1276.93,1572.69,0.000000,0.000000,0.996022,85.09,1
1358,0,50987,62001,49716.62,60429.46,1270.38,1571.54,0.000000,0.000000,0.995999,85.09,1
1363,0,50990,62005,49719.17,60432.61,1270.83,1572.39,0.000000,0.000000,0.995975,85.09,1
1371,0,50990,62010,49721.71,60435.77,1268.29,1574.23,0.000000,0.000000,0.995951,85.09,1
1390,0,50996,62006,49724.26,60438.91,1271.74,1567.09,0.000000,0.000000,0.995927,85.09,1
1399,0,50996,62010,49726.80,60442.05,1269.20,1567.95,0.000000,0.000000,0.995902,85.09,1
1409,0,50998,62015,49729.35,60445.20,1268.65,1569.80,0.000000,0.000000,0.995878,85.09,1
1421,0,50996,62008,49731.88,60448.33,1264.12,1559.67,0.000000,0.000000,0.995853,85.09,1
1431,0,50999,62010,49734.42,60451.46,1264.58,1558.54,0.000000,0.000000,0.995829,85.09,1
1439,0,50998,62019,49736.95,60454.59,1261.05,1564.41,0.000000,0.000000,0.995804,85.09,1
1449,0,51000,62013,49739.47,60457.71,1260.53,1555.29,0.000000,0.000000,0.995779,85.09,1
1463,0,50998,62007,49741.99,60460.81,1256.01,1546.19,0.000000,0.000000,0.995754,85.10,1
1485,0,50992,62005,49744.49,60463.90,1247.51,1541.10,0.000000,0.000000,0.995729,85.10,1
1496,0,51002,62006,49747.01,60466.99,1254.99,1539.01,0.000000,0.000000,0.995705,85.10,1
1506,0,51002,62004,49749.52,60470.06,1252.48,1533.94,0.000000,0.000000,0.995680,85.10,1
1515,0,50998,61996,49752.02,60473.12,1245.98,1522.88,0.000000,0.000000,0.995656,85.10,1
1522,0,50995,61997,49754.51,60476.17,1240.49,1520.83,0.000000,0.000000,0.995631,85.10,1
1532,0,50988,61991,49756.98,60479.20,1231.02,1511.80,0.000000,0.000000,0.995607,85.10,1
1538,0,50994,61983,49759.45,60482.21,1234.55,1500.79,0.000000,0.000000,0.995584,85.10,1
1543,0,50989,61984,49761.91,60485.21,1227.09,1498.79,0.000000,0.000000,0.995560,85.10,1
1546,0,50986,61985,49764.36,60488.21,1221.64,1496.79,0.000000,0.000000,0.995537,85.10,1
1549,0,50989,61992,49766.81,60491.22,1222.19,1500.78,0.000000,0.000000,0.995514,85.10,1
1551,0,50984,61992,49769.25,60494.22,1214.75,1497.78,0.000000,0.000000,0.995490,85.10,1
1555,0,50984,61988,49771.68,60497.21,1212.32,1490.79,0.000000,0.000000,0.995467,85.10,1
1561,0,50988,61987,49774.11,60500.19,1213.89,1486.81,0.000000,0.000000,0.995444,85.10,1
1572,0,50991,61989,49776.55,60503.17,1214.45,1485.83,0.000000,0.000000,0.995421,85.10,1
1584,0,50991,61986,49778.98,60506.14,1212.02,1479.86,0.000000,0.000000,0.995399,85.10,1
1595,0,50993,61978,49781.41,60509.09,1211.59,1468.91,0.000000,0.000000,0.995377,85.10,1
1604,0,50987,61984,49783.82,60512.04,1203.18,1471.96,0.000000,0.000000,0.995355,85.11,1
1614,0,50983,61986,49786.22,60514.99,1196.78,1471.01,0.000000,0.000000,0.995333,85.11,1
1627,0,50987,61987,49788.62,60517.93,1198.38,1469.07,0.000000,0.000000,0.995311,85.11,1
1634,0,50985,61980,49791.02,60520.86,1193.98,1459.14,0.000000,0.000000,0.995289,85.11,1
1647,0,50988,61985,49793.41,60523.79,1194.59,1461.21,0.000000,0.000000,0.995268,85.11,1
1658,0,50987,61983,49795.80,60526.71,1191.20,1456.29,0.000000,0.000000,0.995247,85.11,1
1670,0,50987,61985,49798.18,60529.63,1188.82,1455.37,0.000000,0.000000,0.995226,85.11,1
1677,0,50981,61982,49800.55,60532.54,1180.45,1449.46,0.000000,0.000000,0.995205,85.11,1
1688,0,50991,61984,49802.93,60535.44,1188.07,1448.56,0.000000,0.000000,0.995185,85.11,1
1696,0,50985,61984,49805.30,60538.34,1179.70,1445.66,0.000000,0.000000,0.995164,85.11,1
1705,0,50984,61980,49807.66,60541.23,1176.34,1438.77,0.000000,0.000000,0.995144,85.11,1
1713,0,50979,61982,49810.00,60544.11,1169.00,1437.89,0.000000,0.000000,0.995124,85.11,1
1722,0,50983,61984,49812.35,60546.99,1170.65,1437.01,0.000000,0.000000,0.995104,85.11,1
1734,0,50983,61986,49814.69,60549.87,1168.31,1436.13,0.000000,0.000000,0.995083,85.11,1
1744,0,50985,61989,49817.04,60552.75,1167.96,1436.25,0.000000,0.000000,0.995063,85.11,1
1753,0,50993,61991,49819.39,60555.63,1173.61,1435.37,0.000000,0.000000,0.995043,85.11,1
1763,0,50980,61988,49821.71,60558.50,1158.29,1429.50,0.000000,0.000000,0.995023,85.11,1
1774,0,50992,61986,49824.05,60561.35,1167.95,1424.65,0.000000,0.000000,0.995004,85.11,1
1784,0,50987,61989,49826.38,60564.21,1160.62,1424.79,0.000000,0.000000,0.994984,85.12,1
1797,0,50992,61986,49828.71,60567.05,1163.29,1418.95,0.000000,0.000000,0.994964,85.12,1
1810,0,50996,61991,49831.05,60569.90,1164.95,1421.10,0.000000,0.000000,0.994945,85.12,1
1821,0,50992,61991,49833.37,60572.74,1158.63,1418.26,0.000000,0.000000,0.994926,85.12,1
1829,0,50988,61990,49835.68,60575.58,1152.32,1414.42,0.000000,0.000000,0.994907,85.12,1
1835,0,50996,61987,49838.00,60578.40,1158.00,1408.60,0.000000,0.000000,0.994889,85.12,1
1843,0,50995,61993,49840.32,60581.23,1154.68,1411.77,0.000000,0.000000,0.994871,85.12,1
1856,0,50996,62000,49842.63,60584.07,1153.37,1415.93,0.000000,0.000000,0.994852,85.12,1
1865,0,50992,61992,49844.93,60586.89,1147.07,1405.11,0.000000,0.000000,0.994834,85.12,1
1874,0,50999,61998,49847.24,60589.71,1151.76,1408.29,0.000000,0.000000,0.994816,85.12,1
1884,0,50994,61998,49849.54,60592.53,1144.46,1405.47,0.000000,0.000000,0.994798,85.12,1
1895,0,50995,62002,49851.83,60595.35,1143.17,1406.65,0.000000,0.000000,0.994780,85.12,1
1904,0,50997,62000,49854.12,60598.16,1142.88,1401.84,0.000000,0.000000,0.994762,85.12,1
1913,0,50997,62000,49856.41,60600.97,1140.59,1399.03,0.000000,0.000000,0.994745,85.12,1
1923,0,51001,62004,49858.70,60603.78,1142.30,1400.22,0.000000,0.000000,0.994727,85.12,1
1934,0,51000,62003,49860.98,60606.58,1139.02,1396.42,0.000000,0.000000,0.994709,85.12,1
1948,0,50998,62003,49863.25,60609.37,1134.75,1393.63,0.000000,0.000000,0.994692,85.12,1
1959,0,51001,62008,49865.53,60612.17,1135.47,1395.83,0.000000,0.000000,0.994674,85.12,1
1969,0,50998,62009,49867.80,60614.96,1130.20,1394.04,0.000000,0.000000,0.994657,85.12,1
1979,0,50999,62006,49870.06,60617.75,1128.94,1388.25,0.000000,0.000000,0.994639,85.12,1
1986,0,51000,62010,49872.32,60620.54,1127.68,1389.46,0.000000,0.000000,0.994621,85.13,1
1993,0,51003,62008,49874.59,60623.31,1128.41,1384.69,0.000000,0.000000,0.994604,85.13,1
2002,0,50998,62005,49876.84,60626.08,1121.16,1378.92,0.000000,0.000000,0.994586,85.13,1
2014,0,51009,62010,49879.10,60628.85,1129.90,1381.15,0.000000,0.000000,0.994568,85.13,1
2025,0,51003,62013,49881.35,60631.62,1121.65,1381.38,0.000000,0.000000,0.994551,85.13,1
2031,0,51012,62005,49883.61,60634.37,1128.39,1370.63,0.000000,0.000000,0.994534,85.13,1
2046,0,51009,62014,49885.87,60637.13,1123.13,1376.87,0.000000,0.000000,0.994517,85.13,1
2055,0,51012,62005,49888.12,60639.87,1123.88,1365.13,0.000000,0.000000,0.994500,85.13,1
2065,0,51000,62010,49890.35,60642.61,1109.65,1367.39,0.000000,0.000000,0.994484,85.13,1
2077,0,51005,62004,49892.58,60645.33,1112.42,1358.67,0.000000,0.000000,0.994467,85.13,1
2088,0,51013,62008,49894.82,60648.06,1118.18,1359.94,0.000000,0.000000,0.994451,85.13,1
2098,0,51012,62014,49897.05,60650.79,1114.95,1363.21,0.000000,0.000000,0.994435,85.13,1
2108,0,51015,62008,49899.29,60653.51,1115.71,1354.49,0.000000,0.000000,0.994420,85.13,1
2117,0,51013,62019,49901.52,60656.24,1111.48,1362.76,0.000000,0.000000,0.994404,85.13,1
2127,0,51009,62013,49903.74,60658.96,1105.26,1354.04,0.000000,0.000000,0.994389,85.13,1
2139,0,51014,62016,49905.96,60661.67,1108.04,1354.33,0.000000,0.000000,0.994374,85.13,1
2147,0,51006,62014,49908.16,60664.38,1097.84,1349.62,0.000000,0.000000,0.994359,85.13,1
2155,0,51007,62017,49910.36,60667.09,1096.64,1349.91,0.000000,0.000000,0.994344,85.13,1
2165,0,51005,62017,49912.55,60669.79,1092.45,1347.21,0.000000,0.000000,0.994328,85.13,1
2176,0,51001,62020,49914.73,60672.49,1086.27,1347.51,0.000000,0.000000,0.994313,85.13,1
2186,0,51002,62014,49916.91,60675.18,1085.09,1338.82,0.000000,0.000000,0.994297,85.13,1
2196,0,51002,62012,49919.08,60677.85,1082.92,1334.15,0.000000,0.000000,0.994281,85.13,1
2206,0,51004,62012,49921.25,60680.52,1082.75,1331.48,0.000000,0.000000,0.994265,85.14,1
2217,0,51004,62002,49923.42,60683.16,1080.58,1318.84,0.000000,0.000000,0.994250,85.14,1
2226,0,51001,62012,49925.58,60685.82,1075.42,1326.18,0.000000,0.000000,0.994234,85.14,1
2237,0,51009,62000,49927.75,60688.45,1081.25,1311.55,0.000000,0.000000,0.994219,85.14,1
2248,0,51002,62001,49929.89,60691.08,1072.11,1309.92,0.000000,0.000000,0.994204,85.14,1
2256,0,51002,61988,49932.04,60693.67,1069.96,1294.33,0.000000,0.000000,0.994190,85.14,1
2266,0,50998,61997,49934.17,60696.28,1063.83,1300.72,0.000000,0.000000,0.994175,85.14,1
2276,0,50998,61989,49936.30,60698.87,1061.70,1290.13,0.000000,0.000000,0.994161,85.14,1
2285,0,50997,61975,49938.42,60701.42,1058.58,1273.58,0.000000,0.000000,0.994148,85.14,1
2294,0,50995,61982,49940.54,60703.98,1054.46,1278.02,0.000000,0.000000,0.994135,85.14,1
2304,0,50992,61979,49942.64,60706.54,1049.36,1272.46,0.000000,0.000000,0.994122,85.14,1
2312,0,50990,61983,49944.74,60709.09,1045.26,1273.91,0.000000,0.000000,0.994110,85.14,1
2324,0,50994,61976,49946.84,60711.62,1047.16,1264.38,0.000000,0.000000,0.994098,85.14,1
2336,0,50992,61981,49948.93,60714.16,1043.07,1266.84,0.000000,0.000000,0.994087,85.14,1
2347,0,50990,61977,49951.01,60716.69,1038.99,1260.31,0.000000,0.000000,0.994076,85.14,1
2356,0,50991,61978,49953.09,60719.21,1037.91,1258.79,0.000000,0.000000,0.994065,85.14,1
2369,0,50983,61986,49955.16,60721.75,1027.84,1264.25,0.000000,0.000000,0.994054,85.14,1
2379,0,50985,61976,49957.22,60724.26,1027.78,1251.74,0.000000,0.000000,0.994044,85.14,1
2383,0,50984,61981,49959.27,60726.78,1024.73,1254.22,0.000000,0.000000,0.994034,85.14,1
2395,0,50987,61975,49961.33,60729.27,1025.67,1245.73,0.000000,0.000000,0.994024,85.14,1
2406,0,50986,61976,49963.38,60731.77,1022.62,1244.23,0.000000,0.000000,0.994014,85.14,1
2417,0,50985,61971,49965.43,60734.25,1019.57,1236.75,0.000000,0.000000,0.994004,85.14,1
2428,0,50988,61976,49967.47,60736.73,1020.53,1239.27,0.000000,0.000000,0.993995,85.14,1
2437,0,50990,61964,49969.52,60739.19,1020.48,1224.81,0.000000,0.000000,0.993987,85.14,1
2445,0,50986,61974,49971.55,60741.66,1014.45,1232.34,0.000000,0.000000,0.993978,85.14,1
2457,0,50983,61973,49973.58,60744.13,1009.42,1228.87,0.000000,0.000000,0.993970,85.14,1
2468,0,50979,61972,49975.59,60746.59,1003.41,1225.41,0.000000,0.000000,0.993962,85.15,1
2479,0,50988,61975,49977.62,60749.04,1010.38,1225.96,0.000000,0.000000,0.993955,85.15,1
2489,0,50981,61970,49979.62,60751.49,1001.37,1218.51,0.000000,0.000000,0.993948,85.15,1
2499,0,50986,61971,49981.64,60753.93,1004.36,1217.07,0.000000,0.000000,0.993941,85.15,1
2514,0,50981,61965,49983.64,60756.35,997.36,1208.65,0.000000,0.000000,0.993934,85.15,1
2524,0,50988,61972,49985.65,60758.79,1002.35,1213.21,0.000000,0.000000,0.993928,85.15,1
2535,0,50980,61976,49987.64,60761.22,992.36,1214.78,0.000000,0.000000,0.993922,85.15,1
2546,0,50984,61976,49989.63,60763.65,994.37,1212.35,0.000000,0.000000,0.993916,85.15,1
2555,0,50986,61978,49991.62,60766.08,994.37,1211.92,0.000000,0.000000,0.993910,85.15,1
2566,0,50980,61981,49993.60,60768.51,986.40,1212.49,0.000000,0.000000,0.993904,85.15,1
2574,0,50988,61975,49995.59,60770.93,992.41,1204.07,0.000000,0.000000,0.993899,85.15,1
2582,0,50989,61977,49997.58,60773.34,991.42,1203.66,0.000000,0.000000,0.993893,85.15,1
2595,0,50981,61982,49999.55,60775.76,981.45,1206.24,0.000000,0.000000,0.993888,85.15,1
2608,0,50982,61975,50001.51,60778.16,980.49,1196.84,0.000000,0.000000,0.993883,85.15,1
2617,0,50978,61984,50003.46,60780.57,974.54,1203.43,0.000000,0.000000,0.993877,85.15,1
2624,0,50983,61977,50005.43,60782.96,977.57,1194.04,0.000000,0.000000,0.993872,85.15,1
2631,0,50985,61984,50007.39,60785.37,977.61,1198.63,0.000000,0.000000,0.993866,85.15,1
2637,0,50989,61989,50009.35,60787.78,979.65,1201.22,0.000000,0.000000,0.993861,85.15,1
2647,0,50993,61993,50011.32,60790.19,981.68,1202.81,0.000000,0.000000,0.993855,85.15,1
2653,0,50991,61989,50013.28,60792.59,977.72,1196.41,0.000000,0.000000,0.993850,85.15,1
2663,0,50987,61993,50015.23,60794.99,971.77,1198.01,0.000000,0.000000,0.993844,85.15,1
2675,0,50996,61992,50017.19,60797.38,978.81,1194.62,0.000000,0.000000,0.993839,85.15,1
2695,0,51001,61995,50019.16,60799.78,981.84,1195.22,0.000000,0.000000,0.993834,85.15,1
2705,0,50997,61993,50021.12,60802.17,975.88,1190.83,0.000000,0.000000,0.993829,85.15,1
2713,0,50993,61998,50023.06,60804.56,969.94,1193.44,0.000000,0.000000,0.993823,85.15,1
2720,0,50995,61997,50025.01,60806.95,969.99,1190.05,0.000000,0.000000,0.993818,85.15,1
2724,0,51003,61993,50026.96,60809.32,976.04,1183.68,0.000000,0.000000,0.993813,85.15,1
2735,0,50998,62001,50028.91,60811.71,969.09,1189.29,0.000000,0.000000,0.993808,85.15,1
2747,0,51002,62005,50030.86,60814.10,971.14,1190.90,0.000000,0.000000,0.993803,85.15,1
2757,0,51003,61998,50032.80,60816.47,970.20,1181.53,0.000000,0.000000,0.993798,85.15,1
2767,0,50995,61995,50034.73,60818.83,960.27,1176.17,0.000000,0.000000,0.993794,85.15,1
2774,0,50999,62003,50036.66,60821.20,962.34,1181.80,0.000000,0.000000,0.993789,85.15,1
2785,0,51002,62006,50038.59,60823.57,963.41,1182.43,0.000000,0.000000,0.993784,85.15,1
2808,0,51005,62006,50040.53,60825.94,964.47,1180.06,0.000000,0.000000,0.993779,85.15,1
2816,0,51007,62002,50042.46,60828.29,964.54,1173.71,0.000000,0.000000,0.993774,85.15,1
2839,0,51002,62003,50044.38,60830.64,957.62,1172.36,0.000000,0.000000,0.993770,85.15,1
2857,0,51002,62007,50046.30,60833.00,955.70,1174.00,0.000000,0.000000,0.993765,85.15,1
2870,0,51008,62012,50048.23,60835.36,959.77,1176.64,0.000000,0.000000,0.993760,85.15,1
2892,0,51009,62014,50050.15,60837.72,958.85,1176.28,0.000000,0.000000,0.993755,85.15,1
2906,0,51012,62015,50052.07,60840.07,959.93,1174.93,0.000000,0.000000,0.993751,85.15,1
2913,0,51015,62018,50054.00,60842.43,961.00,1175.57,0.000000,0.000000,0.993746,85.15,1
2919,0,51016,62017,50055.93,60844.78,960.07,1172.22,0.000000,0.000000,0.993741,85.15,1
2929,0,51020,62010,50057.86,60847.11,962.14,1162.89,0.000000,0.000000,0.993737,85.15,1
2933,0,51020,62011,50059.78,60849.44,960.22,1161.56,0.000000,0.000000,0.993733,85.15,1
2942,0,51019,62014,50061.70,60851.77,957.30,1162.23,0.000000,0.000000,0.993730,85.15,1
2950,0,51016,62014,50063.61,60854.10,952.39,1159.90,0.000000,0.000000,0.993727,85.15,1
2954,0,51020,62016,50065.52,60856.42,954.48,1159.58,0.000000,0.000000,0.993724,85.15,1
2958,0,51015,62022,50067.42,60858.75,947.58,1163.25,0.000000,0.000000,0.993721,85.15,1
2964,0,51021,62017,50069.33,60861.07,951.67,1155.93,0.000000,0.000000,0.993718,85.15,1
2984,0,51019,62024,50071.23,60863.40,947.77,1160.60,0.000000,0.000000,0.993715,85.15,1
2996,0,51023,62020,50073.14,60865.71,949.86,1154.29,0.000000,0.000000,0.993712,85.15,1
3004,0,51016,62027,50075.03,60868.04,940.97,1158.96,0.000000,0.000000,0.993710,85.15,1
3014,0,51017,62025,50076.91,60870.36,940.09,1154.64,0.000000,0.000000,0.993707,85.16,1
3023,0,51021,62025,50078.80,60872.67,942.20,1152.33,0.000000,0.000000,0.993704,85.16,1
3030,0,51019,62024,50080.69,60874.97,938.31,1149.03,0.000000,0.000000,0.993701,85.16,1
3041,0,51018,62020,50082.56,60877.27,935.44,1142.73,0.000000,0.000000,0.993698,85.16,1
3052,0,51012,62011,50084.42,60879.54,927.58,1131.46,0.000000,0.000000,0.993696,85.16,1
3063,0,51015,62010,50086.29,60881.80,928.71,1128.20,0.000000,0.000000,0.993693,85.16,1
3074,0,51012,62011,50088.14,60884.06,923.86,1126.94,0.000000,0.000000,0.993691,85.16,1
3083,0,51004,62014,50089.97,60886.32,914.03,1127.68,0.000000,0.000000,0.993688,85.16,1
3098,0,51011,62004,50091.81,60888.56,919.19,1115.44,0.000000,0.000000,0.993686,85.16,1
3108,0,51007,61994,50093.64,60890.77,913.36,1103.23,0.000000,0.000000,0.993684,85.16,1
3115,0,51014,62003,50095.49,60893.00,918.51,1110.00,0.000000,0.000000,0.993683,85.16,1
3120,0,51012,61992,50097.32,60895.20,914.68,1096.80,0.000000,0.000000,0.993682,85.16,1
3126,0,51011,61992,50099.15,60897.39,911.85,1094.61,0.000000,0.000000,0.993682,85.16,1
3130,0,51003,61988,50100.96,60899.57,902.04,1088.43,0.000000,0.000000,0.993682,85.16,1
3133,0,51010,61986,50102.78,60901.75,907.22,1084.25,0.000000,0.000000,0.993683,85.16,1
3136,0,51010,61992,50104.60,60903.93,905.40,1088.07,0.000000,0.000000,0.993685,85.16,1
3143,0,51006,61982,50106.40,60906.09,899.60,1075.91,0.000000,0.000000,0.993687,85.16,1
3155,0,51000,61989,50108.19,60908.26,891.81,1080.74,0.000000,0.000000,0.993689,85.16,1
3167,0,51000,61982,50109.98,60910.41,890.02,1071.59,0.000000,0.000000,0.993692,85.16,1
3176,0,50999,61983,50111.76,60912.55,887.24,1070.45,0.000000,0.000000,0.993695,85.16,1
3189,0,51003,61980,50113.54,60914.69,889.46,1065.31,0.000000,0.000000,0.993699,85.16,1
3212,0,50994,61980,50115.30,60916.82,878.70,1063.18,0.000000,0.000000,0.993703,85.16,1
3222,0,51000,61980,50117.07,60918.95,882.93,1061.05,0.000000,0.000000,0.993708,85.16,1
3232,0,50996,61978,50118.83,60921.07,877.17,1056.93,0.000000,0.000000,0.993713,85.16,1
3244,0,50990,61976,50120.57,60923.19,869.43,1052.81,0.000000,0.000000,0.993718,85.16,1
3254,0,50993,61974,50122.32,60925.29,870.68,1048.71,0.000000,0.000000,0.993724,85.16,1
3268,0,50996,61982,50124.07,60927.40,871.93,1054.60,0.000000,0.000000,0.993730,85.16,1
3278,0,51009,61987,50125.84,60929.52,883.16,1057.48,0.000000,0.000000,0.993737,85.16,1
3287,0,50993,61978,50127.57,60931.62,865.43,1046.38,0.000000,0.000000,0.993743,85.16,1
3296,0,50993,61979,50129.30,60933.72,863.70,1045.28,0.000000,0.000000,0.993750,85.16,1
3304,0,50995,61981,50131.04,60935.82,863.96,1045.18,0.000000,0.000000,0.993758,85.16,1
3313,0,50995,61981,50132.77,60937.91,862.23,1043.09,0.000000,0.000000,0.993765,85.16,1
3323,0,50994,61987,50134.49,60940.01,859.51,1046.99,0.000000,0.000000,0.993773,85.16,1
3335,0,51001,61987,50136.23,60942.11,864.77,1044.89,0.000000,0.000000,0.993781,85.16,1
3342,0,50997,61984,50137.95,60944.19,859.05,1039.81,0.000000,0.000000,0.993789,85.16,1
3350,0,50997,61984,50139.67,60946.27,857.33,1037.73,0.000000,0.000000,0.993797,85.16,1
3357,0,50998,61980,50141.39,60948.34,856.61,1031.66,0.000000,0.000000,0.993806,85.16,1
3362,0,50999,61984,50143.10,60950.42,855.90,1033.58,0.000000,0.000000,0.993815,85.16,1
3369,0,51003,61983,50144.82,60952.48,858.18,1030.52,0.000000,0.000000,0.993825,85.16,1
3376,0,51005,61991,50146.55,60954.56,858.45,1036.44,0.000000,0.000000,0.993834,85.16,1
3385,0,51003,61988,50148.26,60956.63,854.74,1031.37,0.000000,0.000000,0.993844,85.16,1
3405,0,51000,61979,50149.96,60958.68,850.04,1020.32,0.000000,0.000000,0.993855,85.16,1
3418,0,51001,61977,50151.67,60960.72,849.33,1016.28,0.000000,0.000000,0.993866,85.16,1
3430,0,50993,61996,50153.35,60962.79,839.65,1033.21,0.000000,0.000000,0.993877,85.16,1
3443,0,51001,61996,50155.05,60964.86,845.95,1031.14,0.000000,0.000000,0.993888,85.16,1
3456,0,51005,62002,50156.75,60966.93,848.25,1035.07,0.000000,0.000000,0.993898,85.16,1
3468,0,51001,61995,50158.44,60968.99,842.56,1026.01,0.000000,0.000000,0.993909,85.16,1
3479,0,51006,61998,50160.14,60971.05,845.86,1026.95,0.000000,0.000000,0.993920,85.15,1
3491,0,51008,61996,50161.83,60973.10,846.17,1022.90,0.000000,0.000000,0.993931,85.15,1
3499,0,51009,62006,50163.53,60975.16,845.47,1030.84,0.000000,0.000000,0.993942,85.15,1
3505,0,51012,62006,50165.23,60977.23,846.77,1028.77,0.000000,0.000000,0.993953,85.15,1
3511,0,51009,62008,50166.91,60979.29,842.09,1028.71,0.000000,0.000000,0.993964,85.15,1
3517,0,51002,61999,50168.59,60981.33,833.41,1017.67,0.000000,0.000000,0.993975,85.15,1
3524,0,51007,62000,50170.27,60983.37,836.73,1016.63,0.000000,0.000000,0.993986,85.15,1
3530,0,51009,62000,50171.95,60985.40,837.05,1014.60,0.000000,0.000000,0.993997,85.15,1
3543,0,51006,61995,50173.61,60987.42,832.39,1007.58,0.000000,0.000000,0.994009,85.15,1
3553,0,51013,62000,50175.29,60989.45,837.71,1010.55,0.000000,0.000000,0.994020,85.15,1
3566,0,51014,62001,50176.97,60991.47,837.03,1009.53,0.000000,0.000000,0.994032,85.15,1
3577,0,51018,62006,50178.66,60993.50,839.34,1012.50,0.000000,0.000000,0.994045,85.15,1
3588,0,51007,62008,50180.31,60995.54,826.69,1012.46,0.000000,0.000000,0.994057,85.15,1
3597,0,51008,62011,50181.97,60997.57,826.03,1013.43,0.000000,0.000000,0.994068,85.15,1
3604,0,51009,62016,50183.62,60999.61,825.37,1016.39,0.000000,0.000000,0.994080,85.15,1
3609,0,51008,62022,50185.27,61001.65,822.73,1020.35,0.000000,0.000000,0.994091,85.15,1
3621,0,51011,62020,50186.93,61003.69,824.07,1016.31,0.000000,0.000000,0.994101,85.15,1
3634,0,51008,62029,50188.57,61005.74,819.43,1023.26,0.000000,0.000000,0.994111,85.15,1
3644,0,51022,62025,50190.24,61007.78,831.76,1017.22,0.000000,0.000000,0.994121,85.15,1
3655,0,51012,62020,50191.88,61009.81,820.12,1010.19,0.000000,0.000000,0.994130,85.15,1
3665,0,51019,62028,50193.54,61011.85,825.46,1016.15,0.000000,0.000000,0.994139,85.15,1
3673,0,51021,62028,50195.20,61013.88,825.80,1014.12,0.000000,0.000000,0.994147,85.15,1
3682,0,51014,62029,50196.84,61015.91,817.16,1013.09,0.000000,0.000000,0.994156,85.15,1
3690,0,51019,62032,50198.48,61017.95,820.52,1014.05,0.000000,0.000000,0.994163,85.15,1
3698,0,51018,62029,50200.12,61019.97,817.88,1009.03,0.000000,0.000000,0.994171,85.15,1
3704,0,51016,62034,50201.75,61022.00,814.25,1012.00,0.000000,0.000000,0.994177,85.15,1
3717,0,51025,62031,50203.40,61024.02,821.60,1006.98,0.000000,0.000000,0.994184,85.15,1
3725,0,51022,62027,50205.04,61026.03,816.96,1000.97,0.000000,0.000000,0.994190,85.15,1
3737,0,51020,62023,50206.67,61028.03,813.33,994.97,0.000000,0.000000,0.994197,85.15,1
3747,0,51026,62025,50208.31,61030.02,817.69,994.98,0.000000,0.000000,0.994203,85.15,1
3757,0,51024,62029,50209.95,61032.02,814.05,996.98,0.000000,0.000000,0.994209,85.15,1
3767,0,51028,62024,50211.58,61034.01,816.42,989.99,0.000000,0.000000,0.994216,85.15,1
3777,0,51027,62026,50213.21,61035.99,813.79,990.01,0.000000,0.000000,0.994223,85.15,1
3788,0,51026,62024,50214.84,61037.97,811.16,986.03,0.000000,0.000000,0.994229,85.15,1
3796,0,51025,62024,50216.46,61039.94,808.54,984.06,0.000000,0.000000,0.994236,85.15,1
3805,0,51026,62021,50218.08,61041.91,807.92,979.09,0.000000,0.000000,0.994243,85.15,1
3818,0,51027,62027,50219.70,61043.88,807.30,983.12,0.000000,0.000000,0.994250,85.15,1
3828,0,51022,62024,50221.30,61045.84,800.70,978.16,0.000000,0.000000,0.994257,85.15,1
3840,0,51032,62028,50222.93,61047.80,809.07,980.20,0.000000,0.000000,0.994264,85.15,1
3852,0,51027,62018,50224.54,61049.75,802.46,968.25,0.000000,0.000000,0.994272,85.15,1
3860,0,51019,62015,50226.12,61051.68,792.87,963.32,0.000000,0.000000,0.994279,85.15,1
3869,0,51010,62008,50227.70,61053.59,782.30,954.41,0.000000,0.000000,0.994287,85.15,1
3879,0,51013,62007,50229.27,61055.50,783.73,951.50,0.000000,0.000000,0.994295,85.15,1
3891,0,51009,61996,50230.83,61057.39,778.17,938.61,0.000000,0.000000,0.994303,85.15,1
3904,0,51009,61997,50232.39,61059.27,776.61,937.73,0.000000,0.000000,0.994311,85.15,1
3914,0,51009,61999,50233.94,61061.15,775.06,937.85,0.000000,0.000000,0.994319,85.15,1
3924,0,51008,61994,50235.49,61063.02,772.51,930.98,0.000000,0.000000,0.994328,85.15,1
3933,0,51016,61988,50237.05,61064.87,778.95,923.13,0.000000,0.000000,0.994338,85.15,1
3944,0,51003,61991,50238.59,61066.72,764.41,924.28,0.000000,0.000000,0.994348,85.15,1
3951,0,51004,61997,50240.12,61068.59,763.88,928.41,0.000000,0.000000,0.994358,85.14,1
3957,0,51006,61987,50241.65,61070.43,764.35,916.57,0.000000,0.000000,0.994369,85.14,1
3965,0,51007,61987,50243.18,61072.26,763.82,914.74,0.000000,0.000000,0.994380,85.14,1
3975,0,51005,61986,50244.70,61074.09,760.30,911.91,0.000000,0.000000,0.994391,85.14,1
3988,0,51001,61978,50246.22,61075.90,754.78,902.10,0.000000,0.000000,0.994403,85.14,1
3998,0,50999,61978,50247.73,61077.70,751.27,900.30,0.000000,0.000000,0.994415,85.14,1
4010,0,50994,61975,50249.22,61079.50,744.78,895.50,0.000000,0.000000,0.994428,85.14,1
4020,0,50998,61969,50250.72,61081.28,747.28,887.72,0.000000,0.000000,0.994442,85.14,1
4032,0,50992,61970,50252.20,61083.06,739.80,886.94,0.000000,0.000000,0.994456,85.14,1
4042,0,50998,61975,50253.70,61084.84,744.30,890.16,0.000000,0.000000,0.994470,85.14,1
4053,0,50993,61972,50255.18,61086.62,737.82,885.38,0.000000,0.000000,0.994485,85.14,1
4062,0,50993,61965,50256.65,61088.38,736.35,876.62,0.000000,0.000000,0.994500,85.14,1
4068,0,50983,61960,50258.11,61090.12,724.89,869.87,0.000000,0.000000,0.994516,85.14,1
4075,0,50987,61964,50259.57,61091.87,727.43,872.12,0.000000,0.000000,0.994532,85.14,1
4088,0,50984,61960,50261.02,61093.61,722.98,866.39,0.000000,0.000000,0.994548,85.14,1
4098,0,50983,61959,50262.46,61095.34,720.54,863.66,0.000000,0.000000,0.994565,85.14,1
4108,0,50985,61964,50263.91,61097.08,721.09,866.92,0.000000,0.000000,0.994583,85.14,1
4118,0,50985,61963,50265.35,61098.82,719.65,864.18,0.000000,0.000000,0.994600,85.14,1
4128,0,50987,61954,50266.80,61100.53,720.20,853.47,0.000000,0.000000,0.994618,85.14,1
4140,0,50991,61969,50268.25,61102.27,722.75,866.73,0.000000,0.000000,0.994637,85.14,1
4150,0,50987,61969,50269.68,61104.00,717.32,865.00,0.000000,0.000000,0.994655,85.14,1
4160,0,50987,61966,50271.12,61105.73,715.88,860.27,0.000000,0.000000,0.994674,85.14,1
4172,0,50988,61963,50272.55,61107.44,715.45,855.56,0.000000,0.000000,0.994694,85.14,1
4179,0,50983,61963,50273.98,61109.15,709.02,853.85,0.000000,0.000000,0.994713,85.14,1
4187,0,50989,61961,50275.41,61110.86,713.59,850.14,0.000000,0.000000,0.994734,85.14,1
4195,0,50989,61968,50276.84,61112.57,712.16,855.43,0.000000,0.000000,0.994754,85.14,1
4204,0,50991,61967,50278.27,61114.29,712.73,852.71,0.000000,0.000000,0.994775,85.14,1
4215,0,50984,61966,50279.68,61115.99,704.32,850.01,0.000000,0.000000,0.994796,85.14,1
4226,0,50986,61963,50281.09,61117.68,704.91,845.32,0.000000,0.000000,0.994817,85.14,1
4237,0,50990,61963,50282.51,61119.37,707.49,843.62,0.000000,0.000000,0.994839,85.14,1
4246,0,50984,61961,50283.91,61121.06,700.09,839.94,0.000000,0.000000,0.994861,85.14,1
4258,0,50981,61969,50285.31,61122.76,695.69,846.24,0.000000,0.000000,0.994882,85.14,1
4268,0,50985,61969,50286.71,61124.45,698.29,844.55,0.000000,0.000000,0.994904,85.14,1
4275,0,50984,61961,50288.11,61126.13,695.89,834.87,0.000000,0.000000,0.994927,85.13,1
4284,0,50983,61975,50289.50,61127.83,693.50,847.17,0.000000,0.000000,0.994949,85.13,1
4294,0,50986,61963,50290.89,61129.50,695.11,833.50,0.000000,0.000000,0.994971,85.13,1
4305,0,50983,61971,50292.28,61131.18,690.72,839.82,0.000000,0.000000,0.994993,85.13,1
4317,0,50982,61961,50293.66,61132.84,688.34,828.16,0.000000,0.000000,0.995015,85.13,1
4329,0,50983,61965,50295.04,61134.51,687.96,830.49,0.000000,0.000000,0.995038,85.13,1
4338,0,50978,61971,50296.40,61136.18,681.60,834.82,0.000000,0.000000,0.995060,85.13,1
4348,0,50982,61967,50297.77,61137.85,684.23,829.15,0.000000,0.000000,0.995082,85.13,1
4359,0,50993,61965,50299.16,61139.50,693.84,825.50,0.000000,0.000000,0.995105,85.13,1
4369,0,50985,61968,50300.54,61141.16,684.46,826.84,0.000000,0.000000,0.995128,85.13,1
4378,0,50987,61965,50301.91,61142.81,685.09,822.19,0.000000,0.000000,0.995151,85.13,1
4387,0,50985,61963,50303.28,61144.45,681.72,818.55,0.000000,0.000000,0.995174,85.13,1
4398,0,50985,61957,50304.64,61146.08,680.36,810.92,0.000000,0.000000,0.995198,85.13,1
4409,0,50992,61963,50306.02,61147.71,685.98,815.29,0.000000,0.000000,0.995222,85.13,1
4419,0,50981,61963,50307.37,61149.35,673.63,813.65,0.000000,0.000000,0.995246,85.13,1
4428,0,50988,61968,50308.73,61150.99,679.27,817.01,0.000000,0.000000,0.995271,85.13,1
4438,0,50987,61974,50310.09,61152.64,676.91,821.36,0.000000,0.000000,0.995295,85.13,1
4448,0,50988,61972,50311.45,61154.28,676.55,817.72,0.000000,0.000000,0.995320,85.13,1
4460,0,50995,61971,50312.81,61155.91,682.19,815.09,0.000000,0.000000,0.995345,85.13,1
4469,0,50992,61970,50314.17,61157.54,677.83,812.46,0.000000,0.000000,0.995370,85.13,1
4479,0,50985,61984,50315.52,61159.20,669.48,824.80,0.000000,0.000000,0.995394,85.13,1
4488,0,50987,61984,50316.86,61160.85,670.14,823.15,0.000000,0.000000,0.995419,85.12,1
4497,0,50989,61980,50318.20,61162.49,670.80,817.51,0.000000,0.000000,0.995443,85.12,1
4508,0,50994,61985,50319.55,61164.14,674.45,820.86,0.000000,0.000000,0.995466,85.12,1
4517,0,50985,61976,50320.89,61165.77,664.11,810.23,0.000000,0.000000,0.995490,85.12,1
4528,0,50984,61983,50322.21,61167.40,661.79,815.60,0.000000,0.000000,0.995513,85.12,1
4538,0,50995,61980,50323.56,61169.03,671.44,810.97,0.000000,0.000000,0.995536,85.12,1
4549,0,50992,61985,50324.90,61170.66,667.10,814.34,0.000000,0.000000,0.995559,85.12,1
4558,0,50993,61991,50326.24,61172.30,666.76,818.70,0.000000,0.000000,0.995581,85.12,1
4569,0,50990,61986,50327.57,61173.93,662.43,812.07,0.000000,0.000000,0.995603,85.12,1
4578,0,50994,61986,50328.90,61175.55,665.10,810.45,0.000000,0.000000,0.995625,85.12,1
4586,0,51000,61989,50330.25,61177.18,669.75,811.82,0.000000,0.000000,0.995647,85.12,1
4596,0,50999,61993,50331.59,61178.82,667.41,814.18,0.000000,0.000000,0.995669,85.12,1
4610,0,50997,61991,50332.92,61180.44,664.08,810.56,0.000000,0.000000,0.995690,85.12,1
4620,0,51002,61984,50334.26,61182.05,667.74,801.95,0.000000,0.000000,0.995712,85.12,1
4627,0,50997,61996,50335.59,61183.68,661.41,812.32,0.000000,0.000000,0.995733,85.12,1
4640,0,50999,61990,50336.91,61185.29,662.09,804.71,0.000000,0.000000,0.995754,85.12,1
4648,0,51002,61988,50338.25,61186.90,663.75,801.10,0.000000,0.000000,0.995775,85.12,1
4656,0,50999,61988,50339.57,61188.50,659.43,799.50,0.000000,0.000000,0.995796,85.12,1
4667,0,50999,61983,50340.89,61190.09,658.11,792.91,0.000000,0.000000,0.995818,85.11,1
4677,0,51000,61981,50342.21,61191.68,657.79,789.32,0.000000,0.000000,0.995839,85.11,1
4687,0,51000,61983,50343.53,61193.26,656.47,789.74,0.000000,0.000000,0.995861,85.11,1
4698,0,50995,61982,50344.83,61194.84,650.17,787.16,0.000000,0.000000,0.995883,85.11,1
4707,0,50992,61972,50346.13,61196.39,645.87,775.61,0.000000,0.000000,0.995905,85.11,1
4719,0,50991,61969,50347.42,61197.94,643.58,771.06,0.000000,0.000000,0.995928,85.11,1
4732,0,50994,61970,50348.71,61199.49,645.29,770.51,0.000000,0.000000,0.995951,85.11,1
4744,0,50992,61964,50350.00,61201.02,642.00,762.98,0.000000,0.000000,0.995974,85.11,1
4755,0,50986,61967,50351.28,61202.55,634.72,764.45,0.000000,0.000000,0.995997,85.11,1
4765,0,50982,61965,50352.54,61204.08,629.46,760.92,0.000000,0.000000,0.996021,85.11,1
4773,0,50983,61963,50353.80,61205.60,629.20,757.40,0.000000,0.000000,0.996044,85.11,1
4780,0,50988,61961,50355.07,61207.11,632.93,753.89,0.000000,0.000000,0.996068,85.11,1
4786,0,50982,61958,50356.32,61208.62,625.68,749.38,0.000000,0.000000,0.996093,85.11,1
4794,0,50976,61960,50357.57,61210.12,618.43,749.88,0.000000,0.000000,0.996117,85.11,1
4804,0,50985,61956,50358.82,61211.61,626.18,744.39,0.000000,0.000000,0.996142,85.11,1
4815,0,50983,61961,50360.07,61213.11,622.93,747.89,0.000000,0.000000,0.996167,85.11,1
4825,0,50982,61955,50361.32,61214.60,620.68,740.40,0.000000,0.000000,0.996192,85.11,1
4836,0,50987,61957,50362.57,61216.09,624.43,740.91,0.000000,0.000000,0.996218,85.11,1
4846,0,50977,61949,50363.80,61217.55,613.20,731.45,0.000000,0.000000,0.996244,85.10,1
4856,0,50981,61947,50365.04,61219.02,615.96,727.98,0.000000,0.000000,0.996271,85.10,1
4867,0,50977,61948,50366.27,61220.48,610.73,727.52,0.000000,0.000000,0.996298,85.10,1
4877,0,50977,61947,50367.49,61221.93,609.51,725.07,0.000000,0.000000,0.996326,85.10,1
4887,0,50977,61946,50368.71,61223.38,608.29,722.62,0.000000,0.000000,0.996354,85.10,1
4900,0,50972,61944,50369.91,61224.82,602.09,719.18,0.000000,0.000000,0.996382,85.10,1
4912,0,50975,61942,50371.12,61226.26,603.87,715.74,0.000000,0.000000,0.996411,85.10,1
4922,0,50976,61947,50372.34,61227.70,603.66,719.30,0.000000,0.000000,0.996440,85.10,1
4932,0,50971,61943,50373.54,61229.13,597.46,713.87,0.000000,0.000000,0.996470,85.10,1
4942,0,50969,61944,50374.73,61230.56,594.27,713.44,0.000000,0.000000,0.996499,85.10,1
4950,0,50976,61942,50375.93,61231.99,600.07,710.01,0.000000,0.000000,0.996530,85.10,1
4960,0,50976,61954,50377.13,61233.43,598.87,720.57,0.000000,0.000000,0.996560,85.10,1
4967,0,50973,61940,50378.32,61234.85,594.68,705.15,0.000000,0.000000,0.996591,85.10,1
4978,0,50974,61944,50379.52,61236.27,594.48,707.73,0.000000,0.000000,0.996622,85.10,1
4989,0,50969,61953,50380.70,61237.70,588.30,715.30,0.000000,0.000000,0.996652,85.10,1
4998,0,50975,61955,50381.89,61239.14,593.11,715.86,0.000000,0.000000,0.996683,85.10,1
5009,0,50978,61952,50383.08,61240.56,594.92,711.44,0.000000,0.000000,0.996714,85.09,1
5021,0,50972,61950,50384.26,61241.98,587.74,708.02,0.000000,0.000000,0.996745,85.09,1
5030,0,50971,61952,50385.44,61243.41,585.56,708.59,0.000000,0.000000,0.996776,85.09,1
5044,0,50974,61951,50386.62,61244.82,587.38,706.18,0.000000,0.000000,0.996807,85.09,1
5053,0,50976,61947,50387.80,61246.23,588.20,700.77,0.000000,0.000000,0.996838,85.09,1
5062,0,50983,61949,50388.99,61247.64,594.01,701.36,0.000000,0.000000,0.996870,85.09,1
5068,0,50977,61954,50390.16,61249.05,586.84,704.95,0.000000,0.000000,0.996902,85.09,1
5078,0,50969,61949,50391.32,61250.45,577.68,698.55,0.000000,0.000000,0.996934,85.09,1
5090,0,50981,61945,50392.50,61251.84,588.50,693.16,0.000000,0.000000,0.996966,85.09,1
5099,0,50972,61952,50393.66,61253.25,578.34,698.75,0.000000,0.000000,0.996999,85.09,1
5109,0,50979,61948,50394.84,61254.64,584.16,693.36,0.000000,0.000000,0.997032,85.09,1
5121,0,50981,61951,50396.01,61256.03,584.99,694.97,0.000000,0.000000,0.997065,85.09,1
5131,0,50978,61948,50397.17,61257.42,580.83,690.58,0.000000,0.000000,0.997098,85.09,1
5139,0,50974,61956,50398.33,61258.82,575.67,697.18,0.000000,0.000000,0.997132,85.09,1
5150,0,50976,61955,50399.48,61260.21,576.52,694.79,0.000000,0.000000,0.997165,85.08,1
5158,0,50979,61957,50400.64,61261.61,578.36,695.39,0.000000,0.000000,0.997198,85.08,1
5169,0,50970,61947,50401.79,61262.98,568.21,684.02,0.000000,0.000000,0.997232,85.08,1
5182,0,50974,61954,50402.93,61264.36,571.07,689.64,0.000000,0.000000,0.997265,85.08,1
5194,0,50976,61951,50404.08,61265.73,571.92,685.27,0.000000,0.000000,0.997299,85.08,1
5204,0,50977,61959,50405.23,61267.12,571.77,691.88,0.000000,0.000000,0.997332,85.08,1
5214,0,50973,61961,50406.36,61268.51,566.64,692.49,0.000000,0.000000,0.997365,85.08,1
5223,0,50973,61962,50407.50,61269.90,565.50,692.10,0.000000,0.000000,0.997397,85.08,1
5233,0,50980,61959,50408.64,61271.28,571.36,687.72,0.000000,0.000000,0.997429,85.08,1
5246,0,50975,61964,50409.77,61272.66,565.23,691.34,0.000000,0.000000,0.997461,85.08,1
5257,0,50979,61966,50410.91,61274.05,568.09,691.95,0.000000,0.000000,0.997493,85.08,1
5265,0,50974,61965,50412.04,61275.43,561.96,689.57,0.000000,0.000000,0.997524,85.08,1
5273,0,50972,61952,50413.16,61276.79,558.84,675.21,0.000000,0.000000,0.997555,85.08,1
5286,0,50974,61961,50414.29,61278.16,559.71,682.84,0.000000,0.000000,0.997585,85.08,1
5294,0,50979,61957,50415.41,61279.52,563.59,677.48,0.000000,0.000000,0.997616,85.07,1
5300,0,50973,61960,50416.53,61280.88,556.47,679.12,0.000000,0.000000,0.997646,85.07,1
5311,0,50975,61967,50417.65,61282.26,557.35,684.74,0.000000,0.000000,0.997676,85.07,1
5320,0,50981,61970,50418.78,61283.64,562.22,686.36,0.000000,0.000000,0.997705,85.07,1
5333,0,50975,61959,50419.89,61284.99,555.11,674.01,0.000000,0.000000,0.997734,85.07,1
5340,0,50973,61957,50421.00,61286.33,552.00,670.67,0.000000,0.000000,0.997763,85.07,1
5347,0,50977,61965,50422.11,61287.69,554.89,677.31,0.000000,0.000000,0.997792,85.07,1
5358,0,50979,61959,50423.23,61289.04,555.77,669.96,0.000000,0.000000,0.997820,85.07,1
5370,0,50975,61962,50424.33,61290.38,550.67,671.62,0.000000,0.000000,0.997848,85.07,1
5381,0,50976,61970,50425.44,61291.74,550.56,678.26,0.000000,0.000000,0.997876,85.07,1
5392,0,50973,61976,50426.54,61293.11,546.46,682.89,0.000000,0.000000,0.997902,85.07,1
5402,0,50974,61966,50427.63,61294.46,546.37,671.54,0.000000,0.000000,0.997928,85.07,1
5412,0,50976,61976,50428.73,61295.82,547.27,680.18,0.000000,0.000000,0.997953,85.07,1
5422,0,50977,61973,50429.83,61297.18,547.17,675.82,0.000000,0.000000,0.997978,85.06,1
5432,0,50980,61977,50430.93,61298.54,549.07,678.46,0.000000,0.000000,0.998001,85.06,1
5443,0,50983,61978,50432.04,61299.90,550.96,678.10,0.000000,0.000000,0.998024,85.06,1
5451,0,50986,61969,50433.14,61301.24,552.86,667.76,0.000000,0.000000,0.998047,85.06,1
5459,0,50983,61976,50434.25,61302.59,548.75,673.41,0.000000,0.000000,0.998070,85.06,1
5471,0,50980,61980,50435.34,61303.95,544.66,676.05,0.000000,0.000000,0.998092,85.06,1
5480,0,50979,61985,50436.43,61305.31,542.57,679.69,0.000000,0.000000,0.998112,85.06,1
5488,0,50991,61977,50437.54,61306.65,553.46,670.35,0.000000,0.000000,0.998133,85.06,1
5498,0,50991,61979,50438.65,61308.00,552.35,671.00,0.000000,0.000000,0.998154,85.06,1
5510,0,50989,61980,50439.75,61309.34,549.25,670.66,0.000000,0.000000,0.998174,85.06,1
5521,0,50989,61980,50440.85,61310.69,548.15,669.31,0.000000,0.000000,0.998194,85.06,1
5530,0,50992,61978,50441.96,61312.02,550.04,665.98,0.000000,0.000000,0.998213,85.06,1
5541,0,50995,61981,50443.06,61313.36,551.94,667.64,0.000000,0.000000,0.998233,85.06,1
5551,0,50991,61974,50444.16,61314.69,546.84,659.31,0.000000,0.000000,0.998253,85.06,1
5559,0,50987,61971,50445.25,61316.00,541.75,655.00,0.000000,0.000000,0.998273,85.05,1
5569,0,50988,61971,50446.33,61317.31,541.67,653.69,0.000000,0.000000,0.998293,85.05,1
5580,0,50989,61967,50447.42,61318.61,541.58,648.39,0.000000,0.000000,0.998313,85.05,1
5589,0,50985,61971,50448.50,61319.92,536.50,651.08,0.000000,0.000000,0.998333,85.05,1
5602,0,50980,61968,50449.56,61321.21,530.44,646.79,0.000000,0.000000,0.998353,85.05,1
5613,0,50987,61967,50450.64,61322.51,536.36,644.49,0.000000,0.000000,0.998373,85.05,1
5622,0,50983,61960,50451.70,61323.79,531.30,636.21,0.000000,0.000000,0.998393,85.05,1
5630,0,50986,61959,50452.77,61325.06,533.23,633.94,0.000000,0.000000,0.998414,85.05,1
5637,0,50984,61954,50453.84,61326.32,530.16,627.68,0.000000,0.000000,0.998435,85.05,1
5645,0,50976,61959,50454.88,61327.58,521.12,631.42,0.000000,0.000000,0.998456,85.05,1
5659,0,50977,61948,50455.93,61328.82,521.07,619.18,0.000000,0.000000,0.998478,85.05,1
5665,0,50978,61957,50456.98,61330.08,521.02,626.92,0.000000,0.000000,0.998500,85.05,1
5675,0,50976,61959,50458.02,61331.34,517.98,627.66,0.000000,0.000000,0.998521,85.05,1
5686,0,50979,61957,50459.06,61332.59,519.94,624.41,0.000000,0.000000,0.998543,85.05,1
5695,0,50981,61956,50460.11,61333.84,520.89,622.16,0.000000,0.000000,0.998565,85.05,1
5706,0,50987,61959,50461.16,61335.09,525.84,623.91,0.000000,0.000000,0.998588,85.05,1
5717,0,50972,61956,50462.18,61336.34,509.82,619.66,0.000000,0.000000,0.998611,85.05,1
5725,0,50982,61952,50463.22,61337.57,518.78,614.43,0.000000,0.000000,0.998634,85.05,1
5735,0,50978,61952,50464.25,61338.80,513.75,613.20,0.000000,0.000000,0.998657,85.04,1
5746,0,50974,61951,50465.27,61340.03,508.73,610.97,0.000000,0.000000,0.998680,85.04,1
5755,0,50972,61942,50466.29,61341.23,505.71,600.77,0.000000,0.000000,0.998704,85.04,1
5766,0,50977,61947,50467.31,61342.45,509.69,604.55,0.000000,0.000000,0.998729,85.04,1
5775,0,50969,61947,50468.32,61343.66,500.68,603.34,0.000000,0.000000,0.998753,85.04,1
5785,0,50974,61949,50469.33,61344.87,504.67,604.13,0.000000,0.000000,0.998778,85.04,1
5795,0,50974,61939,50470.34,61346.06,503.66,592.94,0.000000,0.000000,0.998803,85.04,1
5805,0,50969,61950,50471.34,61347.27,497.66,602.73,0.000000,0.000000,0.998828,85.04,1
5815,0,50968,61936,50472.34,61348.45,495.66,587.55,0.000000,0.000000,0.998854,85.04,1
5825,0,50968,61939,50473.33,61349.64,494.67,589.36,0.000000,0.000000,0.998880,85.04,1
5835,0,50973,61944,50474.33,61350.83,498.67,593.17,0.000000,0.000000,0.998906,85.04,1
5847,0,50971,61946,50475.32,61352.02,495.68,593.98,0.000000,0.000000,0.998932,85.04,1
5857,0,50972,61938,50476.32,61353.19,495.68,584.81,0.000000,0.000000,0.998959,85.04,1
5869,0,50967,61941,50477.30,61354.37,489.70,586.63,0.000000,0.000000,0.998986,85.04,1
5878,0,50970,61941,50478.29,61355.54,491.71,585.46,0.000000,0.000000,0.999014,85.04,1
5890,0,50972,61937,50479.28,61356.71,492.72,580.29,0.000000,0.000000,0.999042,85.04,1
5900,0,50966,61936,50480.26,61357.87,485.74,578.13,0.000000,0.000000,0.999070,85.03,1
5911,0,50966,61936,50481.23,61359.02,484.77,576.98,0.000000,0.000000,0.999099,85.03,1
5921,0,50965,61932,50482.20,61360.17,482.80,571.83,0.000000,0.000000,0.999128,85.03,1
5931,0,50967,61934,50483.17,61361.32,483.83,572.68,0.000000,0.000000,0.999158,85.03,1
5941,0,50966,61928,50484.14,61362.46,481.86,565.54,0.000000,0.000000,0.999188,85.03,1
5950,0,50964,61943,50485.10,61363.62,478.90,579.38,0.000000,0.000000,0.999218,85.03,1
5962,0,50967,61930,50486.07,61364.75,480.93,565.25,0.000000,0.000000,0.999249,85.03,1
5977,0,50966,61942,50487.03,61365.91,478.97,576.09,0.000000,0.000000,0.999280,85.03,1
5990,0,50971,61943,50488.00,61367.07,483.00,575.93,0.000000,0.000000,0.999311,85.03,1
6009,0,50973,61940,50488.97,61368.21,484.03,571.79,0.000000,0.000000,0.999342,85.03,1
6023,0,50970,61945,50489.93,61369.37,480.07,575.63,0.000000,0.000000,0.999374,85.03,1
6034,0,50971,61950,50490.90,61370.54,480.10,579.46,0.000000,0.000000,0.999405,85.03,1
6043,0,50970,61951,50491.86,61371.70,478.14,579.30,0.000000,0.000000,0.999436,85.03,1
6053,0,50971,61954,50492.82,61372.87,478.18,581.13,0.000000,0.000000,0.999467,85.03,1
6061,0,50974,61952,50493.79,61374.03,480.21,577.97,0.000000,0.000000,0.999498,85.03,1
6070,0,50972,61951,50494.74,61375.18,477.26,575.82,0.000000,0.000000,0.999529,85.03,1
6082,0,50980,61954,50495.71,61376.34,484.29,577.66,0.000000,0.000000,0.999559,85.02,1
6092,0,50974,61956,50496.67,61377.50,477.33,578.50,0.000000,0.000000,0.999590,85.02,1
6105,0,50981,61967,50497.64,61378.68,483.36,588.32,0.000000,0.000000,0.999620,85.02,1
6117,0,50986,61965,50498.62,61379.86,487.38,585.14,0.000000,0.000000,0.999651,85.02,1
6125,0,50978,61961,50499.58,61381.02,478.42,579.98,0.000000,0.000000,0.999681,85.02,1
6134,0,50983,61968,50500.55,61382.20,482.45,585.80,0.000000,0.000000,0.999711,85.02,1
6140,0,50987,61973,50501.52,61383.38,485.48,589.62,0.000000,0.000000,0.999740,85.02,1
6150,0,50994,61966,50502.50,61384.55,491.50,581.45,0.000000,0.000000,0.999771,85.02,1
6156,0,50988,61973,50503.48,61385.73,484.52,587.27,0.000000,0.000000,0.999800,85.02,1
6162,0,50989,61970,50504.45,61386.90,484.55,583.10,0.000000,0.000000,0.999830,85.02,1
6167,0,50984,61974,50505.41,61388.08,478.59,585.92,0.000000,0.000000,0.999860,85.02,1
6177,0,50989,61971,50506.38,61389.25,482.62,581.75,0.000000,0.000000,0.999889,85.02,1
6183,0,50986,61978,50507.34,61390.43,478.66,587.57,0.000000,0.000000,0.999917,85.02,1
6201,0,50991,61975,50508.31,61391.60,482.69,583.40,0.000000,0.000000,0.999946,85.02,1
6209,0,50990,61981,50509.27,61392.78,480.73,588.22,0.000000,0.000000,0.999974,85.01,1
6214,0,50990,61982,50510.23,61393.96,479.77,588.04,0.000000,0.000000,1.000001,85.01,1
6220,0,50986,61986,50511.19,61395.14,474.81,590.86,0.000000,0.000000,1.000027,85.01,1
6229,0,50996,61989,50512.16,61396.33,483.84,592.67,0.000000,0.000000,1.000053,85.01,1
6239,0,50996,61992,50513.13,61397.52,482.87,594.48,0.000000,0.000000,1.000078,85.01,1
6249,0,50998,61990,50514.10,61398.71,483.90,591.29,0.000000,0.000000,1.000103,85.01,1
6261,0,50992,61991,50515.06,61399.90,476.94,591.10,0.000000,0.000000,1.000126,85.01,1
6272,0,50990,61994,50516.01,61401.09,473.99,592.91,0.000000,0.000000,1.000149,85.01,1
6281,0,50998,61996,50516.98,61402.28,481.02,593.72,0.000000,0.000000,1.000170,85.01,1
6289,0,51000,61993,50517.95,61403.46,482.05,589.54,0.000000,0.000000,1.000192,85.01,1
6301,0,50995,61995,50518.90,61404.65,476.10,590.35,0.000000,0.000000,1.000212,85.01,1
6310,0,50993,61997,50519.85,61405.84,473.15,591.16,0.000000,0.000000,1.000231,85.01,1
6322,0,51002,61994,50520.82,61407.02,481.18,586.98,0.000000,0.000000,1.000250,85.01,1
6331,0,51002,61998,50521.78,61408.20,480.22,589.80,0.000000,0.000000,1.000268,85.01,1
6339,0,51004,61997,50522.75,61409.38,481.25,587.62,0.000000,0.000000,1.000286,85.00,1
6349,0,51005,61997,50523.71,61410.55,481.29,586.45,0.000000,0.000000,1.000304,85.00,1
6359,0,51003,62003,50524.67,61411.74,478.33,591.26,0.000000,0.000000,1.000321,85.00,1
6369,0,51001,61999,50525.62,61412.92,475.37,586.08,0.000000,0.000000,1.000337,85.00,1
6380,0,51004,61999,50526.58,61414.09,477.42,584.91,0.000000,0.000000,1.000353,85.00,1
6391,0,51004,61997,50527.54,61415.26,476.46,581.74,0.000000,0.000000,1.000368,85.00,1
6400,0,51002,62000,50528.49,61416.43,473.51,583.57,0.000000,0.000000,1.000383,85.00,1
6412,0,51003,62007,50529.44,61417.61,473.56,589.39,0.000000,0.000000,1.000396,85.00,1
6426,0,51001,62000,50530.38,61418.78,470.62,581.22,0.000000,0.000000,1.000410,85.00,1
6435,0,51008,62002,50531.34,61419.95,476.66,582.05,0.000000,0.000000,1.000422,85.00,1
6444,0,50998,62005,50532.27,61421.12,465.73,583.88,0.000000,0.000000,1.000434,85.00,1
6457,0,51005,61997,50533.22,61422.27,471.78,574.73,0.000000,0.000000,1.000445,85.00,1
6467,0,50997,62004,50534.15,61423.44,462.85,580.56,0.000000,0.000000,1.000455,85.00,1
6476,0,51000,62006,50535.08,61424.61,464.92,581.39,0.000000,0.000000,1.000464,85.00,1
6487,0,50995,62005,50536.00,61425.77,459.00,579.23,0.000000,0.000000,1.000472,85.00,1
6495,0,51002,62008,50536.94,61426.94,465.06,581.06,0.000000,0.000000,1.000479,85.00,1
6506,0,50995,62001,50537.86,61428.09,457.14,572.91,0.000000,0.000000,1.000485,85.00,1
6514,0,51005,62010,50538.79,61429.25,466.21,580.75,0.000000,0.000000,1.000489,85.00,1
6519,0,51002,62004,50539.72,61430.40,462.28,573.60,0.000000,0.000000,1.000494,85.00,1
6541,0,51001,61999,50540.64,61431.54,460.36,567.46,0.000000,0.000000,1.000497,84.99,1
6557,0,50999,61994,50541.56,61432.67,457.44,561.33,0.000000,0.000000,1.000500,84.99,1
6570,0,50996,61987,50542.47,61433.78,453.53,553.22,0.000000,0.000000,1.000503,84.99,1
6580,0,51000,61984,50543.39,61434.88,456.61,549.12,0.000000,0.000000,1.000506,84.99,1
6590,0,50992,61980,50544.29,61435.97,447.71,544.03,0.000000,0.000000,1.000510,84.99,1
6600,0,50992,61985,50545.19,61437.07,446.81,547.93,0.000000,0.000000,1.000512,84.99,1
6609,0,50994,61983,50546.09,61438.17,447.91,544.83,0.000000,0.000000,1.000515,84.99,1
6617,0,50994,61974,50546.98,61439.24,447.02,534.76,0.000000,0.000000,1.000518,84.99,1
6624,0,50994,61976,50547.88,61440.32,446.12,535.68,0.000000,0.000000,1.000522,84.99,1
6634,0,50989,61978,50548.76,61441.39,440.24,536.61,0.000000,0.000000,1.000525,84.99,1
6651,0,50986,61981,50549.64,61442.48,436.36,538.52,0.000000,0.000000,1.000528,84.99,1
6660,0,50987,61970,50550.51,61443.53,436.49,526.47,0.000000,0.000000,1.000532,84.99,1
6668,0,50988,61977,50551.39,61444.60,436.61,532.40,0.000000,0.000000,1.000535,84.99,1
6682,0,50997,61974,50552.28,61445.66,444.72,528.34,0.000000,0.000000,1.000538,84.99,1
6690,0,50984,61975,50553.14,61446.72,430.86,528.28,0.000000,0.000000,1.000541,84.99,1
6697,0,50987,61976,50554.01,61447.78,432.99,528.22,0.000000,0.000000,1.000545,84.99,1
6702,0,50986,61969,50554.87,61448.82,431.12,520.18,0.000000,0.000000,1.000548,84.99,1
6706,0,50991,61965,50555.75,61449.86,435.25,515.14,0.000000,0.000000,1.000552,84.99,1
6711,0,50984,61962,50556.61,61450.88,427.39,511.12,0.000000,0.000000,1.000556,84.99,1
6717,0,50982,61965,50557.46,61451.91,424.54,513.09,0.000000,0.000000,1.000561,84.99,1
6729,0,50986,61966,50558.32,61452.95,427.68,513.05,0.000000,0.000000,1.000566,84.99,1
6738,0,50988,61966,50559.18,61453.97,428.82,512.03,0.000000,0.000000,1.000571,84.99,1
6749,0,50995,61972,50560.05,61455.01,434.95,516.99,0.000000,0.000000,1.000577,84.99,1
6761,0,50990,61968,50560.91,61456.04,429.09,511.96,0.000000,0.000000,1.000584,84.99,1
6770,0,50988,61963,50561.77,61457.05,426.23,505.95,0.000000,0.000000,1.000591,84.99,1
6781,0,50984,61966,50562.61,61458.07,421.39,507.93,0.000000,0.000000,1.000598,84.99,1
6789,0,50984,61958,50563.46,61459.07,420.54,498.93,0.000000,0.000000,1.000605,84.99,1
6800,0,50984,61967,50564.30,61460.09,419.70,506.91,0.000000,0.000000,1.000613,84.99,1
6809,0,50983,61964,50565.14,61461.10,417.86,502.90,0.000000,0.000000,1.000621,84.99,1
6820,0,50980,61971,50565.97,61462.12,414.03,508.88,0.000000,0.000000,1.000629,84.99,1
6832,0,50986,61967,50566.81,61463.13,419.19,503.87,0.000000,0.000000,1.000637,84.99,1
6849,0,50984,61969,50567.65,61464.14,416.35,504.86,0.000000,0.000000,1.000645,84.99,1
6858,0,50985,61966,50568.48,61465.14,416.52,500.86,0.000000,0.000000,1.000653,84.99,1
6867,0,50984,61964,50569.32,61466.14,414.68,497.86,0.000000,0.000000,1.000661,84.99,1
6874,0,50982,61978,50570.14,61467.17,411.86,510.83,0.000000,0.000000,1.000669,84.99,1
6879,0,50982,61976,50570.97,61468.19,411.03,507.81,0.000000,0.000000,1.000676,84.99,1
6890,0,50981,61971,50571.79,61469.20,409.21,501.80,0.000000,0.000000,1.000682,84.99,1
6902,0,50994,61972,50572.64,61470.20,421.36,501.80,0.000000,0.000000,1.000690,84.99,1
6911,0,50980,61965,50573.45,61471.20,406.55,493.80,0.000000,0.000000,1.000697,84.99,1
6921,0,50975,61963,50574.26,61472.18,400.74,490.82,0.000000,0.000000,1.000703,84.99,1
6931,0,50980,61956,50575.07,61473.15,404.93,482.85,0.000000,0.000000,1.000711,84.99,1
6941,0,50978,61954,50575.88,61474.11,402.12,479.89,0.000000,0.000000,1.000718,84.99,1
6952,0,50981,61949,50576.69,61475.07,404.31,473.93,0.000000,0.000000,1.000727,84.99,1
6962,0,50983,61955,50577.50,61476.03,405.50,478.97,0.000000,0.000000,1.000736,84.99,1
6972,0,50986,61959,50578.32,61477.00,407.68,482.00,0.000000,0.000000,1.000746,84.99,1
6982,0,50988,61960,50579.14,61477.96,408.86,482.04,0.000000,0.000000,1.000757,84.98,1
6991,0,50985,61965,50579.95,61478.94,405.05,486.06,0.000000,0.000000,1.000768,84.98,1
7001,0,50989,61964,50580.77,61479.91,408.23,484.09,0.000000,0.000000,1.000779,84.98,1
7009,0,50983,61963,50581.58,61480.88,401.42,482.12,0.000000,0.000000,1.000791,84.98,1
7020,0,50982,61971,50582.38,61481.86,399.62,489.14,0.000000,0.000000,1.000803,84.98,1
7032,0,50990,61964,50583.20,61482.83,406.80,481.17,0.000000,0.000000,1.000815,84.98,1
7042,0,50990,61975,50584.01,61483.81,405.99,491.19,0.000000,0.000000,1.000827,84.98,1
7048,0,50989,61986,50584.82,61484.82,404.18,501.18,0.000000,0.000000,1.000838,84.98,1
7060,0,50990,61988,50585.64,61485.83,404.36,502.17,0.000000,0.000000,1.000849,84.98,1
7072,0,50996,61984,50586.46,61486.82,409.54,497.18,0.000000,0.000000,1.000859,84.98,1
7081,0,50992,61991,50587.27,61487.84,404.73,503.16,0.000000,0.000000,1.000868,84.98,1
7093,0,50998,61990,50588.09,61488.84,409.91,501.16,0.000000,0.000000,1.000878,84.98,1
7102,0,50998,61994,50588.91,61489.86,409.09,504.14,0.000000,0.000000,1.000886,84.98,1
7111,0,50999,62002,50589.73,61490.88,409.27,511.12,0.000000,0.000000,1.000894,84.98,1
7120,0,51007,62003,50590.57,61491.91,416.43,511.09,0.000000,0.000000,1.000901,84.98,1
7133,0,51006,62001,50591.40,61492.93,414.60,508.07,0.000000,0.000000,1.000908,84.98,1
7146,0,51009,61999,50592.24,61493.95,416.76,505.05,0.000000,0.000000,1.000914,84.98,1
7159,0,51008,61996,50593.07,61494.95,414.93,501.05,0.000000,0.000000,1.000921,84.98,1
7168,0,51007,62004,50593.90,61495.97,413.10,508.03,0.000000,0.000000,1.000927,84.98,1
7177,0,51009,62001,50594.73,61496.98,414.27,504.02,0.000000,0.000000,1.000934,84.98,1
7184,0,51009,62003,50595.56,61497.99,413.44,505.01,0.000000,0.000000,1.000939,84.98,1
7190,0,51013,61997,50596.39,61498.99,416.61,498.01,0.000000,0.000000,1.000946,84.98,1
7199,0,51011,61999,50597.23,61499.99,413.77,499.01,0.000000,0.000000,1.000952,84.98,1
7208,0,51021,62005,50598.07,61501.00,422.93,504.00,0.000000,0.000000,1.000960,84.98,1
7219,0,51016,62009,50598.91,61502.02,417.09,506.98,0.000000,0.000000,1.000967,84.98,1
7231,0,51013,62000,50599.74,61503.02,413.26,496.98,0.000000,0.000000,1.000974,84.98,1
7239,0,51012,62002,50600.56,61504.02,411.44,497.98,0.000000,0.000000,1.000981,84.98,1
7250,0,51011,61998,50601.38,61505.01,409.62,492.99,0.000000,0.000000,1.000989,84.98,1
7262,0,51011,61995,50602.20,61505.99,408.80,489.01,0.000000,0.000000,1.000996,84.98,1
7270,0,51009,61996,50603.02,61506.97,405.98,489.03,0.000000,0.000000,1.001005,84.98,1
7280,0,51004,61997,50603.82,61507.95,400.18,489.05,0.000000,0.000000,1.001012,84.98,1
7289,0,51009,61999,50604.64,61508.93,404.36,490.07,0.000000,0.000000,1.001020,84.98,1
7299,0,51007,61994,50605.44,61509.91,401.56,484.09,0.000000,0.000000,1.001028,84.98,1
7311,0,51008,61995,50606.25,61510.88,401.75,484.12,0.000000,0.000000,1.001036,84.98,1
7323,0,51011,61993,50607.06,61511.84,403.94,481.16,0.000000,0.000000,1.001045,84.98,1
7332,0,51011,61997,50607.87,61512.82,403.13,484.18,0.000000,0.000000,1.001053,84.98,1
7342,0,51005,61997,50608.66,61513.79,396.34,483.21,0.000000,0.000000,1.001062,84.98,1
7352,0,51005,61998,50609.46,61514.75,395.54,483.25,0.000000,0.000000,1.001070,84.98,1
7363,0,51003,61996,50610.25,61515.72,392.75,480.28,0.000000,0.000000,1.001078,84.98,1
7372,0,51009,61996,50611.04,61516.68,397.96,479.32,0.000000,0.000000,1.001086,84.98,1
7381,0,51002,61996,50611.83,61517.64,390.17,478.36,0.000000,0.000000,1.001094,84.98,1
7392,0,51008,61995,50612.62,61518.60,395.38,476.40,0.000000,0.000000,1.001102,84.98,1
7400,0,51012,61998,50613.42,61519.56,398.58,478.44,0.000000,0.000000,1.001110,84.98,1
7409,0,51008,61999,50614.21,61520.52,393.79,478.48,0.000000,0.000000,1.001118,84.98,1
7419,0,51010,61997,50615.00,61521.47,395.00,475.53,0.000000,0.000000,1.001126,84.98,1
7431,0,51013,62000,50615.80,61522.43,397.20,477.57,0.000000,0.000000,1.001135,84.98,1
7441,0,51009,61996,50616.59,61523.38,392.41,472.62,0.000000,0.000000,1.001143,84.98,1
7451,0,51010,61994,50617.38,61524.32,392.62,469.68,0.000000,0.000000,1.001153,84.98,1
7460,0,51011,61979,50618.17,61525.23,392.83,453.77,0.000000,0.000000,1.001163,84.97,1
7473,0,50999,61982,50618.93,61526.14,380.07,455.86,0.000000,0.000000,1.001174,84.97,1
7482,0,51000,61982,50619.69,61527.06,380.31,454.94,0.000000,0.000000,1.001185,84.97,1
7493,0,50997,61984,50620.45,61527.97,376.55,456.03,0.000000,0.000000,1.001196,84.97,1
7500,0,51003,61978,50621.21,61528.87,381.79,449.12,0.000000,0.000000,1.001208,84.97,1
7511,0,51001,61975,50621.98,61529.77,379.02,445.23,0.000000,0.000000,1.001221,84.97,1
7522,0,50992,61980,50622.72,61530.67,369.28,449.33,0.000000,0.000000,1.001233,84.97,1
7532,0,50997,61971,50623.47,61531.55,373.53,439.45,0.000000,0.000000,1.001246,84.97,1
7543,0,50992,61977,50624.21,61532.45,367.79,444.55,0.000000,0.000000,1.001260,84.97,1
7553,0,50995,61969,50624.95,61533.32,370.05,435.68,0.000000,0.000000,1.001274,84.97,1
7561,0,50994,61967,50625.69,61534.19,368.31,432.81,0.000000,0.000000,1.001289,84.97,1
7574,0,50993,61969,50626.42,61535.06,366.58,433.94,0.000000,0.000000,1.001304,84.97,1
7582,0,50994,61964,50627.16,61535.92,366.84,428.08,0.000000,0.000000,1.001321,84.97,1
7593,0,50988,61969,50627.88,61536.79,360.12,432.21,0.000000,0.000000,1.001337,84.97,1
7603,0,50996,61964,50628.62,61537.64,367.38,426.36,0.000000,0.000000,1.001355,84.97,1
7613,0,50989,61971,50629.34,61538.51,359.66,432.49,0.000000,0.000000,1.001373,84.97,1
7623,0,50993,61965,50630.07,61539.36,362.93,425.64,0.000000,0.000000,1.001392,84.97,1
7631,0,50994,61965,50630.80,61540.21,363.20,424.79,0.000000,0.000000,1.001411,84.97,1
7642,0,50984,61969,50631.51,61541.07,352.49,427.93,0.000000,0.000000,1.001430,84.97,1
7653,0,50986,61966,50632.22,61541.93,353.78,424.07,0.000000,0.000000,1.001450,84.97,1
7664,0,50988,61958,50632.93,61542.76,355.07,415.24,0.000000,0.000000,1.001470,84.97,1
7672,0,50990,61965,50633.65,61543.61,356.35,421.39,0.000000,0.000000,1.001491,84.97,1
7683,0,50986,61968,50634.36,61544.46,351.64,423.54,0.000000,0.000000,1.001512,84.97,1
7692,0,50991,61969,50635.07,61545.31,355.93,423.69,0.000000,0.000000,1.001533,84.97,1
7702,0,50985,61969,50635.77,61546.16,349.23,422.84,0.000000,0.000000,1.001554,84.97,1
7713,0,50988,61972,50636.48,61547.01,351.52,424.99,0.000000,0.000000,1.001575,84.97,1
7724,0,50983,61966,50637.17,61547.85,345.83,418.15,0.000000,0.000000,1.001596,84.97,1
7734,0,50987,61969,50637.87,61548.69,349.13,420.31,0.000000,0.000000,1.001617,84.97,1
7742,0,50985,61963,50638.57,61549.52,346.43,413.48,0.000000,0.000000,1.001638,84.97,1
7752,0,50982,61975,50639.25,61550.37,342.75,424.62,0.000000,0.000000,1.001658,84.97,1
7763,0,50986,61971,50639.95,61551.22,346.05,419.78,0.000000,0.000000,1.001678,84.97,1
7773,0,50993,61976,50640.66,61552.07,352.34,423.93,0.000000,0.000000,1.001698,84.97,1
7782,0,50994,61970,50641.36,61552.91,352.64,417.09,0.000000,0.000000,1.001719,84.96,1
7790,0,50987,61973,50642.05,61553.75,344.95,419.25,0.000000,0.000000,1.001739,84.96,1
7801,0,50987,61975,50642.75,61554.59,344.25,420.41,0.000000,0.000000,1.001759,84.96,1
7813,0,50995,61977,50643.45,61555.44,351.55,421.56,0.000000,0.000000,1.001779,84.96,1
7823,0,50997,61979,50644.16,61556.29,352.84,422.71,0.000000,0.000000,1.001799,84.96,1
7831,0,50993,61979,50644.86,61557.13,348.14,421.87,0.000000,0.000000,1.001819,84.96,1
7840,0,50996,61976,50645.56,61557.97,350.44,418.03,0.000000,0.000000,1.001840,84.96,1
7851,0,50997,61984,50646.27,61558.83,350.73,425.17,0.000000,0.000000,1.001860,84.96,1
7860,0,50997,61979,50646.97,61559.67,350.03,419.33,0.000000,0.000000,1.001880,84.96,1
7874,0,50991,61990,50647.66,61560.54,343.34,429.46,0.000000,0.000000,1.001899,84.96,1
7882,0,50995,61986,50648.35,61561.39,346.65,424.61,0.000000,0.000000,1.001918,84.96,1
7896,0,50997,61986,50649.05,61562.24,347.95,423.76,0.000000,0.000000,1.001936,84.96,1
7906,0,50999,61985,50649.75,61563.09,349.25,421.91,0.000000,0.000000,1.001954,84.96,1
7917,0,50999,61997,50650.45,61563.96,348.55,433.04,0.000000,0.000000,1.001972,84.96,1
7926,0,51000,61990,50651.15,61564.81,348.85,425.19,0.000000,0.000000,1.001989,84.96,1
7936,0,51001,61997,50651.85,61565.68,349.15,431.32,0.000000,0.000000,1.002005,84.96,1
7944,0,51004,61994,50652.56,61566.54,351.44,427.46,0.000000,0.000000,1.002020,84.96,1
7952,0,51010,61994,50653.27,61567.39,356.73,426.61,0.000000,0.000000,1.002037,84.96,1
7963,0,51007,61991,50653.98,61568.24,353.02,422.76,0.000000,0.000000,1.002053,84.96,1
7972,0,51003,61999,50654.68,61569.11,348.32,429.89,0.000000,0.000000,1.002069,84.96,1
7983,0,51002,61997,50655.37,61569.96,346.62,427.04,0.000000,0.000000,1.002083,84.96,1
7992,0,51014,61999,50656.09,61570.82,357.91,428.18,0.000000,0.000000,1.002099,84.96,1
8002,0,51008,61995,50656.80,61571.67,351.20,423.33,0.000000,0.000000,1.002114,84.96,1
8012,0,51010,62001,50657.51,61572.53,352.49,428.47,0.000000,0.000000,1.002129,84.95,1
8023,0,51013,62002,50658.22,61573.39,354.78,428.61,0.000000,0.000000,1.002144,84.95,1
8033,0,51012,61999,50658.93,61574.24,353.07,424.76,0.000000,0.000000,1.002159,84.95,1
8043,0,51005,61997,50659.62,61575.09,345.38,421.91,0.000000,0.000000,1.002173,84.95,1
8056,0,51009,61997,50660.32,61575.93,348.68,421.07,0.000000,0.000000,1.002188,84.95,1
8064,0,51015,62001,50661.03,61576.79,353.97,424.21,0.000000,0.000000,1.002203,84.95,1
8074,0,51013,62005,50661.74,61577.64,351.26,427.36,0.000000,0.000000,1.002217,84.95,1
8083,0,51010,61999,50662.44,61578.49,347.56,420.51,0.000000,0.000000,1.002232,84.95,1
8092,0,51011,62003,50663.14,61579.34,347.86,423.66,0.000000,0.000000,1.002246,84.95,1
8103,0,51013,62002,50663.84,61580.19,349.16,421.81,0.000000,0.000000,1.002260,84.95,1
8113,0,51003,62003,50664.52,61581.04,338.48,421.96,0.000000,0.000000,1.002273,84.95,1
8122,0,51006,62000,50665.20,61581.87,340.80,418.12,0.000000,0.000000,1.002285,84.95,1
8132,0,51003,62000,50665.87,61582.71,337.12,417.29,0.000000,0.000000,1.002297,84.95,1
8140,0,51009,62006,50666.56,61583.56,342.44,422.44,0.000000,0.000000,1.002308,84.95,1
8152,0,51011,62000,50667.25,61584.39,343.75,415.61,0.000000,0.000000,1.002319,84.95,1
8163,0,51004,61996,50667.93,61585.22,336.07,410.78,0.000000,0.000000,1.002330,84.95,1
8173,0,51007,61991,50668.61,61586.03,338.39,404.97,0.000000,0.000000,1.002341,84.95,1
8182,0,51001,61993,50669.28,61586.85,331.72,406.15,0.000000,0.000000,1.002351,84.95,1
8193,0,51003,61987,50669.95,61587.65,333.05,399.35,0.000000,0.000000,1.002362,84.95,1
8204,0,50997,61983,50670.60,61588.44,326.40,394.56,0.000000,0.000000,1.002373,84.95,1
8212,0,50996,61993,50671.25,61589.25,324.75,403.75,0.000000,0.000000,1.002382,84.95,1
8222,0,50995,61982,50671.90,61590.04,323.10,391.96,0.000000,0.000000,1.002392,84.95,1
8234,0,50992,61985,50672.54,61590.83,319.46,394.17,0.000000,0.000000,1.002401,84.95,1
8242,0,50993,61981,50673.18,61591.61,319.82,389.39,0.000000,0.000000,1.002410,84.95,1
8251,0,50992,61977,50673.82,61592.39,318.18,384.61,0.000000,0.000000,1.002419,84.95,1
8261,0,50992,61975,50674.46,61593.15,317.54,381.85,0.000000,0.000000,1.002428,84.95,1
8273,0,50996,61978,50675.11,61593.92,320.89,384.08,0.000000,0.000000,1.002437,84.95,1
8282,0,50998,61975,50675.75,61594.69,322.25,380.31,0.000000,0.000000,1.002447,84.94,1
8293,0,50986,61976,50676.37,61595.45,309.62,380.55,0.000000,0.000000,1.002456,84.94,1
8301,0,50989,61972,50677.00,61596.21,312.00,375.79,0.000000,0.000000,1.002466,84.94,1
8311,0,50987,61973,50677.62,61596.96,309.38,376.04,0.000000,0.000000,1.002475,84.94,1
8322,0,50983,61968,50678.23,61597.70,304.77,370.30,0.000000,0.000000,1.002484,84.94,1
8330,0,50985,61961,50678.85,61598.43,306.15,362.57,0.000000,0.000000,1.002494,84.94,1
8346,0,50978,61956,50679.45,61599.14,298.55,356.86,0.000000,0.000000,1.002504,84.94,1
8357,0,50982,61956,50680.05,61599.86,301.95,356.14,0.000000,0.000000,1.002515,84.94,1
8365,0,50975,61953,50680.64,61600.57,294.36,352.43,0.000000,0.000000,1.002526,84.94,1
8375,0,50972,61943,50681.23,61601.25,290.77,341.75,0.000000,0.000000,1.002537,84.94,1
8385,0,50973,61949,50681.82,61601.95,291.18,347.05,0.000000,0.000000,1.002549,84.94,1
8392,0,50976,61947,50682.41,61602.64,293.59,344.36,0.000000,0.000000,1.002562,84.94,1
8404,0,50976,61948,50683.00,61603.33,293.00,344.67,0.000000,0.000000,1.002575,84.94,1
8413,0,50975,61945,50683.58,61604.02,291.42,340.98,0.000000,0.000000,1.002589,84.94,1
8425,0,50970,61940,50684.16,61604.69,285.84,335.31,0.000000,0.000000,1.002604,84.94,1
8437,0,50970,61946,50684.73,61605.37,285.27,340.63,0.000000,0.000000,1.002619,84.94,1
8446,0,50972,61935,50685.30,61606.03,286.70,328.97,0.000000,0.000000,1.002635,84.94,1
8457,0,50967,61941,50685.87,61606.70,281.13,334.30,0.000000,0.000000,1.002652,84.94,1
8467,0,50969,61937,50686.44,61607.37,282.56,329.63,0.000000,0.000000,1.002669,84.94,1
8480,0,50965,61942,50687.00,61608.04,278.00,333.96,0.000000,0.000000,1.002687,84.94,1
8491,0,50972,61935,50687.57,61608.70,284.43,326.30,0.000000,0.000000,1.002705,84.94,1
8500,0,50962,61945,50688.12,61609.37,273.88,335.63,0.000000,0.000000,1.002723,84.94,1
8505,0,50962,61943,50688.67,61610.04,273.33,332.96,0.000000,0.000000,1.002741,84.94,1
8510,0,50955,61933,50689.20,61610.69,265.80,322.31,0.000000,0.000000,1.002759,84.94,1
8519,0,50963,61942,50689.75,61611.35,273.25,330.65,0.000000,0.000000,1.002776,84.94,1
8529,0,50966,61943,50690.31,61612.02,275.69,330.98,0.000000,0.000000,1.002794,84.94,1
8540,0,50960,61934,50690.85,61612.66,269.15,321.34,0.000000,0.000000,1.002811,84.94,1
8551,0,50959,61941,50691.39,61613.32,267.61,327.68,0.000000,0.000000,1.002829,84.94,1
8562,0,50962,61948,50691.93,61613.99,270.07,334.01,0.000000,0.000000,1.002845,84.94,1
8574,0,50962,61945,50692.47,61614.66,269.53,330.34,0.000000,0.000000,1.002862,84.94,1
8586,0,50967,61944,50693.02,61615.32,273.98,328.68,0.000000,0.000000,1.002878,84.94,1
8595,0,50962,61941,50693.56,61615.97,268.44,325.03,0.000000,0.000000,1.002894,84.93,1
8605,0,50966,61944,50694.11,61616.62,271.89,327.37,0.000000,0.000000,1.002910,84.93,1
8615,0,50965,61956,50694.65,61617.30,270.35,338.70,0.000000,0.000000,1.002926,84.93,1
8625,0,50970,61948,50695.20,61617.97,274.80,330.03,0.000000,0.000000,1.002941,84.93,1
8635,0,50971,61947,50695.76,61618.63,275.24,328.37,0.000000,0.000000,1.002956,84.93,1
8644,0,50974,61954,50696.32,61619.30,277.68,334.70,0.000000,0.000000,1.002972,84.93,1
8653,0,50974,61948,50696.87,61619.96,277.12,328.04,0.000000,0.000000,1.002988,84.93,1
8664,0,50969,61947,50697.42,61620.62,271.58,326.38,0.000000,0.000000,1.003004,84.93,1
8672,0,50972,61944,50697.97,61621.27,274.03,322.73,0.000000,0.000000,1.003020,84.93,1
8683,0,50967,61948,50698.51,61621.92,268.49,326.08,0.000000,0.000000,1.003037,84.93,1
8692,0,50971,61955,50699.06,61622.59,271.94,332.41,0.000000,0.000000,1.003053,84.93,1
8701,0,50967,61951,50699.60,61623.25,267.40,327.75,0.000000,0.000000,1.003068,84.93,1
8710,0,50971,61962,50700.14,61623.93,270.86,338.07,0.000000,0.000000,1.003083,84.93,1
8719,0,50969,61957,50700.68,61624.60,268.32,332.40,0.000000,0.000000,1.003096,84.93,1
8733,0,50970,61958,50701.22,61625.27,268.78,332.73,0.000000,0.000000,1.003109,84.93,1
8742,0,50971,61963,50701.76,61625.94,269.24,337.06,0.000000,0.000000,1.003121,84.93,1
8754,0,50977,61969,50702.31,61626.63,274.69,342.37,0.000000,0.000000,1.003132,84.93,1
8763,0,50976,61960,50702.86,61627.30,273.14,332.70,0.000000,0.000000,1.003143,84.93,1
8775,0,50973,61966,50703.40,61627.98,269.60,338.02,0.000000,0.000000,1.003153,84.93,1
8784,0,50970,61968,50703.93,61628.66,266.07,339.34,0.000000,0.000000,1.003161,84.93,1
8794,0,50982,61972,50704.49,61629.34,277.51,342.66,0.000000,0.000000,1.003168,84.93,1
8804,0,50980,61970,50705.04,61630.03,274.96,339.97,0.000000,0.000000,1.003175,84.93,1
8814,0,50980,61974,50705.59,61630.72,274.41,343.28,0.000000,0.000000,1.003181,84.93,1
8823,0,50985,61972,50706.15,61631.40,278.85,340.60,0.000000,0.000000,1.003186,84.93,1
8835,0,50978,61976,50706.70,61632.09,271.30,343.91,0.000000,0.000000,1.003190,84.93,1
8845,0,50985,61976,50707.26,61632.78,277.74,343.22,0.000000,0.000000,1.003194,84.93,1
8854,0,50988,61969,50707.82,61633.46,280.18,335.54,0.000000,0.000000,1.003198,84.93,1
8864,0,50984,61969,50708.37,61634.13,275.62,334.87,0.000000,0.000000,1.003201,84.93,1
8874,0,50989,61975,50708.94,61634.81,280.06,340.19,0.000000,0.000000,1.003205,84.92,1
8885,0,50982,61982,50709.48,61635.51,272.52,346.49,0.000000,0.000000,1.003207,84.92,1
8895,0,50980,61974,50710.03,61636.19,269.97,337.81,0.000000,0.000000,1.003208,84.92,1
8905,0,50984,61972,50710.58,61636.86,273.42,335.14,0.000000,0.000000,1.003209,84.92,1
8917,0,50981,61971,50711.12,61637.53,269.88,333.47,0.000000,0.000000,1.003209,84.92,1
8927,0,50985,61968,50711.67,61638.19,273.33,329.81,0.000000,0.000000,1.003209,84.92,1
8935,0,50981,61978,50712.21,61638.87,268.79,339.13,0.000000,0.000000,1.003208,84.92,1
8946,0,50986,61974,50712.76,61639.54,273.24,334.46,0.000000,0.000000,1.003207,84.92,1
8955,0,50986,61976,50713.31,61640.22,272.69,335.78,0.000000,0.000000,1.003205,84.92,1
8963,0,50983,61968,50713.85,61640.87,269.15,327.12,0.000000,0.000000,1.003203,84.92,1
8974,0,50977,61968,50714.37,61641.53,262.62,326.47,0.000000,0.000000,1.003201,84.92,1
8984,0,50984,61968,50714.91,61642.19,269.09,325.81,0.000000,0.000000,1.003198,84.92,1
8993,0,50969,61964,50715.42,61642.83,253.58,321.17,0.000000,0.000000,1.003194,84.92,1
9004,0,50979,61966,50715.95,61643.48,263.05,322.52,0.000000,0.000000,1.003190,84.92,1
9014,0,50974,61972,50716.46,61644.14,257.54,327.86,0.000000,0.000000,1.003185,84.92,1
9025,0,50979,61975,50716.99,61644.80,262.01,330.20,0.000000,0.000000,1.003178,84.92,1
9034,0,50979,61969,50717.52,61645.45,261.48,323.55,0.000000,0.000000,1.003171,84.92,1
9044,0,50972,61972,50718.03,61646.11,253.97,325.89,0.000000,0.000000,1.003163,84.92,1
9054,0,50978,61967,50718.55,61646.75,259.45,320.25,0.000000,0.000000,1.003154,84.92,1
9064,0,50980,61978,50719.07,61647.42,260.93,330.58,0.000000,0.000000,1.003143,84.92,1
9075,0,50976,61968,50719.59,61648.06,256.41,319.94,0.000000,0.000000,1.003132,84.92,1
9084,0,50976,61963,50720.10,61648.70,255.90,314.30,0.000000,0.000000,1.003121,84.92,1
9095,0,50974,61969,50720.61,61649.34,253.39,319.66,0.000000,0.000000,1.003109,84.92,1
9103,0,50975,61963,50721.12,61649.96,253.88,313.04,0.000000,0.000000,1.003096,84.92,1
9114,0,50969,61961,50721.62,61650.59,247.38,310.41,0.000000,0.000000,1.003083,84.92,1
9124,0,50969,61964,50722.11,61651.22,246.89,312.78,0.000000,0.000000,1.003068,84.92,1
9133,0,50972,61959,50722.61,61651.84,249.39,307.16,0.000000,0.000000,1.003053,84.92,1
9142,0,50970,61956,50723.11,61652.45,246.89,303.55,0.000000,0.000000,1.003038,84.92,1
9151,0,50972,61956,50723.61,61653.05,248.39,302.95,0.000000,0.000000,1.003023,84.92,1
9160,0,50967,61956,50724.10,61653.66,242.90,302.34,0.000000,0.000000,1.003007,84.92,1
9172,0,50966,61952,50724.58,61654.26,241.42,297.74,0.000000,0.000000,1.002991,84.92,1
9181,0,50956,61949,50725.05,61654.85,230.95,294.15,0.000000,0.000000,1.002974,84.92,1
9192,0,50962,61943,50725.52,61655.43,236.48,287.57,0.000000,0.000000,1.002957,84.92,1
9201,0,50955,61946,50725.98,61656.01,229.02,289.99,0.000000,0.000000,1.002939,84.92,1
9211,0,50956,61935,50726.45,61656.57,229.55,278.43,0.000000,0.000000,1.002922,84.92,1
9221,0,50957,61934,50726.91,61657.12,230.09,276.87,0.000000,0.000000,1.002904,84.92,1
9231,0,50952,61938,50727.36,61657.69,224.64,280.31,0.000000,0.000000,1.002886,84.92,1
9240,0,50955,61936,50727.82,61658.25,227.18,277.75,0.000000,0.000000,1.002868,84.92,1
9250,0,50949,61928,50728.26,61658.79,220.74,269.21,0.000000,0.000000,1.002851,84.92,1
9259,0,50956,61931,50728.72,61659.34,227.28,271.66,0.000000,0.000000,1.002833,84.92,1
9269,0,50953,61934,50729.17,61659.89,223.83,274.11,0.000000,0.000000,1.002816,84.92,1
9282,0,50956,61930,50729.62,61660.43,226.38,269.57,0.000000,0.000000,1.002799,84.93,1
9291,0,50947,61927,50730.06,61660.96,216.94,266.04,0.000000,0.000000,1.002782,84.93,1
9301,0,50951,61918,50730.50,61661.48,220.50,256.52,0.000000,0.000000,1.002766,84.93,1
9310,0,50946,61927,50730.93,61662.01,215.07,264.99,0.000000,0.000000,1.002749,84.93,1
9320,0,50946,61925,50731.36,61662.54,214.64,262.46,0.000000,0.000000,1.002733,84.93,1
9331,0,50944,61924,50731.79,61663.06,212.21,260.94,0.000000,0.000000,1.002717,84.93,1
9341,0,50945,61919,50732.22,61663.57,212.78,255.43,0.000000,0.000000,1.002701,84.93,1
9351,0,50947,61917,50732.65,61664.08,214.35,252.92,0.000000,0.000000,1.002686,84.93,1
9361,0,50948,61916,50733.08,61664.59,214.92,251.41,0.000000,0.000000,1.002671,84.93,1
9371,0,50947,61921,50733.51,61665.10,213.49,255.90,0.000000,0.000000,1.002657,84.93,1
9382,0,50939,61914,50733.93,61665.60,205.07,248.40,0.000000,0.000000,1.002644,84.93,1
9391,0,50941,61910,50734.34,61666.09,206.66,243.91,0.000000,0.000000,1.002630,84.93,1
9401,0,50941,61914,50734.75,61666.59,206.25,247.41,0.000000,0.000000,1.002618,84.93,1
9413,0,50936,61914,50735.16,61667.09,200.84,246.91,0.000000,0.000000,1.002605,84.93,1
9422,0,50939,61917,50735.57,61667.59,203.43,249.41,0.000000,0.000000,1.002592,84.93,1
9435,0,50933,61915,50735.96,61668.08,197.04,246.92,0.000000,0.000000,1.002578,84.93,1
9445,0,50939,61912,50736.37,61668.57,202.63,243.43,0.000000,0.000000,1.002565,84.93,1
9455,0,50932,61912,50736.76,61669.06,195.24,242.94,0.000000,0.000000,1.002551,84.93,1
9464,0,50937,61908,50737.16,61669.54,199.84,238.46,0.000000,0.000000,1.002538,84.93,1
9472,0,50935,61919,50737.56,61670.04,197.44,248.96,0.000000,0.000000,1.002524,84.93,1
9483,0,50931,61915,50737.95,61670.53,193.05,244.47,0.000000,0.000000,1.002509,84.93,1
9493,0,50930,61917,50738.33,61671.03,191.67,245.97,0.000000,0.000000,1.002493,84.93,1
9505,0,50930,61921,50738.71,61671.53,191.29,249.47,0.000000,0.000000,1.002476,84.93,1
9515,0,50939,61913,50739.12,61672.01,199.88,240.99,0.000000,0.000000,1.002459,84.93,1
9525,0,50939,61917,50739.52,61672.50,199.48,244.50,0.000000,0.000000,1.002442,84.93,1
9535,0,50943,61913,50739.93,61672.99,203.07,240.01,0.000000,0.000000,1.002426,84.93,1
9543,0,50934,61909,50740.32,61673.46,193.68,235.54,0.000000,0.000000,1.002410,84.93,1
9551,0,50935,61914,50740.71,61673.95,194.29,240.05,0.000000,0.000000,1.002393,84.93,1
9565,0,50933,61921,50741.10,61674.44,191.90,246.56,0.000000,0.000000,1.002376,84.93,1
9575,0,50936,61913,50741.49,61674.92,194.51,238.08,0.000000,0.000000,1.002358,84.93,1
9589,0,50937,61917,50741.88,61675.41,195.12,241.59,0.000000,0.000000,1.002340,84.93,1
9602,0,50929,61914,50742.25,61675.89,186.75,238.11,0.000000,0.000000,1.002322,84.93,1
9613,0,50937,61913,50742.64,61676.36,194.36,236.64,0.000000,0.000000,1.002303,84.94,1
9624,0,50935,61916,50743.03,61676.84,191.97,239.16,0.000000,0.000000,1.002284,84.94,1
9634,0,50931,61913,50743.41,61677.32,187.59,235.68,0.000000,0.000000,1.002264,84.94,1
9644,0,50930,61917,50743.79,61677.80,186.21,239.20,0.000000,0.000000,1.002244,84.94,1
9654,0,50936,61923,50744.17,61678.29,191.83,244.71,0.000000,0.000000,1.002222,84.94,1
9664,0,50934,61923,50744.55,61678.78,189.45,244.22,0.000000,0.000000,1.002200,84.94,1
9673,0,50935,61917,50744.94,61679.26,190.06,237.74,0.000000,0.000000,1.002177,84.94,1
9681,0,50942,61922,50745.33,61679.75,196.67,242.25,0.000000,0.000000,1.002153,84.94,1
9690,0,50938,61922,50745.72,61680.23,192.28,241.77,0.000000,0.000000,1.002129,84.94,1
9699,0,50942,61918,50746.11,61680.71,195.89,237.29,0.000000,0.000000,1.002106,84.94,1
9703,0,50932,61920,50746.49,61681.19,185.51,238.81,0.000000,0.000000,1.002081,84.94,1
9711,0,50941,61924,50746.88,61681.68,194.12,242.32,0.000000,0.000000,1.002056,84.94,1
9721,0,50942,61932,50747.27,61682.18,194.73,249.82,0.000000,0.000000,1.002030,84.94,1
9731,0,50938,61918,50747.65,61682.65,190.35,235.35,0.000000,0.000000,1.002003,84.94,1
9741,0,50942,61914,50748.04,61683.12,193.96,230.88,0.000000,0.000000,1.001978,84.94,1
9750,0,50942,61925,50748.43,61683.60,193.57,241.40,0.000000,0.000000,1.001952,84.94,1
9764,0,50947,61924,50748.83,61684.08,198.17,239.92,0.000000,0.000000,1.001926,84.94,1
9775,0,50945,61927,50749.23,61684.57,195.77,242.43,0.000000,0.000000,1.001900,84.94,1
9785,0,50947,61933,50749.62,61685.07,197.37,247.93,0.000000,0.000000,1.001873,84.94,1
9793,0,50945,61932,50750.02,61685.57,194.98,246.43,0.000000,0.000000,1.001845,84.94,1
9803,0,50948,61935,50750.41,61686.07,197.59,248.93,0.000000,0.000000,1.001817,84.94,1
9815,0,50947,61941,50750.81,61686.58,196.19,254.42,0.000000,0.000000,1.001788,84.94,1
9832,0,50952,61937,50751.21,61687.08,200.79,249.92,0.000000,0.000000,1.001758,84.95,1
9844,0,50944,61939,50751.60,61687.59,192.40,251.41,0.000000,0.000000,1.001726,84.95,1
9853,0,50954,61934,50752.00,61688.08,202.00,245.92,0.000000,0.000000,1.001695,84.95,1
9861,0,50944,61940,50752.39,61688.59,191.61,251.41,0.000000,0.000000,1.001662,84.95,1
9870,0,50948,61939,50752.78,61689.09,195.22,249.91,0.000000,0.000000,1.001628,84.95,1
9880,0,50947,61932,50753.17,61689.58,193.83,242.42,0.000000,0.000000,1.001594,84.95,1
9890,0,50944,61937,50753.55,61690.07,190.45,246.93,0.000000,0.000000,1.001558,84.95,1
9900,0,50947,61929,50753.94,61690.55,193.06,238.45,0.000000,0.000000,1.001522,84.95,1
9909,0,50949,61938,50754.33,61691.05,194.67,246.95,0.000000,0.000000,1.001486,84.95,1
9920,0,50949,61941,50754.72,61691.55,194.28,249.45,0.000000,0.000000,1.001448,84.95,1
9929,0,50944,61946,50755.10,61692.06,188.90,253.94,0.000000,0.000000,1.001408,84.95,1
9939,0,50944,61934,50755.48,61692.55,188.52,241.45,0.000000,0.000000,1.001367,84.95,1
9948,0,50948,61931,50755.87,61693.02,192.13,237.98,0.000000,0.000000,1.001326,84.95,1
9959,0,50948,61930,50756.25,61693.50,191.75,236.50,0.000000,0.000000,1.001285,84.95,1
9967,0,50944,61935,50756.63,61693.98,187.37,241.02,0.000000,0.000000,1.001243,84.95,1
9977,0,50951,61935,50757.02,61694.47,193.98,240.53,0.000000,0.000000,1.001201,84.96,1
9985,0,50945,61941,50757.40,61694.96,187.60,246.04,0.000000,0.000000,1.001157,84.96,1
9995,0,50945,61939,50757.77,61695.45,187.23,243.55,0.000000,0.000000,1.001112,84.96,1
10005,0,50939,61940,50758.14,61695.95,180.86,244.05,0.000000,0.000000,1.001065,84.96,1
10010,0,50943,61932,50758.51,61696.42,184.49,235.58,0.000000,0.000000,1.001017,84.96,1
10022,0,50944,61937,50758.88,61696.90,185.12,240.10,0.000000,0.000000,1.000968,84.96,1
10034,0,50943,61934,50759.25,61697.38,183.75,236.62,0.000000,0.000000,1.000917,84.96,1
10046,0,50936,61939,50759.61,61697.86,176.39,241.14,0.000000,0.000000,1.000865,84.96,1
10058,0,50943,61936,50759.97,61698.34,183.03,237.66,0.000000,0.000000,1.000811,84.96,1
10070,0,50940,61939,50760.34,61698.82,179.66,240.18,0.000000,0.000000,1.000755,84.96,1
10080,0,50943,61938,50760.70,61699.30,182.30,238.70,0.000000,0.000000,1.000698,84.96,1
10091,0,50942,61942,50761.07,61699.79,180.93,242.21,0.000000,0.000000,1.000639,84.97,1
10101,0,50942,61944,50761.43,61700.28,180.57,243.72,0.000000,0.000000,1.000578,84.97,1
10111,0,50947,61949,50761.80,61700.78,185.20,248.22,0.000000,0.000000,1.000515,84.97,1
10119,0,50943,61939,50762.16,61701.26,180.84,237.74,0.000000,0.000000,1.000450,84.97,1
10128,0,50941,61942,50762.52,61701.74,178.48,240.26,0.000000,0.000000,1.000384,84.97,1
10135,0,50945,61933,50762.89,61702.21,182.11,230.79,0.000000,0.000000,1.000317,84.97,1
10146,0,50934,61928,50763.23,61702.66,170.77,225.34,0.000000,0.000000,1.000249,84.97,1
10156,0,50935,61931,50763.58,61703.12,171.42,227.88,0.000000,0.000000,1.000179,84.97,1
10166,0,50936,61930,50763.93,61703.57,172.07,226.43,0.000000,0.000000,1.000108,84.97,1
10176,0,50940,61915,50764.28,61704.00,175.72,211.00,0.000000,0.000000,1.000039,84.98,1
10185,0,50928,61918,50764.61,61704.43,163.39,213.57,0.000000,0.000000,0.999968,84.98,1
10195,0,50930,61911,50764.94,61704.84,165.06,206.16,0.000000,0.000000,0.999897,84.98,1
10205,0,50934,61911,50765.28,61705.26,168.72,205.74,0.000000,0.000000,0.999827,84.98,1
10215,0,50924,61915,50765.60,61705.68,158.40,209.32,0.000000,0.000000,0.999756,84.98,1
10224,0,50925,61917,50765.92,61706.11,159.08,210.89,0.000000,0.000000,0.999683,84.98,1
10236,0,50930,61913,50766.25,61706.52,163.75,206.48,0.000000,0.000000,0.999611,84.98,1
10249,0,50930,61918,50766.57,61706.95,163.43,211.05,0.000000,0.000000,0.999538,84.98,1
10259,0,50929,61910,50766.90,61707.35,162.10,202.65,0.000000,0.000000,0.999464,84.99,1
10270,0,50924,61914,50767.21,61707.77,156.79,206.23,0.000000,0.000000,0.999390,84.99,1
10279,0,50923,61913,50767.53,61708.18,155.47,204.82,0.000000,0.000000,0.999315,84.99,1
10288,0,50919,61915,50767.83,61708.59,151.17,206.41,0.000000,0.000000,0.999239,84.99,1
10297,0,50917,61915,50768.13,61709.00,148.87,206.00,0.000000,0.000000,0.999160,84.99,1
10306,0,50917,61909,50768.43,61709.41,148.57,199.59,0.000000,0.000000,0.999080,84.99,1
10315,0,50921,61915,50768.74,61709.82,152.26,205.18,0.000000,0.000000,0.998999,85.00,1
10326,0,50921,61918,50769.04,61710.24,151.96,207.76,0.000000,0.000000,0.998916,85.00,1
10335,0,50919,61920,50769.34,61710.66,149.66,209.34,0.000000,0.000000,0.998831,85.00,1
10344,0,50921,61916,50769.65,61711.07,151.35,204.93,0.000000,0.000000,0.998745,85.00,1
10354,0,50923,61912,50769.96,61711.48,153.04,200.52,0.000000,0.000000,0.998658,85.00,1
10365,0,50920,61911,50770.26,61711.88,149.74,199.12,0.000000,0.000000,0.998569,85.00,1
10376,0,50923,61918,50770.57,61712.29,152.43,205.71,0.000000,0.000000,0.998480,85.01,1
10385,0,50928,61908,50770.88,61712.69,157.12,195.31,0.000000,0.000000,0.998390,85.01,1
10396,0,50934,61922,50771.21,61713.11,162.79,208.89,0.000000,0.000000,0.998301,85.01,1
10406,0,50931,61920,50771.53,61713.52,159.47,206.48,0.000000,0.000000,0.998210,85.01,1
10415,0,50920,61927,50771.83,61713.95,148.17,213.05,0.000000,0.000000,0.998118,85.01,1
10425,0,50928,61926,50772.14,61714.38,155.86,211.62,0.000000,0.000000,0.998023,85.01,1
10436,0,50928,61930,50772.45,61714.81,155.55,215.19,0.000000,0.000000,0.997926,85.02,1
10444,0,50928,61932,50772.77,61715.25,155.23,216.75,0.000000,0.000000,0.997827,85.02,1
10456,0,50933,61917,50773.09,61715.66,159.91,201.34,0.000000,0.000000,0.997728,85.02,1
10465,0,50924,61923,50773.39,61716.07,150.61,206.93,0.000000,0.000000,0.997628,85.02,1
10477,0,50937,61925,50773.72,61716.49,163.28,208.51,0.000000,0.000000,0.997527,85.02,1
10486,0,50928,61935,50774.03,61716.93,153.97,218.07,0.000000,0.000000,0.997424,85.03,1
10496,0,50929,61930,50774.34,61717.36,154.66,212.64,0.000000,0.000000,0.997318,85.03,1
10506,0,50927,61927,50774.64,61717.78,152.36,209.22,0.000000,0.000000,0.997211,85.03,1
10515,0,50934,61938,50774.96,61718.22,159.04,219.78,0.000000,0.000000,0.997102,85.03,1
10525,0,50932,61933,50775.28,61718.65,156.72,214.35,0.000000,0.000000,0.996991,85.03,1
10536,0,50931,61937,50775.59,61719.09,155.41,217.91,0.000000,0.000000,0.996878,85.04,1
10546,0,50934,61936,50775.91,61719.52,158.09,216.48,0.000000,0.000000,0.996763,85.04,1
10555,0,50935,61940,50776.23,61719.96,158.77,220.04,0.000000,0.000000,0.996646,85.04,1
10563,0,50934,61936,50776.55,61720.40,157.45,215.60,0.000000,0.000000,0.996527,85.04,1
10575,0,50944,61933,50776.88,61720.82,167.12,212.18,0.000000,0.000000,0.996408,85.05,1
10582,0,50943,61936,50777.21,61721.26,165.79,214.74,0.000000,0.000000,0.996289,85.05,1
10592,0,50940,61935,50777.54,61721.69,162.46,213.31,0.000000,0.000000,0.996169,85.05,1
10604,0,50935,61933,50777.86,61722.11,157.14,210.89,0.000000,0.000000,0.996047,85.05,1
10616,0,50941,61937,50778.19,61722.54,162.81,214.46,0.000000,0.000000,0.995926,85.06,1
10627,0,50939,61939,50778.51,61722.98,160.49,216.02,0.000000,0.000000,0.995802,85.06,1
10636,0,50936,61930,50778.83,61723.39,157.17,206.61,0.000000,0.000000,0.995679,85.06,1
10645,0,50941,61929,50779.15,61723.80,161.85,205.20,0.000000,0.000000,0.995555,85.06,1
10653,0,50943,61935,50779.48,61724.23,163.52,210.77,0.000000,0.000000,0.995431,85.07,1
10662,0,50939,61931,50779.80,61724.64,159.20,206.36,0.000000,0.000000,0.995307,85.07,1
10672,0,50943,61942,50780.13,61725.08,162.87,216.92,0.000000,0.000000,0.995182,85.07,1
10685,0,50942,61940,50780.45,61725.51,161.55,214.49,0.000000,0.000000,0.995056,85.07,1
10694,0,50938,61931,50780.77,61725.93,157.23,205.07,0.000000,0.000000,0.994930,85.08,1
10707,0,50940,61940,50781.09,61726.36,158.91,213.64,0.000000,0.000000,0.994802,85.08,1
10722,0,50941,61940,50781.41,61726.79,159.59,213.21,0.000000,0.000000,0.994673,85.08,1
10735,0,50937,61932,50781.72,61727.20,155.28,204.80,0.000000,0.000000,0.994544,85.08,1
10744,0,50942,61937,50782.04,61727.62,159.96,209.38,0.000000,0.000000,0.994414,85.09,1
10753,0,50937,61941,50782.36,61728.05,154.64,212.95,0.000000,0.000000,0.994282,85.09,1
10763,0,50937,61938,50782.67,61728.47,154.33,209.53,0.000000,0.000000,0.994149,85.09,1
10771,0,50936,61941,50782.98,61728.89,153.02,212.11,0.000000,0.000000,0.994014,85.10,1
10779,0,50936,61937,50783.29,61729.31,152.71,207.69,0.000000,0.000000,0.993878,85.10,1
10786,0,50937,61940,50783.59,61729.73,153.41,210.27,0.000000,0.000000,0.993740,85.10,1
10792,0,50935,61936,50783.90,61730.15,151.10,205.85,0.000000,0.000000,0.993600,85.10,1
10806,0,50940,61941,50784.21,61730.57,155.79,210.43,0.000000,0.000000,0.993460,85.11,1
10816,0,50935,61935,50784.52,61730.98,150.48,204.02,0.000000,0.000000,0.993318,85.11,1
10825,0,50936,61931,50784.82,61731.38,151.18,199.62,0.000000,0.000000,0.993176,85.11,1
10835,0,50933,61937,50785.12,61731.80,147.88,205.20,0.000000,0.000000,0.993032,85.12,1
10846,0,50937,61932,50785.42,61732.20,151.58,199.80,0.000000,0.000000,0.992887,85.12,1
10856,0,50938,61935,50785.73,61732.61,152.27,202.39,0.000000,0.000000,0.992742,85.12,1
10866,0,50939,61943,50786.04,61733.03,152.96,209.97,0.000000,0.000000,0.992595,85.13,1
10876,0,50933,61935,50786.33,61733.43,146.67,201.57,0.000000,0.000000,0.992447,85.13,1
10886,0,50936,61940,50786.63,61733.85,149.37,206.15,0.000000,0.000000,0.992297,85.13,1
10895,0,50939,61938,50786.94,61734.26,152.06,203.74,0.000000,0.000000,0.992147,85.14,1
10904,0,50930,61932,50787.23,61734.66,142.77,197.34,0.000000,0.000000,0.991995,85.14,1
10915,0,50935,61938,50787.52,61735.07,147.48,202.93,0.000000,0.000000,0.991841,85.14,1
10926,0,50930,61936,50787.81,61735.47,142.19,200.53,0.000000,0.000000,0.991686,85.14,1
10936,0,50931,61937,50788.10,61735.87,142.90,201.12,0.000000,0.000000,0.991528,85.15,1
10946,0,50928,61931,50788.38,61736.27,139.62,194.73,0.000000,0.000000,0.991369,85.15,1
10956,0,50925,61933,50788.65,61736.66,136.35,196.34,0.000000,0.000000,0.991208,85.16,1
10969,0,50924,61924,50788.93,61737.04,135.07,186.96,0.000000,0.000000,0.991046,85.16,1
10983,0,50927,61928,50789.20,61737.42,137.80,190.58,0.000000,0.000000,0.990882,85.16,1
10995,0,50920,61921,50789.46,61737.79,130.54,183.21,0.000000,0.000000,0.990717,85.17,1
11007,0,50918,61912,50789.72,61738.14,128.28,173.86,0.000000,0.000000,0.990552,85.17,1
11017,0,50921,61913,50789.99,61738.49,131.01,174.51,0.000000,0.000000,0.990386,85.17,1
11030,0,50911,61903,50790.23,61738.82,120.77,164.18,0.000000,0.000000,0.990220,85.18,1
11039,0,50915,61906,50790.48,61739.16,124.52,166.84,0.000000,0.000000,0.990054,85.18,1
11048,0,50913,61894,50790.73,61739.47,122.27,154.53,0.000000,0.000000,0.989889,85.18,1
11058,0,50916,61904,50790.98,61739.80,125.02,164.20,0.000000,0.000000,0.989724,85.19,1
11069,0,50912,61906,50791.22,61740.14,120.78,165.86,0.000000,0.000000,0.989558,85.19,1
11080,0,50912,61903,50791.46,61740.46,120.54,162.54,0.000000,0.000000,0.989392,85.19,1
11089,0,50905,61900,50791.69,61740.79,113.31,159.21,0.000000,0.000000,0.989225,85.20,1
11098,0,50915,61890,50791.93,61741.09,123.07,148.91,0.000000,0.000000,0.989060,85.20,1
11105,0,50907,61896,50792.16,61741.40,114.84,154.60,0.000000,0.000000,0.988895,85.21,1
11108,0,50908,61897,50792.40,61741.71,115.60,155.29,0.000000,0.000000,0.988730,85.21,1
11112,0,50909,61897,50792.63,61742.02,116.37,154.98,0.000000,0.000000,0.988564,85.21,1
11122,0,50910,61892,50792.87,61742.32,117.13,149.68,0.000000,0.000000,0.988400,85.22,1
11132,0,50916,61900,50793.11,61742.64,122.89,157.36,0.000000,0.000000,0.988236,85.22,1
11142,0,50909,61897,50793.35,61742.95,115.65,154.05,0.000000,0.000000,0.988072,85.22,1
11152,0,50903,61898,50793.57,61743.26,109.43,154.74,0.000000,0.000000,0.987907,85.23,1
11162,0,50911,61895,50793.80,61743.57,117.20,151.43,0.000000,0.000000,0.987742,85.23,1
11172,0,50907,61898,50794.03,61743.87,112.97,154.12,0.000000,0.000000,0.987578,85.24,1
11182,0,50901,61896,50794.24,61744.18,106.76,151.82,0.000000,0.000000,0.987412,85.24,1
11192,0,50902,61901,50794.46,61744.50,107.54,156.50,0.000000,0.000000,0.987245,85.24,1
11202,0,50906,61893,50794.68,61744.79,111.32,148.21,0.000000,0.000000,0.987078,85.25,1
11212,0,50906,61901,50794.91,61745.11,111.09,155.89,0.000000,0.000000,0.986910,85.25,1
11222,0,50905,61903,50795.13,61745.42,109.87,157.58,0.000000,0.000000,0.986740,85.26,1
11235,0,50902,61894,50795.34,61745.72,106.66,148.28,0.000000,0.000000,0.986570,85.26,1
11247,0,50906,61900,50795.57,61746.03,110.43,153.97,0.000000,0.000000,0.986400,85.26,1
11256,0,50906,61894,50795.79,61746.32,110.21,147.68,0.000000,0.000000,0.986229,85.27,1
11267,0,50907,61899,50796.01,61746.63,110.99,152.37,0.000000,0.000000,0.986058,85.27,1
11276,0,50907,61903,50796.23,61746.95,110.77,156.05,0.000000,0.000000,0.985886,85.28,1
11287,0,50911,61899,50796.46,61747.25,114.54,151.75,0.000000,0.000000,0.985714,85.28,1
11298,0,50909,61903,50796.69,61747.56,112.31,155.44,0.000000,0.000000,0.985542,85.28,1
11306,0,50909,61908,50796.92,61747.89,112.08,160.11,0.000000,0.000000,0.985368,85.29,1
11317,0,50909,61899,50797.14,61748.19,111.86,150.81,0.000000,0.000000,0.985194,85.29,1
11326,0,50914,61898,50797.38,61748.49,116.62,149.51,0.000000,0.000000,0.985021,85.30,1
11335,0,50908,61907,50797.60,61748.81,110.40,158.19,0.000000,0.000000,0.984847,85.30,1
11345,0,50911,61906,50797.83,61749.13,113.17,156.87,0.000000,0.000000,0.984672,85.30,1
11357,0,50911,61913,50798.05,61749.46,112.95,163.54,0.000000,0.000000,0.984495,85.31,1
11365,0,50917,61915,50798.29,61749.79,118.71,165.21,0.000000,0.000000,0.984317,85.31,1
11375,0,50913,61918,50798.52,61750.13,114.48,167.87,0.000000,0.000000,0.984137,85.32,1
11384,0,50912,61914,50798.75,61750.46,113.25,163.54,0.000000,0.000000,0.983956,85.32,1
11392,0,50913,61910,50798.98,61750.78,114.02,159.22,0.000000,0.000000,0.983773,85.33,1
11404,0,50915,61911,50799.21,61751.10,115.79,159.90,0.000000,0.000000,0.983591,85.33,1
11414,0,50912,61910,50799.44,61751.42,112.56,158.58,0.000000,0.000000,0.983407,85.33,1
11424,0,50909,61919,50799.66,61751.75,109.34,167.25,0.000000,0.000000,0.983220,85.34,1
11434,0,50914,61919,50799.89,61752.09,114.11,166.91,0.000000,0.000000,0.983031,85.34,1
11447,0,50920,61917,50800.13,61752.42,119.87,164.58,0.000000,0.000000,0.982842,85.35,1
11458,0,50910,61919,50800.36,61752.76,109.64,166.24,0.000000,0.000000,0.982650,85.35,1
11471,0,50917,61908,50800.59,61753.07,116.41,154.93,0.000000,0.000000,0.982458,85.36,1
11483,0,50913,61915,50800.82,61753.39,112.18,161.61,0.000000,0.000000,0.982265,85.36,1
11494,0,50913,61914,50801.04,61753.72,111.96,160.28,0.000000,0.000000,0.982071,85.36,1
11503,0,50908,61919,50801.26,61754.05,106.74,164.95,0.000000,0.000000,0.981874,85.37,1
11513,0,50915,61915,50801.49,61754.37,113.51,160.62,0.000000,0.000000,0.981675,85.37,1
11522,0,50916,61912,50801.72,61754.69,114.28,157.31,0.000000,0.000000,0.981476,85.38,1
11532,0,50918,61907,50801.95,61755.00,116.05,152.00,0.000000,0.000000,0.981278,85.38,1
11541,0,50916,61920,50802.18,61755.33,113.82,164.67,0.000000,0.000000,0.981079,85.39,1
11550,0,50914,61917,50802.41,61755.65,111.59,161.35,0.000000,0.000000,0.980877,85.39,1
11559,0,50914,61915,50802.63,61755.97,111.37,159.03,0.000000,0.000000,0.980675,85.40,1
11568,0,50912,61914,50802.85,61756.29,109.15,157.71,0.000000,0.000000,0.980471,85.40,1
11572,0,50918,61915,50803.08,61756.61,114.92,158.39,0.000000,0.000000,0.980267,85.41,1
11583,0,50914,61920,50803.30,61756.94,110.70,163.06,0.000000,0.000000,0.980061,85.41,1
11594,0,50919,61921,50803.54,61757.27,115.46,163.73,0.000000,0.000000,0.979853,85.41,1
11604,0,50916,61906,50803.77,61757.57,112.23,148.43,0.000000,0.000000,0.979647,85.42,1
11616,0,50905,61914,50803.97,61757.88,101.03,156.12,0.000000,0.000000,0.979437,85.42,1
11626,0,50914,61911,50804.19,61758.19,109.81,152.81,0.000000,0.000000,0.979228,85.43,1
11637,0,50904,61915,50804.39,61758.51,99.61,156.49,0.000000,0.000000,0.979015,85.43,1
11645,0,50902,61912,50804.59,61758.82,97.41,153.18,0.000000,0.000000,0.978800,85.44,1
11656,0,50904,61909,50804.79,61759.12,99.21,149.88,0.000000,0.000000,0.978583,85.44,1
11670,0,50907,61912,50804.99,61759.43,102.01,152.57,0.000000,0.000000,0.978364,85.45,1
11679,0,50901,61914,50805.18,61759.74,95.82,154.26,0.000000,0.000000,0.978142,85.45,1
11690,0,50910,61918,50805.39,61760.05,104.61,157.95,0.000000,0.000000,0.977918,85.46,1
11702,0,50908,61911,50805.60,61760.36,102.40,150.64,0.000000,0.000000,0.977693,85.46,1
11715,0,50907,61909,50805.80,61760.66,101.20,148.34,0.000000,0.000000,0.977466,85.47,1
11724,0,50905,61910,50806.00,61760.96,99.00,149.04,0.000000,0.000000,0.977238,85.47,1
11733,0,50907,61912,50806.21,61761.27,100.79,150.73,0.000000,0.000000,0.977008,85.48,1
11743,0,50908,61913,50806.41,61761.57,101.59,151.43,0.000000,0.000000,0.976776,85.48,1
11753,0,50908,61906,50806.61,61761.86,101.39,144.14,0.000000,0.000000,0.976544,85.49,1
11758,0,50904,61898,50806.81,61762.13,97.19,135.87,0.000000,0.000000,0.976312,85.49,1
11765,0,50896,61900,50806.99,61762.41,89.01,137.59,0.000000,0.000000,0.976078,85.50,1
11776,0,50900,61904,50807.18,61762.70,92.82,141.30,0.000000,0.000000,0.975843,85.50,1
11786,0,50898,61902,50807.36,61762.98,90.64,139.02,0.000000,0.000000,0.975606,85.51,1
11796,0,50896,61905,50807.54,61763.26,88.46,141.74,0.000000,0.000000,0.975366,85.51,1
11806,0,50904,61907,50807.73,61763.55,96.27,143.45,0.000000,0.000000,0.975126,85.52,1
11817,0,50898,61909,50807.92,61763.84,90.08,145.16,0.000000,0.000000,0.974882,85.53,1
11826,0,50891,61902,50808.09,61764.12,82.91,137.88,0.000000,0.000000,0.974636,85.53,1
11837,0,50893,61898,50808.26,61764.39,84.74,133.61,0.000000,0.000000,0.974388,85.54,1
11845,0,50890,61905,50808.42,61764.67,81.58,140.33,0.000000,0.000000,0.974137,85.54,1
11857,0,50885,61900,50808.58,61764.95,76.42,135.05,0.000000,0.000000,0.973883,85.55,1
11868,0,50883,61900,50808.73,61765.22,74.27,134.78,0.000000,0.000000,0.973625,85.55,1
11876,0,50894,61896,50808.90,61765.48,85.10,130.52,0.000000,0.000000,0.973366,85.56,1
11887,0,50883,61895,50809.05,61765.74,73.95,129.26,0.000000,0.000000,0.973105,85.56,1
11897,0,50886,61891,50809.20,61766.00,76.80,125.00,0.000000,0.000000,0.972842,85.57,1
11908,0,50886,61876,50809.36,61766.22,76.64,109.78,0.000000,0.000000,0.972579,85.58,1
11918,0,50873,61880,50809.49,61766.45,63.51,113.55,0.000000,0.000000,0.972314,85.58,1
11928,0,50879,61870,50809.63,61766.66,69.37,103.34,0.000000,0.000000,0.972049,85.59,1
11938,0,50876,61869,50809.76,61766.86,66.24,102.14,0.000000,0.000000,0.971783,85.59,1
11949,0,50873,61871,50809.89,61767.07,63.11,103.93,0.000000,0.000000,0.971517,85.60,1
11959,0,50868,61865,50810.01,61767.27,57.99,97.73,0.000000,0.000000,0.971250,85.61,1
11971,0,50868,61863,50810.12,61767.46,57.88,95.54,0.000000,0.000000,0.970983,85.61,1
11982,0,50867,61861,50810.24,61767.65,56.76,93.35,0.000000,0.000000,0.970715,85.62,1
11993,0,50865,61857,50810.35,61767.83,54.65,89.17,0.000000,0.000000,0.970447,85.62,1
12004,0,50860,61859,50810.45,61768.02,49.55,90.98,0.000000,0.000000,0.970177,85.63,1
12017,0,50863,61861,50810.55,61768.20,52.45,92.80,0.000000,0.000000,0.969907,85.64,1
12027,0,50854,61866,50810.64,61768.40,43.36,97.60,0.000000,0.000000,0.969634,85.64,1
12037,0,50857,61870,50810.74,61768.60,46.26,101.40,0.000000,0.000000,0.969359,85.65,1
12046,0,50863,61866,50810.84,61768.80,52.16,97.20,0.000000,0.000000,0.969082,85.65,1
12056,0,50859,61868,50810.94,61769.00,48.06,99.00,0.000000,0.000000,0.968803,85.66,1
12065,0,50858,61864,50811.04,61769.19,46.96,94.81,0.000000,0.000000,0.968522,85.67,1
12075,0,50854,61864,50811.12,61769.38,42.88,94.62,0.000000,0.000000,0.968240,85.67,1
12084,0,50855,61860,50811.21,61769.56,43.79,90.44,0.000000,0.000000,0.967955,85.68,1
12094,0,50857,61861,50811.30,61769.75,45.70,91.25,0.000000,0.000000,0.967669,85.69,1
12102,0,50859,61852,50811.40,61769.91,47.60,82.09,0.000000,0.000000,0.967382,85.69,1
12112,0,50852,61861,50811.48,61770.10,40.52,90.90,0.000000,0.000000,0.967094,85.70,1
12120,0,50860,61856,50811.58,61770.27,48.42,85.73,0.000000,0.000000,0.966805,85.71,1
12128,0,50857,61854,50811.68,61770.44,45.32,83.56,0.000000,0.000000,0.966515,85.71,1
12136,0,50856,61859,50811.77,61770.62,44.23,88.38,0.000000,0.000000,0.966224,85.72,1
12147,0,50857,61860,50811.86,61770.80,45.14,89.20,0.000000,0.000000,0.965931,85.73,1
12158,0,50846,61864,50811.93,61770.98,34.07,93.02,0.000000,0.000000,0.965636,85.73,1
12168,0,50859,61863,50812.02,61771.17,46.98,91.83,0.000000,0.000000,0.965339,85.74,1
12178,0,50855,61864,50812.11,61771.36,42.89,92.64,0.000000,0.000000,0.965039,85.75,1
12190,0,50855,61862,50812.19,61771.54,42.81,90.46,0.000000,0.000000,0.964738,85.75,1
12199,0,50857,61874,50812.28,61771.75,44.72,102.25,0.000000,0.000000,0.964434,85.76,1
12208,0,50859,61873,50812.37,61771.95,46.63,101.05,0.000000,0.000000,0.964127,85.77,1
12218,0,50861,61871,50812.47,61772.15,48.53,98.85,0.000000,0.000000,0.963818,85.77,1
12226,0,50864,61873,50812.58,61772.36,51.42,100.64,0.000000,0.000000,0.963506,85.78,1
12241,0,50863,61869,50812.68,61772.55,50.32,96.45,0.000000,0.000000,0.963192,85.79,1
12253,0,50860,61872,50812.78,61772.75,47.22,99.25,0.000000,0.000000,0.962876,85.79,1
12266,0,50855,61876,50812.86,61772.96,42.14,103.04,0.000000,0.000000,0.962557,85.80,1
12275,0,50869,61881,50812.98,61773.18,56.02,107.82,0.000000,0.000000,0.962234,85.81,1
12288,0,50868,61877,50813.09,61773.39,54.91,103.61,0.000000,0.000000,0.961910,85.82,1
12300,0,50866,61879,50813.20,61773.60,52.80,105.40,0.000000,0.000000,0.961583,85.82,1
12312,0,50870,61877,50813.31,61773.80,56.69,103.20,0.000000,0.000000,0.961254,85.83,1
12321,0,50865,61878,50813.41,61774.02,51.59,103.98,0.000000,0.000000,0.960922,85.84,1
12331,0,50863,61881,50813.52,61774.23,49.48,106.77,0.000000,0.000000,0.960587,85.84,1
12342,0,50871,61880,50813.63,61774.45,57.37,105.55,0.000000,0.000000,0.960249,85.85,1
12351,0,50869,61878,50813.75,61774.65,55.25,103.35,0.000000,0.000000,0.959910,85.86,1
12361,0,50878,61884,50813.87,61774.87,64.12,109.13,0.000000,0.000000,0.959569,85.87,1
12369,0,50877,61885,50814.00,61775.09,63.00,109.91,0.000000,0.000000,0.959226,85.87,1
12377,0,50876,61884,50814.13,61775.31,61.87,108.69,0.000000,0.000000,0.958882,85.88,1
12385,0,50879,61879,50814.26,61775.52,64.74,103.48,0.000000,0.000000,0.958537,85.89,1
12394,0,50871,61878,50814.37,61775.73,56.63,102.27,0.000000,0.000000,0.958190,85.90,1
12402,0,50879,61877,50814.50,61775.93,64.50,101.07,0.000000,0.000000,0.957843,85.91,1
12410,0,50872,61881,50814.62,61776.14,57.38,104.86,0.000000,0.000000,0.957494,85.91,1
12416,0,50879,61884,50814.75,61776.36,64.25,107.64,0.000000,0.000000,0.957144,85.92,1
12425,0,50870,61879,50814.86,61776.57,55.14,102.43,0.000000,0.000000,0.956792,85.93,1
12439,0,50874,61878,50814.98,61776.77,59.02,101.23,0.000000,0.000000,0.956438,85.94,1
12445,0,50872,61883,50815.10,61776.98,56.90,106.02,0.000000,0.000000,0.956082,85.95,1
12454,0,50876,61885,50815.23,61777.20,60.77,107.80,0.000000,0.000000,0.955725,85.95,1
12463,0,50876,61893,50815.35,61777.44,60.65,115.56,0.000000,0.000000,0.955364,85.96,1
12473,0,50877,61889,50815.47,61777.66,61.53,111.34,0.000000,0.000000,0.955000,85.97,1
12485,0,50876,61894,50815.59,61777.90,60.41,116.10,0.000000,0.000000,0.954633,85.98,1
12497,0,50874,61884,50815.71,61778.11,58.29,105.89,0.000000,0.000000,0.954264,85.99,1
12504,0,50872,61887,50815.82,61778.33,56.18,108.67,0.000000,0.000000,0.953893,85.99,1
12517,0,50880,61885,50815.95,61778.55,64.05,106.45,0.000000,0.000000,0.953520,86.00,1
12527,0,50884,61891,50816.09,61778.77,67.91,112.23,0.000000,0.000000,0.953146,86.01,1
12537,0,50880,61891,50816.22,61779.00,63.78,112.00,0.000000,0.000000,0.952769,86.02,1
12552,0,50876,61885,50816.34,61779.21,59.66,105.79,0.000000,0.000000,0.952391,86.03,1
12563,0,50881,61898,50816.47,61779.45,64.53,118.55,0.000000,0.000000,0.952010,86.04,1
12575,0,50877,61894,50816.59,61779.68,60.41,114.32,0.000000,0.000000,0.951626,86.05,1
12584,0,50875,61888,50816.71,61779.90,58.29,108.10,0.000000,0.000000,0.951239,86.05,1
12595,0,50878,61894,50816.83,61780.13,61.17,113.87,0.000000,0.000000,0.950850,86.06,1
12604,0,50876,61890,50816.95,61780.36,59.05,109.64,0.000000,0.000000,0.950458,86.07,1
12614,0,50884,61891,50817.09,61780.58,66.91,110.42,0.000000,0.000000,0.950065,86.08,1
12623,0,50882,61889,50817.22,61780.80,64.78,108.20,0.000000,0.000000,0.949670,86.09,1
12633,0,50876,61891,50817.34,61781.02,58.66,109.98,0.000000,0.000000,0.949273,86.10,1
12643,0,50874,61896,50817.45,61781.25,56.55,114.75,0.000000,0.000000,0.948873,86.11,1
12654,0,50879,61892,50817.58,61781.47,61.42,110.53,0.000000,0.000000,0.948469,86.12,1
12667,0,50874,61889,50817.69,61781.69,56.31,107.31,0.000000,0.000000,0.948064,86.13,1
12682,0,50875,61895,50817.81,61781.91,57.19,113.09,0.000000,0.000000,0.947655,86.13,1
12692,0,50870,61889,50817.91,61782.13,52.09,106.87,0.000000,0.000000,0.947242,86.14,1
12697,0,50876,61891,50818.03,61782.35,57.97,108.65,0.000000,0.000000,0.946827,86.15,1
12703,0,50876,61889,50818.15,61782.56,57.85,106.44,0.000000,0.000000,0.946410,86.16,1
12707,0,50876,61905,50818.27,61782.81,57.73,122.19,0.000000,0.000000,0.945987,86.17,1
12718,0,50886,61890,50818.40,61783.02,67.60,106.98,0.000000,0.000000,0.945565,86.18,1
12727,0,50881,61892,50818.53,61783.24,62.47,108.76,0.000000,0.000000,0.945141,86.19,1
12738,0,50875,61893,50818.64,61783.46,56.36,109.54,0.000000,0.000000,0.944714,86.20,1
12748,0,50878,61896,50818.76,61783.69,59.24,112.31,0.000000,0.000000,0.944284,86.21,1
12760,0,50879,61890,50818.88,61783.91,60.12,106.09,-0.030621,-0.030928,0.943853,86.22,1
12770,0,50873,61893,50818.99,61784.12,54.01,108.87,-0.030623,-0.030932,0.943419,86.23,1
12783,0,50877,61891,50819.11,61784.34,57.89,106.66,-0.030626,-0.030935,0.942982,86.24,1
12797,0,50873,61889,50819.22,61784.55,53.78,104.45,-0.030628,-0.030939,0.942543,86.25,1
12805,0,50872,61886,50819.32,61784.75,52.68,101.25,-0.030630,-0.030942,0.942101,86.26,1
12815,0,50869,61891,50819.43,61784.97,49.57,106.03,-0.030632,-0.030945,0.941657,86.27,1
12824,0,50872,61880,50819.53,61785.16,52.47,94.84,-0.030634,-0.030948,0.941211,86.28,1
12831,0,50870,61875,50819.63,61785.34,50.37,89.66,-0.030636,-0.030951,0.940765,86.29,1
12840,0,50864,61875,50819.72,61785.52,44.28,89.48,-0.030638,-0.030954,0.940317,86.30,1
12850,0,50857,61870,50819.80,61785.69,37.20,84.31,-0.030639,-0.030957,0.939867,86.31,1
12859,0,50857,61873,50819.87,61785.87,37.13,87.13,-0.030641,-0.030960,0.939415,86.32,1
12869,0,50855,61861,50819.94,61786.02,35.06,74.98,-0.030642,-0.030962,0.938963,86.33,1
12879,0,50858,61861,50820.02,61786.17,37.98,74.83,-0.030643,-0.030965,0.938510,86.34,1
12888,0,50852,61862,50820.09,61786.32,31.91,75.68,-0.030645,-0.030967,0.938056,86.35,1
12898,0,50856,61859,50820.16,61786.47,35.84,72.53,-0.030646,-0.030970,0.937601,86.36,1
12908,0,50855,61864,50820.23,61786.63,34.77,77.37,-0.030648,-0.030972,0.937146,86.37,1
12917,0,50860,61861,50820.31,61786.78,39.69,74.22,-0.030649,-0.030975,0.936690,86.38,1
12927,0,50854,61857,50820.38,61786.92,33.62,70.08,-0.030651,-0.030977,0.936234,86.39,1
12937,0,50852,61856,50820.45,61787.06,31.55,68.94,-0.030652,-0.030979,0.935778,86.40,1
12949,0,50857,61863,50820.52,61787.21,36.48,75.79,-0.030653,-0.030982,0.935321,86.41,1
12958,0,50859,61864,50820.60,61787.37,38.40,76.63,-0.030655,-0.030984,0.934863,86.42,1
12969,0,50861,61858,50820.68,61787.51,40.32,70.49,-0.030657,-0.030987,0.934406,86.44,1
12979,0,50859,61857,50820.76,61787.65,38.24,69.35,-0.030658,-0.030989,0.933950,86.45,1
12988,0,50862,61858,50820.84,61787.79,41.16,70.21,-0.030660,-0.030991,0.933494,86.46,1
12999,0,50857,61850,50820.92,61787.92,36.08,62.08,-0.030661,-0.030993,0.933039,86.47,1
13008,0,50854,61864,50820.98,61788.07,33.02,75.93,-0.030662,-0.030996,0.932583,86.48,1
13018,0,50857,61849,50821.06,61788.20,35.94,60.80,-0.030664,-0.030998,0.932128,86.49,1
13034,0,50853,61862,50821.12,61788.34,31.87,73.66,-0.030665,-0.031000,0.931672,86.50,1
13053,0,50857,61864,50821.20,61788.50,35.80,75.50,-0.030667,-0.031002,0.931215,86.51,1
13062,0,50856,61862,50821.27,61788.64,34.73,73.36,-0.030668,-0.031005,0.930757,86.52,1
13075,0,50855,61867,50821.34,61788.80,33.66,78.20,-0.030669,-0.031007,0.930298,86.53,1
13086,0,50867,61862,50821.43,61788.95,45.57,73.05,-0.030671,-0.031010,0.929839,86.54,1
13096,0,50853,61873,50821.50,61789.12,31.50,83.88,-0.030673,-0.031013,0.929378,86.56,1
13110,0,50869,61875,50821.59,61789.29,47.41,85.71,-0.030674,-0.031015,0.928916,86.57,1
13120,0,50866,61875,50821.68,61789.46,44.32,85.54,-0.030676,-0.031018,0.928452,86.58,1
13130,0,50868,61871,50821.78,61789.63,46.22,81.37,-0.030678,-0.031021,0.927989,86.59,1
13139,0,50860,61878,50821.86,61789.81,38.14,88.19,-0.030680,-0.031024,0.927522,86.60,1
13149,0,50875,61875,50821.96,61789.98,53.04,85.02,-0.030682,-0.031026,0.927057,86.61,1
13157,0,50867,61874,50822.05,61790.15,44.95,83.85,-0.030684,-0.031029,0.926590,86.62,1
13166,0,50872,61883,50822.16,61790.34,49.84,92.66,-0.030686,-0.031032,0.926122,86.63,1
13176,0,50875,61878,50822.26,61790.51,52.74,87.49,-0.030688,-0.031035,0.925655,86.64,1
13184,0,50876,61875,50822.37,61790.68,53.63,84.32,-0.030690,-0.031038,0.925189,86.66,1
13192,0,50880,61874,50822.49,61790.85,57.51,83.15,-0.030692,-0.031041,0.924725,86.67,1
13198,0,50874,61880,50822.59,61791.03,51.41,88.97,-0.030694,-0.031043,0.924261,86.68,1
13205,0,50879,61882,50822.71,61791.21,56.29,90.79,-0.030696,-0.031046,0.923797,86.69,1
13213,0,50880,61878,50822.82,61791.39,57.18,86.61,-0.030699,-0.031049,0.923335,86.70,1
13224,0,50879,61890,50822.94,61791.59,56.06,98.41,-0.030701,-0.031053,0.922872,86.71,1
13236,0,50881,61877,50823.05,61791.76,57.95,85.24,-0.030703,-0.031055,0.922411,86.72,1
13244,0,50884,61881,50823.18,61791.94,60.82,89.06,-0.030706,-0.031058,0.921953,86.74,1
13263,0,50882,61884,50823.30,61792.13,58.70,91.87,-0.030708,-0.031061,0.921495,86.75,1
13273,0,50882,61887,50823.41,61792.32,58.59,94.68,-0.030710,-0.031064,0.921038,86.76,1
13283,0,50875,61881,50823.52,61792.50,51.48,88.50,-0.030712,-0.031067,0.920581,86.77,1
13293,0,50880,61883,50823.63,61792.68,56.37,90.32,-0.030715,-0.031070,0.920124,86.78,1
13302,0,50877,61880,50823.74,61792.86,53.26,87.14,-0.030717,-0.031073,0.919667,86.79,1
13313,0,50876,61889,50823.85,61793.05,52.15,95.95,-0.030719,-0.031076,0.919209,86.80,1
13324,0,50875,61885,50823.95,61793.24,51.05,91.76,-0.030721,-0.031079,0.918750,86.82,1
13334,0,50870,61888,50824.05,61793.43,45.95,94.57,-0.030723,-0.031082,0.918287,86.83,1
13347,0,50885,61893,50824.17,61793.63,60.83,99.37,-0.030725,-0.031085,0.917825,86.84,1
13356,0,50883,61890,50824.29,61793.82,58.71,96.18,-0.030728,-0.031089,0.917362,86.85,1
13366,0,50880,61893,50824.40,61794.02,55.60,98.98,-0.030730,-0.031092,0.916898,86.86,1
13374,0,50875,61893,50824.50,61794.22,50.50,98.78,-0.030732,-0.031095,0.916431,86.87,1
13383,0,50875,61892,50824.61,61794.42,50.39,97.58,-0.030734,-0.031098,0.915961,86.88,1
13392,0,50877,61884,50824.71,61794.60,52.29,89.40,-0.030736,-0.031101,0.915491,86.89,1
13398,0,50876,61883,50824.82,61794.78,51.18,88.22,-0.030738,-0.031104,0.915021,86.91,1
13402,0,50878,61890,50824.93,61794.97,53.07,95.03,-0.030740,-0.031107,0.914549,86.92,1
13406,0,50881,61886,50825.04,61795.15,55.96,90.85,-0.030742,-0.031110,0.914078,86.93,1
13415,0,50880,61894,50825.15,61795.35,54.85,98.65,-0.030744,-0.031113,0.913605,86.94,1
13427,0,50874,61885,50825.25,61795.53,48.75,89.47,-0.030746,-0.031116,0.913131,86.95,1
13437,0,50875,61887,50825.35,61795.71,49.65,91.29,-0.030748,-0.031119,0.912656,86.96,1
13446,0,50880,61887,50825.46,61795.90,54.54,91.10,-0.030751,-0.031122,0.912181,86.98,1
13457,0,50877,61889,50825.56,61796.09,51.44,92.91,-0.030753,-0.031125,0.911704,86.99,1
13466,0,50877,61890,50825.67,61796.27,51.33,93.73,-0.030755,-0.031128,0.911226,87.00,1
13478,0,50875,61894,50825.77,61796.47,49.23,97.53,-0.030757,-0.031131,0.910745,87.01,1
13486,0,50881,61900,50825.88,61796.68,55.12,103.32,-0.030759,-0.031135,0.910262,87.02,1
13497,0,50880,61899,50825.99,61796.88,54.01,102.12,-0.030761,-0.031138,0.909775,87.03,1
13510,0,50877,61892,50826.09,61797.07,50.91,94.93,-0.030763,-0.031141,0.909286,87.05,1
13526,0,50872,61890,50826.19,61797.26,45.81,92.74,-0.030765,-0.031144,0.908795,87.06,1
13540,0,50879,61888,50826.29,61797.45,52.71,90.55,-0.030767,-0.031147,0.908304,87.07,1
13554,0,50879,61892,50826.40,61797.64,52.60,94.36,-0.030769,-0.031150,0.907811,87.08,1
13564,0,50881,61883,50826.51,61797.81,54.49,85.19,-0.030771,-0.031153,0.907321,87.09,1
13572,0,50873,61894,50826.60,61798.00,46.40,96.00,-0.030773,-0.031156,0.906826,87.10,1
13584,0,50870,61893,50826.69,61798.20,43.31,94.80,-0.030775,-0.031159,0.906328,87.12,1
13596,0,50873,61890,50826.79,61798.38,46.21,91.62,-0.030777,-0.031162,0.905828,87.13,1
13608,0,50869,61891,50826.87,61798.57,42.13,92.43,-0.030778,-0.031165,0.905323,87.14,1
13617,0,50876,61896,50826.97,61798.76,49.03,97.24,-0.030780,-0.031169,0.904816,87.15,1
13628,0,50871,61891,50827.06,61798.95,43.94,92.05,-0.030782,-0.031172,0.904306,87.16,1
13635,0,50870,61897,50827.14,61799.15,42.86,97.85,-0.030784,-0.031175,0.903791,87.18,1
13643,0,50871,61899,50827.23,61799.35,43.77,99.65,-0.030785,-0.031178,0.903271,87.19,1
13648,0,50870,61890,50827.32,61799.54,42.68,90.46,-0.030787,-0.031181,0.902748,87.20,1
13655,0,50869,61893,50827.41,61799.72,41.59,93.28,-0.030789,-0.031184,0.902222,87.21,1
13661,0,50863,61882,50827.48,61799.89,35.52,82.11,-0.030790,-0.031187,0.901692,87.22,1
13667,0,50869,61885,50827.57,61800.06,41.43,84.94,-0.030792,-0.031190,0.901161,87.24,1
13677,0,50865,61884,50827.64,61800.23,37.36,83.77,-0.030794,-0.031192,0.900627,87.25,1
13686,0,50867,61882,50827.72,61800.39,39.28,81.61,-0.030795,-0.031195,0.900092,87.26,1
13698,0,50869,61878,50827.80,61800.55,41.20,77.45,-0.030797,-0.031198,0.899556,87.27,1
13709,0,50863,61883,50827.87,61800.72,35.13,82.28,-0.030798,-0.031200,0.899018,87.29,1
13723,0,50859,61874,50827.94,61800.87,31.06,73.13,-0.030799,-0.031203,0.898477,87.30,1
13734,0,50860,61878,50828.00,61801.02,32.00,76.98,-0.030801,-0.031205,0.897935,87.31,1
13743,0,50860,61877,50828.07,61801.18,31.93,75.82,-0.030802,-0.031208,0.897391,87.32,1
13749,0,50855,61866,50828.12,61801.31,26.87,64.69,-0.030803,-0.031210,0.896845,87.34,1
13758,0,50852,61869,50828.18,61801.45,23.82,67.55,-0.030804,-0.031212,0.896298,87.35,1
13767,0,50856,61869,50828.23,61801.58,27.77,67.42,-0.030805,-0.031214,0.895749,87.36,1
13777,0,50862,61870,50828.30,61801.72,33.70,68.28,-0.030806,-0.031216,0.895201,87.38,1
13788,0,50855,61873,50828.36,61801.86,26.64,71.14,-0.030808,-0.031219,0.894650,87.39,1
13801,0,50854,61871,50828.41,61802.00,25.59,69.00,-0.030809,-0.031221,0.894097,87.40,1
13818,0,50860,61871,50828.48,61802.14,31.52,68.86,-0.030810,-0.031223,0.893543,87.41,1
13828,0,50856,61864,50828.53,61802.27,27.47,61.73,-0.030811,-0.031225,0.892990,87.43,1
13838,0,50862,61869,50828.60,61802.41,33.40,66.59,-0.030812,-0.031227,0.892436,87.44,1
13846,0,50859,61871,50828.66,61802.55,30.34,68.45,-0.030814,-0.031230,0.891881,87.45,1
13853,0,50866,61871,50828.73,61802.68,37.27,68.32,-0.030815,-0.031232,0.891327,87.47,1
13860,0,50861,61868,50828.80,61802.82,32.20,65.18,-0.030816,-0.031234,0.890774,87.48,1
13869,0,50864,61871,50828.87,61802.95,35.13,68.05,-0.030818,-0.031236,0.890220,87.49,1
