t_ms,phase,red_raw,ir_raw,red_dc,ir_dc,red_ac,ir_ac,OD_red,OD_ir,R,spo2,spo2_valid
40367,0,54653,60134,54610.91,60116.95,42.09,17.05,0.013894,0.017749,1.238519,79.04,1
40376,0,54647,60131,54611.63,60117.23,35.37,13.77,0.013881,0.017745,1.256866,78.58,1
40386,0,54653,60134,54612.46,60117.57,40.54,16.43,0.013866,0.017739,1.279921,78,1
40396,0,54657,60133,54613.35,60117.88,43.65,15.12,0.01385,0.017734,1.307889,77.3,1
40406,0,54658,60136,54614.24,60118.24,43.76,17.76,0.013833,0.017728,1.333073,76.67,1
40416,0,54660,60141,54615.16,60118.7,44.84,22.3,0.013817,0.01772,1.354472,76.14,1
40426,0,54657,60141,54616,60119.15,41,21.85,0.013801,0.017713,1.370137,75.75,1
40436,0,54668,60152,54617.03,60119.8,50.96,32.2,0.013782,0.017702,1.385726,75.36,1
40445,0,54666,60145,54618.01,60120.31,47.98,24.69,0.013764,0.017693,1.406218,74.84,1
40457,0,54670,60155,54619.05,60121,50.95,34,0.013745,0.017682,1.416658,74.58,1
40466,0,54668,60147,54620.03,60121.53,47.96,25.47,0.013727,0.017673,1.434302,74.14,1
40475,0,54670,60151,54621.03,60122.12,48.96,28.88,0.013709,0.017663,1.448021,73.8,1
40486,0,54676,60146,54622.14,60122.59,53.86,23.41,0.013689,0.017655,1.474729,73.13,1
40496,0,54676,60142,54623.21,60122.98,52.79,19.02,0.013669,0.017649,1.503354,72.42,1
40506,0,54672,60149,54624.19,60123.51,47.81,25.49,0.013651,0.01764,1.51737,72.07,1
40516,0,54674,60144,54625.19,60123.92,48.81,20.08,0.013633,0.017633,1.538167,71.55,1
40526,0,54666,60144,54626,60124.32,40,19.68,0.013618,0.017627,1.54888,71.28,1
40536,0,54664,60143,54626.76,60124.69,37.23,18.3,0.013604,0.017621,1.557996,71.05,1
40546,0,54664,60150,54627.51,60125.2,36.49,24.8,0.01359,0.017612,1.559236,71.02,1
40556,0,54661,60144,54628.18,60125.58,32.82,18.42,0.013578,0.017606,1.564152,70.9,1
40565,0,54667,60135,54628.96,60125.76,38.04,9.23,0.013564,0.017603,1.579984,70.5,1
40577,0,54669,60144,54629.76,60126.13,39.24,17.87,0.013549,0.017597,1.590839,70.23,1
40586,0,54668,60139,54630.52,60126.39,37.48,12.61,0.013535,0.017592,1.604004,69.9,1
40596,0,54665,60138,54631.21,60126.62,33.79,11.38,0.013523,0.017588,1.614624,69.63,1
40606,0,54665,60139,54631.89,60126.87,33.11,12.13,0.01351,0.017584,1.624172,69.4,1
40615,0,54668,60134,54632.61,60127.02,35.39,6.98,0.013497,0.017582,1.63822,69.04,1
40626,0,54672,60144,54633.4,60127.36,38.6,16.64,0.013483,0.017576,1.64889,68.78,1
40636,0,54672,60137,54634.17,60127.55,37.82,9.45,0.013468,0.017573,1.663859,68.4,1
40646,0,54669,60149,54634.87,60127.98,34.13,21.02,0.013456,0.017566,1.665729,68.36,1
40655,0,54674,60139,54635.66,60128.2,38.34,10.8,0.013441,0.017562,1.680245,67.99,1
40666,0,54669,60144,54636.32,60128.52,32.68,15.48,0.013429,0.017557,1.686361,67.84,1
40676,0,54660,60138,54636.8,60128.71,23.2,9.29,0.01342,0.017554,1.690409,67.74,1
40685,0,54664,60132,54637.34,60128.78,26.66,3.22,0.01341,0.017553,1.698732,67.53,1
40696,0,54658,60137,54637.76,60128.94,20.24,8.06,0.013403,0.01755,1.701838,67.45,1
40706,0,54665,60134,54638.3,60129.04,26.7,4.96,0.013393,0.017548,1.709854,67.25,1
40716,0,54668,60135,54638.9,60129.16,29.1,5.84,0.013382,0.017546,1.719264,67.02,1
40726,0,54659,60129,54639.3,60129.16,19.7,-0.16,0.013374,0.017546,1.724064,66.9,1
40736,0,54668,60140,54639.87,60129.38,28.12,10.62,0.013364,0.017543,1.730446,66.74,1
40745,0,54660,60142,54640.28,60129.63,19.72,12.37,0.013357,0.017538,1.730578,66.74,1
40755,0,54663,60144,54640.73,60129.92,22.27,14.08,0.013348,0.017534,1.730646,66.73,1
40766,0,54667,60137,54641.26,60130.06,25.74,6.94,0.013339,0.017531,1.737472,66.56,1
40775,0,54661,60132,54641.66,60130.1,19.34,1.9,0.013331,0.017531,1.742086,66.45,1
40786,0,54661,60130,54642.04,60130.1,18.96,-0.1,0.013324,0.017531,1.746661,66.33,1
40796,0,54660,60120,54642.4,60129.9,17.6,-9.9,0.013318,0.017534,1.747461,66.31,1
40806,0,54653,60131,54642.61,60129.92,10.39,1.08,0.013314,0.017534,1.748812,66.28,1
40816,0,54651,60129,54642.78,60129.9,8.22,-0.9,0.013311,0.017534,1.749661,66.26,1
40825,0,54651,60134,54642.94,60129.98,8.05,4.02,0.013308,0.017533,1.749972,66.25,1
40836,0,54662,60129,54643.32,60129.96,18.68,-0.96,0.013301,0.017533,1.754568,66.14,1
40845,0,54649,60131,54643.44,60129.99,5.56,1.01,0.013299,0.017532,1.754941,66.13,1
40856,0,54653,60129,54643.63,60129.97,9.37,-0.97,0.013295,0.017533,1.756091,66.1,1
40865,0,54655,60126,54643.86,60129.89,11.14,-3.89,0.013291,0.017534,1.757253,66.07,1
40876,0,54649,60120,54643.96,60129.69,5.04,-9.69,0.013289,0.017537,1.754306,66.14,1
40885,0,54638,60121,54643.85,60129.51,-5.85,-8.52,0.013291,0.01754,1.752221,66.19,1
40896,0,54647,60118,54643.91,60129.28,3.09,-11.29,0.01329,0.017544,1.747845,66.3,1
40905,0,54649,60119,54644.01,60129.08,4.98,-10.08,0.013288,0.017548,1.744585,66.39,1
40916,0,54653,60134,54644.19,60129.17,8.8,4.82,0.013285,0.017546,1.74485,66.38,1
40926,0,54655,60124,54644.41,60129.07,10.59,-5.07,0.013281,0.017548,1.745522,66.36,1
40936,0,54656,60131,54644.65,60129.11,11.35,1.89,0.013277,0.017547,1.747251,66.32,1
40945,0,54653,60121,54644.82,60128.95,8.18,-7.95,0.013274,0.01755,1.745898,66.35,1
40956,0,54652,60122,54644.96,60128.82,7.04,-6.82,0.013271,0.017552,1.744902,66.38,1
40966,0,54646,60115,54644.98,60128.54,1.02,-13.54,0.01327,0.017557,1.738106,66.55,1
40976,0,54642,60115,54644.92,60128.27,-2.93,-13.27,0.013272,0.017561,1.731701,66.71,1
40986,0,54635,60109,54644.73,60127.89,-9.73,-18.89,0.013275,0.017567,1.719978,67,1
40995,0,54644,60111,54644.71,60127.55,-0.71,-16.55,0.013275,0.017573,1.709995,67.25,1
41006,0,54642,60106,54644.66,60127.12,-2.66,-21.12,0.013277,0.01758,1.694042,67.65,1
41015,0,54642,60103,54644.6,60126.64,-2.61,-23.64,0.013277,0.017588,1.674463,68.14,1
41026,0,54638,60111,54644.48,60126.32,-6.48,-15.32,0.01328,0.017593,1.666938,68.33,1
41035,0,54639,60094,54644.37,60125.68,-5.37,-31.68,0.013282,0.017604,1.633487,69.16,1
41047,0,54632,60100,54644.12,60125.17,-12.13,-25.17,0.013286,0.017613,1.615107,69.62,1
41056,0,54633,60095,54643.9,60124.56,-10.9,-29.56,0.01329,0.017623,1.58942,70.26,1
41065,0,54633,60094,54643.68,60123.95,-10.68,-29.95,0.013294,0.017633,1.564033,70.9,1
41076,0,54627,60097,54643.35,60123.42,-16.35,-26.42,0.0133,0.017642,1.547575,71.31,1
41085,0,54636,60096,54643.2,60122.87,-7.2,-26.87,0.013303,0.017651,1.527853,71.8,1
41096,0,54635,60102,54643.04,60122.45,-8.04,-20.45,0.013306,0.017658,1.51717,72.07,1
41105,0,54637,60096,54642.92,60121.92,-5.92,-25.92,0.013308,0.017667,1.499363,72.52,1
41116,0,54634,60099,54642.74,60121.46,-8.74,-22.46,0.013312,0.017674,1.487001,72.82,1
41125,0,54630,60104,54642.49,60121.11,-12.49,-17.11,0.013316,0.01768,1.481526,72.96,1
41135,0,54638,60096,54642.4,60120.61,-4.4,-24.61,0.013318,0.017688,1.466014,73.35,1
41146,0,54628,60100,54642.11,60120.2,-14.11,-20.2,0.013323,0.017695,1.458435,73.54,1
41155,0,54637,60090,54642.01,60119.6,-5.01,-29.6,0.013325,0.017705,1.436809,74.08,1
41166,0,54636,60110,54641.89,60119.41,-5.89,-9.41,0.013327,0.017708,1.43512,74.12,1
41176,0,54630,60092,54641.66,60118.86,-11.66,-26.86,0.013331,0.017718,1.419429,74.51,1
41186,0,54622,60092,54641.26,60118.32,-19.27,-26.32,0.013339,0.017726,1.408231,74.79,1
41196,0,54623,60093,54640.9,60117.82,-17.9,-24.82,0.013345,0.017735,1.398405,75.04,1
41205,0,54617,60084,54640.42,60117.14,-23.43,-33.14,0.013354,0.017746,1.3812,75.47,1
41216,0,54620,60086,54640.01,60116.52,-20.02,-30.52,0.013361,0.017756,1.366338,75.84,1
41226,0,54610,60078,54639.41,60115.75,-29.41,-37.75,0.013372,0.017769,1.348196,76.3,1
41236,0,54612,60085,54638.86,60115.14,-26.86,-30.14,0.013383,0.017779,1.339522,76.51,1
41245,0,54615,60088,54638.39,60114.6,-23.39,-26.6,0.013391,0.017788,1.33278,76.68,1
41255,0,54611,60077,54637.84,60113.85,-26.84,-36.85,0.013401,0.017801,1.316042,77.1,1
41266,0,54613,60088,54637.35,60113.33,-24.35,-25.33,0.01341,0.01781,1.311763,77.21,1
41275,0,54610,60077,54636.8,60112.6,-26.8,-35.61,0.01342,0.017822,1.297775,77.56,1
41286,0,54607,60078,54636.21,60111.91,-29.21,-33.91,0.013431,0.017833,1.288255,77.79,1
41295,0,54610,60073,54635.68,60111.14,-25.68,-38.14,0.013441,0.017846,1.27157,78.21,1
41305,0,54607,60080,54635.11,60110.51,-28.11,-30.52,0.013451,0.017856,1.265933,78.35,1
41316,0,54600,60074,54634.41,60109.78,-34.41,-35.79,0.013464,0.017869,1.259698,78.51,1
41325,0,54597,60067,54633.66,60108.93,-36.66,-41.93,0.013478,0.017883,1.248295,78.79,1
41335,0,54599,60080,54632.97,60108.35,-33.97,-28.36,0.01349,0.017892,1.249708,78.76,1
41346,0,54597,60072,54632.25,60107.63,-35.25,-35.63,0.013503,0.017904,1.245134,78.87,1
41355,0,54593,60071,54631.47,60106.9,-38.47,-35.9,0.013518,0.017917,1.243199,78.92,1
41366,0,54596,60069,54630.76,60106.14,-34.76,-37.14,0.013531,0.017929,1.237028,79.07,1
41375,0,54591,60070,54629.96,60105.42,-38.96,-35.42,0.013545,0.017941,1.236293,79.09,1
41384,0,54592,60078,54629.21,60104.87,-37.21,-26.87,0.013559,0.01795,1.241453,78.96,1
41396,0,54592,60071,54628.46,60104.19,-36.46,-33.2,0.013573,0.017962,1.240672,78.98,1
41405,0,54592,60065,54627.74,60103.41,-35.74,-38.41,0.013586,0.017974,1.234372,79.14,1
41416,0,54590,60066,54626.98,60102.67,-36.98,-36.67,0.0136,0.017987,1.231012,79.22,1
41425,0,54592,60067,54626.28,60101.96,-34.29,-34.96,0.013613,0.017999,1.227389,79.32,1
41435,0,54590,60073,54625.56,60101.38,-35.56,-28.38,0.013626,0.018008,1.230063,79.25,1
41446,0,54592,60064,54624.89,60100.63,-32.89,-36.63,0.013638,0.018021,1.224105,79.4,1
41455,0,54588,60061,54624.16,60099.84,-36.16,-38.84,0.013652,0.018034,1.218592,79.54,1
41465,0,54580,60064,54623.28,60099.12,-43.28,-35.13,0.013668,0.018046,1.222092,79.45,1
41476,0,54577,60067,54622.35,60098.48,-45.35,-31.48,0.013685,0.018057,1.23009,79.25,1
41485,0,54583,60073,54621.57,60097.98,-38.57,-24.98,0.013699,0.018065,1.236821,79.08,1
41495,0,54585,60073,54620.83,60097.48,-35.84,-24.48,0.013713,0.018073,1.241801,78.95,1
41505,0,54583,60064,54620.08,60096.81,-37.08,-32.81,0.013726,0.018084,1.241838,78.95,1
41516,0,54589,60076,54619.46,60096.4,-30.46,-20.4,0.013738,0.018091,1.245551,78.86,1
41525,0,54581,60068,54618.69,60095.83,-37.7,-27.83,0.013752,0.018101,1.249519,78.76,1
41536,0,54585,60074,54618.02,60095.4,-33.02,-21.4,0.013764,0.018108,1.25414,78.65,1
41545,0,54577,60070,54617.2,60094.89,-40.2,-24.89,0.013779,0.018116,1.261589,78.46,1
41554,0,54584,60068,54616.54,60094.35,-32.54,-26.35,0.013791,0.018125,1.26292,78.43,1
41566,0,54579,60070,54615.79,60093.86,-36.79,-23.86,0.013805,0.018133,1.268401,78.29,1
41575,0,54589,60074,54615.25,60093.47,-26.25,-19.47,0.013815,0.01814,1.270087,78.25,1
41586,0,54588,60075,54614.71,60093.1,-26.71,-18.1,0.013825,0.018146,1.272607,78.18,1
41595,0,54587,60060,54614.16,60092.44,-27.16,-32.44,0.013835,0.018157,1.266558,78.34,1
41605,0,54587,60058,54613.61,60091.75,-26.61,-33.75,0.013845,0.018169,1.259372,78.52,1
41616,0,54576,60056,54612.86,60091.04,-36.86,-35.04,0.013858,0.01818,1.257155,78.57,1
41625,0,54578,60050,54612.16,60090.22,-34.16,-40.22,0.013871,0.018194,1.248891,78.78,1
41635,0,54578,60059,54611.48,60089.6,-33.48,-30.6,0.013884,0.018204,1.248149,78.8,1
41646,0,54573,60056,54610.71,60088.93,-37.71,-32.93,0.013898,0.018216,1.248383,78.79,1
41655,0,54575,60054,54610,60088.23,-35,-34.23,0.013911,0.018227,1.245959,78.85,1
41665,0,54577,60053,54609.33,60087.53,-32.34,-34.53,0.013923,0.018239,1.241863,78.95,1
41675,0,54575,60058,54608.65,60086.94,-33.65,-28.94,0.013936,0.018249,1.242418,78.94,1
41686,0,54579,60061,54608.05,60086.42,-29.05,-25.42,0.013947,0.018257,1.242591,78.94,1
41695,0,54578,60058,54607.45,60085.85,-29.45,-27.85,0.013958,0.018267,1.241566,78.96,1
41705,0,54577,60054,54606.84,60085.21,-29.84,-31.21,0.013969,0.018277,1.238637,79.03,1
41715,0,54576,60056,54606.23,60084.63,-30.23,-28.63,0.01398,0.018287,1.237591,79.06,1
41724,0,54580,60058,54605.7,60084.1,-25.7,-26.1,0.01399,0.018296,1.235911,79.1,1
41736,0,54575,60061,54605.09,60083.64,-30.09,-22.64,0.014001,0.018304,1.238073,79.05,1
41745,0,54576,60053,54604.51,60083.03,-28.51,-30.03,0.014012,0.018314,1.235339,79.12,1
41756,0,54584,60054,54604.1,60082.44,-20.1,-28.45,0.014019,0.018323,1.23022,79.24,1
41765,0,54579,60057,54603.59,60081.94,-24.59,-24.94,0.014028,0.018332,1.228783,79.28,1
41775,0,54582,60061,54603.16,60081.52,-21.16,-20.52,0.014036,0.018339,1.228137,79.3,1
41786,0,54582,60055,54602.74,60080.99,-20.74,-25.99,0.014044,0.018348,1.224697,79.38,1
41795,0,54581,60054,54602.31,60080.45,-21.31,-26.45,0.014052,0.018357,1.221241,79.47,1
41805,0,54581,60062,54601.88,60080.08,-20.88,-18.08,0.01406,0.018363,1.221521,79.46,1
41816,0,54581,60057,54601.47,60079.62,-20.47,-22.62,0.014067,0.01837,1.219735,79.51,1
41825,0,54582,60060,54601.08,60079.23,-19.08,-19.23,0.014074,0.018377,1.218969,79.53,1
41835,0,54586,60065,54600.78,60078.95,-14.78,-13.95,0.01408,0.018382,1.218794,79.53,1
41845,0,54587,60053,54600.5,60078.43,-13.5,-25.43,0.014085,0.01839,1.213573,79.66,1
41856,0,54579,60061,54600.07,60078.08,-21.07,-17.08,0.014093,0.018396,1.214339,79.64,1
41865,0,54582,60050,54599.71,60077.52,-17.71,-27.52,0.014099,0.018405,1.209107,79.77,1
41875,0,54573,60051,54599.18,60076.99,-26.18,-25.99,0.014109,0.018414,1.207988,79.8,1
41885,0,54571,60048,54598.62,60076.41,-27.62,-28.41,0.014119,0.018424,1.206184,79.85,1
41894,0,54578,60044,54598.2,60075.76,-20.2,-31.77,0.014127,0.018435,1.199308,80.02,1
41906,0,54578,60048,54597.8,60075.21,-19.8,-27.21,0.014134,0.018444,1.195131,80.12,1
41915,0,54573,60048,54597.3,60074.67,-24.3,-26.67,0.014143,0.018453,1.193003,80.17,1
41924,0,54572,60060,54596.8,60074.37,-24.8,-14.38,0.014153,0.018458,1.196211,80.09,1
41935,0,54571,60049,54596.29,60073.87,-25.29,-24.87,0.014162,0.018466,1.195425,80.11,1
41945,0,54573,60043,54595.82,60073.25,-22.82,-30.25,0.014171,0.018476,1.190627,80.23,1
41956,0,54562,60048,54595.15,60072.75,-33.15,-24.75,0.014183,0.018485,1.193905,80.15,1
41965,0,54565,60050,54594.55,60072.29,-29.55,-22.29,0.014194,0.018492,1.196375,80.09,1
41974,0,54562,60052,54593.89,60071.89,-31.89,-19.89,0.014206,0.018499,1.201091,79.97,1
41986,0,54563,60047,54593.28,60071.39,-30.28,-24.39,0.014217,0.018507,1.202872,79.93,1
41995,0,54563,60049,54592.68,60070.94,-29.68,-21.95,0.014228,0.018515,1.205485,79.86,1
42005,0,54569,60045,54592.21,60070.42,-23.21,-25.43,0.014237,0.018524,1.203456,79.91,1
42015,0,54558,60044,54591.52,60069.9,-33.52,-25.9,0.014249,0.018532,1.2062,79.85,1
42025,0,54561,60044,54590.91,60069.38,-29.91,-25.38,0.01426,0.018541,1.207228,79.82,1
42035,0,54561,60043,54590.32,60068.85,-29.32,-25.85,0.014271,0.01855,1.207696,79.81,1
42045,0,54559,60051,54589.69,60068.5,-30.69,-17.5,0.014283,0.018556,1.212576,79.69,1
42055,0,54557,60040,54589.04,60067.93,-32.04,-27.93,0.014295,0.018565,1.213248,79.67,1
42064,0,54558,60037,54588.42,60067.31,-30.42,-30.31,0.014306,0.018575,1.211635,79.71,1
42076,0,54556,60044,54587.77,60066.84,-31.77,-22.84,0.014318,0.018583,1.214812,79.63,1
42085,0,54557,60047,54587.16,60066.45,-30.16,-19.45,0.014329,0.01859,1.218595,79.54,1
42094,0,54554,60037,54586.5,60065.86,-32.5,-28.86,0.014341,0.0186,1.218886,79.53,1
42105,0,54551,60047,54585.78,60065.48,-34.79,-18.48,0.014354,0.018606,1.225527,79.36,1
42115,0,54552,60041,54585.11,60065,-33.11,-24,0.014367,0.018614,1.228723,79.28,1
42126,0,54557,60047,54584.55,60064.64,-27.55,-17.64,0.014377,0.01862,1.231834,79.2,1
42135,0,54552,60042,54583.9,60064.19,-31.9,-22.19,0.014389,0.018627,1.23519,79.12,1
42144,0,54554,60046,54583.3,60063.83,-29.3,-17.83,0.0144,0.018633,1.239033,79.02,1
42156,0,54556,60039,54582.76,60063.33,-26.76,-24.33,0.01441,0.018642,1.238743,79.03,1
42165,0,54562,60041,54582.34,60062.89,-20.34,-21.89,0.014417,0.018649,1.23712,79.07,1
42175,0,54562,60049,54581.94,60062.61,-19.94,-13.61,0.014425,0.018654,1.238502,79.04,1
42185,0,54550,60048,54581.3,60062.32,-31.3,-14.32,0.014437,0.018658,1.244612,78.88,1
42194,0,54553,60053,54580.73,60062.13,-27.73,-9.13,0.014447,0.018662,1.250256,78.74,1
42205,0,54558,60055,54580.28,60061.99,-22.28,-6.99,0.014455,0.018664,1.253968,78.65,1
42215,0,54562,60051,54579.91,60061.77,-17.91,-10.77,0.014462,0.018668,1.255434,78.61,1
42225,0,54561,60057,54579.53,60061.68,-18.54,-4.68,0.014469,0.018669,1.25817,78.55,1
42234,0,54574,60058,54579.42,60061.6,-5.43,-3.61,0.014471,0.01867,1.25828,78.54,1
42246,0,54560,60050,54579.04,60061.37,-19.04,-11.38,0.014478,0.018674,1.259985,78.5,1
42255,0,54558,60043,54578.62,60061.01,-20.62,-18.01,0.014486,0.01868,1.259986,78.5,1
42264,0,54558,60041,54578.21,60060.61,-20.21,-19.61,0.014493,0.018687,1.259137,78.52,1
42275,0,54557,60038,54577.79,60060.16,-20.79,-22.16,0.014501,0.018694,1.257262,78.57,1
42285,0,54549,60031,54577.21,60059.58,-28.21,-28.58,0.014511,0.018704,1.254867,78.63,1
42295,0,54551,60034,54576.69,60059.07,-25.69,-25.07,0.014521,0.018713,1.253475,78.66,1
42305,0,54550,60033,54576.16,60058.55,-26.16,-25.55,0.014531,0.018721,1.252036,78.7,1
42314,0,54549,60033,54575.62,60058.04,-26.62,-25.04,0.014541,0.01873,1.251123,78.72,1
42326,0,54554,60033,54575.18,60057.54,-21.18,-24.54,0.014549,0.018738,1.248202,78.79,1
42335,0,54552,60030,54574.72,60056.99,-22.72,-26.99,0.014557,0.018747,1.244473,78.89,1
42345,0,54559,60039,54574.41,60056.63,-15.41,-17.63,0.014563,0.018753,1.243045,78.92,1
42355,0,54554,60037,54574,60056.24,-20,-19.24,0.01457,0.01876,1.242397,78.94,1
42364,0,54564,60039,54573.8,60055.89,-9.8,-16.89,0.014574,0.018765,1.239986,79,1
42375,0,54562,60043,54573.56,60055.64,-11.56,-12.64,0.014578,0.01877,1.239358,79.02,1
42385,0,54558,60033,54573.25,60055.18,-15.25,-22.18,0.014584,0.018777,1.235794,79.11,1
42395,0,54563,60040,54573.05,60054.88,-10.05,-14.88,0.014588,0.018782,1.234158,79.15,1
42404,0,54565,60043,54572.89,60054.64,-7.89,-11.64,0.014591,0.018786,1.233155,79.17,1
42415,0,54565,60052,54572.73,60054.59,-7.73,-2.59,0.014594,0.018787,1.233635,79.16,1
42425,0,54573,60044,54572.74,60054.38,0.26,-10.38,0.014593,0.018791,1.232359,79.19,1
42434,0,54578,60042,54572.84,60054.14,5.16,-12.14,0.014592,0.018795,1.230856,79.23,1
42445,0,54577,60049,54572.92,60054.03,4.07,-5.04,0.01459,0.018796,1.230711,79.23,1
42455,0,54574,60045,54572.95,60053.85,1.05,-8.86,0.01459,0.018799,1.229771,79.26,1
42465,0,54579,60052,54573.07,60053.82,5.93,-1.82,0.014587,0.0188,1.230075,79.25,1
42474,0,54580,60048,54573.21,60053.71,6.79,-5.71,0.014585,0.018802,1.230128,79.25,1
42485,0,54577,60051,54573.28,60053.65,3.71,-2.65,0.014583,0.018803,1.230177,79.25,1
42494,0,54574,60042,54573.3,60053.42,0.7,-11.42,0.014583,0.018807,1.228543,79.29,1
42505,0,54581,60045,54573.46,60053.25,7.54,-8.25,0.01458,0.018809,1.228258,79.29,1
42514,0,54570,60043,54573.39,60053.05,-3.39,-10.05,0.014582,0.018813,1.227086,79.32,1
42525,0,54580,60054,54573.52,60053.07,6.48,0.93,0.014579,0.018812,1.227509,79.31,1
42534,0,54576,60044,54573.57,60052.89,2.43,-8.89,0.014578,0.018815,1.226544,79.34,1
42545,0,54574,60042,54573.58,60052.67,0.41,-10.67,0.014578,0.018819,1.225056,79.37,1
42555,0,54573,60045,54573.58,60052.52,-0.58,-7.52,0.014578,0.018822,1.224314,79.39,1
42565,0,54572,60049,54573.55,60052.45,-1.55,-3.45,0.014579,0.018823,1.224181,79.4,1
42574,0,54578,60051,54573.64,60052.42,4.36,-1.42,0.014577,0.018823,1.22436,79.39,1
42586,0,54574,60050,54573.65,60052.37,0.35,-2.38,0.014577,0.018824,1.224284,79.39,1
42595,0,54583,60045,54573.83,60052.23,9.16,-7.23,0.014573,0.018827,1.224497,79.39,1
42604,0,54574,60054,54573.84,60052.26,0.16,1.74,0.014573,0.018826,1.224455,79.39,1
42614,0,54575,60049,54573.86,60052.2,1.14,-3.2,0.014573,0.018827,1.224326,79.39,1
42624,0,54581,60058,54574.01,60052.32,6.99,5.68,0.01457,0.018825,1.224427,79.39,1
42635,0,54586,60048,54574.25,60052.23,11.75,-4.23,0.014566,0.018826,1.225758,79.36,1
42644,0,54573,60059,54574.22,60052.37,-1.22,6.63,0.014566,0.018824,1.225142,79.37,1
42654,0,54575,60055,54574.24,60052.42,0.76,2.58,0.014566,0.018823,1.225052,79.37,1
42664,0,54578,60061,54574.31,60052.59,3.69,8.41,0.014565,0.01882,1.224178,79.4,1
42675,0,54580,60055,54574.43,60052.64,5.57,2.36,0.014563,0.01882,1.224466,79.39,1
42684,0,54577,60047,54574.48,60052.53,2.52,-5.54,0.014562,0.018821,1.224085,79.4,1
42694,0,54576,60050,54574.51,60052.48,1.49,-2.48,0.014561,0.018822,1.224018,79.4,1
42704,0,54576,60053,54574.54,60052.5,1.46,0.5,0.01456,0.018822,1.22404,79.4,1
42715,0,54576,60051,54574.57,60052.47,1.43,-1.47,0.01456,0.018823,1.224031,79.4,1
42724,0,54573,60048,54574.54,60052.38,-1.54,-4.38,0.01456,0.018824,1.223763,79.41,1
42735,0,54567,60041,54574.39,60052.16,-7.39,-11.16,0.014563,0.018828,1.22251,79.44,1
42744,0,54568,60039,54574.26,60051.89,-6.27,-12.89,0.014565,0.018832,1.220401,79.49,1
42755,0,54562,60036,54574.02,60051.58,-12.02,-15.58,0.01457,0.018837,1.218433,79.54,1
42764,0,54557,60034,54573.68,60051.23,-16.68,-17.23,0.014576,0.018843,1.217335,79.57,1
42775,0,54553,60041,54573.26,60051.02,-20.27,-10.02,0.014584,0.018847,1.221047,79.47,1
42784,0,54560,60032,54573,60050.64,-13,-18.64,0.014589,0.018853,1.217702,79.56,1
42793,0,54553,60037,54572.6,60050.37,-19.6,-13.37,0.014596,0.018857,1.219848,79.5,1
42805,0,54550,60035,54572.15,60050.06,-22.15,-15.06,0.014604,0.018863,1.222606,79.43,1
42814,0,54557,60039,54571.85,60049.84,-14.85,-10.84,0.01461,0.018866,1.223593,79.41,1
42825,0,54558,60047,54571.57,60049.79,-13.57,-2.79,0.014615,0.018867,1.225898,79.35,1
42834,0,54555,60039,54571.25,60049.57,-16.25,-10.57,0.014621,0.018871,1.227558,79.31,1
42844,0,54555,60038,54570.92,60049.34,-15.92,-11.34,0.014627,0.018875,1.228804,79.28,1
42855,0,54554,60039,54570.58,60049.14,-16.58,-10.14,0.014633,0.018878,1.230773,79.23,1
42864,0,54558,60048,54570.33,60049.12,-12.33,-1.12,0.014638,0.018878,1.23281,79.18,1
42875,0,54560,60046,54570.12,60049.06,-10.13,-3.06,0.014641,0.018879,1.234048,79.15,1
42885,0,54559,60047,54569.9,60049.02,-10.9,-2.02,0.014645,0.01888,1.235614,79.11,1
42894,0,54567,60044,54569.84,60048.92,-2.84,-4.92,0.014647,0.018882,1.235301,79.12,1
42904,0,54561,60041,54569.67,60048.76,-8.67,-7.77,0.01465,0.018884,1.235289,79.12,1
42913,0,54558,60032,54569.44,60048.43,-11.44,-16.43,0.014654,0.01889,1.232343,79.19,1
42925,0,54556,60016,54569.17,60047.78,-13.17,-31.79,0.014659,0.018901,1.217142,79.57,1
42934,0,54544,60007,54568.67,60046.97,-24.67,-39.97,0.014668,0.018914,1.198809,80.03,1
42945,0,54541,60012,54568.12,60046.27,-27.12,-34.27,0.014678,0.018926,1.18993,80.25,1
42954,0,54537,60005,54567.5,60045.45,-30.5,-40.45,0.01469,0.018939,1.176991,80.58,1
42963,0,54539,60014,54566.93,60044.82,-27.93,-30.82,0.0147,0.01895,1.172981,80.68,1
42975,0,54541,60011,54566.41,60044.15,-25.41,-33.15,0.014709,0.018961,1.165205,80.87,1
42984,0,54544,60009,54565.96,60043.44,-21.96,-34.45,0.014718,0.018973,1.154389,81.14,1
42995,0,54538,60002,54565.41,60042.62,-27.41,-40.62,0.014728,0.018987,1.141074,81.47,1
43004,0,54538,59997,54564.86,60041.71,-26.86,-44.71,0.014738,0.019002,1.123624,81.91,1
43014,0,54534,60007,54564.25,60041.01,-30.25,-34.02,0.014749,0.019013,1.120084,82,1
43025,0,54524,59999,54563.44,60040.17,-39.44,-41.18,0.014764,0.019027,1.117705,82.06,1
43034,0,54528,59990,54562.73,60039.17,-34.73,-49.18,0.014777,0.019044,1.102965,82.43,1
43044,0,54518,59988,54561.83,60038.16,-43.84,-50.16,0.014793,0.019061,1.096255,82.59,1
43055,0,54516,59992,54560.92,60037.23,-44.92,-45.23,0.01481,0.019076,1.096118,82.6,1
43064,0,54522,59994,54560.14,60036.37,-38.14,-42.37,0.014824,0.019091,1.092682,82.68,1
43074,0,54522,59988,54559.38,60035.41,-37.38,-47.41,0.014838,0.019107,1.084293,82.89,1
43084,0,54519,59990,54558.57,60034.5,-39.57,-44.5,0.014853,0.019122,1.080712,82.98,1
43095,0,54513,59987,54557.66,60033.55,-44.66,-46.55,0.01487,0.019138,1.079781,83.01,1
43104,0,54517,59984,54556.85,60032.56,-39.85,-48.56,0.014885,0.019154,1.073285,83.17,1
43115,0,54519,59994,54556.09,60031.79,-37.09,-37.79,0.014899,0.019167,1.073446,83.16,1
43124,0,54516,59992,54555.29,60031,-39.29,-39,0.014913,0.01918,1.074341,83.14,1
43133,0,54518,59992,54554.55,60030.22,-36.55,-38.22,0.014927,0.019193,1.073821,83.15,1
43145,0,54512,59997,54553.69,60029.56,-41.7,-32.56,0.014943,0.019204,1.080412,82.99,1
43154,0,54513,59988,54552.88,60028.73,-39.88,-40.73,0.014957,0.019218,1.080333,82.99,1
43165,0,54520,60001,54552.23,60028.18,-32.23,-27.18,0.014969,0.019227,1.08322,82.92,1
43174,0,54522,60002,54551.62,60027.66,-29.62,-25.66,0.01498,0.019236,1.085334,82.87,1
43184,0,54524,59998,54551.07,60027.07,-27.07,-29.07,0.014991,0.019246,1.084553,82.89,1
43195,0,54522,60002,54550.5,60026.57,-28.5,-24.57,0.015001,0.019254,1.086536,82.84,1
43204,0,54522,59995,54549.93,60025.93,-27.93,-30.93,0.015012,0.019264,1.085201,82.87,1
43214,0,54524,60006,54549.41,60025.54,-25.41,-19.54,0.015021,0.019271,1.087608,82.81,1
43225,0,54528,59998,54548.98,60024.99,-20.98,-26.99,0.015029,0.01928,1.085232,82.87,1
43234,0,54527,60007,54548.54,60024.63,-21.54,-17.63,0.015037,0.019286,1.086655,82.83,1
43244,0,54530,60010,54548.17,60024.34,-18.18,-14.34,0.015044,0.019291,1.087804,82.8,1
43253,0,54531,60001,54547.83,60023.87,-16.84,-22.87,0.01505,0.019299,1.085783,82.86,1
43265,0,54533,60005,54547.54,60023.5,-14.54,-18.5,0.015055,0.019305,1.084695,82.88,1
43274,0,54543,60005,54547.45,60023.13,-4.45,-18.13,0.015057,0.019311,1.082003,82.95,1
43285,0,54542,60022,54547.34,60023.11,-5.34,-1.11,0.015059,0.019311,1.082251,82.94,1
43294,0,54545,60013,54547.29,60022.91,-2.29,-9.91,0.01506,0.019315,1.081428,82.96,1
43304,0,54537,60017,54547.08,60022.8,-10.09,-5.8,0.015064,0.019317,1.082069,82.95,1
43314,0,54541,60018,54546.96,60022.7,-5.96,-4.7,0.015066,0.019318,1.082201,82.94,1
43324,0,54550,60018,54547.03,60022.61,2.97,-4.61,0.015065,0.01932,1.08209,82.95,1
43334,0,54546,60030,54547.01,60022.76,-1.01,7.24,0.015065,0.019317,1.081617,82.96,1
43343,0,54552,60033,54547.11,60022.97,4.89,10.03,0.015063,0.019314,1.080913,82.98,1
43354,0,54558,60037,54547.33,60023.25,10.67,13.75,0.015059,0.019309,1.08025,82.99,1
43364,0,54560,60040,54547.58,60023.58,12.42,16.41,0.015055,0.019304,1.079224,83.02,1
43374,0,54562,60038,54547.87,60023.88,14.13,14.12,0.015049,0.019299,1.0793,83.02,1
43383,0,54563,60035,54548.17,60024.1,14.82,10.9,0.015044,0.019295,1.080342,82.99,1
43395,0,54559,60035,54548.39,60024.32,10.61,10.68,0.01504,0.019291,1.080367,82.99,1
43404,0,54563,60037,54548.69,60024.57,14.31,12.43,0.015034,0.019287,1.080928,82.98,1
43415,0,54569,60044,54549.09,60024.96,19.91,19.04,0.015027,0.019281,1.081395,82.97,1
43424,0,54571,60035,54549.53,60025.16,21.47,9.84,0.015019,0.019277,1.08511,82.87,1
43433,0,54565,60041,54549.84,60025.48,15.16,15.52,0.015013,0.019272,1.085063,82.87,1
43444,0,54567,60044,54550.19,60025.85,16.81,18.15,0.015007,0.019266,1.084678,82.88,1
43454,0,54570,60055,54550.58,60026.43,19.42,28.57,0.015,0.019256,1.08045,82.99,1
43464,0,54575,60055,54551.07,60027.01,23.93,27.99,0.014991,0.019247,1.078593,83.04,1
43473,0,54585,60051,54551.75,60027.49,33.25,23.51,0.014978,0.019239,1.084416,82.89,1
43485,0,54582,60051,54552.35,60027.96,29.64,23.04,0.014967,0.019231,1.088083,82.8,1
43494,0,54583,60058,54552.97,60028.56,30.03,29.44,0.014956,0.019221,1.08863,82.78,1
43503,0,54581,60058,54553.53,60029.15,27.47,28.85,0.014945,0.019211,1.088032,82.8,1
43514,0,54591,60057,54554.28,60029.71,36.72,27.29,0.014932,0.019202,1.094179,82.65,1
43524,0,54591,60050,54555.01,60030.12,35.98,19.88,0.014918,0.019195,1.103103,82.42,1
43534,0,54590,60070,54555.72,60030.91,34.28,39.09,0.014905,0.019181,1.099617,82.51,1
43544,0,54598,60071,54556.57,60031.72,41.43,39.28,0.01489,0.019168,1.101292,82.47,1
43554,0,54589,60073,54557.22,60032.55,31.78,40.45,0.014878,0.019154,1.095398,82.62,1
43564,0,54600,60068,54558.07,60033.26,41.93,34.74,0.014862,0.019142,1.100607,82.48,1
43574,0,54601,60067,54558.93,60033.93,42.07,33.07,0.014846,0.019131,1.106791,82.33,1
43584,0,54599,60065,54559.74,60034.56,39.26,30.44,0.014832,0.019121,1.112259,82.19,1
43593,0,54599,60059,54560.52,60035.05,38.48,23.95,0.014817,0.019113,1.120309,81.99,1
43604,0,54603,60060,54561.37,60035.55,41.63,24.45,0.014802,0.019104,1.130251,81.74,1
43614,0,54595,60059,54562.04,60036.01,32.96,22.98,0.01479,0.019097,1.134949,81.63,1
43624,0,54599,60059,54562.78,60036.48,36.21,22.52,0.014776,0.019089,1.141782,81.46,1
43634,0,54600,60056,54563.53,60036.87,36.47,19.13,0.014762,0.019082,1.150046,81.25,1
43643,0,54596,60058,54564.18,60037.3,31.82,20.7,0.01475,0.019075,1.154838,81.13,1
43654,0,54601,60054,54564.92,60037.63,36.08,16.37,0.014737,0.01907,1.163698,80.91,1
43664,0,54603,60044,54565.68,60037.76,37.32,6.24,0.014723,0.019068,1.175578,80.61,1
43674,0,54601,60046,54566.39,60037.92,34.61,8.08,0.01471,0.019065,1.185467,80.36,1
43683,0,54595,60043,54566.96,60038.02,28.04,4.98,0.014699,0.019063,1.192153,80.2,1
43695,0,54610,60059,54567.82,60038.44,42.18,20.55,0.014684,0.019056,1.203425,79.91,1
43704,0,54607,60060,54568.6,60038.87,38.4,21.12,0.014669,0.019049,1.211637,79.71,1
43713,0,54614,60061,54569.51,60039.32,44.49,21.68,0.014653,0.019042,1.223859,79.4,1
43724,0,54614,60068,54570.4,60039.89,43.6,28.11,0.014636,0.019032,1.231771,79.21,1
43734,0,54611,60062,54571.21,60040.33,39.79,21.67,0.014621,0.019025,1.240252,78.99,1
43744,0,54612,60056,54572.03,60040.65,39.97,15.35,0.014606,0.019019,1.251302,78.72,1
43754,0,54610,60058,54572.79,60041,37.21,17,0.014593,0.019014,1.259879,78.5,1
43764,0,54613,60065,54573.6,60041.48,39.4,23.52,0.014578,0.019006,1.266856,78.33,1
43773,0,54614,60058,54574.41,60041.81,39.59,16.19,0.014563,0.019,1.277136,78.07,1
43783,0,54611,60063,54575.14,60042.23,35.86,20.77,0.01455,0.018993,1.283053,77.92,1
43794,0,54613,60062,54575.9,60042.63,37.1,19.37,0.014536,0.018986,1.290309,77.74,1
43803,0,54615,60060,54576.68,60042.98,38.32,17.02,0.014521,0.018981,1.299255,77.52,1
43814,0,54615,60056,54577.45,60043.24,37.55,12.76,0.014507,0.018976,1.309145,77.27,1
43824,0,54608,60050,54578.07,60043.37,29.93,6.63,0.014496,0.018974,1.316137,77.1,1
43834,0,54612,60057,54578.75,60043.65,33.25,13.35,0.014483,0.018969,1.323281,76.92,1
43844,0,54614,60050,54579.45,60043.78,34.55,6.22,0.01447,0.018967,1.332862,76.68,1
43853,0,54610,60060,54580.06,60044.1,29.94,15.9,0.014459,0.018962,1.337285,76.57,1
43864,0,54615,60055,54580.76,60044.32,34.24,10.68,0.014446,0.018958,1.345766,76.36,1
43873,0,54612,60052,54581.39,60044.47,30.61,7.53,0.014435,0.018956,1.35299,76.18,1
43884,0,54606,60056,54581.88,60044.71,24.12,11.29,0.014426,0.018952,1.356296,76.09,1
43893,0,54601,60047,54582.26,60044.75,18.73,2.25,0.014419,0.018951,1.359237,76.02,1
43905,0,54606,60053,54582.74,60044.92,23.26,8.08,0.01441,0.018948,1.363041,75.92,1
43914,0,54607,60050,54583.23,60045.02,23.77,4.98,0.014401,0.018947,1.367614,75.81,1
43924,0,54606,60055,54583.69,60045.22,22.31,9.78,0.014393,0.018943,1.370669,75.73,1
43933,0,54607,60052,54584.16,60045.36,22.84,6.64,0.014384,0.018941,1.374651,75.63,1
43943,0,54595,60052,54584.37,60045.49,10.63,6.51,0.01438,0.018939,1.375062,75.62,1
43954,0,54599,60044,54584.66,60045.46,14.34,-1.46,0.014375,0.018939,1.376866,75.58,1
43963,0,54599,60038,54584.95,60045.32,14.05,-7.32,0.01437,0.018942,1.377885,75.55,1
43974,0,54593,60034,54585.11,60045.09,7.89,-11.09,0.014367,0.018945,1.376695,75.58,1
43983,0,54591,60034,54585.23,60044.87,5.77,-10.87,0.014365,0.018949,1.375303,75.62,1
43994,0,54586,60035,54585.25,60044.67,0.75,-9.67,0.014364,0.018952,1.373954,75.65,1
44004,0,54591,60034,54585.36,60044.46,5.64,-10.46,0.014362,0.018956,1.372656,75.68,1
44014,0,54584,60037,54585.33,60044.31,-1.34,-7.31,0.014363,0.018958,1.371886,75.7,1
44023,0,54584,60026,54585.31,60043.94,-1.31,-17.95,0.014363,0.018964,1.367163,75.82,1
44035,0,54584,60042,54585.28,60043.91,-1.28,-1.91,0.014364,0.018965,1.367121,75.82,1
44044,0,54586,60046,54585.3,60043.94,0.7,2.05,0.014363,0.018964,1.367059,75.82,1
44053,0,54582,60042,54585.23,60043.91,-3.23,-1.91,0.014365,0.018965,1.367102,75.82,1
44063,0,54583,60033,54585.19,60043.69,-2.19,-10.69,0.014365,0.018969,1.36541,75.86,1
44073,0,54578,60031,54585.05,60043.44,-7.05,-12.44,0.014368,0.018973,1.363536,75.91,1
44084,0,54578,60028,54584.91,60043.13,-6.91,-15.13,0.014371,0.018978,1.360498,75.99,1
44093,0,54582,60031,54584.85,60042.89,-2.85,-11.89,0.014372,0.018982,1.3584,76.04,1
44104,0,54572,60036,54584.6,60042.75,-12.6,-6.75,0.014376,0.018984,1.359304,76.02,1
44113,0,54578,60022,54584.46,60042.33,-6.46,-20.34,0.014379,0.018991,1.353291,76.17,1
44124,0,54578,60028,54584.33,60042.05,-6.34,-14.05,0.014381,0.018996,1.350629,76.23,1
44134,0,54566,60026,54583.97,60041.73,-17.97,-15.73,0.014388,0.019001,1.350108,76.25,1
44144,0,54567,60025,54583.63,60041.4,-16.63,-16.4,0.014394,0.019007,1.348771,76.28,1
44153,0,54571,60021,54583.37,60040.99,-12.38,-19.99,0.014399,0.019014,1.344105,76.4,1
44164,0,54565,60025,54583.01,60040.67,-18.01,-15.67,0.014405,0.019019,1.343659,76.41,1
44174,0,54565,60027,54582.65,60040.4,-17.65,-13.4,0.014412,0.019024,1.344117,76.4,1
44183,0,54568,60023,54582.35,60040.05,-14.36,-17.05,0.014417,0.019029,1.341702,76.46,1
44194,0,54569,60029,54582.09,60039.83,-13.09,-10.83,0.014422,0.019033,1.341667,76.46,1
44204,0,54569,60032,54581.83,60039.67,-12.83,-7.67,0.014427,0.019036,1.342493,76.44,1
44213,0,54575,60032,54581.69,60039.52,-6.69,-7.52,0.014429,0.019038,1.342062,76.45,1
44224,0,54572,60024,54581.5,60039.21,-9.5,-15.21,0.014433,0.019043,1.339286,76.52,1
44233,0,54566,60028,54581.19,60038.99,-15.19,-10.99,0.014439,0.019047,1.339853,76.5,1
44243,0,54561,60015,54580.79,60038.51,-19.79,-23.51,0.014446,0.019055,1.335148,76.62,1
44253,0,54568,60019,54580.53,60038.12,-12.54,-19.12,0.014451,0.019061,1.330939,76.73,1
44264,0,54567,60016,54580.26,60037.68,-13.27,-21.68,0.014456,0.019069,1.325277,76.87,1
44273,0,54557,60004,54579.8,60037,-22.8,-33,0.014464,0.01908,1.313662,77.16,1
44284,0,54559,60009,54579.39,60036.44,-20.39,-27.45,0.014472,0.019089,1.306458,77.34,1
44294,0,54558,60010,54578.96,60035.92,-20.96,-25.92,0.014479,0.019098,1.300905,77.48,1
44303,0,54560,60011,54578.58,60035.42,-18.58,-24.42,0.014486,0.019107,1.295565,77.61,1
44314,0,54557,60009,54578.15,60034.89,-21.15,-25.89,0.014494,0.019115,1.290301,77.74,1
44323,0,54550,60004,54577.59,60034.27,-27.59,-30.27,0.014505,0.019126,1.284888,77.88,1
44334,0,54564,60009,54577.32,60033.77,-13.32,-24.77,0.01451,0.019134,1.277736,78.06,1
44344,0,54559,60009,54576.95,60033.27,-17.95,-24.27,0.014516,0.019142,1.272605,78.18,1
44353,0,54562,60002,54576.65,60032.65,-14.65,-30.65,0.014522,0.019153,1.261344,78.47,1
44363,0,54559,59998,54576.3,60031.96,-17.3,-33.96,0.014528,0.019164,1.248284,78.79,1
44374,0,54559,59999,54575.96,60031.3,-16.96,-32.3,0.014535,0.019175,1.236988,79.08,1
44384,0,54554,60008,54575.51,60030.83,-21.52,-22.84,0.014543,0.019183,1.234877,79.13,1
44393,0,54560,60013,54575.21,60030.48,-15.21,-17.48,0.014548,0.019189,1.233215,79.17,1
44403,0,54560,60005,54574.9,60029.97,-14.9,-24.97,0.014554,0.019197,1.227156,79.32,1
44413,0,54556,60010,54574.53,60029.57,-18.53,-19.57,0.014561,0.019204,1.225707,79.36,1
44423,0,54557,60000,54574.18,60028.98,-17.18,-28.98,0.014567,0.019214,1.217639,79.56,1
44434,0,54560,60013,54573.89,60028.67,-13.89,-15.67,0.014572,0.019219,1.216465,79.59,1
44443,0,54557,60004,54573.56,60028.17,-16.56,-24.18,0.014578,0.019227,1.211673,79.71,1
44452,0,54551,60009,54573.11,60027.79,-22.11,-18.79,0.014587,0.019233,1.212331,79.69,1
44464,0,54554,59996,54572.73,60027.16,-18.73,-31.16,0.014594,0.019244,1.203356,79.92,1
44473,0,54555,59994,54572.37,60026.49,-17.37,-32.49,0.0146,0.019255,1.192987,80.18,1
44484,0,54554,59997,54572.01,60025.91,-18.01,-28.91,0.014607,0.019265,1.18589,80.35,1
44493,0,54550,60006,54571.57,60025.51,-21.57,-19.51,0.014615,0.019272,1.186136,80.35,1
44503,0,54553,59989,54571.2,60024.78,-18.2,-35.79,0.014622,0.019284,1.173746,80.66,1
44514,0,54541,60001,54570.6,60024.31,-29.6,-23.31,0.014633,0.019292,1.176509,80.59,1
44523,0,54546,59994,54570.11,60023.7,-24.11,-29.7,0.014642,0.019302,1.171951,80.7,1
44534,0,54546,60000,54569.62,60023.23,-23.62,-23.23,0.014651,0.019309,1.17137,80.72,1
44544,0,54544,59991,54569.11,60022.58,-25.11,-31.59,0.01466,0.01932,1.166076,80.85,1
44553,0,54543,59986,54568.59,60021.85,-25.59,-35.86,0.01467,0.019332,1.157809,81.05,1
44564,0,54543,59990,54568.08,60021.22,-25.08,-31.22,0.014679,0.019343,1.153109,81.17,1
44573,0,54538,59996,54567.48,60020.72,-29.48,-24.72,0.01469,0.019351,1.155168,81.12,1
44583,0,54535,59991,54566.83,60020.12,-31.83,-29.12,0.014702,0.019361,1.155972,81.1,1
44594,0,54539,59992,54566.28,60019.56,-27.28,-27.56,0.014712,0.019371,1.154996,81.13,1
44603,0,54532,59993,54565.59,60019.03,-33.59,-26.03,0.014724,0.019379,1.158901,81.03,1
44613,0,54537,59993,54565.02,60018.51,-28.02,-25.51,0.014735,0.019388,1.159539,81.01,1
44623,0,54533,59987,54564.38,60017.88,-31.38,-30.88,0.014747,0.019399,1.158781,81.03,1
44634,0,54532,59989,54563.73,60017.31,-31.73,-28.31,0.014758,0.019408,1.159964,81,1
44643,0,54531,59989,54563.08,60016.75,-32.08,-27.75,0.01477,0.019418,1.161693,80.96,1
44653,0,54535,59992,54562.52,60016.25,-27.52,-24.25,0.014781,0.019426,1.162701,80.93,1
44663,0,54535,59985,54561.97,60015.63,-26.97,-30.63,0.014791,0.019436,1.159529,81.01,1
44673,0,54527,59984,54561.27,60015,-34.27,-31,0.014804,0.019447,1.160579,80.99,1
44684,0,54532,59990,54560.69,60014.5,-28.69,-24.5,0.014814,0.019455,1.162095,80.95,1
44693,0,54526,59985,54560,60013.91,-34,-28.91,0.014827,0.019465,1.164263,80.89,1
44704,0,54536,59992,54559.51,60013.47,-23.52,-21.47,0.014836,0.019472,1.164617,80.88,1
44713,0,54536,59996,54559.05,60013.12,-23.05,-17.12,0.014844,0.019478,1.166591,80.84,1
44723,0,54536,59992,54558.58,60012.7,-22.59,-20.7,0.014853,0.019485,1.166865,80.83,1
44734,0,54538,59997,54558.17,60012.39,-20.18,-15.39,0.01486,0.01949,1.168243,80.79,1
44743,0,54540,59997,54557.81,60012.08,-17.81,-15.09,0.014867,0.019495,1.16884,80.78,1
44753,0,54535,59992,54557.35,60011.68,-22.36,-19.68,0.014875,0.019502,1.169455,80.76,1
44764,0,54541,60000,54557.03,60011.45,-16.03,-11.45,0.014881,0.019506,1.170537,80.74,1
44773,0,54542,59991,54556.73,60011.04,-14.73,-20.04,0.014887,0.019513,1.168162,80.8,1
44783,0,54535,60000,54556.3,60010.82,-21.3,-10.82,0.014895,0.019516,1.171393,80.72,1
44793,0,54530,59993,54555.77,60010.47,-25.77,-17.47,0.014904,0.019522,1.174596,80.64,1
44804,0,54535,60001,54555.36,60010.28,-20.36,-9.28,0.014912,0.019525,1.177798,80.56,1
44813,0,54537,59993,54554.99,60009.94,-17.99,-16.94,0.014919,0.019531,1.177744,80.56,1
44823,0,54538,60005,54554.66,60009.84,-16.66,-4.84,0.014925,0.019533,1.18031,80.49,1
44833,0,54538,60000,54554.32,60009.64,-16.32,-9.64,0.014931,0.019536,1.181952,80.45,1
44843,0,54533,60006,54553.9,60009.57,-20.9,-3.57,0.014939,0.019537,1.186332,80.34,1
44854,0,54545,60004,54553.72,60009.46,-8.72,-5.46,0.014942,0.019539,1.186764,80.33,1
44863,0,54541,60000,54553.46,60009.27,-12.46,-9.27,0.014947,0.019542,1.187345,80.32,1
44873,0,54544,60004,54553.28,60009.17,-9.28,-5.17,0.01495,0.019544,1.187929,80.3,1
44882,0,54537,59996,54552.95,60008.91,-15.95,-12.91,0.014956,0.019548,1.188572,80.29,1
44894,0,54537,59990,54552.63,60008.53,-15.63,-18.53,0.014962,0.019554,1.186889,80.33,1
44903,0,54538,59992,54552.34,60008.2,-14.34,-16.2,0.014967,0.01956,1.185809,80.35,1
44912,0,54538,59987,54552.05,60007.78,-14.05,-20.78,0.014973,0.019567,1.182516,80.44,1
44923,0,54534,59989,54551.69,60007.4,-17.7,-18.4,0.014979,0.019573,1.181665,80.46,1
44933,0,54535,59987,54551.36,60006.99,-16.36,-19.99,0.014985,0.01958,1.179554,80.51,1
44944,0,54544,59997,54551.21,60006.79,-7.21,-9.79,0.014988,0.019583,1.178912,80.53,1
44953,0,54542,59993,54551.03,60006.52,-9.03,-13.52,0.014991,0.019588,1.177489,80.56,1
44962,0,54551,60001,54551.03,60006.41,-0.03,-5.41,0.014991,0.01959,1.177112,80.57,1
44973,0,54551,59999,54551.03,60006.26,-0.03,-7.26,0.014991,0.019592,1.176429,80.59,1
44983,0,54547,60001,54550.95,60006.16,-3.95,-5.16,0.014993,0.019594,1.176259,80.59,1
44993,0,54547,60001,54550.87,60006.05,-3.88,-5.05,0.014994,0.019596,1.176094,80.6,1
45002,0,54558,60006,54551.02,60006.05,6.98,-0.05,0.014992,0.019596,1.17666,80.58,1
45012,0,54563,60007,54551.26,60006.07,11.74,0.93,0.014987,0.019595,1.178266,80.54,1
45023,0,54562,60006,54551.48,60006.07,10.52,-0.07,0.014983,0.019595,1.179577,80.51,1
45033,0,54569,60006,54551.83,60006.07,17.17,-0.07,0.014977,0.019595,1.183098,80.42,1
45042,0,54567,60005,54552.13,60006.05,14.87,-1.05,0.014971,0.019596,1.185741,80.36,1
45053,0,54569,60011,54552.47,60006.15,16.53,4.85,0.014965,0.019594,1.188721,80.28,1
45063,0,54573,60012,54552.88,60006.27,20.12,5.73,0.014957,0.019592,1.193187,80.17,1
45074,0,54575,60019,54553.33,60006.52,21.67,12.48,0.014949,0.019588,1.19669,80.08,1
45083,0,54571,60016,54553.68,60006.71,17.32,9.29,0.014943,0.019585,1.199123,80.02,1
45092,0,54573,60027,54554.07,60007.12,18.93,19.88,0.014936,0.019578,1.197756,80.06,1
45103,0,54575,60018,54554.48,60007.34,20.52,10.66,0.014928,0.019574,1.201296,79.97,1
45113,0,54568,60011,54554.75,60007.41,13.25,3.59,0.014923,0.019573,1.203291,79.92,1
45123,0,54567,60011,54555,60007.48,12,3.52,0.014919,0.019572,1.204913,79.88,1
45132,0,54563,60003,54555.16,60007.39,7.84,-4.39,0.014916,0.019573,1.205397,79.87,1
45144,0,54558,60000,54555.22,60007.25,2.78,-7.25,0.014914,0.019576,1.204687,79.88,1
45153,0,54554,60000,54555.2,60007.1,-1.2,-7.1,0.014915,0.019578,1.203923,79.9,1
45163,0,54545,59983,54555,60006.62,-10,-23.62,0.014919,0.019586,1.19659,80.09,1
45172,0,54541,59979,54554.72,60006.07,-13.72,-27.07,0.014924,0.019596,1.187853,80.3,1
45184,0,54539,59981,54554.41,60005.57,-15.41,-24.57,0.014929,0.019604,1.181843,80.45,1
45193,0,54531,59977,54553.94,60005,-22.94,-28,0.014938,0.019613,1.176991,80.58,1
45202,0,54526,59973,54553.38,60004.36,-27.38,-31.36,0.014948,0.019624,1.17222,80.69,1
45213,0,54522,59969,54552.76,60003.65,-30.76,-34.65,0.01496,0.019636,1.167002,80.82,1
45222,0,54519,59970,54552.08,60002.98,-33.08,-32.98,0.014972,0.019647,1.165401,80.86,1
45234,0,54514,59967,54551.32,60002.26,-37.32,-35.26,0.014986,0.019659,1.165371,80.87,1
45243,0,54507,59966,54550.44,60001.54,-43.44,-35.54,0.015002,0.019671,1.17093,80.73,1
45253,0,54507,59966,54549.57,60000.83,-42.57,-34.83,0.015018,0.019683,1.176002,80.6,1
45263,0,54501,59957,54548.6,59999.95,-47.6,-42.95,0.015036,0.019697,1.17776,80.56,1
45273,0,54494,59948,54547.5,59998.92,-53.5,-50.92,0.015056,0.019715,1.176591,80.59,1
45283,0,54490,59954,54546.35,59998.02,-56.36,-44.02,0.015077,0.01973,1.186515,80.34,1
45293,0,54487,59948,54545.17,59997.02,-58.17,-49.02,0.015099,0.019746,1.192333,80.19,1
45303,0,54487,59945,54544,59995.98,-57,-50.98,0.01512,0.019764,1.194192,80.15,1
45313,0,54481,59948,54542.75,59995.02,-61.75,-47.02,0.015143,0.01978,1.205224,79.87,1
45322,0,54487,59948,54541.63,59994.08,-54.63,-46.09,0.015164,0.019795,1.209065,79.77,1
45333,0,54482,59946,54540.44,59993.12,-58.44,-47.13,0.015186,0.019811,1.215324,79.62,1
45342,0,54482,59948,54539.27,59992.22,-57.27,-44.22,0.015207,0.019826,1.222738,79.43,1
45353,0,54483,59951,54538.14,59991.4,-55.14,-40.4,0.015228,0.01984,1.231049,79.22,1
45363,0,54488,59943,54537.14,59990.43,-49.14,-47.43,0.015246,0.019856,1.227879,79.3,1
45373,0,54481,59942,54536.02,59989.46,-55.02,-47.46,0.015266,0.019872,1.229578,79.26,1
45383,0,54472,59949,54534.75,59988.65,-62.75,-39.65,0.01529,0.019886,1.244423,78.89,1
45392,0,54474,59942,54533.53,59987.72,-59.53,-45.72,0.015312,0.019901,1.250767,78.73,1
45404,0,54471,59938,54532.28,59986.73,-61.28,-48.73,0.015335,0.019918,1.255627,78.61,1
45413,0,54474,59939,54531.12,59985.77,-57.12,-46.77,0.015356,0.019934,1.258474,78.54,1
45422,0,54476,59947,54530.01,59985,-54.02,-38,0.015377,0.019947,1.265474,78.36,1
45433,0,54473,59941,54528.88,59984.12,-55.88,-43.12,0.015398,0.019961,1.269888,78.25,1
45443,0,54469,59937,54527.68,59983.18,-58.68,-46.18,0.015419,0.019977,1.273809,78.15,1
45453,0,54474,59949,54526.61,59982.5,-52.61,-33.5,0.015439,0.019988,1.281962,77.95,1
45463,0,54474,59946,54525.56,59981.76,-51.56,-35.77,0.015458,0.020001,1.28783,77.8,1
45473,0,54476,59956,54524.57,59981.25,-48.57,-25.25,0.015477,0.020009,1.297247,77.57,1
45483,0,54477,59954,54523.61,59980.71,-46.61,-26.71,0.015494,0.020018,1.304691,77.38,1
45493,0,54480,59957,54522.74,59980.23,-42.74,-23.23,0.01551,0.020026,1.311401,77.21,1
45503,0,54477,59943,54521.83,59979.49,-44.83,-36.49,0.015527,0.020039,1.312132,77.2,1
45512,0,54476,59950,54520.91,59978.9,-44.91,-28.9,0.015544,0.020048,1.31727,77.07,1
45523,0,54481,59945,54520.12,59978.22,-39.12,-33.22,0.015558,0.02006,1.31695,77.08,1
45533,0,54481,59943,54519.33,59977.51,-38.34,-34.52,0.015573,0.020071,1.315495,77.11,1
45542,0,54478,59943,54518.51,59976.82,-40.51,-33.82,0.015588,0.020083,1.315525,77.11,1
45553,0,54477,59938,54517.68,59976.05,-40.68,-38.05,0.015603,0.020096,1.313013,77.17,1
45562,0,54479,59935,54516.91,59975.23,-37.91,-40.23,0.015617,0.02011,1.307805,77.3,1
45574,0,54475,59941,54516.07,59974.55,-41.07,-33.55,0.015632,0.020121,1.308381,77.29,1
45583,0,54475,59939,54515.25,59973.84,-40.25,-34.84,0.015647,0.020133,1.307805,77.3,1
45592,0,54478,59943,54514.5,59973.22,-36.5,-30.22,0.015661,0.020143,1.308053,77.3,1
45602,0,54470,59943,54513.61,59972.62,-43.61,-29.62,0.015678,0.020153,1.311971,77.2,1
45613,0,54476,59938,54512.86,59971.92,-36.86,-33.93,0.015691,0.020165,1.310334,77.24,1
45623,0,54480,59932,54512.21,59971.13,-32.21,-39.13,0.015703,0.020178,1.303699,77.41,1
45632,0,54472,59930,54511.41,59970.31,-39.41,-40.31,0.015718,0.020192,1.299463,77.51,1
45643,0,54470,59937,54510.58,59969.64,-40.58,-32.64,0.015733,0.020203,1.300391,77.49,1
45652,0,54474,59931,54509.85,59968.87,-35.85,-37.87,0.015747,0.020216,1.29625,77.59,1
45662,0,54477,59929,54509.19,59968.07,-32.19,-39.07,0.015759,0.020229,1.290038,77.75,1
45673,0,54478,59939,54508.57,59967.5,-30.57,-28.5,0.01577,0.020239,1.28899,77.78,1
45682,0,54477,59937,54507.93,59966.89,-30.93,-29.89,0.015782,0.020249,1.287442,77.81,1
45693,0,54482,59947,54507.42,59966.49,-25.42,-19.49,0.015791,0.020255,1.288169,77.8,1
45703,0,54481,59934,54506.89,59965.84,-25.89,-31.84,0.015801,0.020266,1.284011,77.9,1
45712,0,54485,59942,54506.45,59965.37,-21.45,-23.37,0.015809,0.020274,1.282365,77.94,1
45723,0,54485,59944,54506.02,59964.94,-21.02,-20.94,0.015817,0.020281,1.281466,77.96,1
45732,0,54485,59938,54505.6,59964.41,-20.6,-26.41,0.015824,0.02029,1.278411,78.04,1
45743,0,54481,59944,54505.11,59964,-24.11,-20,0.015833,0.020297,1.278655,78.03,1
45753,0,54476,59940,54504.53,59963.52,-28.53,-23.52,0.015844,0.020305,1.279049,78.02,1
45763,0,54472,59939,54503.88,59963.03,-31.88,-24.04,0.015856,0.020313,1.280445,77.99,1
45772,0,54473,59942,54503.26,59962.62,-30.27,-20.62,0.015867,0.02032,1.282467,77.94,1
45783,0,54484,59933,54502.88,59962.03,-18.88,-29.03,0.015874,0.02033,1.277779,78.06,1
45793,0,54475,59935,54502.33,59961.49,-27.33,-26.49,0.015885,0.020339,1.276589,78.09,1
45802,0,54482,59937,54501.92,59961,-19.92,-24,0.015892,0.020347,1.274322,78.14,1
45813,0,54486,59939,54501.6,59960.56,-15.6,-21.56,0.015898,0.020354,1.272031,78.2,1
45822,0,54480,59930,54501.17,59959.95,-21.17,-29.95,0.015906,0.020364,1.2675,78.31,1
45832,0,54473,59941,54500.61,59959.57,-27.61,-18.57,0.015916,0.020371,1.26935,78.27,1
45843,0,54470,59927,54500,59958.92,-30,-31.92,0.015927,0.020382,1.266584,78.34,1
45852,0,54478,59933,54499.55,59958.4,-21.55,-25.4,0.015935,0.02039,1.264208,78.39,1
45862,0,54475,59940,54499.07,59958.03,-24.07,-18.04,0.015944,0.020396,1.265125,78.37,1
45873,0,54478,59944,54498.64,59957.75,-20.64,-13.75,0.015952,0.020401,1.266211,78.34,1
45883,0,54478,59943,54498.23,59957.46,-20.23,-14.46,0.01596,0.020406,1.267032,78.32,1
45892,0,54484,59940,54497.94,59957.11,-13.95,-17.11,0.015965,0.020412,1.265822,78.35,1
45902,0,54489,59943,54497.77,59956.83,-8.77,-13.83,0.015968,0.020416,1.264712,78.38,1
45913,0,54487,59940,54497.55,59956.5,-10.55,-16.5,0.015972,0.020422,1.263138,78.42,1
45922,0,54485,59929,54497.3,59955.94,-12.3,-26.95,0.015977,0.020431,1.25801,78.55,1
45933,0,54483,59945,54497.02,59955.73,-14.02,-10.73,0.015982,0.020435,1.258308,78.54,1
45942,0,54478,59937,54496.64,59955.35,-18.64,-18.35,0.015989,0.020441,1.257706,78.56,1
45952,0,54474,59927,54496.19,59954.78,-22.19,-27.79,0.015997,0.02045,1.254361,78.64,1
45963,0,54468,59940,54495.62,59954.49,-27.62,-14.49,0.016008,0.020455,1.257558,78.56,1
45972,0,54478,59935,54495.27,59954.1,-17.27,-19.1,0.016014,0.020462,1.25639,78.59,1
45983,0,54478,59938,54494.92,59953.78,-16.93,-15.78,0.01602,0.020467,1.256138,78.6,1
45992,0,54485,59940,54494.73,59953.51,-9.73,-13.51,0.016024,0.020472,1.255186,78.62,1
46003,0,54477,59950,54494.37,59953.44,-17.37,-3.44,0.016031,0.020473,1.25711,78.57,1
46012,0,54479,59935,54494.06,59953.07,-15.06,-18.07,0.016036,0.020479,1.255764,78.61,1
46022,0,54474,59945,54493.66,59952.91,-19.66,-7.91,0.016044,0.020482,1.257843,78.55,1
46032,0,54475,59930,54493.29,59952.45,-18.29,-22.45,0.01605,0.020489,1.255628,78.61,1
46042,0,54468,59935,54492.79,59952.1,-24.79,-17.11,0.01606,0.020495,1.257232,78.57,1
46053,0,54471,59930,54492.35,59951.67,-21.35,-21.67,0.016068,0.020502,1.256149,78.6,1
46062,0,54468,59928,54491.86,59951.19,-23.86,-23.2,0.016077,0.02051,1.255237,78.62,1
46073,0,54468,59935,54491.39,59950.87,-23.39,-15.87,0.016085,0.020516,1.256762,78.58,1
46083,0,54471,59940,54490.98,59950.66,-19.98,-10.66,0.016093,0.020519,1.25852,78.54,1
46092,0,54475,59937,54490.66,59950.38,-15.66,-13.38,0.016099,0.020524,1.258597,78.54,1
46103,0,54466,59930,54490.16,59949.98,-24.16,-19.98,0.016108,0.020531,1.259034,78.52,1
46112,0,54463,59939,54489.62,59949.76,-26.62,-10.76,0.016118,0.020534,1.263007,78.42,1
46123,0,54470,59941,54489.23,59949.58,-19.23,-8.59,0.016125,0.020537,1.264965,78.38,1
46133,0,54475,59944,54488.94,59949.47,-13.95,-5.47,0.01613,0.020539,1.266086,78.35,1
46142,0,54473,59946,54488.63,59949.41,-15.63,-3.41,0.016136,0.02054,1.267758,78.31,1
46152,0,54477,59938,54488.39,59949.18,-11.39,-11.18,0.01614,0.020544,1.267494,78.31,1
46161,0,54483,59936,54488.29,59948.91,-5.29,-12.91,0.016142,0.020548,1.266061,78.35,1
46173,0,54474,59933,54488,59948.6,-14,-15.6,0.016147,0.020554,1.265121,78.37,1
46182,0,54484,59934,54487.92,59948.3,-3.93,-14.3,0.016149,0.020559,1.263201,78.42,1
46193,0,54474,59941,54487.65,59948.16,-13.65,-7.16,0.016154,0.020561,1.264104,78.4,1
46202,0,54481,59935,54487.52,59947.9,-6.52,-12.9,0.016156,0.020565,1.262748,78.43,1
46212,0,54477,59936,54487.31,59947.66,-10.31,-11.66,0.01616,0.020569,1.262187,78.45,1
46222,0,54476,59929,54487.08,59947.28,-11.08,-18.29,0.016164,0.020576,1.259722,78.51,1
46232,0,54477,59931,54486.88,59946.96,-9.88,-15.96,0.016168,0.020581,1.257872,78.55,1
46242,0,54482,59933,54486.78,59946.68,-4.78,-13.68,0.01617,0.020586,1.256121,78.6,1
46252,0,54484,59933,54486.73,59946.41,-2.73,-13.41,0.016171,0.02059,1.254315,78.64,1
46263,0,54493,59951,54486.85,59946.5,6.15,4.5,0.016169,0.020589,1.254409,78.64,1
46272,0,54502,59943,54487.16,59946.43,14.84,-3.43,0.016163,0.02059,1.256074,78.6,1
46282,0,54500,59944,54487.41,59946.39,12.59,-2.39,0.016158,0.020591,1.257312,78.57,1
46292,0,54505,59954,54487.77,59946.54,17.23,7.46,0.016152,0.020588,1.259163,78.52,1
46302,0,54509,59964,54488.19,59946.89,20.8,17.11,0.016144,0.020582,1.259573,78.51,1
46312,0,54517,59967,54488.77,59947.29,28.23,19.71,0.016133,0.020575,1.261963,78.45,1
46322,0,54516,59966,54489.32,59947.67,26.68,18.33,0.016123,0.020569,1.264209,78.39,1
46332,0,54521,59969,54489.95,59948.09,31.05,20.91,0.016112,0.020562,1.267431,78.31,1
46342,0,54525,59963,54490.66,59948.39,34.34,14.61,0.016099,0.020557,1.274913,78.13,1
46353,0,54525,59977,54491.34,59948.97,33.66,28.03,0.016086,0.020547,1.275556,78.11,1
46362,0,54537,59978,54492.26,59949.55,44.74,28.45,0.016069,0.020538,1.283075,77.92,1
46371,0,54535,59979,54493.11,59950.14,41.89,28.86,0.016054,0.020528,1.288143,77.8,1
46383,0,54533,59978,54493.91,59950.7,39.09,27.3,0.016039,0.020519,1.29224,77.69,1
46392,0,54540,59972,54494.83,59951.13,45.16,20.87,0.016022,0.020511,1.303851,77.4,1
46402,0,54538,59980,54495.7,59951.71,42.3,28.29,0.016006,0.020502,1.309162,77.27,1
46412,0,54537,59977,54496.53,59952.22,40.47,24.78,0.015991,0.020493,1.315269,77.12,1
46423,0,54540,59981,54497.4,59952.8,42.6,28.2,0.015975,0.020484,1.320613,76.98,1
46432,0,54550,59979,54498.45,59953.32,51.55,25.68,0.015956,0.020475,1.333957,76.65,1
46442,0,54544,59982,54499.36,59953.89,44.64,28.11,0.015939,0.020465,1.340383,76.49,1
46452,0,54551,59989,54500.4,59954.6,50.6,34.4,0.01592,0.020454,1.346505,76.34,1
46461,0,54552,59988,54501.43,59955.27,50.57,32.73,0.015901,0.020442,1.353668,76.16,1
46473,0,54554,59986,54502.48,59955.88,51.52,30.12,0.015882,0.020432,1.363191,75.92,1
46482,0,54559,59994,54503.61,59956.64,55.39,37.36,0.015861,0.020419,1.369938,75.75,1
46492,0,54553,60001,54504.6,59957.53,48.4,43.47,0.015843,0.020405,1.365743,75.86,1
46502,0,54559,59995,54505.69,59958.28,53.31,36.72,0.015823,0.020392,1.371128,75.72,1
46512,0,54557,60002,54506.72,59959.16,50.28,42.84,0.015804,0.020378,1.368894,75.78,1
46522,0,54562,60000,54507.82,59959.97,54.18,40.03,0.015784,0.020364,1.371985,75.7,1
46532,0,54564,59997,54508.95,59960.71,55.05,36.29,0.015763,0.020352,1.37858,75.54,1
46542,0,54559,60001,54509.95,59961.52,49.05,39.48,0.015745,0.020338,1.378303,75.54,1
46552,0,54560,59997,54510.95,59962.23,49.05,34.77,0.015726,0.020326,1.381628,75.46,1
46563,0,54558,60004,54511.89,59963.07,46.11,40.93,0.015709,0.020312,1.378295,75.54,1
46572,0,54557,59997,54512.79,59963.75,44.21,33.25,0.015693,0.020301,1.379695,75.51,1
46581,0,54561,59998,54513.76,59964.43,47.24,33.57,0.015675,0.02029,1.382617,75.43,1
46593,0,54560,59998,54514.68,59965.1,45.32,32.89,0.015658,0.020278,1.38479,75.38,1
46602,0,54568,60001,54515.75,59965.82,52.25,35.18,0.015638,0.020266,1.389596,75.26,1
46612,0,54565,60006,54516.74,59966.63,48.26,39.37,0.01562,0.020253,1.388707,75.28,1
46622,0,54564,60003,54517.69,59967.35,46.31,35.64,0.015603,0.020241,1.38944,75.26,1
46632,0,54568,60006,54518.69,59968.13,49.3,37.87,0.015584,0.020228,1.390304,75.24,1
46642,0,54564,60005,54519.6,59968.87,44.39,36.13,0.015568,0.020216,1.389616,75.26,1
46651,0,54568,60001,54520.57,59969.51,47.43,31.49,0.01555,0.020205,1.393599,75.16,1
46662,0,54567,60002,54521.5,59970.16,45.5,31.84,0.015533,0.020194,1.396226,75.09,1
46671,0,54566,59999,54522.39,59970.74,43.61,28.26,0.015516,0.020184,1.399861,75,1
46683,0,54571,60009,54523.37,59971.5,47.63,37.5,0.015499,0.020172,1.399814,75,1
46692,0,54571,60012,54524.32,59972.31,46.68,39.69,0.015481,0.020158,1.397661,75.06,1
46702,0,54573,60016,54525.3,59973.19,47.7,42.81,0.015463,0.020144,1.39375,75.16,1
46712,0,54563,60016,54526.05,59974.05,36.95,41.95,0.015449,0.020129,1.385464,75.36,1
46722,0,54570,60017,54526.93,59974.91,43.07,42.09,0.015433,0.020115,1.380084,75.5,1
46732,0,54570,60012,54527.79,59975.65,42.21,36.35,0.015417,0.020103,1.378411,75.54,1
46742,0,54562,60000,54528.48,59976.14,33.52,23.86,0.015405,0.020094,1.379699,75.51,1
46752,0,54566,60009,54529.23,59976.79,36.77,32.21,0.015391,0.020083,1.378133,75.55,1
46761,0,54569,60003,54530.02,59977.32,38.98,25.68,0.015377,0.020075,1.380844,75.48,1
46773,0,54570,60006,54530.82,59977.89,39.18,28.11,0.015362,0.020065,1.382464,75.44,1
46782,0,54561,60006,54531.42,59978.45,29.57,27.55,0.015351,0.020056,1.380648,75.48,1
46791,0,54568,60011,54532.16,59979.1,35.84,31.89,0.015337,0.020045,1.378871,75.53,1
46802,0,54577,60012,54533.05,59979.76,43.95,32.24,0.015321,0.020034,1.380531,75.49,1
46812,0,54569,60004,54533.77,59980.25,35.23,23.75,0.015308,0.020026,1.382494,75.44,1
46822,0,54562,59993,54534.33,59980.5,27.66,12.5,0.015297,0.020022,1.385403,75.36,1
46832,0,54568,59982,54535.01,59980.53,32.99,1.47,0.015285,0.020021,1.391536,75.21,1
46842,0,54559,59996,54535.49,59980.84,23.51,15.16,0.015276,0.020016,1.392585,75.19,1
46852,0,54564,59995,54536.06,59981.12,27.94,13.88,0.015266,0.020011,1.39528,75.12,1
46861,0,54564,59993,54536.62,59981.36,27.37,11.64,0.015255,0.020007,1.398333,75.04,1
46872,0,54564,59987,54537.17,59981.48,26.82,5.52,0.015245,0.020005,1.402212,74.94,1
46881,0,54563,59979,54537.69,59981.42,25.3,-2.43,0.015236,0.020006,1.405888,74.85,1
46893,0,54562,59982,54538.18,59981.44,23.82,0.56,0.015227,0.020006,1.409217,74.77,1
46902,0,54561,59979,54538.64,59981.39,22.36,-2.39,0.015219,0.020007,1.412121,74.7,1
46912,0,54568,59994,54539.22,59981.64,28.78,12.36,0.015208,0.020003,1.415551,74.61,1
46921,0,54568,59990,54539.8,59981.81,28.2,8.19,0.015197,0.02,1.419651,74.51,1
46931,0,54567,59991,54540.34,59981.99,26.66,9.01,0.015187,0.019997,1.423119,74.42,1
46942,0,54557,59982,54540.68,59981.99,16.32,0.01,0.015181,0.019997,1.424736,74.38,1
46951,0,54560,59977,54541.07,59981.89,18.93,-4.89,0.015174,0.019998,1.426685,74.33,1
46962,0,54559,59981,54541.42,59981.87,17.57,-0.88,0.015167,0.019999,1.428585,74.29,1
46971,0,54556,59982,54541.72,59981.88,14.28,0.12,0.015162,0.019999,1.429855,74.25,1
46982,0,54562,59986,54542.12,59981.96,19.87,4.04,0.015155,0.019997,1.432165,74.2,1
46992,0,54556,59978,54542.41,59981.88,13.59,-3.88,0.015149,0.019999,1.433172,74.17,1
47002,0,54559,59983,54542.74,59981.91,16.26,1.09,0.015143,0.019998,1.43485,74.13,1
47011,0,54558,59979,54543.04,59981.85,14.96,-2.85,0.015138,0.019999,1.436204,74.09,1
47021,0,54548,59981,54543.14,59981.83,4.86,-0.83,0.015136,0.019999,1.436346,74.09,1
47032,0,54550,59968,54543.28,59981.55,6.72,-13.55,0.015133,0.020004,1.434578,74.14,1
47041,0,54541,59968,54543.24,59981.28,-2.24,-13.29,0.015134,0.020009,1.432615,74.18,1
47052,0,54545,59964,54543.27,59980.94,1.73,-16.94,0.015134,0.020014,1.429376,74.27,1
47062,0,54546,59970,54543.33,59980.72,2.67,-10.72,0.015133,0.020018,1.42811,74.3,1
47072,0,54544,59962,54543.34,59980.35,0.66,-18.35,0.015132,0.020024,1.424253,74.39,1
47081,0,54542,59962,54543.31,59979.98,-1.31,-17.98,0.015133,0.02003,1.42055,74.49,1
47092,0,54543,59970,54543.31,59979.78,-0.31,-9.78,0.015133,0.020034,1.419443,74.51,1
47101,0,54531,59968,54543.07,59979.55,-12.07,-11.55,0.015137,0.020038,1.418906,74.53,1
47113,0,54546,59969,54543.12,59979.33,2.88,-10.34,0.015136,0.020041,1.41771,74.56,1
47122,0,54539,59966,54543.04,59979.07,-4.04,-13.07,0.015138,0.020045,1.415808,74.6,1
47131,0,54539,59967,54542.96,59978.83,-3.96,-11.83,0.015139,0.02005,1.414257,74.64,1
47141,0,54535,59960,54542.8,59978.45,-7.8,-18.45,0.015142,0.020056,1.410638,74.73,1
47151,0,54537,59962,54542.69,59978.12,-5.69,-16.12,0.015144,0.020061,1.407764,74.81,1
47162,0,54528,59956,54542.39,59977.68,-14.39,-21.68,0.01515,0.020069,1.403654,74.91,1
47171,0,54523,59952,54542.01,59977.17,-19.01,-25.17,0.015157,0.020077,1.398748,75.03,1
47182,0,54524,59954,54541.65,59976.71,-17.65,-22.71,0.015163,0.020085,1.394909,75.13,1
47192,0,54529,59951,54541.39,59976.19,-12.39,-25.2,0.015168,0.020093,1.388518,75.29,1
47202,0,54523,59959,54541.03,59975.85,-18.03,-16.85,0.015175,0.020099,1.387567,75.31,1
47212,0,54524,59955,54540.69,59975.44,-16.69,-20.44,0.015181,0.020106,1.384685,75.38,1
47221,0,54522,59948,54540.32,59974.89,-18.32,-26.89,0.015188,0.020115,1.378634,75.53,1
47232,0,54519,59946,54539.89,59974.31,-20.89,-28.31,0.015196,0.020125,1.372487,75.69,1
47242,0,54516,59951,54539.41,59973.85,-23.41,-22.85,0.015204,0.020133,1.3705,75.74,1
47252,0,54522,59959,54539.07,59973.55,-17.07,-14.55,0.015211,0.020138,1.370213,75.74,1
47261,0,54527,59954,54538.82,59973.16,-11.82,-19.16,0.015215,0.020144,1.366947,75.83,1
47271,0,54521,59955,54538.47,59972.8,-17.47,-17.8,0.015222,0.02015,1.365536,75.86,1
47282,0,54513,59949,54537.96,59972.33,-24.96,-23.33,0.015231,0.020158,1.363882,75.9,1
47291,0,54516,59951,54537.52,59971.9,-21.52,-20.9,0.015239,0.020165,1.362278,75.94,1
47302,0,54520,59946,54537.17,59971.38,-17.17,-25.38,0.015245,0.020174,1.356942,76.08,1
47311,0,54518,59944,54536.79,59970.83,-18.79,-26.84,0.015252,0.020183,1.351216,76.22,1
47323,0,54515,59945,54536.35,59970.32,-21.36,-25.32,0.01526,0.020191,1.347263,76.32,1
47332,0,54514,59948,54535.91,59969.87,-21.91,-21.87,0.015269,0.020199,1.345416,76.36,1
47341,0,54521,59939,54535.61,59969.26,-14.61,-30.26,0.015274,0.020209,1.336462,76.59,1
47352,0,54520,59955,54535.3,59968.98,-15.3,-13.98,0.01528,0.020214,1.336032,76.6,1
47362,0,54520,59952,54534.99,59968.64,-14.99,-16.64,0.015285,0.020219,1.334583,76.64,1
47371,0,54523,59960,54534.75,59968.47,-11.75,-8.47,0.01529,0.020222,1.334838,76.63,1
47382,0,54521,59961,54534.48,59968.32,-13.48,-7.32,0.015295,0.020225,1.335657,76.61,1
47391,0,54526,59965,54534.31,59968.25,-8.31,-3.25,0.015298,0.020226,1.336086,76.6,1
47401,0,54524,59958,54534.1,59968.05,-10.11,-10.05,0.015302,0.020229,1.3357,76.61,1
47411,0,54528,59957,54533.98,59967.83,-5.98,-10.83,0.015304,0.020233,1.334569,76.64,1
47422,0,54524,59954,54533.78,59967.55,-9.79,-13.55,0.015308,0.020237,1.333119,76.67,1
47431,0,54520,59951,54533.51,59967.22,-13.51,-16.22,0.015313,0.020243,1.331415,76.71,1
47442,0,54520,59950,54533.24,59966.88,-13.24,-16.88,0.015318,0.020249,1.329381,76.77,1
47452,0,54525,59953,54533.07,59966.6,-8.07,-13.6,0.015321,0.020253,1.327644,76.81,1
47461,0,54520,59945,54532.81,59966.17,-12.81,-21.17,0.015325,0.020261,1.323494,76.91,1
47472,0,54518,59944,54532.51,59965.73,-14.52,-21.73,0.015331,0.020268,1.319462,77.01,1
47481,0,54522,59944,54532.31,59965.29,-10.31,-21.29,0.015335,0.020275,1.314781,77.13,1
47492,0,54522,59952,54532.1,59965.03,-10.11,-13.03,0.015338,0.02028,1.313565,77.16,1
47502,0,54518,59950,54531.82,59964.73,-13.82,-14.73,0.015343,0.020285,1.312533,77.19,1
47511,0,54528,59943,54531.75,59964.29,-3.75,-21.29,0.015345,0.020292,1.307013,77.32,1
47521,0,54521,59942,54531.53,59963.85,-10.53,-21.85,0.015349,0.020299,1.302066,77.45,1
47532,0,54520,59947,54531.3,59963.51,-11.3,-16.51,0.015353,0.020305,1.299813,77.5,1
47542,0,54523,59947,54531.14,59963.18,-8.14,-16.18,0.015356,0.02031,1.297141,77.57,1
47551,0,54521,59951,54530.94,59962.94,-9.94,-11.94,0.01536,0.020314,1.296244,77.59,1
47560,0,54528,59949,54530.88,59962.66,-2.88,-13.66,0.015361,0.020319,1.293968,77.65,1
47571,0,54529,59955,54530.84,59962.51,-1.84,-7.51,0.015362,0.020322,1.293282,77.67,1
47581,0,54529,59954,54530.8,59962.34,-1.8,-8.34,0.015362,0.020324,1.292421,77.69,1
47592,0,54531,59960,54530.81,59962.29,0.19,-2.29,0.015362,0.020325,1.292351,77.69,1
47601,0,54528,59949,54530.75,59962.03,-2.75,-13.03,0.015363,0.02033,1.290217,77.74,1
47611,0,54531,59961,54530.76,59962.01,0.24,-1.01,0.015363,0.02033,1.290202,77.74,1
47621,0,54534,59957,54530.83,59961.91,3.17,-4.91,0.015362,0.020332,1.289977,77.75,1
47632,0,54531,59955,54530.83,59961.77,0.17,-6.77,0.015362,0.020334,1.289363,77.77,1
47641,0,54529,59955,54530.79,59961.64,-1.79,-6.64,0.015362,0.020336,1.288799,77.78,1
47651,0,54536,59953,54530.9,59961.47,5.1,-8.47,0.01536,0.020339,1.288082,77.8,1
47661,0,54533,59949,54530.94,59961.22,2.06,-12.22,0.01536,0.020343,1.286083,77.85,1
47672,0,54529,59951,54530.9,59961.02,-1.9,-10.02,0.01536,0.020346,1.284739,77.88,1
47681,0,54530,59941,54530.89,59960.62,-0.89,-19.62,0.015361,0.020353,1.27945,78.01,1
47691,0,54527,59951,54530.81,59960.43,-3.81,-9.43,0.015362,0.020356,1.278369,78.04,1
47702,0,54524,59951,54530.67,59960.24,-6.68,-9.24,0.015365,0.020359,1.277638,78.06,1
47711,0,54526,59953,54530.58,59960.1,-4.58,-7.1,0.015366,0.020362,1.277147,78.07,1
47721,0,54525,59952,54530.47,59959.94,-5.47,-7.94,0.015368,0.020365,1.276568,78.09,1
47730,0,54525,59946,54530.36,59959.66,-5.36,-13.66,0.01537,0.020369,1.27422,78.14,1
47741,0,54528,59958,54530.32,59959.62,-2.32,-1.63,0.015371,0.02037,1.274236,78.14,1
47751,0,54530,59957,54530.31,59959.57,-0.31,-2.57,0.015371,0.020371,1.274139,78.15,1
47761,0,54522,59952,54530.15,59959.42,-8.15,-7.42,0.015374,0.020373,1.274054,78.15,1
47771,0,54529,59951,54530.12,59959.25,-1.12,-8.25,0.015375,0.020376,1.273063,78.17,1
47781,0,54531,59949,54530.14,59959.05,0.86,-10.05,0.015374,0.020379,1.271573,78.21,1
47791,0,54524,59947,54530.02,59958.81,-6.02,-11.81,0.015377,0.020383,1.269896,78.25,1
47802,0,54529,59953,54530,59958.69,-1,-5.7,0.015377,0.020385,1.269418,78.26,1
47811,0,54530,59948,54530.01,59958.48,-0.01,-10.48,0.015377,0.020389,1.267753,78.31,1
47821,0,54531,59948,54530.03,59958.28,0.97,-10.28,0.015376,0.020392,1.266154,78.35,1
47831,0,54520,59952,54529.83,59958.15,-9.83,-6.15,0.01538,0.020394,1.266688,78.33,1
47842,0,54524,59952,54529.72,59958.03,-5.72,-6.03,0.015382,0.020396,1.266504,78.34,1
47851,0,54528,59946,54529.68,59957.79,-1.68,-11.79,0.015383,0.0204,1.264369,78.39,1
47861,0,54528,59951,54529.65,59957.65,-1.65,-6.65,0.015383,0.020403,1.263704,78.41,1
47872,0,54523,59945,54529.51,59957.4,-6.52,-12.4,0.015386,0.020407,1.261782,78.46,1
47881,0,54523,59950,54529.39,59957.25,-6.39,-7.25,0.015388,0.020409,1.261437,78.46,1
47891,0,54528,59951,54529.36,59957.12,-1.36,-6.13,0.015389,0.020411,1.260855,78.48,1
47900,0,54524,59960,54529.25,59957.18,-5.25,2.82,0.015391,0.02041,1.261064,78.47,1
47911,0,54525,59953,54529.17,59957.1,-4.17,-4.1,0.015392,0.020412,1.261002,78.47,1
47921,0,54530,59953,54529.19,59957.02,0.81,-4.02,0.015392,0.020413,1.260741,78.48,1
47931,0,54525,59946,54529.1,59956.8,-4.11,-10.8,0.015393,0.020417,1.259014,78.52,1
47940,0,54527,59955,54529.06,59956.76,-2.06,-1.76,0.015394,0.020418,1.259014,78.52,1
47951,0,54524,59948,54528.96,59956.59,-4.96,-8.59,0.015396,0.02042,1.258082,78.55,1
47961,0,54524,59947,54528.86,59956.4,-4.86,-9.4,0.015398,0.020423,1.256883,78.58,1
47971,0,54521,59951,54528.7,59956.3,-7.7,-5.3,0.015401,0.020425,1.257178,78.57,1
47981,0,54519,59952,54528.51,59956.21,-9.51,-4.21,0.015404,0.020427,1.258066,78.55,1
47991,0,54523,59951,54528.4,59956.1,-5.4,-5.11,0.015406,0.020428,1.257997,78.55,1
48001,0,54514,59942,54528.11,59955.82,-14.11,-13.82,0.015412,0.020433,1.257311,78.57,1
48012,0,54517,59945,54527.89,59955.6,-10.89,-10.61,0.015416,0.020437,1.256925,78.58,1
48021,0,54516,59950,54527.65,59955.5,-11.65,-5.5,0.01542,0.020439,1.258237,78.54,1
48031,0,54519,59954,54527.48,59955.46,-8.48,-1.46,0.015423,0.020439,1.259187,78.52,1
48040,0,54525,59946,54527.43,59955.27,-2.43,-9.27,0.015424,0.020442,1.257701,78.56,1
48051,0,54513,59941,54527.15,59954.99,-14.15,-13.99,0.015429,0.020447,1.256921,78.58,1
48061,0,54511,59935,54526.82,59954.59,-15.82,-19.59,0.015435,0.020454,1.253416,78.66,1
48070,0,54508,59935,54526.45,59954.2,-18.45,-19.2,0.015442,0.02046,1.251477,78.71,1
48081,0,54507,59934,54526.06,59953.8,-19.06,-19.8,0.015449,0.020467,1.249458,78.76,1
48091,0,54504,59924,54525.62,59953.2,-21.62,-29.2,0.015457,0.020477,1.240687,78.98,1
48102,0,54502,59924,54525.15,59952.62,-23.15,-28.62,0.015466,0.020487,1.233717,79.16,1
48111,0,54506,59926,54524.77,59952.09,-18.77,-26.09,0.015473,0.020495,1.226804,79.33,1
48120,0,54507,59931,54524.41,59951.67,-17.41,-20.67,0.015479,0.020502,1.223663,79.41,1
48132,0,54507,59928,54524.07,59951.2,-17.07,-23.2,0.015486,0.02051,1.218519,79.54,1
48141,0,54510,59927,54523.78,59950.71,-13.79,-23.71,0.015491,0.020518,1.21166,79.71,1
48151,0,54508,59924,54523.47,59950.18,-15.47,-26.18,0.015497,0.020527,1.203554,79.91,1
48161,0,54506,59924,54523.12,59949.66,-17.12,-25.66,0.015503,0.020536,1.196793,80.08,1
48172,0,54514,59933,54522.94,59949.33,-8.94,-16.33,0.015506,0.020542,1.193552,80.16,1
48181,0,54515,59930,54522.78,59948.94,-7.79,-18.95,0.015509,0.020548,1.188556,80.29,1
48190,0,54515,59927,54522.63,59948.51,-7.63,-21.51,0.015512,0.020555,1.181891,80.45,1
48201,0,54518,59925,54522.54,59948.04,-4.54,-23.04,0.015514,0.020563,1.173685,80.66,1
48210,0,54512,59928,54522.33,59947.64,-10.33,-19.64,0.015518,0.02057,1.169055,80.77,1
48222,0,54519,59928,54522.26,59947.24,-3.26,-19.24,0.015519,0.020576,1.163353,80.92,1
48231,0,54522,59931,54522.26,59946.92,-0.26,-15.92,0.015519,0.020582,1.159359,81.02,1
48241,0,54516,59934,54522.13,59946.66,-6.13,-12.66,0.015521,0.020586,1.157361,81.07,1
48250,0,54515,59937,54521.99,59946.46,-6.99,-9.46,0.015524,0.020589,1.156638,81.08,1
48261,0,54522,59936,54522,59946.25,0,-10.25,0.015524,0.020593,1.154956,81.13,1
48271,0,54507,59938,54521.7,59946.09,-14.7,-8.09,0.015529,0.020595,1.157048,81.07,1
48280,0,54514,59934,54521.55,59945.85,-7.55,-11.85,0.015532,0.0206,1.155605,81.11,1
48291,0,54514,59933,54521.4,59945.59,-7.4,-12.59,0.015535,0.020604,1.153827,81.15,1
48301,0,54516,59932,54521.29,59945.32,-5.29,-13.32,0.015537,0.020608,1.151339,81.22,1
48311,0,54515,59926,54521.17,59944.94,-6.17,-18.94,0.015539,0.020615,1.146049,81.35,1
48320,0,54512,59925,54520.98,59944.54,-8.98,-19.54,0.015542,0.020621,1.141055,81.47,1
48331,0,54510,59930,54520.76,59944.25,-10.77,-14.25,0.015546,0.020626,1.139506,81.51,1
48340,0,54514,59923,54520.63,59943.83,-6.63,-20.83,0.015549,0.020633,1.133145,81.67,1
48352,0,54508,59928,54520.38,59943.51,-12.38,-15.51,0.015553,0.020639,1.131593,81.71,1
48361,0,54506,59924,54520.1,59943.12,-14.1,-19.12,0.015559,0.020645,1.128725,81.78,1
48370,0,54511,59928,54519.91,59942.82,-8.91,-14.82,0.015562,0.02065,1.1264,81.84,1
48381,0,54518,59929,54519.87,59942.54,-1.88,-13.54,0.015563,0.020655,1.123488,81.91,1
48391,0,54516,59929,54519.8,59942.27,-3.8,-13.27,0.015564,0.020659,1.120859,81.98,1
48401,0,54516,59932,54519.73,59942.07,-3.73,-10.07,0.015565,0.020663,1.119426,82.01,1
48410,0,54517,59933,54519.67,59941.89,-2.67,-8.89,0.015566,0.020666,1.118244,82.04,1
48421,0,54515,59929,54519.58,59941.63,-4.58,-12.63,0.015568,0.02067,1.115953,82.1,1
48431,0,54513,59926,54519.45,59941.32,-6.45,-15.32,0.01557,0.020675,1.112754,82.18,1
48442,0,54509,59926,54519.25,59941.01,-10.25,-15.01,0.015574,0.02068,1.110729,82.23,1
48451,0,54509,59930,54519.04,59940.79,-10.04,-10.79,0.015578,0.020684,1.110435,82.24,1
48460,0,54511,59924,54518.88,59940.46,-7.88,-16.46,0.015581,0.020689,1.106952,82.33,1
48471,0,54513,59926,54518.77,59940.17,-5.77,-14.17,0.015583,0.020694,1.104164,82.4,1
48481,0,54513,59929,54518.66,59939.94,-5.66,-10.95,0.015585,0.020698,1.102695,82.43,1
48491,0,54506,59927,54518.41,59939.69,-12.41,-12.69,0.01559,0.020702,1.102561,82.44,1
48500,0,54509,59931,54518.22,59939.51,-9.22,-8.52,0.015593,0.020705,1.102761,82.43,1
48512,0,54513,59929,54518.12,59939.3,-5.12,-10.3,0.015595,0.020709,1.1014,82.47,1
48521,0,54515,59935,54518.06,59939.22,-3.06,-4.22,0.015596,0.02071,1.101253,82.47,1
48530,0,54511,59935,54517.92,59939.13,-6.92,-4.13,0.015599,0.020712,1.101779,82.46,1
48540,0,54510,59936,54517.76,59939.07,-7.76,-3.07,0.015601,0.020713,1.102658,82.43,1
48550,0,54513,59937,54517.67,59939.03,-4.67,-2.03,0.015603,0.020713,1.102966,82.43,1
48561,0,54505,59932,54517.42,59938.89,-12.42,-6.89,0.015608,0.020716,1.104843,82.38,1
48570,0,54510,59934,54517.27,59938.79,-7.27,-4.79,0.01561,0.020717,1.10537,82.37,1
48581,0,54504,59930,54517,59938.62,-13,-8.62,0.015615,0.02072,1.107053,82.32,1
48590,0,54505,59921,54516.76,59938.26,-11.77,-17.27,0.01562,0.020726,1.104116,82.4,1
48601,0,54508,59923,54516.59,59937.96,-8.59,-14.96,0.015623,0.020731,1.101377,82.47,1
48610,0,54499,59921,54516.24,59937.62,-17.24,-16.62,0.015629,0.020737,1.101735,82.46,1
48621,0,54504,59929,54515.99,59937.45,-11.99,-8.45,0.015634,0.02074,1.103043,82.42,1
48630,0,54499,59934,54515.65,59937.39,-16.65,-3.39,0.01564,0.020741,1.107908,82.3,1
48640,0,54501,59938,54515.36,59937.4,-14.36,0.6,0.015645,0.02074,1.111698,82.21,1
48651,0,54509,59932,54515.23,59937.3,-6.23,-5.3,0.015648,0.020742,1.111885,82.2,1
48660,0,54508,59939,54515.09,59937.33,-7.09,1.67,0.01565,0.020742,1.112772,82.18,1
48670,0,54514,59935,54515.07,59937.28,-1.07,-2.29,0.015651,0.020742,1.112691,82.18,1
48680,0,54506,59939,54514.89,59937.32,-8.89,1.68,0.015654,0.020742,1.114143,82.15,1
48691,0,54508,59929,54514.75,59937.15,-6.75,-8.15,0.015657,0.020745,1.113707,82.16,1
48700,0,54509,59929,54514.64,59936.99,-5.64,-7.99,0.015659,0.020747,1.113053,82.17,1
48711,0,54506,59923,54514.47,59936.71,-8.47,-13.71,0.015662,0.020752,1.110697,82.23,1
48720,0,54504,59917,54514.26,59936.32,-10.26,-19.32,0.015666,0.020759,1.105329,82.37,1
48731,0,54496,59916,54513.89,59935.91,-17.89,-19.91,0.015672,0.020765,1.103762,82.41,1
48741,0,54491,59915,54513.43,59935.49,-22.43,-20.49,0.015681,0.020772,1.105313,82.37,1
48751,0,54495,59911,54513.06,59935,-18.06,-24,0.015688,0.02078,1.100399,82.49,1
48760,0,54503,59908,54512.86,59934.46,-9.86,-26.46,0.015691,0.020789,1.08888,82.78,1
48770,0,54499,59911,54512.58,59934,-13.58,-23,0.015696,0.020797,1.082511,82.94,1
48781,0,54497,59907,54512.27,59933.46,-15.27,-26.46,0.015702,0.020806,1.074084,83.15,1
48790,0,54496,59906,54511.94,59932.91,-15.95,-26.91,0.015708,0.020815,1.065872,83.35,1
48801,0,54493,59905,54511.57,59932.35,-18.57,-27.36,0.015715,0.020825,1.059183,83.52,1
48811,0,54490,59903,54511.14,59931.77,-21.14,-28.77,0.015723,0.020834,1.053255,83.67,1
48820,0,54491,59904,54510.73,59931.21,-19.73,-27.21,0.01573,0.020844,1.047946,83.8,1
48831,0,54501,59903,54510.54,59930.65,-9.54,-27.65,0.015734,0.020853,1.036976,84.08,1
48840,0,54497,59903,54510.27,59930.09,-13.27,-27.09,0.015739,0.020862,1.028337,84.29,1
48850,0,54506,59914,54510.19,59929.77,-4.19,-15.77,0.01574,0.020868,1.024681,84.38,1
48861,0,54499,59909,54509.96,59929.36,-10.96,-20.36,0.015744,0.020875,1.020296,84.49,1
48871,0,54496,59917,54509.69,59929.11,-13.69,-12.11,0.01575,0.020879,1.021418,84.46,1
48880,0,54501,59903,54509.51,59928.59,-8.52,-25.59,0.015753,0.020887,1.012404,84.69,1
48889,0,54501,59907,54509.35,59928.16,-8.35,-21.16,0.015756,0.020895,1.006713,84.83,1
48901,0,54498,59920,54509.12,59928,-11.12,-8,0.01576,0.020897,1.008011,84.8,1
48910,0,54500,59908,54508.94,59927.6,-8.94,-19.6,0.015763,0.020904,1.003507,84.91,1
48920,0,54498,59902,54508.72,59927.08,-10.72,-25.09,0.015767,0.020913,0.995942,85.1,1
48930,0,54495,59906,54508.45,59926.67,-13.45,-20.67,0.015772,0.02092,0.992799,85.18,1
48941,0,54491,59896,54508.1,59926.05,-17.1,-30.05,0.015779,0.02093,0.984669,85.38,1
48950,0,54495,59895,54507.84,59925.43,-12.84,-30.43,0.015783,0.02094,0.974172,85.65,1
48961,0,54491,59901,54507.5,59924.94,-16.5,-23.95,0.01579,0.020948,0.970942,85.73,1
48970,0,54483,59894,54507.01,59924.33,-24.02,-30.33,0.015799,0.020959,0.968424,85.79,1
48979,0,54496,59900,54506.8,59923.84,-10.8,-23.84,0.015803,0.020967,0.962622,85.93,1
48991,0,54483,59903,54506.32,59923.42,-23.32,-20.43,0.015811,0.020974,0.966623,85.83,1
49000,0,54490,59893,54506,59922.82,-16,-29.82,0.015817,0.020984,0.959021,86.02,1
49011,0,54489,59899,54505.66,59922.34,-16.66,-23.34,0.015823,0.020992,0.956608,86.08,1
49020,0,54490,59900,54505.35,59921.89,-15.35,-21.89,0.015829,0.020999,0.954365,86.14,1
49031,0,54484,59898,54504.92,59921.42,-20.92,-23.42,0.015837,0.021007,0.954795,86.13,1
49041,0,54478,59888,54504.38,59920.75,-26.38,-32.75,0.015847,0.021018,0.952851,86.18,1
49050,0,54477,59886,54503.83,59920.06,-26.84,-34.06,0.015857,0.02103,0.950301,86.24,1
49060,0,54470,59885,54503.16,59919.36,-33.16,-34.36,0.015869,0.021042,0.953898,86.15,1
49070,0,54471,59879,54502.51,59918.55,-31.52,-39.55,0.015881,0.021055,0.950946,86.23,1
49081,0,54459,59886,54501.64,59917.9,-42.64,-31.9,0.015897,0.021066,0.967511,85.81,1
49090,0,54458,59872,54500.77,59916.98,-42.77,-44.98,0.015913,0.021081,0.971425,85.71,1
49101,0,54451,59878,54499.78,59916.2,-48.78,-38.2,0.015931,0.021094,0.989252,85.27,1
49111,0,54446,59878,54498.7,59915.44,-52.7,-37.44,0.015951,0.021107,1.011882,84.7,1
49120,0,54450,59868,54497.73,59914.49,-47.73,-46.49,0.015969,0.021123,1.017734,84.56,1
49131,0,54442,59867,54496.62,59913.54,-54.62,-46.54,0.015989,0.021139,1.031794,84.21,1
49140,0,54444,59863,54495.57,59912.53,-51.57,-49.53,0.016009,0.021155,1.037706,84.06,1
49150,0,54440,59872,54494.46,59911.72,-54.46,-39.72,0.016029,0.021169,1.055597,83.61,1
49161,0,54446,59867,54493.49,59910.83,-47.49,-43.83,0.016047,0.021184,1.060947,83.48,1
49170,0,54448,59856,54492.58,59909.73,-44.59,-53.73,0.016063,0.021202,1.05355,83.66,1
49180,0,54443,59867,54491.59,59908.88,-48.59,-41.88,0.016082,0.021216,1.061306,83.47,1
49190,0,54440,59846,54490.56,59907.62,-50.56,-61.63,0.0161,0.021237,1.051721,83.71,1
49201,0,54432,59847,54489.39,59906.41,-57.39,-59.41,0.016122,0.021258,1.052322,83.69,1
49210,0,54429,59846,54488.19,59905.2,-59.19,-59.2,0.016144,0.021278,1.054926,83.63,1
49220,0,54433,59838,54487.08,59903.86,-54.09,-65.86,0.016164,0.0213,1.045906,83.85,1
49230,0,54428,59840,54485.9,59902.59,-57.9,-62.59,0.016186,0.021321,1.044348,83.89,1
49240,0,54428,59838,54484.74,59901.3,-56.74,-63.3,0.016207,0.021343,1.041279,83.97,1
49251,0,54433,59859,54483.71,59900.46,-50.71,-41.46,0.016226,0.021357,1.049152,83.77,1
49260,0,54432,59847,54482.67,59899.39,-50.68,-52.39,0.016245,0.021375,1.049663,83.76,1
49269,0,54433,59853,54481.68,59898.46,-48.68,-45.46,0.016263,0.02139,1.053207,83.67,1
49281,0,54436,59848,54480.77,59897.45,-44.77,-49.45,0.01628,0.021407,1.051498,83.71,1
49290,0,54427,59841,54479.69,59896.32,-52.7,-55.32,0.0163,0.021426,1.051341,83.72,1
49301,0,54420,59837,54478.5,59895.14,-58.5,-58.14,0.016322,0.021446,1.053575,83.66,1
49310,0,54422,59838,54477.37,59894,-55.37,-56,0.016343,0.021465,1.054797,83.63,1
49320,0,54413,59840,54476.08,59892.92,-63.09,-52.92,0.016366,0.021483,1.063732,83.41,1
49331,0,54410,59831,54474.76,59891.68,-64.77,-60.68,0.01639,0.021504,1.068322,83.29,1
49340,0,54412,59826,54473.51,59890.37,-61.51,-64.37,0.016413,0.021525,1.06756,83.31,1
49350,0,54399,59819,54472.02,59888.94,-73.02,-69.95,0.016441,0.021549,1.071646,83.21,1
49360,0,54391,59811,54470.4,59887.39,-79.4,-76.39,0.01647,0.021575,1.075755,83.11,1
49371,0,54394,59806,54468.87,59885.76,-74.87,-79.76,0.016498,0.021602,1.073274,83.17,1
49380,0,54387,59804,54467.24,59884.12,-80.24,-80.12,0.016529,0.02163,1.074844,83.13,1
49390,0,54383,59796,54465.55,59882.37,-82.55,-86.37,0.016559,0.021659,1.073392,83.17,1
49400,0,54383,59791,54463.91,59880.54,-80.91,-89.54,0.01659,0.02169,1.068564,83.29,1
49410,0,54387,59791,54462.37,59878.75,-75.37,-87.75,0.016618,0.021719,1.061844,83.45,1
49421,0,54396,59804,54461.04,59877.26,-65.04,-73.26,0.016642,0.021744,1.058654,83.53,1
49430,0,54410,59801,54460.02,59875.73,-50.02,-74.73,0.016661,0.02177,1.047896,83.8,1
49439,0,54410,59800,54459.02,59874.22,-49.02,-74.22,0.016679,0.021795,1.037628,84.06,1
49451,0,54421,59805,54458.26,59872.84,-37.26,-67.84,0.016693,0.021818,1.027044,84.32,1
49460,0,54432,59807,54457.73,59871.52,-25.73,-64.52,0.016703,0.02184,1.015526,84.61,1
49471,0,54440,59815,54457.38,59870.39,-17.38,-55.39,0.01671,0.021859,1.006546,84.84,1
49480,0,54450,59822,54457.23,59869.43,-7.23,-47.43,0.016712,0.021875,0.999413,85.01,1
49489,0,54468,59827,54457.45,59868.58,10.55,-41.58,0.016708,0.021889,0.994261,85.14,1
49500,0,54477,59827,54457.84,59867.75,19.16,-40.75,0.016701,0.021903,0.99037,85.24,1
49510,0,54470,59815,54458.08,59866.69,11.92,-51.7,0.016697,0.021921,0.982425,85.44,1
49520,0,54474,59830,54458.4,59865.96,15.6,-35.96,0.016691,0.021933,0.979305,85.52,1
49529,0,54476,59824,54458.75,59865.13,17.25,-41.13,0.016684,0.021947,0.975166,85.62,1
49541,0,54471,59840,54459,59864.63,12,-24.63,0.01668,0.021955,0.973832,85.65,1
49550,0,54478,59850,54459.38,59864.33,18.62,-14.34,0.016673,0.02196,0.974578,85.64,1
49559,0,54485,59854,54459.89,59864.13,25.11,-10.13,0.016663,0.021964,0.976811,85.58,1
49570,0,54488,59863,54460.46,59864.11,27.54,-1.11,0.016653,0.021964,0.97991,85.5,1
49580,0,54483,59865,54460.91,59864.13,22.09,0.87,0.016645,0.021964,0.981918,85.45,1
49591,0,54486,59866,54461.41,59864.17,24.59,1.83,0.016636,0.021963,0.984418,85.39,1
49600,0,54486,59861,54461.9,59864.1,24.1,-3.11,0.016627,0.021964,0.986815,85.33,1
49610,0,54482,59880,54462.3,59864.42,19.7,15.57,0.016619,0.021959,0.987624,85.31,1
49620,0,54478,59865,54462.62,59864.44,15.38,0.56,0.016613,0.021959,0.988627,85.28,1
49630,0,54487,59870,54463.1,59864.55,23.89,5.45,0.016604,0.021957,0.99097,85.23,1
49640,0,54486,59866,54463.56,59864.58,22.44,1.42,0.016596,0.021956,0.993137,85.17,1
49649,0,54481,59872,54463.91,59864.73,17.09,7.27,0.01659,0.021954,0.994219,85.14,1
49660,0,54479,59875,54464.21,59864.94,14.79,10.06,0.016584,0.02195,0.994813,85.13,1
49670,0,54493,59868,54464.79,59865,28.21,3,0.016574,0.021949,0.998303,85.04,1
49680,0,54490,59873,54465.3,59865.16,24.7,7.84,0.016564,0.021946,1.000795,84.98,1
49690,0,54502,59878,54466.03,59865.42,35.97,12.58,0.016551,0.021942,1.006003,84.85,1
49700,0,54505,59886,54466.81,59865.83,38.19,20.17,0.016536,0.021935,1.011018,84.72,1
49710,0,54516,59889,54467.8,59866.29,48.2,22.71,0.016518,0.021928,1.019487,84.51,1
49720,0,54524,59901,54468.92,59866.99,55.08,34.01,0.016498,0.021916,1.028567,84.29,1
49730,0,54524,59889,54470.02,59867.43,53.98,21.57,0.016477,0.021909,1.039693,84.01,1
49739,0,54532,59896,54471.26,59868,60.73,28,0.016455,0.021899,1.052855,83.68,1
49751,0,54528,59891,54472.4,59868.46,55.6,22.54,0.016434,0.021891,1.064358,83.39,1
49760,0,54536,59894,54473.67,59868.97,62.33,25.03,0.01641,0.021883,1.078706,83.03,1
49770,0,54538,59901,54474.96,59869.61,63.04,31.39,0.016387,0.021872,1.091734,82.71,1
49780,0,54540,59895,54476.26,59870.12,63.74,24.88,0.016363,0.021864,1.106489,82.34,1
49789,0,54537,59890,54477.48,59870.52,59.52,19.48,0.016341,0.021857,1.119913,82,1
49800,0,54529,59894,54478.51,59870.99,50.49,23.01,0.016322,0.021849,1.128377,81.79,1
49810,0,54532,59888,54479.58,59871.33,52.42,16.67,0.016302,0.021843,1.138764,81.53,1
49820,0,54531,59910,54480.61,59872.1,50.39,37.89,0.016283,0.02183,1.142953,81.43,1
49829,0,54536,59892,54481.72,59872.5,54.28,19.5,0.016263,0.021824,1.153601,81.16,1
49841,0,54532,59914,54482.73,59873.33,49.27,40.66,0.016244,0.02181,1.156125,81.1,1
49850,0,54545,59911,54483.97,59874.09,61.03,36.91,0.016221,0.021797,1.165301,80.87,1
49859,0,54534,59916,54484.97,59874.93,49.03,41.07,0.016203,0.021783,1.167384,80.82,1
49870,0,54540,59905,54486.07,59875.53,53.93,29.46,0.016183,0.021773,1.17529,80.62,1
49880,0,54532,59894,54487,59875.91,45,18.09,0.016166,0.021767,1.182064,80.45,1
49890,0,54530,59894,54487.86,59876.27,42.14,17.73,0.01615,0.021761,1.18787,80.3,1
49900,0,54520,59892,54488.5,59876.58,31.5,15.41,0.016138,0.021756,1.190819,80.23,1
49910,0,54521,59886,54489.15,59876.77,31.85,9.23,0.016126,0.021753,1.194619,80.13,1
49920,0,54513,59887,54489.63,59876.98,23.37,10.02,0.016118,0.021749,1.196405,80.09,1
49929,0,54508,59893,54490,59877.3,18,15.7,0.016111,0.021744,1.196535,80.09,1
49940,0,54513,59898,54490.46,59877.71,22.54,20.29,0.016102,0.021737,1.196617,80.08,1
49949,0,54507,59897,54490.79,59878.1,16.21,18.9,0.016096,0.02173,1.195926,80.1,1
49960,0,54515,59902,54491.27,59878.58,23.73,23.42,0.016087,0.021722,1.19555,80.11,1
49970,0,54514,59901,54491.73,59879.03,22.27,21.97,0.016079,0.021715,1.19522,80.12,1
49980,0,54517,59909,54492.24,59879.63,24.76,29.37,0.01607,0.021705,1.193449,80.16,1
49990,0,54511,59898,54492.61,59880,18.39,18,0.016063,0.021699,1.193252,80.17,1
49999,0,54512,59898,54493,59880.36,19,17.64,0.016056,0.021693,1.193223,80.17,1
50010,0,54510,59890,54493.34,59880.56,16.66,9.44,0.016049,0.021689,1.193986,80.15,1
50020,0,54506,59876,54493.59,59880.47,12.41,-4.47,0.016045,0.021691,1.194567,80.14,1
50030,0,54505,59881,54493.82,59880.48,11.18,0.52,0.016041,0.021691,1.195127,80.12,1
50039,0,54503,59877,54494.01,59880.41,8.99,-3.41,0.016037,0.021692,1.195429,80.11,1
50051,0,54495,59877,54494.03,59880.34,0.97,-3.34,0.016037,0.021693,1.195368,80.12,1
50060,0,54496,59870,54494.07,59880.14,1.93,-10.14,0.016036,0.021696,1.194812,80.13,1
50070,0,54501,59879,54494.21,59880.11,6.79,-1.11,0.016033,0.021697,1.195018,80.12,1
50079,0,54498,59871,54494.29,59879.93,3.71,-8.93,0.016032,0.0217,1.19463,80.13,1
50089,0,54501,59875,54494.42,59879.83,6.57,-4.83,0.01603,0.021701,1.1947,80.13,1
50100,0,54496,59866,54494.46,59879.56,1.54,-13.56,0.016029,0.021706,1.193654,80.16,1
50109,0,54500,59873,54494.57,59879.43,5.43,-6.43,0.016027,0.021708,1.193554,80.16,1
50120,0,54499,59866,54494.66,59879.16,4.34,-13.16,0.016025,0.021713,1.192632,80.18,1
50129,0,54499,59859,54494.75,59878.76,4.25,-19.76,0.016024,0.021719,1.190428,80.24,1
50140,0,54505,59874,54494.96,59878.67,10.04,-4.67,0.01602,0.021721,1.190801,80.23,1
50149,0,54501,59871,54495.08,59878.51,5.92,-7.52,0.016017,0.021723,1.190638,80.23,1
50160,0,54498,59875,54495.14,59878.44,2.86,-3.45,0.016016,0.021725,1.190603,80.23,1
50169,0,54491,59868,54495.06,59878.24,-4.06,-10.24,0.016018,0.021728,1.190046,80.25,1
50180,0,54493,59863,54495.02,59877.94,-2.02,-14.94,0.016019,0.021733,1.188697,80.28,1
50190,0,54496,59864,54495.04,59877.66,0.96,-13.66,0.016018,0.021738,1.187546,80.31,1
50200,0,54481,59868,54494.76,59877.47,-13.76,-9.47,0.016023,0.021741,1.187993,80.3,1
50209,0,54484,59865,54494.55,59877.22,-10.55,-12.22,0.016027,0.021745,1.187648,80.31,1
50220,0,54470,59855,54494.05,59876.78,-24.05,-21.78,0.016036,0.021752,1.187777,80.31,1
50230,0,54462,59841,54493.41,59876.07,-31.41,-35.07,0.016048,0.021764,1.185356,80.37,1
50239,0,54455,59833,54492.65,59875.21,-37.65,-42.21,0.016062,0.021779,1.181853,80.45,1
50250,0,54447,59831,54491.74,59874.32,-44.74,-43.32,0.016079,0.021793,1.180954,80.48,1
50259,0,54433,59819,54490.57,59873.22,-57.57,-54.22,0.0161,0.021812,1.180537,80.49,1
50269,0,54410,59803,54488.96,59871.81,-78.96,-68.81,0.01613,0.021835,1.184398,80.39,1
50280,0,54401,59789,54487.2,59870.16,-86.2,-81.16,0.016162,0.021863,1.183363,80.42,1
50289,0,54389,59785,54485.24,59868.46,-96.24,-83.46,0.016198,0.021891,1.188694,80.28,1
50300,0,54388,59789,54483.3,59866.87,-95.3,-77.87,0.016234,0.021918,1.197196,80.07,1
50310,0,54383,59793,54481.29,59865.39,-98.29,-72.39,0.016271,0.021943,1.211294,79.72,1
50319,0,54390,59788,54479.47,59863.85,-89.47,-75.85,0.016304,0.021968,1.215281,79.62,1
50330,0,54386,59800,54477.6,59862.57,-91.6,-62.57,0.016338,0.02199,1.229015,79.27,1
50339,0,54386,59789,54475.76,59861.1,-89.77,-72.1,0.016372,0.022014,1.234732,79.13,1
50351,0,54391,59807,54474.07,59860.02,-83.07,-53.02,0.016403,0.022032,1.246817,78.83,1
50360,0,54391,59802,54472.41,59858.86,-81.41,-56.86,0.016434,0.022052,1.255514,78.61,1
50369,0,54394,59797,54470.84,59857.62,-76.84,-60.63,0.016462,0.022072,1.259338,78.52,1
50380,0,54392,59803,54469.27,59856.53,-77.27,-53.53,0.016491,0.022091,1.266842,78.33,1
50390,0,54396,59807,54467.8,59855.54,-71.8,-48.54,0.016518,0.022107,1.273639,78.16,1
50400,0,54387,59811,54466.19,59854.65,-79.19,-43.65,0.016548,0.022122,1.285961,77.85,1
50410,0,54385,59803,54464.56,59853.62,-79.56,-50.62,0.016578,0.022139,1.29518,77.62,1
50419,0,54383,59796,54462.93,59852.47,-79.93,-56.47,0.016608,0.022158,1.30147,77.46,1
50429,0,54380,59798,54461.28,59851.38,-81.28,-53.38,0.016638,0.022177,1.309715,77.26,1
50440,0,54378,59796,54459.61,59850.27,-81.61,-54.27,0.016669,0.022195,1.317417,77.06,1
50449,0,54379,59796,54458,59849.19,-79,-53.19,0.016698,0.022213,1.324084,76.9,1
50459,0,54377,59794,54456.38,59848.08,-79.38,-54.08,0.016728,0.022232,1.330293,76.74,1
50469,0,54377,59798,54454.79,59847.08,-77.79,-49.08,0.016757,0.022248,1.337825,76.55,1
50480,0,54381,59800,54453.32,59846.14,-72.32,-46.14,0.016784,0.022264,1.343968,76.4,1
50489,0,54373,59793,54451.71,59845.08,-78.71,-52.08,0.016814,0.022282,1.350224,76.24,1
50500,0,54368,59796,54450.04,59844.09,-82.04,-48.09,0.016844,0.022298,1.35959,76.01,1
50509,0,54367,59782,54448.38,59842.85,-81.38,-60.86,0.016875,0.022319,1.362303,75.94,1
50519,0,54356,59791,54446.53,59841.82,-90.54,-50.82,0.016909,0.022336,1.374166,75.65,1
50530,0,54355,59772,54444.71,59840.42,-89.71,-68.43,0.016942,0.02236,1.37616,75.6,1
50539,0,54352,59765,54442.85,59838.92,-90.85,-73.92,0.016976,0.022385,1.375329,75.62,1
50550,0,54349,59771,54440.98,59837.56,-91.98,-66.56,0.017011,0.022408,1.379325,75.52,1
50560,0,54349,59766,54439.14,59836.13,-90.14,-70.13,0.017045,0.022431,1.380298,75.49,1
50569,0,54342,59764,54437.19,59834.69,-95.2,-70.69,0.01708,0.022456,1.383271,75.42,1
50580,0,54348,59766,54435.41,59833.32,-87.41,-67.32,0.017113,0.022478,1.384417,75.39,1
50589,0,54342,59765,54433.55,59831.96,-91.55,-66.96,0.017147,0.022501,1.387503,75.31,1
50600,0,54339,59770,54431.66,59830.72,-92.66,-60.72,0.017182,0.022522,1.394005,75.15,1
50610,0,54332,59765,54429.67,59829.41,-97.67,-64.41,0.017219,0.022544,1.400762,74.98,1
50619,0,54333,59756,54427.73,59827.94,-94.73,-71.94,0.017254,0.022568,1.402076,74.95,1
50630,0,54326,59751,54425.7,59826.4,-99.7,-75.4,0.017291,0.022594,1.403632,74.91,1
50639,0,54327,59749,54423.73,59824.85,-96.73,-75.86,0.017328,0.02262,1.403572,74.91,1
50650,0,54328,59747,54421.81,59823.3,-93.81,-76.3,0.017363,0.022646,1.40207,74.95,1
50660,0,54318,59736,54419.74,59821.55,-101.74,-85.55,0.017401,0.022675,1.398768,75.03,1
50669,0,54309,59730,54417.52,59819.73,-108.52,-89.73,0.017442,0.022706,1.39617,75.1,1
50679,0,54301,59721,54415.19,59817.75,-114.2,-96.75,0.017485,0.022739,1.392052,75.2,1
50690,0,54299,59719,54412.87,59815.77,-113.87,-96.77,0.017527,0.022772,1.388069,75.3,1
50699,0,54300,59719,54410.61,59813.84,-110.61,-94.84,0.017569,0.022804,1.38409,75.4,1
50710,0,54299,59722,54408.38,59812,-109.38,-90,0.01761,0.022835,1.382467,75.44,1
50719,0,54297,59727,54406.16,59810.3,-109.16,-83.3,0.017651,0.022863,1.384165,75.4,1
50729,0,54299,59722,54404.01,59808.54,-105.02,-86.54,0.01769,0.022893,1.382662,75.43,1
50740,0,54292,59720,54401.78,59806.77,-109.78,-86.77,0.017731,0.022922,1.382901,75.43,1
50749,0,54298,59719,54399.7,59805.02,-101.7,-86.02,0.017769,0.022952,1.380568,75.49,1
50759,0,54298,59732,54397.67,59803.56,-99.67,-71.56,0.017807,0.022976,1.383704,75.41,1
50769,0,54299,59724,54395.7,59801.97,-96.7,-77.97,0.017843,0.023003,1.383234,75.42,1
50780,0,54306,59735,54393.91,59800.63,-87.91,-65.63,0.017876,0.023025,1.384734,75.38,1
50789,0,54298,59722,54391.99,59799.06,-93.99,-77.06,0.017911,0.023051,1.383771,75.41,1
50799,0,54300,59721,54390.15,59797.5,-90.15,-76.5,0.017945,0.023077,1.38192,75.45,1
50809,0,54303,59731,54388.41,59796.17,-85.41,-65.17,0.017977,0.0231,1.382856,75.43,1
50820,0,54306,59734,54386.76,59794.93,-80.76,-60.93,0.018007,0.02312,1.383893,75.4,1
50829,0,54299,59738,54385.01,59793.79,-86.01,-55.79,0.018039,0.023139,1.387823,75.3,1
50839,0,54303,59733,54383.37,59792.58,-80.37,-59.58,0.01807,0.02316,1.389097,75.27,1
50848,0,54305,59726,54381.8,59791.25,-76.8,-65.25,0.018098,0.023182,1.38768,75.31,1
50860,0,54305,59739,54380.26,59790.2,-75.27,-51.2,0.018127,0.023199,1.390029,75.25,1
50869,0,54307,59726,54378.8,59788.92,-71.8,-62.92,0.018154,0.023221,1.388186,75.3,1
50880,0,54303,59733,54377.28,59787.8,-74.29,-54.8,0.018181,0.02324,1.389334,75.27,1
50889,0,54309,59727,54375.92,59786.58,-66.92,-59.59,0.018207,0.02326,1.387468,75.31,1
50898,0,54304,59732,54374.48,59785.5,-70.48,-53.5,0.018233,0.023278,1.388112,75.3,1
50910,0,54299,59727,54372.98,59784.33,-73.98,-57.33,0.018261,0.023298,1.388477,75.29,1
50919,0,54303,59730,54371.58,59783.25,-68.58,-53.25,0.018286,0.023316,1.388761,75.28,1
50930,0,54303,59743,54370.21,59782.44,-67.21,-39.44,0.018312,0.023329,1.391953,75.2,1
50939,0,54311,59741,54369.02,59781.61,-58.02,-40.61,0.018333,0.023343,1.393091,75.17,1
50949,0,54308,59742,54367.8,59780.82,-59.8,-38.82,0.018356,0.023356,1.394919,75.13,1
50960,0,54312,59739,54366.69,59779.98,-54.69,-40.98,0.018376,0.02337,1.395375,75.12,1
50969,0,54307,59739,54365.5,59779.17,-58.5,-40.17,0.018398,0.023384,1.396684,75.08,1
50978,0,54310,59745,54364.39,59778.48,-54.39,-33.48,0.018419,0.023395,1.398519,75.04,1
50990,0,54306,59739,54363.22,59777.69,-57.22,-38.7,0.01844,0.023409,1.399885,75,1
50999,0,54300,59735,54361.96,59776.84,-61.96,-41.84,0.018463,0.023423,1.401494,74.96,1
51009,0,54303,59740,54360.78,59776.1,-57.78,-36.11,0.018485,0.023435,1.403463,74.91,1
51019,0,54303,59740,54359.62,59775.39,-56.63,-35.39,0.018506,0.023447,1.405352,74.87,1
51030,0,54302,59744,54358.47,59774.76,-56.47,-30.76,0.018527,0.023458,1.408026,74.8,1
51039,0,54308,59739,54357.46,59774.05,-49.46,-35.05,0.018546,0.02347,1.408735,74.78,1
51049,0,54298,59745,54356.28,59773.46,-58.28,-28.46,0.018568,0.023479,1.412129,74.7,1
51059,0,54296,59745,54355.07,59772.89,-59.07,-27.89,0.01859,0.023489,1.415768,74.61,1
51068,0,54298,59746,54353.93,59772.36,-55.93,-26.36,0.018611,0.023498,1.419045,74.52,1
51080,0,54303,59746,54352.91,59771.83,-49.91,-25.84,0.01863,0.023507,1.421346,74.47,1
51089,0,54292,59750,54351.69,59771.4,-59.69,-21.4,0.018652,0.023514,1.426038,74.35,1
51098,0,54294,59739,54350.54,59770.75,-56.54,-31.75,0.018673,0.023525,1.428564,74.29,1
51109,0,54288,59733,54349.29,59770,-61.29,-37,0.018696,0.023537,1.431006,74.22,1
51119,0,54280,59721,54347.91,59769.02,-67.91,-48.02,0.018722,0.023554,1.432197,74.2,1
51130,0,54271,59716,54346.37,59767.96,-75.37,-51.96,0.01875,0.023571,1.434049,74.15,1
51139,0,54264,59701,54344.73,59766.62,-80.73,-65.62,0.01878,0.023594,1.432701,74.18,1
51148,0,54244,59697,54342.71,59765.23,-98.71,-68.23,0.018817,0.023617,1.435745,74.11,1
51160,0,54236,59679,54340.58,59763.51,-104.58,-84.51,0.018857,0.023646,1.43373,74.16,1
51169,0,54227,59689,54338.31,59762.02,-111.31,-73.02,0.018898,0.023671,1.439068,74.02,1
51178,0,54227,59691,54336.08,59760.6,-109.08,-69.6,0.018939,0.023695,1.44478,73.88,1
51189,0,54227,59686,54333.9,59759.11,-106.9,-73.11,0.01898,0.02372,1.448224,73.79,1
51198,0,54230,59689,54331.83,59757.71,-101.83,-68.71,0.019018,0.023743,1.451602,73.71,1
51210,0,54229,59697,54329.77,59756.5,-100.77,-59.5,0.019056,0.023763,1.457739,73.56,1
51219,0,54235,59692,54327.87,59755.21,-92.87,-63.21,0.019091,0.023785,1.460192,73.5,1
51228,0,54228,59682,54325.88,59753.75,-97.88,-71.75,0.019127,0.023809,1.460952,73.48,1
51239,0,54226,59681,54323.88,59752.3,-97.88,-71.3,0.019164,0.023834,1.461865,73.45,1
51249,0,54213,59664,54321.67,59750.53,-108.67,-86.54,0.019205,0.023863,1.459761,73.51,1
51260,0,54211,59668,54319.45,59748.89,-108.45,-80.89,0.019246,0.023891,1.460098,73.5,1
51269,0,54197,59661,54317.01,59747.13,-120.01,-86.13,0.019291,0.02392,1.461991,73.45,1
51278,0,54197,59662,54314.61,59745.42,-117.61,-83.43,0.019335,0.023949,1.464147,73.4,1
51290,0,54194,59672,54312.19,59743.96,-118.2,-71.96,0.019379,0.023973,1.47083,73.23,1
51299,0,54203,59667,54310.01,59742.42,-107.01,-75.42,0.019419,0.023999,1.472588,73.19,1
51308,0,54206,59675,54307.93,59741.07,-101.93,-66.07,0.019458,0.024021,1.476099,73.1,1
51319,0,54201,59671,54305.8,59739.67,-104.8,-68.67,0.019497,0.024045,1.479478,73.01,1
51329,0,54206,59673,54303.8,59738.34,-97.8,-65.34,0.019534,0.024067,1.481963,72.95,1
51340,0,54201,59674,54301.75,59737.05,-100.75,-63.05,0.019572,0.024089,1.485902,72.85,1
51349,0,54201,59671,54299.73,59735.73,-98.73,-64.73,0.019609,0.024111,1.488706,72.78,1
51358,0,54207,59672,54297.88,59734.46,-90.88,-62.46,0.019643,0.024132,1.490185,72.75,1
51369,0,54212,59671,54296.16,59733.19,-84.16,-62.2,0.019674,0.024153,1.490165,72.75,1
51379,0,54212,59676,54294.48,59732.05,-82.48,-56.05,0.019705,0.024172,1.49154,72.71,1
51389,0,54215,59696,54292.89,59731.33,-77.89,-35.33,0.019735,0.024185,1.49656,72.59,1
51399,0,54223,59704,54291.5,59730.78,-68.5,-26.78,0.01976,0.024194,1.50106,72.47,1
51408,0,54229,59700,54290.25,59730.17,-61.25,-30.17,0.019783,0.024204,1.503827,72.4,1
51419,0,54228,59702,54289,59729.6,-61,-27.61,0.019806,0.024213,1.506933,72.33,1
51429,0,54231,59697,54287.85,59728.96,-56.85,-31.96,0.019828,0.024224,1.508723,72.28,1
51439,0,54228,59706,54286.65,59728.5,-58.65,-22.5,0.01985,0.024232,1.512125,72.2,1
51448,0,54229,59706,54285.5,59728.05,-56.5,-22.05,0.019871,0.024239,1.515255,72.12,1
51460,0,54225,59702,54284.29,59727.53,-59.29,-25.53,0.019893,0.024248,1.51841,72.04,1
51469,0,54221,59700,54283.02,59726.98,-62.02,-26.98,0.019916,0.024257,1.521833,71.95,1
51478,0,54227,59705,54281.9,59726.54,-54.9,-21.54,0.019937,0.024265,1.524813,71.88,1
51489,0,54226,59705,54280.78,59726.11,-54.79,-21.11,0.019958,0.024272,1.527839,71.8,1
51499,0,54230,59704,54279.77,59725.67,-49.77,-21.67,0.019976,0.024279,1.530073,71.75,1
51510,0,54228,59722,54278.74,59725.6,-50.74,-3.6,0.019995,0.02428,1.533722,71.66,1
51519,0,54230,59710,54277.76,59725.29,-47.77,-15.29,0.020013,0.024286,1.536359,71.59,1
51528,0,54232,59720,54276.85,59725.18,-44.85,-5.18,0.02003,0.024287,1.53921,71.52,1
51538,0,54230,59714,54275.92,59724.96,-45.92,-10.96,0.020047,0.024291,1.541956,71.45,1
51549,0,54236,59718,54275.12,59724.82,-39.12,-6.82,0.020062,0.024293,1.544087,71.4,1
51559,0,54238,59720,54274.38,59724.72,-36.38,-4.72,0.020076,0.024295,1.546,71.35,1
51568,0,54238,59725,54273.66,59724.73,-35.66,0.27,0.020089,0.024295,1.547917,71.3,1
51579,0,54240,59730,54272.98,59724.84,-32.98,5.16,0.020101,0.024293,1.549494,71.26,1
51589,0,54240,59723,54272.33,59724.8,-32.33,-1.8,0.020113,0.024294,1.551091,71.22,1
51599,0,54245,59725,54271.78,59724.81,-26.78,0.19,0.020124,0.024294,1.552207,71.19,1
51609,0,54236,59726,54271.07,59724.83,-35.07,1.17,0.020137,0.024293,1.554126,71.15,1
51618,0,54237,59727,54270.38,59724.87,-33.38,2.13,0.020149,0.024293,1.555871,71.1,1
51629,0,54238,59722,54269.74,59724.82,-31.74,-2.82,0.020161,0.024293,1.557451,71.06,1
51638,0,54238,59730,54269.1,59724.92,-31.11,5.07,0.020173,0.024292,1.558926,71.03,1
51649,0,54243,59729,54268.58,59725.01,-25.58,3.99,0.020182,0.02429,1.559941,71,1
51658,0,54245,59730,54268.11,59725.11,-23.11,4.89,0.020191,0.024289,1.560744,70.98,1
51670,0,54240,59732,54267.55,59725.25,-27.55,6.75,0.020201,0.024286,1.561851,70.95,1
51679,0,54241,59735,54267.02,59725.44,-26.02,9.55,0.020211,0.024283,1.56268,70.93,1
51689,0,54239,59738,54266.46,59725.7,-27.46,12.3,0.020222,0.024279,1.563442,70.91,1
51698,0,54240,59737,54265.93,59725.92,-25.93,11.07,0.020231,0.024275,1.564171,70.9,1
51708,0,54239,59736,54265.4,59726.13,-26.4,9.87,0.020241,0.024272,1.565035,70.87,1
51719,0,54240,59729,54264.89,59726.19,-24.89,2.81,0.02025,0.024271,1.566084,70.85,1
51728,0,54245,59723,54264.49,59726.12,-19.49,-3.13,0.020258,0.024272,1.566722,70.83,1
51739,0,54242,59735,54264.04,59726.3,-22.04,8.7,0.020266,0.024269,1.567317,70.82,1
51748,0,54238,59736,54263.52,59726.5,-25.52,9.5,0.020276,0.024265,1.568157,70.8,1
51759,0,54243,59736,54263.11,59726.69,-20.11,9.31,0.020283,0.024262,1.568577,70.79,1
51769,0,54238,59743,54262.61,59727.02,-24.61,15.98,0.020292,0.024257,1.568746,70.78,1
51779,0,54252,59742,54262.4,59727.32,-10.4,14.68,0.020296,0.024252,1.56816,70.8,1
51788,0,54251,59748,54262.17,59727.73,-11.18,20.27,0.020301,0.024245,1.566873,70.83,1
51799,0,54248,59740,54261.89,59727.98,-13.89,12.02,0.020306,0.024241,1.566702,70.83,1
51809,0,54247,59742,54261.6,59728.26,-14.6,13.74,0.020311,0.024236,1.566398,70.84,1
51818,0,54254,59738,54261.44,59728.46,-7.45,9.54,0.020314,0.024233,1.566168,70.85,1
51829,0,54242,59739,54261.06,59728.67,-19.06,10.32,0.020321,0.024229,1.566461,70.84,1
51838,0,54250,59736,54260.84,59728.82,-10.84,7.18,0.020325,0.024226,1.5665,70.84,1
51849,0,54252,59745,54260.66,59729.14,-8.66,15.86,0.020328,0.024221,1.56567,70.86,1
51859,0,54246,59741,54260.37,59729.38,-14.38,11.62,0.020334,0.024217,1.565553,70.86,1
51868,0,54246,59744,54260.08,59729.67,-14.09,14.32,0.020339,0.024212,1.565137,70.87,1
51878,0,54255,59728,54259.99,59729.64,-4.99,-1.64,0.020341,0.024213,1.565189,70.87,1
51888,0,54244,59727,54259.67,59729.59,-15.67,-2.59,0.020347,0.024214,1.565669,70.86,1
51899,0,54238,59725,54259.24,59729.5,-21.24,-4.5,0.020355,0.024215,1.566517,70.84,1
51908,0,54243,59725,54258.91,59729.41,-15.91,-4.41,0.020361,0.024217,1.566969,70.83,1
51919,0,54244,59726,54258.62,59729.34,-14.62,-3.34,0.020366,0.024218,1.567379,70.82,1
51929,0,54242,59724,54258.28,59729.24,-16.29,-5.24,0.020372,0.02422,1.56783,70.8,1
51939,0,54244,59738,54258,59729.42,-14,8.58,0.020378,0.024217,1.567942,70.8,1
51948,0,54246,59736,54257.76,59729.55,-11.76,6.45,0.020382,0.024214,1.568069,70.8,1
51958,0,54259,59742,54257.78,59729.8,1.21,12.2,0.020381,0.02421,1.567434,70.81,1
51969,0,54261,59739,54257.85,59729.99,3.15,9.01,0.02038,0.024207,1.567109,70.82,1
51978,0,54260,59753,54257.89,59730.45,2.11,22.55,0.02038,0.024199,1.564867,70.88,1
51989,0,54265,59752,54258.03,59730.88,6.96,21.12,0.020377,0.024192,1.562988,70.93,1
51998,0,54263,59746,54258.14,59731.18,4.86,14.82,0.020375,0.024187,1.562063,70.95,1
52008,0,54262,59744,54258.21,59731.44,3.79,12.56,0.020374,0.024183,1.561389,70.97,1
52019,0,54259,59745,54258.23,59731.71,0.77,13.29,0.020373,0.024178,1.560592,70.99,1
52029,0,54265,59745,54258.37,59731.97,6.63,13.03,0.020371,0.024174,1.55992,71,1
52038,0,54265,59753,54258.5,59732.39,6.5,20.61,0.020368,0.024167,1.558049,71.05,1
52047,0,54258,59750,54258.49,59732.75,-0.49,17.25,0.020368,0.024161,1.556664,71.08,1
52059,0,54267,59751,54258.66,59733.11,8.34,17.89,0.020365,0.024155,1.555327,71.12,1
52068,0,54264,59753,54258.77,59733.51,5.23,19.49,0.020363,0.024148,1.553595,71.16,1
52078,0,54263,59742,54258.86,59733.68,4.14,8.32,0.020362,0.024145,1.553316,71.17,1
52088,0,54261,59743,54258.9,59733.87,2.1,9.13,0.020361,0.024142,1.552935,71.18,1
52099,0,54259,59737,54258.91,59733.93,0.09,3.07,0.020361,0.024141,1.5529,71.18,1
52108,0,54256,59741,54258.85,59734.08,-2.85,6.92,0.020362,0.024138,1.552695,71.18,1
52119,0,54251,59737,54258.69,59734.14,-7.7,2.86,0.020365,0.024138,1.552814,71.18,1
52128,0,54254,59741,54258.6,59734.28,-4.6,6.72,0.020366,0.024135,1.552652,71.18,1
52139,0,54258,59740,54258.59,59734.39,-0.59,5.61,0.020367,0.024133,1.552504,71.19,1
52148,0,54252,59745,54258.46,59734.6,-6.46,10.39,0.020369,0.02413,1.552068,71.2,1
52159,0,54258,59755,54258.45,59735.01,-0.45,19.98,0.020369,0.024123,1.550013,71.25,1
52168,0,54260,59746,54258.48,59735.23,1.52,10.77,0.020369,0.024119,1.549426,71.26,1
52178,0,54261,59749,54258.53,59735.51,2.47,13.49,0.020368,0.024114,1.548496,71.29,1
52189,0,54256,59751,54258.48,59735.82,-2.48,15.18,0.020369,0.024109,1.547302,71.32,1
52199,0,54255,59745,54258.42,59736,-3.42,9,0.02037,0.024106,1.546912,71.33,1
52208,0,54249,59746,54258.23,59736.2,-9.23,9.8,0.020373,0.024103,1.546638,71.33,1
52217,0,54249,59748,54258.05,59736.44,-9.05,11.56,0.020377,0.024099,1.546147,71.35,1
52229,0,54249,59745,54257.87,59736.61,-8.87,8.39,0.02038,0.024096,1.545991,71.35,1
52238,0,54248,59739,54257.67,59736.66,-9.67,2.34,0.020384,0.024095,1.546235,71.34,1
52248,0,54240,59742,54257.32,59736.77,-17.32,5.23,0.02039,0.024093,1.546944,71.33,1
52257,0,54244,59752,54257.05,59737.08,-13.05,14.92,0.020395,0.024088,1.546184,71.35,1
52269,0,54243,59739,54256.77,59737.12,-13.77,1.88,0.0204,0.024088,1.546723,71.33,1
52278,0,54241,59733,54256.46,59737.03,-15.46,-4.04,0.020406,0.024089,1.547338,71.32,1
52289,0,54236,59734,54256.05,59736.98,-20.05,-2.98,0.020413,0.02409,1.548482,71.29,1
52298,0,54236,59725,54255.65,59736.74,-19.65,-11.74,0.020421,0.024094,1.54883,71.28,1
52308,0,54234,59738,54255.21,59736.76,-21.21,1.23,0.020429,0.024093,1.550182,71.25,1
52318,0,54235,59728,54254.81,59736.59,-19.81,-8.59,0.020436,0.024096,1.550938,71.23,1
52328,0,54238,59744,54254.48,59736.74,-16.48,7.26,0.020442,0.024094,1.551459,71.21,1
52338,0,54231,59736,54254.01,59736.72,-23.01,-0.72,0.020451,0.024094,1.553099,71.17,1
52347,0,54231,59743,54253.55,59736.85,-22.55,6.15,0.020459,0.024092,1.554458,71.14,1
52359,0,54239,59733,54253.26,59736.77,-14.27,-3.77,0.020465,0.024093,1.555019,71.12,1
52368,0,54238,59737,54252.96,59736.78,-14.96,0.22,0.02047,0.024093,1.55574,71.11,1
52378,0,54235,59737,54252.6,59736.78,-17.61,0.22,0.020477,0.024093,1.556743,71.08,1
52388,0,54236,59734,54252.27,59736.73,-16.27,-2.73,0.020483,0.024094,1.557562,71.06,1
52399,0,54233,59745,54251.89,59736.89,-18.89,8.11,0.02049,0.024091,1.558307,71.04,1
52408,0,54235,59740,54251.55,59736.95,-16.55,3.05,0.020496,0.02409,1.559159,71.02,1
52417,0,54234,59747,54251.2,59737.16,-17.2,9.84,0.020503,0.024087,1.559506,71.01,1
52428,0,54238,59751,54250.94,59737.43,-12.94,13.57,0.020508,0.024082,1.558841,71.03,1
52438,0,54248,59750,54250.88,59737.69,-2.88,12.31,0.020509,0.024078,1.557852,71.05,1
52449,0,54236,59741,54250.58,59737.75,-14.59,3.25,0.020514,0.024077,1.558517,71.04,1
52458,0,54231,59727,54250.19,59737.54,-19.2,-10.54,0.020521,0.024081,1.55903,71.02,1
52468,0,54228,59735,54249.75,59737.49,-21.75,-2.49,0.02053,0.024081,1.560643,70.98,1
52478,0,54230,59725,54249.36,59737.24,-19.36,-12.24,0.020537,0.024086,1.560911,70.98,1
52489,0,54220,59725,54248.77,59737,-28.77,-12,0.020548,0.02409,1.562824,70.93,1
52498,0,54218,59714,54248.16,59736.54,-30.16,-22.54,0.020559,0.024097,1.562427,70.94,1
52507,0,54212,59717,54247.44,59736.15,-35.44,-19.15,0.020572,0.024104,1.564284,70.89,1
52518,0,54217,59712,54246.83,59735.66,-29.83,-23.66,0.020583,0.024112,1.563427,70.91,1
52528,0,54212,59707,54246.13,59735.09,-34.13,-28.09,0.020596,0.024121,1.561896,70.95,1
52539,0,54217,59716,54245.55,59734.71,-28.55,-18.71,0.020607,0.024128,1.562304,70.94,1
52548,0,54223,59721,54245.1,59734.44,-22.1,-13.45,0.020615,0.024132,1.562769,70.93,1
52558,0,54224,59725,54244.68,59734.26,-20.68,-9.26,0.020623,0.024135,1.56372,70.91,1
52569,0,54224,59722,54244.27,59734.01,-20.27,-12.02,0.020631,0.02414,1.564175,70.9,1
52578,0,54224,59727,54243.87,59733.87,-19.87,-6.88,0.020638,0.024142,1.565308,70.87,1
52588,0,54227,59723,54243.53,59733.66,-16.53,-10.66,0.020644,0.024146,1.565483,70.86,1
52597,0,54230,59723,54243.26,59733.45,-13.26,-10.45,0.020649,0.024149,1.565322,70.87,1
52609,0,54229,59730,54242.98,59733.38,-13.98,-3.38,0.020654,0.02415,1.565997,70.85,1
52618,0,54235,59733,54242.82,59733.37,-7.82,-0.37,0.020657,0.02415,1.566244,70.84,1
52629,0,54232,59732,54242.6,59733.35,-10.6,-1.35,0.020661,0.024151,1.566682,70.83,1
52638,0,54237,59727,54242.49,59733.22,-5.49,-6.22,0.020663,0.024153,1.5665,70.84,1
52647,0,54229,59731,54242.22,59733.18,-13.22,-2.18,0.020668,0.024154,1.567173,70.82,1
52658,0,54232,59737,54242.01,59733.25,-10.02,3.75,0.020672,0.024152,1.567474,70.81,1
52668,0,54239,59739,54241.96,59733.37,-2.96,5.63,0.020673,0.02415,1.567257,70.82,1
52678,0,54240,59730,54241.92,59733.3,-1.92,-3.3,0.020674,0.024151,1.567191,70.82,1
52687,0,54231,59729,54241.7,59733.22,-10.7,-4.22,0.020678,0.024153,1.567529,70.81,1
52699,0,54230,59734,54241.47,59733.23,-11.47,0.77,0.020682,0.024153,1.568088,70.8,1
52708,0,54227,59714,54241.18,59732.85,-14.18,-18.85,0.020687,0.024159,1.565892,70.85,1
52718,0,54234,59724,54241.04,59732.67,-7.04,-8.68,0.02069,0.024162,1.565462,70.86,1
52727,0,54226,59724,54240.74,59732.5,-14.74,-8.5,0.020696,0.024165,1.565778,70.86,1
52739,0,54225,59731,54240.42,59732.48,-15.43,-1.48,0.020701,0.024165,1.566807,70.83,1
52748,0,54232,59724,54240.26,59732.31,-8.26,-8.31,0.020705,0.024168,1.566501,70.84,1
52758,0,54234,59733,54240.13,59732.32,-6.13,0.68,0.020707,0.024168,1.566674,70.83,1
52768,0,54227,59732,54239.87,59732.32,-12.87,-0.32,0.020712,0.024168,1.567427,70.81,1
52779,0,54226,59732,54239.59,59732.32,-13.59,-0.32,0.020717,0.024168,1.568274,70.79,1
52788,0,54226,59729,54239.32,59732.25,-13.32,-3.25,0.020722,0.024169,1.568998,70.78,1
52797,0,54226,59730,54239.06,59732.21,-13.06,-2.21,0.020727,0.02417,1.56975,70.76,1
52808,0,54216,59724,54238.6,59732.04,-22.6,-8.04,0.020735,0.024173,1.571527,70.71,1
52817,0,54216,59724,54238.15,59731.88,-22.15,-7.88,0.020743,0.024175,1.573246,70.67,1
52829,0,54218,59728,54237.75,59731.8,-19.75,-3.8,0.020751,0.024177,1.574964,70.63,1
52838,0,54214,59723,54237.27,59731.63,-23.27,-8.63,0.02076,0.024179,1.576834,70.58,1
52848,0,54209,59729,54236.71,59731.57,-27.71,-2.57,0.02077,0.02418,1.580478,70.49,1
52857,0,54206,59720,54236.09,59731.34,-30.09,-11.34,0.020781,0.024184,1.583593,70.41,1
52868,0,54214,59724,54235.65,59731.2,-21.65,-7.2,0.020789,0.024187,1.58537,70.37,1
52878,0,54208,59727,54235.1,59731.12,-27.1,-4.12,0.0208,0.024188,1.588826,70.28,1
52887,0,54209,59723,54234.58,59730.96,-25.58,-7.96,0.020809,0.024191,1.591429,70.21,1
52898,0,54206,59722,54234.01,59730.78,-28.01,-8.78,0.02082,0.024194,1.594557,70.14,1
52908,0,54205,59722,54233.43,59730.61,-28.43,-8.61,0.02083,0.024197,1.597855,70.05,1
52918,0,54201,59723,54232.78,59730.46,-31.79,-7.46,0.020842,0.024199,1.602393,69.94,1
52928,0,54206,59720,54232.25,59730.25,-26.25,-10.25,0.020852,0.024203,1.604783,69.88,1
52938,0,54204,59724,54231.68,59730.12,-27.68,-6.13,0.020863,0.024205,1.608324,69.79,1
52947,0,54201,59723,54231.07,59729.98,-30.07,-6.98,0.020874,0.024207,1.612478,69.69,1
52957,0,54204,59731,54230.53,59730.01,-26.53,0.99,0.020884,0.024207,1.616149,69.6,1
52968,0,54207,59725,54230.06,59729.91,-23.06,-4.91,0.020893,0.024208,1.618683,69.53,1
52977,0,54205,59721,54229.56,59729.73,-24.56,-8.73,0.020902,0.024211,1.621015,69.47,1
52988,0,54205,59721,54229.07,59729.56,-24.07,-8.56,0.020911,0.024214,1.62327,69.42,1
52998,0,54202,59721,54228.53,59729.39,-26.53,-8.39,0.020921,0.024217,1.626242,69.34,1
53008,0,54199,59728,54227.94,59729.36,-28.94,-1.36,0.020932,0.024217,1.63077,69.23,1
53017,0,54196,59723,54227.3,59729.24,-31.3,-6.24,0.020944,0.02422,1.635659,69.11,1
53028,0,54204,59730,54226.83,59729.26,-22.83,0.74,0.020952,0.024219,1.63853,69.04,1
53038,0,54195,59732,54226.19,59729.31,-31.2,2.69,0.020964,0.024218,1.643843,68.9,1
53047,0,54206,59730,54225.79,59729.33,-19.79,0.67,0.020971,0.024218,1.646035,68.85,1
53058,0,54207,59724,54225.42,59729.22,-18.42,-5.22,0.020978,0.02422,1.647613,68.81,1
53067,0,54201,59723,54224.93,59729.1,-23.93,-6.1,0.020987,0.024222,1.650401,68.74,1
53078,0,54198,59720,54224.39,59728.92,-26.39,-8.92,0.020997,0.024225,1.653373,68.67,1
53088,0,54199,59707,54223.89,59728.48,-24.89,-21.48,0.021006,0.024232,1.650967,68.73,1
53098,0,54193,59708,54223.27,59728.07,-30.27,-20.07,0.021018,0.024239,1.651036,68.72,1
53107,0,54185,59705,54222.5,59727.61,-37.5,-22.61,0.021032,0.024247,1.652525,68.69,1
53118,0,54190,59709,54221.85,59727.24,-31.86,-18.24,0.021044,0.024253,1.654069,68.65,1
53128,0,54193,59706,54221.28,59726.82,-28.28,-20.82,0.021055,0.02426,1.653039,68.67,1
53137,0,54196,59707,54220.77,59726.42,-24.77,-19.43,0.021064,0.024267,1.651666,68.71,1
53148,0,54198,59720,54220.32,59726.3,-22.32,-6.3,0.021072,0.024269,1.654085,68.65,1
53157,0,54207,59718,54220.05,59726.13,-13.05,-8.13,0.021077,0.024271,1.65422,68.64,1
53169,0,54210,59717,54219.85,59725.95,-9.86,-8.95,0.021081,0.024275,1.653729,68.66,1
53178,0,54206,59718,54219.58,59725.79,-13.58,-7.79,0.021086,0.024277,1.654027,68.65,1
53188,0,54215,59727,54219.49,59725.81,-4.49,1.19,0.021087,0.024277,1.654141,68.65,1
53197,0,54216,59723,54219.42,59725.76,-3.42,-2.76,0.021089,0.024278,1.654118,68.65,1
53209,0,54220,59736,54219.43,59725.96,0.57,10.04,0.021089,0.024274,1.652714,68.68,1
53218,0,54231,59730,54219.67,59726.04,11.33,3.96,0.021084,0.024273,1.653309,68.67,1
53227,0,54236,59736,54220,59726.24,16,9.76,0.021078,0.02427,1.653581,68.66,1
53237,0,54235,59734,54220.3,59726.4,14.7,7.6,0.021073,0.024267,1.654139,68.65,1
53248,0,54242,59746,54220.73,59726.79,21.27,19.21,0.021065,0.02426,1.651706,68.71,1
53258,0,54246,59739,54221.23,59727.03,24.77,11.96,0.021055,0.024256,1.653597,68.66,1
53267,0,54252,59752,54221.85,59727.53,30.15,24.46,0.021044,0.024248,1.650753,68.73,1
53278,0,54254,59762,54222.49,59728.22,31.51,33.78,0.021032,0.024236,1.640661,68.98,1
53287,0,54252,59751,54223.08,59728.68,28.92,22.32,0.021021,0.024229,1.638925,69.03,1
53299,0,54263,59759,54223.88,59729.28,39.12,29.71,0.021007,0.024219,1.636191,69.1,1
53308,0,54260,59757,54224.6,59729.84,35.39,27.16,0.020993,0.024209,1.633781,69.16,1
53317,0,54255,59762,54225.21,59730.48,29.79,31.52,0.020982,0.024199,1.625471,69.36,1
53327,0,54258,59758,54225.87,59731.03,32.13,26.96,0.02097,0.024189,1.62194,69.45,1
53338,0,54265,59752,54226.66,59731.45,38.34,20.55,0.020955,0.024182,1.625506,69.36,1
53348,0,54256,59762,54227.25,59732.06,28.75,29.94,0.020944,0.024172,1.618307,69.54,1
53357,0,54265,59761,54228,59732.64,37,28.36,0.02093,0.024163,1.615957,69.6,1
53368,0,54267,59770,54228.78,59733.39,38.21,36.61,0.020916,0.02415,1.606926,69.83,1
53378,0,54267,59772,54229.55,59734.16,37.45,37.84,0.020902,0.024137,1.596584,70.09,1
53387,0,54272,59779,54230.4,59735.05,41.6,43.95,0.020886,0.024122,1.582156,70.45,1
53398,0,54278,59780,54231.35,59735.96,46.64,44.04,0.020869,0.024107,1.570977,70.73,1
53407,0,54282,59767,54232.37,59736.58,49.63,30.42,0.02085,0.024097,1.574514,70.64,1
53417,0,54280,59787,54233.33,59737.58,46.67,49.41,0.020832,0.02408,1.557759,71.06,1
53428,0,54287,59781,54234.4,59738.46,52.6,42.54,0.020812,0.024065,1.55272,71.18,1
53438,0,54287,59780,54235.45,59739.29,51.55,40.71,0.020793,0.024051,1.549007,71.27,1
53447,0,54290,59782,54236.55,59740.14,53.45,41.86,0.020773,0.024037,1.54551,71.36,1
53457,0,54283,59778,54237.48,59740.9,45.52,37.1,0.020756,0.024024,1.541874,71.45,1
53468,0,54288,59779,54238.49,59741.66,49.51,37.34,0.020737,0.024011,1.540286,71.49,1
53477,0,54282,59782,54239.36,59742.47,42.64,39.53,0.020721,0.023998,1.533358,71.67,1
53488,0,54288,59782,54240.33,59743.26,47.66,38.73,0.020703,0.023985,1.529822,71.75,1
53497,0,54287,59781,54241.27,59744.02,45.73,36.98,0.020686,0.023972,1.526805,71.83,1
53509,0,54293,59797,54242.3,59745.08,50.7,51.91,0.020667,0.023954,1.512717,72.18,1
53518,0,54293,59790,54243.32,59745.98,49.68,44.02,0.020648,0.023939,1.506368,72.34,1
53527,0,54295,59776,54244.35,59746.58,50.65,29.41,0.020629,0.023929,1.511423,72.21,1
53537,0,54294,59786,54245.34,59747.37,48.66,38.63,0.020611,0.023916,1.509084,72.27,1
53548,0,54293,59776,54246.3,59747.95,46.7,28.05,0.020593,0.023906,1.5128,72.18,1
53558,0,54290,59793,54247.17,59748.85,42.83,44.15,0.020577,0.023891,1.503198,72.42,1
53567,0,54294,59788,54248.11,59749.64,45.89,38.36,0.02056,0.023878,1.4999,72.5,1
53578,0,54300,59795,54249.15,59750.54,50.85,44.46,0.020541,0.023863,1.494367,72.64,1
53587,0,54297,59787,54250.11,59751.27,46.89,35.73,0.020523,0.023851,1.493595,72.66,1
53597,0,54295,59796,54251.01,59752.17,43.99,43.83,0.020506,0.023836,1.485535,72.86,1
53608,0,54296,59796,54251.91,59753.05,44.09,42.95,0.02049,0.023821,1.478464,73.04,1
53617,0,54302,59792,54252.91,59753.83,49.09,38.17,0.020471,0.023808,1.477386,73.07,1
53627,0,54298,59801,54253.81,59754.77,44.19,46.23,0.020455,0.023792,1.468073,73.3,1
53638,0,54298,59799,54254.7,59755.66,43.3,43.34,0.020438,0.023777,1.460925,73.48,1
53648,0,54301,59804,54255.62,59756.62,45.38,47.38,0.020421,0.023761,1.451784,73.71,1
53657,0,54305,59801,54256.61,59757.51,48.39,43.49,0.020403,0.023746,1.447247,73.82,1
53667,0,54298,59802,54257.44,59758.4,40.56,43.6,0.020388,0.023731,1.439447,74.01,1
53678,0,54298,59807,54258.25,59759.37,39.75,47.63,0.020373,0.023715,1.428613,74.28,1
53687,0,54312,59799,54259.33,59760.17,52.67,38.83,0.020353,0.023702,1.429726,74.26,1
53698,0,54308,59808,54260.3,59761.12,47.7,46.88,0.020335,0.023686,1.423088,74.42,1
53707,0,54316,59806,54261.42,59762.02,54.58,43.98,0.020314,0.023671,1.421933,74.45,1
53716,0,54317,59799,54262.53,59762.76,54.46,36.23,0.020294,0.023658,1.425498,74.36,1
53728,0,54307,59798,54263.42,59763.47,43.57,34.53,0.020277,0.023647,1.425047,74.37,1
53737,0,54308,59788,54264.32,59763.96,43.68,24.04,0.020261,0.023638,1.429355,74.27,1
53747,0,54317,59790,54265.37,59764.49,51.63,25.51,0.020242,0.023629,1.436529,74.09,1
53757,0,54311,59793,54266.29,59765.06,44.71,27.94,0.020225,0.02362,1.439591,74.01,1
53768,0,54317,59790,54267.3,59765.56,49.7,24.44,0.020206,0.023612,1.446205,73.84,1
53777,0,54312,59789,54268.2,59766.03,43.8,22.97,0.02019,0.023604,1.450812,73.73,1
53787,0,54318,59794,54269.19,59766.59,48.8,27.41,0.020171,0.023594,1.455727,73.61,1
53797,0,54316,59785,54270.13,59766.96,45.87,18.04,0.020154,0.023588,1.462744,73.43,1
53807,0,54315,59790,54271.03,59767.42,43.97,22.58,0.020137,0.02358,1.46747,73.31,1
53818,0,54312,59788,54271.85,59767.83,40.15,20.17,0.020122,0.023574,1.471549,73.21,1
53827,0,54314,59787,54272.69,59768.21,41.3,18.79,0.020107,0.023567,1.476497,73.09,1
53837,0,54318,59796,54273.6,59768.77,44.4,27.23,0.02009,0.023558,1.479431,73.01,1
53848,0,54315,59793,54274.43,59769.26,40.57,23.74,0.020075,0.02355,1.482324,72.94,1
53857,0,54316,59796,54275.26,59769.8,40.74,26.2,0.020059,0.023541,1.484237,72.89,1
53867,0,54317,59790,54276.1,59770.2,40.9,19.8,0.020044,0.023534,1.488678,72.78,1
53877,0,54324,59798,54277.06,59770.76,46.94,27.24,0.020026,0.023525,1.492589,72.69,1
53888,0,54322,59802,54277.96,59771.39,44.04,30.61,0.02001,0.023514,1.493592,72.66,1
53897,0,54326,59794,54278.92,59771.84,47.08,22.16,0.019992,0.023507,1.49965,72.51,1
53908,0,54330,59805,54279.94,59772.5,50.05,32.5,0.019973,0.023495,1.502161,72.45,1
53917,0,54323,59798,54280.81,59773.01,42.19,24.98,0.019957,0.023487,1.505004,72.37,1
53926,0,54323,59805,54281.66,59773.66,41.34,31.34,0.019942,0.023476,1.504427,72.39,1
53938,0,54328,59800,54282.58,59774.18,45.42,25.82,0.019925,0.023467,1.508188,72.3,1
53947,0,54324,59789,54283.41,59774.48,40.59,14.52,0.019909,0.023462,1.513965,72.15,1
53957,0,54325,59791,54284.24,59774.81,40.76,16.19,0.019894,0.023457,1.519363,72.02,1
53967,0,54325,59791,54285.06,59775.14,39.94,15.86,0.019879,0.023451,1.524549,71.89,1
53978,0,54320,59803,54285.76,59775.69,34.24,27.3,0.019866,0.023442,1.523356,71.92,1
53987,0,54327,59798,54286.58,59776.14,40.42,21.86,0.019851,0.023435,1.526711,71.83,1
53996,0,54329,59799,54287.43,59776.6,41.57,22.4,0.019835,0.023427,1.530279,71.74,1
54007,0,54335,59804,54288.38,59777.15,46.62,26.85,0.019818,0.023418,1.533923,71.65,1
54017,0,54333,59800,54289.28,59777.6,43.72,22.39,0.019801,0.02341,1.538309,71.54,1
54028,0,54334,59806,54290.17,59778.17,43.83,27.82,0.019785,0.023401,1.540223,71.49,1
54037,0,54332,59800,54291.01,59778.61,40.99,21.39,0.019769,0.023393,1.543898,71.4,1
54047,0,54324,59800,54291.67,59779.04,32.33,20.96,0.019757,0.023386,1.544751,71.38,1
54057,0,54330,59800,54292.44,59779.46,37.56,20.54,0.019743,0.023379,1.547488,71.31,1
54067,0,54329,59803,54293.17,59779.93,35.83,23.07,0.019729,0.023371,1.548588,71.29,1
54077,0,54320,59799,54293.71,59780.32,26.29,18.68,0.01972,0.023365,1.548591,71.29,1
54087,0,54330,59793,54294.43,59780.57,35.57,12.43,0.019706,0.02336,1.55318,71.17,1
54097,0,54320,59793,54294.94,59780.82,25.05,12.18,0.019697,0.023356,1.55478,71.13,1
54107,0,54317,59800,54295.39,59781.2,21.61,18.8,0.019689,0.02335,1.55363,71.16,1
54118,0,54321,59804,54295.9,59781.66,25.1,22.34,0.019679,0.023342,1.551861,71.2,1
54127,0,54319,59795,54296.36,59781.92,22.64,13.07,0.019671,0.023338,1.552708,71.18,1
54136,0,54320,59794,54296.83,59782.17,23.17,11.83,0.019662,0.023334,1.553983,71.15,1
54148,0,54320,59787,54297.29,59782.26,22.71,4.73,0.019654,0.023332,1.556329,71.09,1
54157,0,54315,59792,54297.65,59782.46,17.35,9.54,0.019647,0.023329,1.556927,71.08,1
54167,0,54319,59797,54298.07,59782.75,20.93,14.25,0.019639,0.023324,1.557087,71.07,1
54177,0,54309,59787,54298.29,59782.84,10.71,4.16,0.019635,0.023322,1.557495,71.06,1
54188,0,54312,59790,54298.57,59782.98,13.43,7.02,0.01963,0.02332,1.557915,71.05,1
54197,0,54312,59786,54298.83,59783.04,13.16,2.96,0.019625,0.023319,1.558725,71.03,1
54206,0,54307,59793,54299,59783.24,8,9.76,0.019622,0.023316,1.558057,71.05,1
54217,0,54308,59797,54299.18,59783.52,8.82,13.48,0.019619,0.023311,1.556541,71.09,1
54226,0,54302,59799,54299.23,59783.83,2.77,15.17,0.019618,0.023306,1.554126,71.15,1
54238,0,54304,59796,54299.33,59784.08,4.67,11.92,0.019616,0.023302,1.552717,71.18,1
54247,0,54307,59788,54299.48,59784.16,7.52,3.84,0.019613,0.0233,1.552863,71.18,1
54257,0,54309,59797,54299.67,59784.42,9.32,12.58,0.01961,0.023296,1.551611,71.21,1
54266,0,54311,59788,54299.9,59784.49,11.1,3.51,0.019606,0.023295,1.552156,71.2,1
54278,0,54309,59787,54300.08,59784.54,8.91,2.46,0.019602,0.023294,1.552532,71.19,1
54287,0,54305,59779,54300.19,59784.43,4.81,-5.43,0.0196,0.023296,1.55233,71.19,1
54297,0,54300,59776,54300.18,59784.26,-0.18,-8.26,0.0196,0.023299,1.551555,71.21,1
54306,0,54292,59769,54300.02,59783.96,-8.02,-14.96,0.019603,0.023304,1.54937,71.27,1
54318,0,54290,59772,54299.82,59783.72,-9.82,-11.72,0.019607,0.023308,1.54835,71.29,1
54327,0,54285,59767,54299.52,59783.39,-14.52,-16.39,0.019612,0.023313,1.546479,71.34,1
54336,0,54285,59770,54299.23,59783.12,-14.23,-13.12,0.019618,0.023318,1.545672,71.36,1
54347,0,54287,59761,54298.99,59782.67,-11.99,-21.68,0.019622,0.023325,1.541041,71.47,1
54356,0,54287,59756,54298.75,59782.14,-11.75,-26.14,0.019627,0.023334,1.533908,71.65,1
54368,0,54282,59762,54298.41,59781.74,-16.41,-19.74,0.019633,0.023341,1.530993,71.73,1
54377,0,54278,59756,54298,59781.23,-20,-25.23,0.01964,0.023349,1.526007,71.85,1
54386,0,54280,59758,54297.64,59780.76,-17.64,-22.77,0.019647,0.023357,1.521879,71.95,1
54397,0,54277,59753,54297.23,59780.21,-20.23,-27.21,0.019655,0.023366,1.515802,72.1,1
54407,0,54277,59746,54296.82,59779.53,-19.82,-33.53,0.019662,0.023378,1.505312,72.37,1
54418,0,54281,59760,54296.51,59779.14,-15.51,-19.14,0.019668,0.023384,1.502606,72.43,1
54427,0,54277,59749,54296.12,59778.54,-19.12,-29.54,0.019675,0.023394,1.494934,72.63,1
54436,0,54280,59751,54295.8,59777.99,-15.8,-26.99,0.019681,0.023404,1.48825,72.79,1
54448,0,54282,59754,54295.53,59777.51,-13.53,-23.51,0.019686,0.023412,1.483166,72.92,1
54457,0,54282,59752,54295.26,59777,-13.26,-25,0.019691,0.02342,1.477249,73.07,1
54467,0,54273,59764,54294.82,59776.74,-21.82,-12.74,0.019699,0.023425,1.478393,73.04,1
