t_ms,phase,red_raw,ir_raw,red_dc,ir_dc,red_ac,ir_ac,OD_red,OD_ir,R,spo2,spo2_valid
17,0,45898,45280,45897.37,45192.75,0.62,87.25,-0.458426,-0.454744,0.980941,85.32,1
48,0,45895,45273,45897.37,45192.91,-2.37,80.09,-0.458426,-0.454747,0.980263,85.32,1
87,0,45895,45275,45897.37,45193.07,-2.37,81.93,-0.458426,-0.454751,0.979580,85.33,1
129,0,45894,45282,45897.36,45193.25,-3.36,88.75,-0.458426,-0.454755,0.978891,85.33,1
167,0,45900,45278,45897.37,45193.43,2.63,84.57,-0.458426,-0.454759,0.978198,85.34,1
208,0,45886,45279,45897.35,45193.60,-11.35,85.40,-0.458426,-0.454763,0.977499,85.35,1
248,0,45887,45277,45897.33,45193.77,-10.33,83.23,-0.458425,-0.454766,0.976796,85.35,1
290,0,45877,45277,45897.29,45193.93,-20.29,83.07,-0.458424,-0.454770,0.976089,85.36,1
328,0,45877,45274,45897.25,45194.09,-20.25,79.91,-0.458424,-0.454773,0.975378,85.37,1
369,0,45872,45270,45897.20,45194.25,-25.20,75.75,-0.458422,-0.454777,0.974665,85.38,1
410,0,45869,45270,45897.14,45194.40,-28.14,75.60,-0.458421,-0.454780,0.973950,85.38,1
448,0,45866,45278,45897.08,45194.57,-31.08,83.43,-0.458420,-0.454784,0.973232,85.39,1
488,0,45875,45283,45897.04,45194.75,-22.04,88.25,-0.458419,-0.454788,0.972509,85.40,1
528,0,45876,45287,45897.00,45194.93,-21.00,92.07,-0.458418,-0.454792,0.971780,85.41,1
568,0,45874,45300,45896.96,45195.14,-22.96,104.86,-0.458417,-0.454797,0.971044,85.42,1
609,0,45874,45299,45896.91,45195.35,-22.91,103.65,-0.458416,-0.454801,0.970300,85.43,1
648,0,45879,45313,45896.88,45195.59,-17.88,117.41,-0.458415,-0.454807,0.969545,85.44,1
688,0,45887,45312,45896.86,45195.82,-9.86,116.18,-0.458415,-0.454812,0.968780,85.45,1
729,0,45891,45327,45896.85,45196.09,-5.85,130.91,-0.458415,-0.454818,0.968000,85.46,1
769,0,45899,45329,45896.85,45196.35,2.15,132.65,-0.458415,-0.454823,0.967206,85.47,1
808,0,45901,45338,45896.86,45196.64,4.14,141.36,-0.458415,-0.454830,0.966396,85.48,1
849,0,45914,45368,45896.89,45196.98,17.11,171.02,-0.458416,-0.454837,0.965562,85.49,1
888,0,45919,45369,45896.94,45197.32,22.06,171.68,-0.458417,-0.454845,0.964705,85.51,1
928,0,45913,45379,45896.98,45197.69,16.02,181.31,-0.458418,-0.454853,0.963822,85.52,1
967,0,45927,45413,45897.04,45198.12,29.96,214.88,-0.458419,-0.454863,0.962905,85.53,1
1009,0,45957,45458,45897.16,45198.64,59.84,259.36,-0.458422,-0.454874,0.961945,85.54,1
1048,0,45999,45500,45897.36,45199.25,101.64,300.75,-0.458426,-0.454887,0.960939,85.56,1
1089,0,46012,45519,45897.59,45199.89,114.41,319.11,-0.458431,-0.454902,0.959891,85.57,1
1130,0,46024,45534,45897.85,45200.55,126.15,333.45,-0.458437,-0.454916,0.958803,85.58,1
1169,0,46027,45533,45898.11,45201.22,128.89,331.78,-0.458442,-0.454931,0.957683,85.60,1
1211,0,46037,45547,45898.38,45201.91,138.62,345.09,-0.458448,-0.454946,0.956533,85.61,1
1249,0,46033,45535,45898.65,45202.58,134.35,332.42,-0.458454,-0.454961,0.955359,85.63,1
1293,0,46028,45530,45898.91,45203.24,129.09,326.76,-0.458460,-0.454976,0.954164,85.64,1
1329,0,46023,45546,45899.16,45203.93,123.84,342.07,-0.458465,-0.454991,0.952944,85.66,1
1369,0,46034,45550,45899.43,45204.62,134.57,345.38,-0.458471,-0.455006,0.951703,85.68,1
1410,0,46043,45573,45899.72,45205.36,143.28,367.64,-0.458477,-0.455023,0.950442,85.69,1
1449,0,46054,45574,45900.03,45206.09,153.97,367.91,-0.458484,-0.455039,0.949166,85.71,1
1490,0,46049,45571,45900.33,45206.82,148.67,364.18,-0.458491,-0.455055,0.947876,85.73,1
1529,0,46059,45568,45900.65,45207.55,158.35,360.45,-0.458498,-0.455071,0.946577,85.75,1
1569,0,46053,45571,45900.96,45208.27,152.04,362.73,-0.458504,-0.455087,0.945269,85.76,1
1609,0,46060,45575,45901.28,45209.01,158.72,365.99,-0.458511,-0.455103,0.943954,85.78,1
1649,0,46063,45568,45901.60,45209.73,161.40,358.27,-0.458518,-0.455119,0.942635,85.80,1
1692,0,46049,45559,45901.90,45210.43,147.10,348.57,-0.458525,-0.455135,0.941310,85.82,1
1729,0,46043,45566,45902.18,45211.14,140.82,354.86,-0.458531,-0.455151,0.939976,85.84,1
1772,0,46054,45564,45902.49,45211.84,151.51,352.16,-0.458538,-0.455166,0.938639,85.86,1
1808,0,46060,45576,45902.80,45212.57,157.20,363.43,-0.458545,-0.455182,0.937298,85.88,1
1849,0,46071,45580,45903.14,45213.31,167.86,366.69,-0.458552,-0.455199,0.935956,85.91,1
1890,0,46067,45569,45903.47,45214.02,163.53,354.98,-0.458559,-0.455214,0.934614,85.93,1
1930,0,46056,45560,45903.77,45214.71,152.23,345.29,-0.458566,-0.455230,0.933272,85.95,1
1970,0,46050,45557,45904.07,45215.40,145.93,341.60,-0.458572,-0.455245,0.931927,85.97,1
2010,0,46044,45545,45904.35,45216.06,139.65,328.94,-0.458578,-0.455259,0.930581,86.00,1
2046,0,46039,45537,45904.62,45216.70,134.38,320.30,-0.458584,-0.455274,0.929233,86.02,1
2092,0,46030,45530,45904.87,45217.33,125.13,312.67,-0.458589,-0.455288,0.927884,86.04,1
2130,0,46027,45528,45905.11,45217.95,121.89,310.05,-0.458595,-0.455301,0.926532,86.07,1
2171,0,46030,45524,45905.36,45218.57,124.64,305.43,-0.458600,-0.455315,0.925179,86.09,1
2210,0,46036,45533,45905.62,45219.20,130.37,313.80,-0.458606,-0.455329,0.923826,86.11,1
2251,0,46035,45531,45905.89,45219.82,129.11,311.18,-0.458612,-0.455343,0.922473,86.14,1
2291,0,46035,45537,45906.14,45220.46,128.86,316.54,-0.458617,-0.455357,0.921118,86.16,1
2330,0,46039,45540,45906.41,45221.10,132.59,318.90,-0.458623,-0.455371,0.919764,86.19,1
2371,0,46038,45536,45906.68,45221.73,131.32,314.27,-0.458629,-0.455385,0.918410,86.22,1
2415,0,46053,45551,45906.97,45222.39,146.03,328.61,-0.458635,-0.455399,0.917058,86.24,1
2451,0,46044,45545,45907.24,45223.04,136.76,321.96,-0.458641,-0.455414,0.915706,86.27,1
2486,0,46048,45559,45907.52,45223.71,140.48,335.29,-0.458647,-0.455429,0.914355,86.29,1
2526,0,46056,45575,45907.82,45224.41,148.18,350.59,-0.458654,-0.455444,0.913003,86.32,1
2566,0,46065,45585,45908.14,45225.13,156.86,359.87,-0.458661,-0.455460,0.911654,86.35,1
2611,0,46071,45585,45908.46,45225.86,162.54,359.14,-0.458668,-0.455476,0.910306,86.37,1
2651,0,46075,45595,45908.80,45226.59,166.20,368.41,-0.458675,-0.455492,0.908962,86.40,1
2692,0,46079,45604,45909.14,45227.35,169.86,376.65,-0.458683,-0.455509,0.907619,86.43,1
2730,0,46075,45610,45909.47,45228.12,165.53,381.88,-0.458690,-0.455526,0.906278,86.46,1
2770,0,46088,45621,45909.83,45228.90,178.17,392.10,-0.458698,-0.455543,0.904940,86.48,1
2811,0,46095,45626,45910.20,45229.70,184.80,396.30,-0.458706,-0.455561,0.903606,86.51,1
2851,0,46087,45621,45910.56,45230.48,176.44,390.52,-0.458714,-0.455578,0.902274,86.54,1
2893,0,46086,45627,45910.91,45231.28,175.09,395.72,-0.458721,-0.455596,0.900945,86.57,1
2931,0,46091,45627,45911.27,45232.07,179.73,394.93,-0.458729,-0.455613,0.899618,86.59,1
2973,0,46085,45624,45911.62,45232.86,173.38,391.14,-0.458737,-0.455631,0.898294,86.62,1
3010,0,46092,45620,45911.98,45233.63,180.02,386.37,-0.458745,-0.455648,0.896973,86.65,1
3052,0,46089,45618,45912.34,45234.40,176.66,383.60,-0.458752,-0.455665,0.895657,86.68,1
3090,0,46085,45623,45912.69,45235.18,172.31,387.82,-0.458760,-0.455682,0.894343,86.71,1
3129,0,46090,45614,45913.04,45235.94,176.96,378.06,-0.458768,-0.455699,0.893033,86.74,1
3167,0,46085,45610,45913.39,45236.69,171.61,373.31,-0.458775,-0.455715,0.891726,86.77,1
3211,0,46096,45613,45913.75,45237.44,182.25,375.56,-0.458783,-0.455732,0.890425,86.80,1
3250,0,46094,45602,45914.12,45238.17,179.88,363.83,-0.458791,-0.455748,0.889130,86.83,1
3287,0,46084,45589,45914.46,45238.87,169.54,350.12,-0.458798,-0.455764,0.887840,86.86,1
3328,0,46072,45581,45914.77,45239.56,157.23,341.44,-0.458805,-0.455779,0.886554,86.88,1
3371,0,46067,45586,45915.08,45240.25,151.92,345.75,-0.458812,-0.455794,0.885269,86.91,1
3411,0,46068,45585,45915.39,45240.95,152.61,344.05,-0.458819,-0.455810,0.883988,86.94,1
3452,0,46072,45589,45915.70,45241.64,156.30,347.36,-0.458826,-0.455825,0.882710,86.97,1
3492,0,46075,45595,45916.02,45242.35,158.98,352.65,-0.458832,-0.455841,0.881434,87.00,1
3532,0,46073,45592,45916.34,45243.05,156.66,348.95,-0.458839,-0.455856,0.880162,87.03,1
3574,0,46059,45593,45916.62,45243.75,142.38,349.25,-0.458846,-0.455872,0.878891,87.06,1
3613,0,46062,45597,45916.91,45244.46,145.09,352.54,-0.458852,-0.455887,0.877621,87.09,1
3651,0,46067,45593,45917.21,45245.16,149.79,347.84,-0.458858,-0.455903,0.876353,87.12,1
3690,0,46063,45596,45917.51,45245.86,145.49,350.14,-0.458865,-0.455918,0.875086,87.15,1
3732,0,46053,45581,45917.78,45246.53,135.22,334.47,-0.458871,-0.455933,0.873821,87.18,1
3772,0,46037,45575,45918.02,45247.19,118.98,327.81,-0.458876,-0.455948,0.872555,87.21,1
3813,0,46041,45574,45918.27,45247.84,122.73,326.16,-0.458881,-0.455962,0.871290,87.24,1
3853,0,46043,45582,45918.52,45248.51,124.48,333.49,-0.458887,-0.455977,0.870025,87.27,1
3892,0,46053,45596,45918.79,45249.21,134.21,346.79,-0.458893,-0.455992,0.868761,87.30,1
3932,0,46055,45603,45919.06,45249.91,135.94,353.09,-0.458899,-0.456008,0.867496,87.33,1
3974,0,46066,45622,45919.36,45250.66,146.64,371.34,-0.458905,-0.456024,0.866233,87.36,1
4013,0,46075,45625,45919.67,45251.41,155.33,373.59,-0.458912,-0.456041,0.864971,87.39,1
4051,0,46081,45629,45919.99,45252.17,161.01,376.83,-0.458919,-0.456058,0.863712,87.42,1
4093,0,46095,45637,45920.34,45252.94,174.66,384.06,-0.458927,-0.456075,0.862457,87.46,1
4132,0,46097,45641,45920.70,45253.71,176.30,387.29,-0.458934,-0.456092,0.861206,87.49,1
4172,0,46101,45651,45921.06,45254.51,179.94,396.49,-0.458942,-0.456109,0.859958,87.52,1
4212,0,46107,45662,45921.44,45255.33,185.56,406.67,-0.458950,-0.456127,0.858715,87.55,1
4256,0,46119,45679,45921.83,45256.18,197.17,422.82,-0.458959,-0.456146,0.857476,87.58,1
4293,0,46125,45676,45922.24,45257.02,202.76,418.98,-0.458968,-0.456165,0.856244,87.61,1
4332,0,46121,45674,45922.64,45257.85,198.36,416.15,-0.458977,-0.456183,0.855016,87.64,1
4375,0,46119,45679,45923.03,45258.70,195.97,420.30,-0.458985,-0.456202,0.853793,87.67,1
4412,0,46118,45681,45923.42,45259.54,194.58,421.46,-0.458994,-0.456221,0.852574,87.70,1
4453,0,46120,45687,45923.82,45260.40,196.18,426.60,-0.459002,-0.456239,0.851360,87.73,1
4494,0,46127,45693,45924.22,45261.27,202.78,431.73,-0.459011,-0.456259,0.850150,87.76,1
4533,0,46124,45700,45924.62,45262.14,199.37,437.86,-0.459020,-0.456278,0.848944,87.79,1
4574,0,46137,45710,45925.05,45263.04,211.95,446.96,-0.459029,-0.456298,0.847742,87.82,1
4613,0,46136,45697,45925.47,45263.91,210.53,433.09,-0.459038,-0.456317,0.846547,87.85,1
4654,0,46128,45700,45925.88,45264.79,202.12,435.21,-0.459047,-0.456336,0.845355,87.88,1
4693,0,46129,45701,45926.29,45265.66,202.71,435.34,-0.459056,-0.456356,0.844168,87.91,1
4736,0,46123,45703,45926.68,45266.54,196.32,436.46,-0.459065,-0.456375,0.842984,87.94,1
4775,0,46135,45721,45927.10,45267.45,207.90,453.55,-0.459074,-0.456395,0.841804,87.97,1
4813,0,46150,45725,45927.54,45268.36,222.46,456.64,-0.459083,-0.456415,0.840629,88.00,1
4852,0,46155,45735,45928.00,45269.30,227.00,465.70,-0.459093,-0.456436,0.839460,88.03,1
4894,0,46155,45718,45928.46,45270.20,226.54,447.80,-0.459103,-0.456456,0.838298,88.06,1
4933,0,46151,45726,45928.90,45271.11,222.10,454.89,-0.459113,-0.456476,0.837142,88.09,1
4975,0,46160,45734,45929.37,45272.04,230.63,461.96,-0.459123,-0.456497,0.835991,88.12,1
5012,0,46157,45713,45929.82,45272.92,227.18,440.08,-0.459133,-0.456516,0.834848,88.15,1
5054,0,46140,45696,45930.25,45273.77,209.75,422.23,-0.459142,-0.456535,0.833710,88.18,1
5093,0,46124,45692,45930.64,45274.60,193.36,417.40,-0.459151,-0.456553,0.832575,88.21,1
5133,0,46125,45715,45931.03,45275.48,193.97,439.52,-0.459159,-0.456573,0.831443,88.24,1
5176,0,46129,45701,45931.43,45276.34,197.57,424.66,-0.459168,-0.456592,0.830314,88.27,1
5210,0,46122,45700,45931.81,45277.18,190.19,422.82,-0.459176,-0.456610,0.829188,88.30,1
5250,0,46116,45679,45932.18,45277.99,183.82,401.01,-0.459184,-0.456628,0.828065,88.33,1
5294,0,46104,45678,45932.52,45278.79,171.48,399.21,-0.459192,-0.456646,0.826945,88.36,1
5335,0,46092,45668,45932.84,45279.57,159.16,388.43,-0.459199,-0.456663,0.825825,88.39,1
5375,0,46085,45653,45933.15,45280.32,151.85,372.68,-0.459205,-0.456679,0.824707,88.42,1
5414,0,46085,45657,45933.45,45281.07,151.55,375.93,-0.459212,-0.456696,0.823590,88.45,1
5454,0,46099,45670,45933.79,45281.85,165.21,388.15,-0.459219,-0.456713,0.822475,88.48,1
5494,0,46100,45677,45934.12,45282.64,165.88,394.36,-0.459227,-0.456731,0.821362,88.51,1
5534,0,46101,45673,45934.45,45283.42,166.55,389.58,-0.459234,-0.456748,0.820251,88.54,1
5576,0,46093,45662,45934.77,45284.18,158.23,377.82,-0.459241,-0.456765,0.819142,88.57,1
5613,0,46091,45651,45935.08,45284.91,155.92,366.09,-0.459247,-0.456781,0.818035,88.60,1
5655,0,46093,45653,45935.40,45285.65,157.60,367.35,-0.459254,-0.456797,0.816930,88.63,1
5695,0,46085,45640,45935.70,45286.36,149.30,353.64,-0.459261,-0.456813,0.815828,88.66,1
5732,0,46071,45626,45935.97,45287.04,135.03,338.96,-0.459267,-0.456828,0.814727,88.69,1
5770,0,46054,45614,45936.21,45287.70,117.79,326.30,-0.459272,-0.456843,0.813627,88.72,1
5815,0,46047,45603,45936.43,45288.33,110.57,314.67,-0.459277,-0.456856,0.812528,88.75,1
5854,0,46036,45583,45936.63,45288.92,99.37,294.08,-0.459281,-0.456869,0.811430,88.78,1
5896,0,46020,45577,45936.80,45289.50,83.20,287.50,-0.459285,-0.456882,0.810331,88.80,1
5934,0,46012,45585,45936.95,45290.09,75.05,294.91,-0.459288,-0.456895,0.809233,88.83,1
5973,0,46030,45612,45937.14,45290.74,92.86,321.26,-0.459292,-0.456910,0.808134,88.86,1
6015,0,46047,45622,45937.36,45291.40,109.64,330.60,-0.459297,-0.456924,0.807035,88.89,1
6056,0,46049,45626,45937.59,45292.07,111.41,333.93,-0.459302,-0.456939,0.805936,88.92,1
6094,0,46051,45639,45937.81,45292.77,113.19,346.23,-0.459307,-0.456954,0.804837,88.95,1
6136,0,46060,45647,45938.06,45293.48,121.94,353.52,-0.459312,-0.456970,0.803738,88.98,1
6176,0,46066,45631,45938.32,45294.16,127.68,336.84,-0.459318,-0.456985,0.802641,89.01,1
6215,0,46037,45602,45938.52,45294.77,98.48,307.23,-0.459322,-0.456999,0.801544,89.03,1
6255,0,46032,45616,45938.70,45295.42,93.30,320.58,-0.459326,-0.457013,0.800447,89.06,1
6295,0,46047,45634,45938.92,45296.10,108.08,337.90,-0.459331,-0.457028,0.799350,89.09,1
6335,0,46047,45638,45939.14,45296.78,107.86,341.22,-0.459336,-0.457043,0.798252,89.12,1
6376,0,46062,45659,45939.39,45297.51,122.61,361.49,-0.459341,-0.457059,0.797155,89.15,1
6415,0,46076,45666,45939.66,45298.25,136.34,367.75,-0.459347,-0.457075,0.796058,89.18,1
6456,0,46075,45671,45939.93,45298.99,135.07,372.01,-0.459353,-0.457092,0.794963,89.21,1
6495,0,46086,45675,45940.23,45299.75,145.77,375.25,-0.459360,-0.457108,0.793868,89.23,1
6535,0,46080,45664,45940.51,45300.48,139.49,363.52,-0.459366,-0.457125,0.792776,89.26,1
6575,0,46060,45659,45940.75,45301.20,119.25,357.80,-0.459371,-0.457140,0.791683,89.29,1
6616,0,46063,45661,45940.99,45301.92,122.01,359.08,-0.459376,-0.457156,0.790591,89.32,1
6657,0,46062,45661,45941.23,45302.64,120.77,358.36,-0.459381,-0.457172,0.789499,89.35,1
6694,0,46073,45665,45941.50,45303.36,131.50,361.64,-0.459387,-0.457188,0.788408,89.38,1
6735,0,46064,45670,45941.75,45304.10,122.25,365.90,-0.459393,-0.457205,0.787317,89.40,1
6777,0,46072,45679,45942.01,45304.85,129.99,374.15,-0.459398,-0.457221,0.786226,89.43,1
6812,0,46073,45683,45942.27,45305.61,130.73,377.39,-0.459404,-0.457238,0.785136,89.46,1
6857,0,46071,45695,45942.53,45306.39,128.47,388.61,-0.459410,-0.457255,0.784046,89.49,1
6896,0,46087,45707,45942.82,45307.19,144.18,399.81,-0.459416,-0.457273,0.782956,89.52,1
6936,0,46092,45729,45943.12,45308.03,148.88,420.97,-0.459422,-0.457291,0.781867,89.55,1
6976,0,46090,45727,45943.41,45308.87,146.59,418.13,-0.459429,-0.457310,0.780777,89.57,1
7017,0,46087,45731,45943.70,45309.71,143.30,421.29,-0.459435,-0.457329,0.779687,89.60,1
7057,0,46081,45711,45943.98,45310.52,137.02,400.48,-0.459441,-0.457346,0.778598,89.63,1
7096,0,46074,45720,45944.24,45311.34,129.76,408.66,-0.459447,-0.457364,0.777508,89.66,1
7135,0,46074,45718,45944.50,45312.16,129.50,405.84,-0.459453,-0.457382,0.776417,89.69,1
7177,0,46078,45727,45944.77,45312.99,133.23,414.01,-0.459458,-0.457401,0.775325,89.71,1
7216,0,46086,45744,45945.06,45313.85,140.94,430.15,-0.459465,-0.457420,0.774233,89.74,1
7259,0,46089,45739,45945.35,45314.70,143.65,424.30,-0.459471,-0.457439,0.773141,89.77,1
7296,0,46103,45752,45945.66,45315.58,157.34,436.42,-0.459478,-0.457458,0.772050,89.80,1
7332,0,46100,45751,45945.97,45316.45,154.03,434.55,-0.459485,-0.457477,0.770960,89.82,1
7372,0,46104,45760,45946.29,45317.34,157.71,442.66,-0.459491,-0.457497,0.769870,89.85,1
7416,0,46094,45756,45946.59,45318.21,147.41,437.79,-0.459498,-0.457516,0.768780,89.88,1
7457,0,46096,45756,45946.89,45319.09,149.11,436.91,-0.459504,-0.457535,0.767690,89.91,1
7497,0,46094,45747,45947.18,45319.95,146.82,427.05,-0.459511,-0.457554,0.766601,89.94,1
7536,0,46096,45746,45947.48,45320.80,148.52,425.20,-0.459517,-0.457573,0.765512,89.96,1
7577,0,46089,45739,45947.77,45321.63,141.23,417.37,-0.459524,-0.457592,0.764424,89.99,1
7616,0,46074,45726,45948.02,45322.44,125.98,403.56,-0.459529,-0.457609,0.763336,90.02,1
7657,0,46067,45721,45948.26,45323.24,118.74,397.76,-0.459534,-0.457627,0.762248,90.05,1
7697,0,46065,45714,45948.49,45324.02,116.51,389.98,-0.459539,-0.457644,0.761159,90.07,1
7739,0,46070,45726,45948.74,45324.82,121.26,401.18,-0.459545,-0.457662,0.760071,90.10,1
7779,0,46078,45736,45949.00,45325.65,129.00,410.35,-0.459550,-0.457680,0.758982,90.13,1
7818,0,46099,45785,45949.30,45326.57,149.70,458.43,-0.459557,-0.457700,0.757893,90.16,1
7857,0,46132,45802,45949.66,45327.52,182.34,474.48,-0.459565,-0.457721,0.756806,90.19,1
7897,0,46138,45789,45950.04,45328.45,187.96,460.55,-0.459573,-0.457742,0.755724,90.21,1
7937,0,46134,45787,45950.41,45329.36,183.59,457.64,-0.459581,-0.457762,0.754644,90.24,1
7977,0,46127,45789,45950.77,45330.29,176.23,458.71,-0.459589,-0.457782,0.753567,90.27,1
8017,0,46125,45797,45951.12,45331.22,173.88,465.78,-0.459597,-0.457803,0.752492,90.30,1
8059,0,46134,45792,45951.48,45332.14,182.52,459.86,-0.459605,-0.457823,0.751419,90.32,1
8097,0,46138,45789,45951.86,45333.05,186.14,455.95,-0.459613,-0.457844,0.750351,90.35,1
8138,0,46140,45794,45952.24,45333.98,187.76,460.02,-0.459621,-0.457864,0.749286,90.38,1
8178,0,46134,45789,45952.60,45334.89,181.40,454.11,-0.459629,-0.457884,0.748224,90.41,1
8214,0,46131,45788,45952.96,45335.79,178.04,452.21,-0.459637,-0.457904,0.747165,90.43,1
8257,0,46126,45778,45953.31,45336.68,172.69,441.32,-0.459644,-0.457923,0.746109,90.46,1
8297,0,46119,45762,45953.64,45337.53,165.36,424.47,-0.459651,-0.457942,0.745055,90.49,1
8337,0,46111,45756,45953.96,45338.37,157.04,417.63,-0.459658,-0.457961,0.744004,90.52,1
8378,0,46114,45759,45954.28,45339.21,159.72,419.79,-0.459665,-0.457979,0.742955,90.54,1
8417,0,46113,45765,45954.60,45340.07,158.40,424.93,-0.459672,-0.457998,0.741909,90.57,1
8459,0,46120,45772,45954.93,45340.93,165.07,431.07,-0.459680,-0.458017,0.740865,90.60,1
8498,0,46117,45753,45955.25,45341.75,161.75,411.25,-0.459687,-0.458035,0.739823,90.62,1
8538,0,46099,45734,45955.54,45342.54,143.46,391.46,-0.459693,-0.458053,0.738784,90.65,1
8578,0,46083,45721,45955.80,45343.30,127.20,377.70,-0.459698,-0.458069,0.737746,90.68,1
8618,0,46070,45715,45956.03,45344.04,113.97,370.96,-0.459703,-0.458086,0.736709,90.71,1
8659,0,46056,45687,45956.23,45344.73,99.77,342.27,-0.459708,-0.458101,0.735673,90.73,1
8697,0,46036,45660,45956.39,45345.36,79.61,314.64,-0.459711,-0.458115,0.734637,90.76,1
8739,0,46024,45661,45956.53,45346.00,67.47,315.00,-0.459714,-0.458129,0.733602,90.79,1
8778,0,46031,45671,45956.68,45346.65,74.32,324.35,-0.459717,-0.458143,0.732566,90.81,1
8818,0,46029,45669,45956.82,45347.29,72.18,321.71,-0.459721,-0.458158,0.731531,90.84,1
8859,0,46026,45667,45956.96,45347.93,69.04,319.07,-0.459724,-0.458172,0.730495,90.87,1
8898,0,46027,45657,45957.10,45348.55,69.90,308.45,-0.459727,-0.458185,0.729460,90.89,1
8936,0,46020,45650,45957.23,45349.16,62.77,300.84,-0.459730,-0.458199,0.728426,90.92,1
8978,0,46012,45637,45957.34,45349.74,54.66,287.26,-0.459732,-0.458211,0.727391,90.95,1
9017,0,46006,45631,45957.44,45350.30,48.56,280.70,-0.459734,-0.458224,0.726357,90.98,1
9059,0,45993,45612,45957.51,45350.82,35.49,261.18,-0.459736,-0.458235,0.725324,91.00,1
9098,0,45978,45605,45957.55,45351.33,20.45,253.67,-0.459737,-0.458247,0.724291,91.03,1
9139,0,45978,45587,45957.60,45351.80,20.40,235.20,-0.459738,-0.458257,0.723258,91.06,1
9179,0,45971,45590,45957.62,45352.28,13.38,237.72,-0.459738,-0.458268,0.722227,91.08,1
9219,0,45975,45585,45957.66,45352.75,17.34,232.25,-0.459739,-0.458278,0.721196,91.11,1
9259,0,45963,45582,45957.67,45353.21,5.33,228.79,-0.459739,-0.458288,0.720166,91.14,1
9302,0,45956,45577,45957.67,45353.66,-1.67,223.34,-0.459739,-0.458298,0.719137,91.16,1
9339,0,45950,45563,45957.65,45354.07,-7.65,208.93,-0.459739,-0.458307,0.718109,91.19,1
9380,0,45943,45554,45957.62,45354.48,-14.63,199.52,-0.459738,-0.458316,0.717082,91.22,1
9418,0,45931,45549,45957.57,45354.87,-26.57,194.13,-0.459737,-0.458325,0.716057,91.24,1
9455,0,45921,45543,45957.50,45355.25,-36.50,187.75,-0.459736,-0.458333,0.715034,91.27,1
9495,0,45918,45540,45957.43,45355.62,-39.43,184.38,-0.459734,-0.458341,0.714013,91.29,1
9541,0,45915,45528,45957.34,45355.96,-42.34,172.04,-0.459732,-0.458349,0.712994,91.32,1
9579,0,45919,45527,45957.27,45356.31,-38.27,170.69,-0.459730,-0.458356,0.711977,91.35,1
9619,0,45911,45525,45957.18,45356.65,-46.18,168.35,-0.459728,-0.458364,0.710963,91.37,1
9659,0,45910,45535,45957.09,45357.01,-47.09,177.99,-0.459726,-0.458372,0.709951,91.40,1
9700,0,45914,45537,45957.00,45357.37,-43.00,179.63,-0.459725,-0.458380,0.708941,91.43,1
9740,0,45915,45531,45956.92,45357.71,-41.92,173.29,-0.459723,-0.458387,0.707934,91.45,1
9779,0,45921,45535,45956.85,45358.07,-35.85,176.93,-0.459721,-0.458395,0.706928,91.48,1
9818,0,45929,45540,45956.79,45358.43,-27.79,181.57,-0.459720,-0.458403,0.705924,91.50,1
9859,0,45926,45549,45956.73,45358.82,-30.73,190.18,-0.459719,-0.458412,0.704922,91.53,1
9899,0,45922,45547,45956.67,45359.20,-34.67,187.80,-0.459717,-0.458420,0.703921,91.56,1
9940,0,45924,45548,45956.61,45359.57,-32.61,188.43,-0.459716,-0.458428,0.702922,91.58,1
9979,0,45916,45536,45956.53,45359.93,-40.53,176.07,-0.459714,-0.458436,0.701925,91.61,1
10019,0,45918,45539,45956.45,45360.29,-38.45,178.71,-0.459713,-0.458444,0.700930,91.64,1
10059,0,45919,45549,45956.38,45360.67,-37.38,188.33,-0.459711,-0.458452,0.699937,91.66,1
10099,0,45925,45558,45956.32,45361.06,-31.32,196.94,-0.459710,-0.458461,0.698945,91.69,1
10140,0,45932,45572,45956.27,45361.48,-24.27,210.52,-0.459709,-0.458470,0.697954,91.71,1
10181,0,45933,45569,45956.22,45361.90,-23.22,207.10,-0.459708,-0.458480,0.696964,91.74,1
10220,0,45931,45564,45956.17,45362.31,-25.17,201.69,-0.459707,-0.458489,0.695975,91.77,1
10261,0,45918,45552,45956.10,45362.69,-38.10,189.31,-0.459705,-0.458497,0.694988,91.79,1
10301,0,45909,45557,45956.00,45363.08,-47.00,193.92,-0.459703,-0.458506,0.694003,91.82,1
10341,0,45910,45552,45955.91,45363.46,-45.91,188.54,-0.459701,-0.458514,0.693019,91.84,1
10379,0,45909,45547,45955.82,45363.82,-46.82,183.18,-0.459699,-0.458522,0.692038,91.87,1
10420,0,45907,45557,45955.72,45364.21,-48.72,192.79,-0.459697,-0.458531,0.691058,91.89,1
10463,0,45912,45566,45955.64,45364.62,-43.64,201.38,-0.459695,-0.458540,0.690080,91.92,1
10500,0,45916,45572,45955.56,45365.03,-39.56,206.97,-0.459693,-0.458549,0.689104,91.94,1
10541,0,45915,45580,45955.48,45365.46,-40.48,214.54,-0.459692,-0.458558,0.688128,91.97,1
10581,0,45925,45579,45955.42,45365.89,-30.42,213.11,-0.459690,-0.458568,0.687154,92.00,1
10620,0,45926,45570,45955.36,45366.30,-29.36,203.70,-0.459689,-0.458577,0.686180,92.02,1
10662,0,45921,45575,45955.30,45366.72,-34.30,208.28,-0.459688,-0.458586,0.685207,92.05,1
10699,0,45920,45574,45955.23,45367.13,-35.23,206.87,-0.459686,-0.458595,0.684236,92.07,1
10742,0,45911,45568,45955.14,45367.54,-44.14,200.46,-0.459684,-0.458604,0.683266,92.10,1
10781,0,45907,45560,45955.05,45367.92,-48.05,192.08,-0.459682,-0.458612,0.682298,92.12,1
10820,0,45907,45557,45954.95,45368.30,-47.95,188.70,-0.459680,-0.458621,0.681332,92.15,1
10860,0,45902,45554,45954.85,45368.67,-52.85,185.33,-0.459678,-0.458629,0.680368,92.17,1
10900,0,45893,45549,45954.73,45369.04,-61.73,179.96,-0.459675,-0.458637,0.679407,92.20,1
10940,0,45885,45541,45954.59,45369.38,-69.59,171.62,-0.459672,-0.458644,0.678449,92.22,1
10981,0,45882,45537,45954.45,45369.71,-72.45,167.29,-0.459669,-0.458652,0.677494,92.25,1
11023,0,45871,45523,45954.28,45370.02,-83.28,152.98,-0.459665,-0.458659,0.676544,92.27,1
11062,0,45862,45506,45954.10,45370.30,-92.10,135.70,-0.459661,-0.458665,0.675600,92.30,1
11103,0,45843,45489,45953.87,45370.54,-110.87,118.46,-0.459657,-0.458670,0.674663,92.32,1
11143,0,45831,45475,45953.63,45370.75,-122.63,104.25,-0.459651,-0.458675,0.673734,92.35,1
11181,0,45822,45466,45953.37,45370.94,-131.37,95.06,-0.459646,-0.458679,0.672816,92.37,1
11221,0,45813,45445,45953.09,45371.09,-140.09,73.91,-0.459639,-0.458682,0.671908,92.40,1
11261,0,45776,45411,45952.73,45371.17,-176.73,39.83,-0.459632,-0.458684,0.671016,92.42,1
11303,0,45758,45355,45952.35,45371.14,-194.35,-16.14,-0.459623,-0.458683,0.670144,92.45,1
11342,0,45684,45304,45951.81,45371.00,-267.81,-67.00,-0.459612,-0.458680,0.669305,92.47,1
11382,0,45696,45305,45951.30,45370.87,-255.30,-65.87,-0.459601,-0.458677,0.668495,92.50,1
11424,0,45704,45313,45950.81,45370.76,-246.81,-57.76,-0.459590,-0.458675,0.667713,92.52,1
11461,0,45701,45308,45950.31,45370.64,-249.31,-62.64,-0.459579,-0.458672,0.666959,92.55,1
11504,0,45698,45315,45949.80,45370.53,-251.80,-55.53,-0.459568,-0.458670,0.666233,92.57,1
11537,0,45700,45311,45949.30,45370.41,-249.30,-59.41,-0.459557,-0.458667,0.665534,92.59,1
11577,0,45701,45313,45948.81,45370.30,-247.81,-57.30,-0.459546,-0.458665,0.664862,92.62,1
11623,0,45709,45311,45948.33,45370.18,-239.33,-59.18,-0.459536,-0.458662,0.664214,92.64,1
11661,0,45703,45310,45947.84,45370.06,-244.84,-60.06,-0.459525,-0.458659,0.663591,92.66,1
11701,0,45703,45305,45947.36,45369.93,-244.36,-64.93,-0.459515,-0.458657,0.662993,92.69,1
11743,0,45699,45301,45946.86,45369.79,-247.86,-68.79,-0.459504,-0.458654,0.662421,92.71,1
11783,0,45699,45308,45946.36,45369.67,-247.36,-61.67,-0.459493,-0.458651,0.661873,92.73,1
11823,0,45700,45301,45945.87,45369.54,-245.87,-68.54,-0.459482,-0.458648,0.661350,92.75,1
11863,0,45696,45301,45945.37,45369.40,-249.37,-68.40,-0.459472,-0.458645,0.660852,92.78,1
11902,0,45695,45294,45944.87,45369.25,-249.87,-75.25,-0.459461,-0.458642,0.660378,92.80,1
11945,0,45688,45286,45944.36,45369.09,-256.36,-83.09,-0.459449,-0.458638,0.659930,92.82,1
11981,0,45690,45289,45943.85,45368.93,-253.85,-79.93,-0.459438,-0.458634,0.659507,92.84,1
12023,0,45688,45286,45943.34,45368.76,-255.34,-82.76,-0.459427,-0.458631,0.659109,92.86,1
12058,0,45691,45292,45942.84,45368.61,-251.84,-76.61,-0.459416,-0.458627,0.658735,92.88,1
12099,0,45688,45290,45942.33,45368.45,-254.33,-78.45,-0.459405,-0.458624,0.658384,92.90,1
12141,0,45689,45292,45941.82,45368.30,-252.82,-76.30,-0.459394,-0.458621,0.658058,92.92,1
12183,0,45687,45287,45941.32,45368.14,-254.32,-81.14,-0.459383,-0.458617,0.657756,92.94,1
12221,0,45693,45295,45940.82,45368.00,-247.82,-73.00,-0.459372,-0.458614,0.657476,92.96,1
12262,0,45702,45294,45940.34,45367.85,-238.34,-73.85,-0.459362,-0.458611,0.657217,92.98,1
12301,0,45707,45303,45939.88,45367.72,-232.88,-64.72,-0.459352,-0.458608,0.656978,92.99,1
12344,0,45701,45301,45939.40,45367.59,-238.40,-66.59,-0.459342,-0.458605,0.656760,93.01,1
12382,0,45704,45306,45938.93,45367.46,-234.93,-61.46,-0.459331,-0.458602,0.656561,93.03,1
12423,0,45705,45306,45938.47,45367.34,-233.47,-61.34,-0.459321,-0.458600,0.656383,93.04,1
12464,0,45708,45312,45938.01,45367.23,-230.01,-55.23,-0.459311,-0.458597,0.656223,93.06,1
12502,0,45702,45309,45937.54,45367.12,-235.54,-58.12,-0.459301,-0.458595,0.656083,93.08,1
12542,0,45701,45310,45937.06,45367.00,-236.06,-57.00,-0.459291,-0.458592,0.655964,93.09,1
12584,0,45702,45309,45936.59,45366.89,-234.59,-57.89,-0.459280,-0.458590,0.655864,93.11,1
12625,0,45702,45312,45936.12,45366.78,-234.12,-54.78,-0.459270,-0.458587,0.655783,93.12,1
12663,0,45694,45308,45935.64,45366.66,-241.64,-58.66,-0.459260,-0.458585,0.655724,93.14,1
12703,0,45692,45313,45935.16,45366.56,-243.16,-53.56,-0.459249,-0.458582,0.655685,93.15,1
12751,0,45690,45308,45934.67,45366.44,-244.67,-58.44,-0.459239,-0.458580,0.655667,93.17,1
12783,0,45689,45308,45934.18,45366.32,-245.18,-58.32,-0.459228,-0.458577,0.655670,93.18,1
12823,0,45687,45311,45933.69,45366.21,-246.69,-55.21,-0.459217,-0.458575,0.655694,93.19,1
12863,0,45689,45319,45933.20,45366.12,-244.20,-47.12,-0.459207,-0.458573,0.655739,93.20,1
12903,0,45695,45325,45932.72,45366.04,-237.72,-41.04,-0.459196,-0.458571,0.655804,93.22,1
12944,0,45697,45337,45932.25,45365.98,-235.25,-28.98,-0.459186,-0.458570,0.655888,93.23,1
12983,0,45707,45345,45931.80,45365.94,-224.80,-20.94,-0.459176,-0.458569,0.655989,93.24,1
13025,0,45709,45342,45931.36,45365.89,-222.36,-23.89,-0.459166,-0.458568,0.656108,93.25,1
13063,0,45710,45346,45930.92,45365.86,-220.92,-19.86,-0.459157,-0.458567,0.656244,93.26,1
13103,0,45712,45355,45930.48,45365.84,-218.48,-10.84,-0.459147,-0.458566,0.656397,93.27,1
13145,0,45713,45353,45930.05,45365.81,-217.05,-12.81,-0.459138,-0.458566,0.656566,93.28,1
13183,0,45706,45364,45929.60,45365.81,-223.60,-1.81,-0.459128,-0.458566,0.656753,93.29,1
13225,0,45722,45368,45929.19,45365.81,-207.19,2.19,-0.459119,-0.458566,0.656954,93.30,1
13263,0,45724,45371,45928.78,45365.82,-204.78,5.18,-0.459110,-0.458566,0.657170,93.31,1
13304,0,45727,45372,45928.37,45365.84,-201.37,6.16,-0.459102,-0.458566,0.657400,93.31,1
13343,0,45720,45374,45927.96,45365.85,-207.96,8.15,-0.459092,-0.458567,0.657645,93.32,1
13383,0,45728,45374,45927.56,45365.87,-199.56,8.13,-0.459084,-0.458567,0.657904,93.33,1
13423,0,45722,45371,45927.15,45365.88,-205.15,5.12,-0.459075,-0.458567,0.658177,93.33,1
13464,0,45719,45367,45926.74,45365.88,-207.74,1.12,-0.459066,-0.458567,0.658466,93.34,1
13504,0,45709,45361,45926.30,45365.87,-217.30,-4.87,-0.459056,-0.458567,0.658771,93.35,1
13545,0,45714,45371,45925.88,45365.89,-211.88,5.11,-0.459047,-0.458568,0.659091,93.35,1
13584,0,45716,45369,45925.46,45365.89,-209.46,3.11,-0.459038,-0.458568,0.659427,93.36,1
13626,0,45713,45370,45925.04,45365.90,-212.04,4.10,-0.459029,-0.458568,0.659779,93.36,1
13663,0,45722,45379,45924.64,45365.93,-202.64,13.07,-0.459020,-0.458568,0.660145,93.36,1
13700,0,45728,45388,45924.25,45365.98,-196.25,22.02,-0.459012,-0.458569,0.660524,93.37,1
13745,0,45728,45391,45923.86,45366.03,-195.86,24.97,-0.459003,-0.458571,0.660916,93.37,1
13784,0,45731,45395,45923.47,45366.09,-192.47,28.91,-0.458995,-0.458572,0.661321,93.37,1
13825,0,45734,45393,45923.09,45366.14,-189.09,26.86,-0.458987,-0.458573,0.661738,93.38,1
13864,0,45737,45397,45922.72,45366.20,-185.72,30.80,-0.458978,-0.458575,0.662166,93.38,1
13904,0,45745,45398,45922.37,45366.27,-177.37,31.73,-0.458971,-0.458576,0.662605,93.38,1
13945,0,45737,45394,45922.00,45366.32,-185.00,27.68,-0.458963,-0.458577,0.663056,93.38,1
13984,0,45740,45392,45921.63,45366.37,-181.63,25.62,-0.458955,-0.458578,0.663517,93.38,1
14026,0,45734,45402,45921.26,45366.45,-187.26,35.55,-0.458946,-0.458580,0.663991,93.38,1
14064,0,45742,45402,45920.90,45366.52,-178.90,35.48,-0.458939,-0.458582,0.664476,93.38,1
14105,0,45743,45397,45920.55,45366.59,-177.55,30.41,-0.458931,-0.458583,0.664971,93.38,1
14144,0,45738,45394,45920.18,45366.64,-182.18,27.36,-0.458923,-0.458584,0.665477,93.38,1
14185,0,45737,45398,45919.82,45366.70,-182.82,31.30,-0.458915,-0.458586,0.665995,93.38,1
14224,0,45734,45390,45919.45,45366.75,-185.45,23.25,-0.458907,-0.458586,0.666525,93.38,1
14265,0,45727,45385,45919.07,45366.79,-192.07,18.21,-0.458899,-0.458587,0.667067,93.38,1
14307,0,45725,45385,45918.68,45366.83,-193.68,18.17,-0.458890,-0.458588,0.667623,93.38,1
14346,0,45721,45370,45918.29,45366.84,-197.29,3.16,-0.458882,-0.458588,0.668193,93.37,1
14384,0,45713,45369,45917.87,45366.84,-204.87,2.16,-0.458873,-0.458589,0.668779,93.37,1
14422,0,45716,45367,45917.47,45366.84,-201.47,0.16,-0.458864,-0.458589,0.669379,93.37,1
14465,0,45710,45369,45917.06,45366.84,-207.06,2.16,-0.458855,-0.458589,0.669994,93.36,1
14506,0,45718,45366,45916.66,45366.84,-198.66,-0.84,-0.458846,-0.458589,0.670624,93.36,1
14544,0,45719,45370,45916.27,45366.85,-197.27,3.15,-0.458838,-0.458589,0.671268,93.36,1
14585,0,45718,45374,45915.87,45366.87,-197.87,7.13,-0.458829,-0.458589,0.671926,93.35,1
14627,0,45721,45371,45915.48,45366.87,-194.48,4.12,-0.458821,-0.458589,0.672597,93.35,1
14665,0,45729,45372,45915.11,45366.89,-186.11,5.11,-0.458813,-0.458589,0.673281,93.34,1
14707,0,45733,45371,45914.75,45366.89,-181.75,4.11,-0.458805,-0.458590,0.673977,93.34,1
14746,0,45741,45368,45914.40,45366.90,-173.40,1.10,-0.458797,-0.458590,0.674683,93.33,1
14785,0,45738,45369,45914.05,45366.90,-176.05,2.10,-0.458790,-0.458590,0.675400,93.32,1
14826,0,45742,45372,45913.71,45366.91,-171.71,5.09,-0.458782,-0.458590,0.676128,93.32,1
14865,0,45744,45372,45913.37,45366.93,-169.37,5.07,-0.458775,-0.458590,0.676865,93.31,1
14906,0,45741,45364,45913.02,45366.92,-172.02,-2.92,-0.458767,-0.458590,0.677613,93.30,1
14945,0,45737,45356,45912.67,45366.90,-175.67,-10.90,-0.458759,-0.458590,0.678372,93.29,1
14986,0,45730,45352,45912.31,45366.87,-182.31,-14.88,-0.458752,-0.458589,0.679143,93.29,1
15026,0,45728,45344,45911.94,45366.83,-183.94,-22.83,-0.458744,-0.458588,0.679926,93.28,1
15068,0,45726,45348,45911.57,45366.80,-185.57,-18.80,-0.458736,-0.458588,0.680722,93.27,1
15107,0,45731,45333,45911.21,45366.73,-180.21,-33.73,-0.458728,-0.458586,0.681529,93.26,1
15144,0,45723,45327,45910.84,45366.65,-187.84,-39.65,-0.458720,-0.458584,0.682349,93.25,1
15182,0,45721,45329,45910.46,45366.58,-189.46,-37.58,-0.458711,-0.458583,0.683181,93.24,1
15222,0,45715,45329,45910.07,45366.50,-195.07,-37.50,-0.458703,-0.458581,0.684028,93.23,1
15263,0,45714,45329,45909.68,45366.43,-195.68,-37.43,-0.458694,-0.458579,0.684888,93.22,1
15305,0,45719,45326,45909.30,45366.35,-190.30,-40.35,-0.458686,-0.458578,0.685761,93.21,1
15346,0,45719,45323,45908.92,45366.27,-189.92,-43.27,-0.458678,-0.458576,0.686647,93.20,1
15387,0,45706,45321,45908.51,45366.18,-202.51,-45.18,-0.458669,-0.458574,0.687548,93.19,1
15427,0,45709,45324,45908.11,45366.09,-199.11,-42.09,-0.458660,-0.458572,0.688463,93.17,1
15466,0,45718,45325,45907.73,45366.01,-189.73,-41.01,-0.458652,-0.458570,0.689391,93.16,1
15506,0,45719,45323,45907.36,45365.93,-188.36,-42.93,-0.458644,-0.458568,0.690332,93.15,1
15546,0,45722,45324,45906.99,45365.84,-184.99,-41.84,-0.458636,-0.458567,0.691285,93.14,1
15586,0,45721,45329,45906.62,45365.77,-185.62,-36.77,-0.458628,-0.458565,0.692251,93.12,1
15626,0,45721,45335,45906.25,45365.71,-185.25,-30.71,-0.458620,-0.458564,0.693228,93.11,1
15666,0,45726,45342,45905.89,45365.66,-179.89,-23.66,-0.458612,-0.458563,0.694218,93.09,1
15710,0,45729,45345,45905.54,45365.62,-176.54,-20.62,-0.458604,-0.458562,0.695219,93.08,1
15745,0,45728,45346,45905.18,45365.59,-177.18,-19.59,-0.458596,-0.458561,0.696232,93.07,1
15782,0,45721,45338,45904.81,45365.53,-183.81,-27.53,-0.458588,-0.458560,0.697257,93.05,1
15825,0,45724,45341,45904.45,45365.48,-180.45,-24.48,-0.458581,-0.458559,0.698295,93.04,1
15867,0,45719,45342,45904.08,45365.44,-185.08,-23.44,-0.458572,-0.458558,0.699345,93.02,1
15910,0,45723,45344,45903.72,45365.39,-180.72,-21.39,-0.458565,-0.458557,0.700408,93.00,1
15947,0,45719,45333,45903.36,45365.33,-184.36,-32.33,-0.458557,-0.458555,0.701483,92.99,1
15987,0,45713,45336,45902.98,45365.27,-189.98,-29.27,-0.458548,-0.458554,0.702572,92.97,1
16027,0,45715,45342,45902.60,45365.23,-187.60,-23.23,-0.458540,-0.458553,0.703675,92.95,1
16067,0,45716,45339,45902.23,45365.18,-186.23,-26.18,-0.458532,-0.458552,0.704790,92.94,1
16107,0,45730,45352,45901.89,45365.15,-171.89,-13.15,-0.458525,-0.458551,0.705917,92.92,1
16148,0,45730,45355,45901.54,45365.13,-171.54,-10.13,-0.458517,-0.458551,0.707055,92.90,1
16188,0,45723,45357,45901.19,45365.12,-178.19,-8.12,-0.458509,-0.458551,0.708206,92.88,1
16225,0,45731,45368,45900.85,45365.12,-169.85,2.87,-0.458502,-0.458551,0.709367,92.87,1
16266,0,45743,45375,45900.53,45365.14,-157.53,9.86,-0.458495,-0.458551,0.710538,92.85,1
16307,0,45751,45378,45900.23,45365.17,-149.23,12.83,-0.458489,-0.458552,0.711716,92.83,1
16350,0,45757,45379,45899.95,45365.20,-142.95,13.80,-0.458482,-0.458552,0.712900,92.81,1
16388,0,45754,45382,45899.66,45365.23,-145.66,16.77,-0.458476,-0.458553,0.714092,92.79,1
16426,0,45760,45386,45899.38,45365.28,-139.38,20.72,-0.458470,-0.458554,0.715290,92.77,1
16468,0,45762,45392,45899.11,45365.33,-137.11,26.67,-0.458464,-0.458555,0.716494,92.75,1
16507,0,45768,45396,45898.85,45365.39,-130.85,30.61,-0.458458,-0.458557,0.717703,92.73,1
16548,0,45770,45393,45898.59,45365.45,-128.59,27.55,-0.458453,-0.458558,0.718916,92.71,1
16587,0,45773,45397,45898.34,45365.51,-125.34,31.49,-0.458447,-0.458559,0.720133,92.68,1
16627,0,45772,45399,45898.09,45365.58,-126.09,33.42,-0.458442,-0.458561,0.721354,92.66,1
16668,0,45768,45393,45897.83,45365.63,-129.83,27.37,-0.458436,-0.458562,0.722581,92.64,1
16710,0,45766,45398,45897.57,45365.70,-131.57,32.30,-0.458431,-0.458563,0.723812,92.62,1
16747,0,45770,45390,45897.32,45365.75,-127.32,24.25,-0.458425,-0.458564,0.725048,92.60,1
16789,0,45767,45386,45897.06,45365.79,-130.06,20.21,-0.458419,-0.458565,0.726289,92.57,1
16828,0,45763,45386,45896.79,45365.84,-133.79,20.16,-0.458414,-0.458566,0.727536,92.55,1
16868,0,45765,45393,45896.53,45365.89,-131.53,27.11,-0.458408,-0.458568,0.728789,92.53,1
16907,0,45770,45402,45896.28,45365.96,-126.28,36.04,-0.458403,-0.458569,0.730046,92.50,1
16948,0,45779,45406,45896.05,45366.05,-117.05,39.95,-0.458397,-0.458571,0.731305,92.48,1
16989,0,45781,45418,45895.82,45366.15,-114.82,51.85,-0.458392,-0.458573,0.732567,92.46,1
17024,0,45793,45429,45895.61,45366.28,-102.61,62.72,-0.458388,-0.458576,0.733827,92.43,1
17068,0,45799,45432,45895.42,45366.41,-96.42,65.59,-0.458384,-0.458579,0.735086,92.41,1
17105,0,45807,45427,45895.25,45366.53,-88.25,60.47,-0.458380,-0.458582,0.736343,92.38,1
17147,0,45804,45423,45895.07,45366.64,-91.07,56.36,-0.458376,-0.458584,0.737598,92.36,1
17188,0,45802,45415,45894.88,45366.74,-92.88,48.26,-0.458372,-0.458586,0.738853,92.33,1
17228,0,45801,45412,45894.70,45366.83,-93.70,45.17,-0.458368,-0.458588,0.740107,92.31,1
17268,0,45793,45403,45894.49,45366.91,-101.49,36.09,-0.458363,-0.458590,0.741363,92.28,1
17308,0,45799,45400,45894.30,45366.97,-95.30,33.03,-0.458359,-0.458591,0.742620,92.26,1
17349,0,45794,45394,45894.10,45367.03,-100.10,26.97,-0.458355,-0.458593,0.743879,92.23,1
17388,0,45793,45392,45893.90,45367.08,-100.90,24.92,-0.458351,-0.458594,0.745139,92.21,1
17428,0,45783,45385,45893.68,45367.11,-110.68,17.89,-0.458346,-0.458595,0.746403,92.18,1
17468,0,45786,45384,45893.47,45367.15,-107.47,16.85,-0.458341,-0.458595,0.747671,92.16,1
17509,0,45788,45371,45893.26,45367.16,-105.26,3.84,-0.458337,-0.458595,0.748941,92.13,1
17549,0,45776,45361,45893.02,45367.14,-117.02,-6.14,-0.458332,-0.458595,0.750217,92.10,1
17591,0,45772,45364,45892.78,45367.14,-120.78,-3.14,-0.458326,-0.458595,0.751498,92.08,1
17628,0,45774,45370,45892.54,45367.15,-118.54,2.85,-0.458321,-0.458595,0.752784,92.05,1
17669,0,45778,45372,45892.32,45367.16,-114.32,4.84,-0.458316,-0.458596,0.754075,92.02,1
17711,0,45781,45366,45892.09,45367.16,-111.09,-1.16,-0.458311,-0.458596,0.755371,91.99,1
17749,0,45786,45379,45891.88,45367.18,-105.88,11.82,-0.458307,-0.458596,0.756669,91.97,1
17789,0,45788,45382,45891.68,45367.21,-103.68,14.79,-0.458302,-0.458597,0.757971,91.94,1
17830,0,45793,45391,45891.48,45367.26,-98.48,23.74,-0.458298,-0.458598,0.759275,91.91,1
17865,0,45803,45395,45891.30,45367.32,-88.30,27.68,-0.458294,-0.458599,0.760579,91.88,1
17906,0,45806,45393,45891.14,45367.37,-85.14,25.63,-0.458290,-0.458600,0.761884,91.86,1
17949,0,45808,45393,45890.97,45367.42,-82.97,25.58,-0.458287,-0.458601,0.763189,91.83,1
17991,0,45810,45388,45890.81,45367.46,-80.81,20.54,-0.458283,-0.458602,0.764494,91.80,1
18028,0,45812,45396,45890.66,45367.52,-78.66,28.48,-0.458280,-0.458604,0.765799,91.77,1
18069,0,45809,45397,45890.49,45367.58,-81.49,29.42,-0.458276,-0.458605,0.767104,91.74,1
18108,0,45817,45395,45890.35,45367.64,-73.35,27.36,-0.458273,-0.458606,0.768408,91.71,1
18149,0,45816,45393,45890.20,45367.69,-74.20,25.31,-0.458270,-0.458607,0.769711,91.69,1
18190,0,45815,45385,45890.05,45367.72,-75.05,17.28,-0.458267,-0.458608,0.771014,91.66,1
18229,0,45809,45389,45889.89,45367.77,-80.89,21.23,-0.458263,-0.458609,0.772318,91.63,1
18269,0,45810,45382,45889.73,45367.80,-79.73,14.20,-0.458260,-0.458610,0.773622,91.60,1
18311,0,45805,45375,45889.56,45367.81,-84.56,7.19,-0.458256,-0.458610,0.774928,91.57,1
18347,0,45806,45371,45889.40,45367.82,-83.40,3.18,-0.458252,-0.458610,0.776235,91.54,1
18386,0,45805,45373,45889.23,45367.83,-84.23,5.17,-0.458249,-0.458610,0.777543,91.51,1
18426,0,45800,45375,45889.05,45367.85,-89.05,7.15,-0.458245,-0.458611,0.778853,91.48,1
18469,0,45801,45373,45888.88,45367.86,-87.88,5.14,-0.458241,-0.458611,0.780166,91.45,1
18510,0,45794,45373,45888.69,45367.87,-94.69,5.13,-0.458237,-0.458611,0.781481,91.42,1
18551,0,45800,45369,45888.52,45367.87,-88.52,1.12,-0.458233,-0.458611,0.782799,91.39,1
18593,0,45797,45378,45888.33,45367.89,-91.33,10.11,-0.458229,-0.458612,0.784119,91.36,1
18630,0,45799,45377,45888.16,45367.91,-89.16,9.09,-0.458225,-0.458612,0.785442,91.33,1
18669,0,45803,45383,45887.99,45367.95,-84.99,15.05,-0.458222,-0.458613,0.786766,91.30,1
18712,0,45808,45377,45887.83,45367.96,-79.83,9.04,-0.458218,-0.458613,0.788091,91.27,1
18750,0,45811,45381,45887.68,45367.99,-76.68,13.01,-0.458215,-0.458614,0.789417,91.24,1
18792,0,45817,45378,45887.54,45368.01,-70.54,9.99,-0.458212,-0.458614,0.790742,91.21,1
18830,0,45813,45382,45887.39,45368.04,-74.39,13.96,-0.458209,-0.458615,0.792069,91.18,1
18870,0,45814,45381,45887.24,45368.07,-73.24,12.93,-0.458206,-0.458616,0.793395,91.15,1
18910,0,45817,45374,45887.10,45368.08,-70.10,5.92,-0.458202,-0.458616,0.794722,91.12,1
18950,0,45813,45373,45886.95,45368.09,-73.95,4.91,-0.458199,-0.458616,0.796049,91.09,1
18992,0,45807,45366,45886.79,45368.09,-79.79,-2.09,-0.458196,-0.458616,0.797378,91.06,1
19031,0,45797,45369,45886.61,45368.09,-89.61,0.91,-0.458192,-0.458616,0.798710,91.03,1
19072,0,45805,45373,45886.45,45368.10,-81.45,4.90,-0.458188,-0.458616,0.800044,91.00,1
19112,0,45809,45364,45886.30,45368.09,-77.30,-4.09,-0.458185,-0.458616,0.801379,90.97,1
19151,0,45804,45363,45886.14,45368.09,-82.14,-5.09,-0.458181,-0.458616,0.802716,90.94,1
19192,0,45801,45367,45885.97,45368.09,-84.97,-1.09,-0.458178,-0.458616,0.804055,90.90,1
19232,0,45796,45372,45885.79,45368.09,-89.79,3.91,-0.458174,-0.458616,0.805398,90.87,1
19274,0,45803,45378,45885.62,45368.11,-82.62,9.89,-0.458170,-0.458617,0.806742,90.84,1
19310,0,45814,45377,45885.48,45368.13,-71.48,8.87,-0.458167,-0.458617,0.808088,90.81,1
19351,0,45808,45378,45885.33,45368.15,-77.33,9.85,-0.458164,-0.458617,0.809435,90.78,1
19392,0,45816,45388,45885.20,45368.19,-69.20,19.81,-0.458161,-0.458618,0.810781,90.75,1
19431,0,45823,45402,45885.07,45368.26,-62.07,33.74,-0.458158,-0.458620,0.812126,90.72,1
19471,0,45833,45405,45884.97,45368.34,-51.97,36.66,-0.458156,-0.458621,0.813467,90.68,1
19512,0,45839,45410,45884.88,45368.42,-45.88,41.58,-0.458154,-0.458623,0.814803,90.65,1
19551,0,45847,45410,45884.80,45368.51,-37.80,41.49,-0.458152,-0.458625,0.816134,90.62,1
19595,0,45844,45414,45884.72,45368.60,-40.72,45.40,-0.458151,-0.458627,0.817460,90.59,1
19632,0,45850,45433,45884.66,45368.73,-34.66,64.27,-0.458149,-0.458630,0.818776,90.56,1
19671,0,45861,45430,45884.61,45368.86,-23.61,61.14,-0.458148,-0.458633,0.820082,90.53,1
19711,0,45863,45428,45884.57,45368.98,-21.57,59.02,-0.458147,-0.458636,0.821380,90.49,1
19752,0,45861,45432,45884.52,45369.11,-23.52,62.89,-0.458146,-0.458638,0.822668,90.46,1
19791,0,45853,45426,45884.46,45369.22,-31.46,56.78,-0.458145,-0.458641,0.823947,90.43,1
19832,0,45859,45419,45884.41,45369.32,-25.41,49.68,-0.458144,-0.458643,0.825220,90.40,1
19871,0,45854,45421,45884.35,45369.43,-30.35,51.57,-0.458142,-0.458645,0.826485,90.37,1
19914,0,45855,45418,45884.29,45369.52,-29.29,48.48,-0.458141,-0.458648,0.827744,90.34,1
19951,0,45852,45408,45884.23,45369.60,-32.23,38.40,-0.458140,-0.458649,0.828997,90.30,1
19988,0,45844,45407,45884.15,45369.68,-40.15,37.32,-0.458138,-0.458651,0.830246,90.27,1
20029,0,45845,45414,45884.07,45369.77,-39.07,44.23,-0.458136,-0.458653,0.831489,90.24,1
20073,0,45848,45414,45884.00,45369.86,-36.00,44.14,-0.458135,-0.458655,0.832727,90.21,1
20111,0,45856,45420,45883.95,45369.96,-27.95,50.04,-0.458134,-0.458657,0.833958,90.18,1
20153,0,45862,45431,45883.90,45370.08,-21.90,60.92,-0.458133,-0.458660,0.835179,90.14,1
20193,0,45865,45434,45883.87,45370.21,-18.87,63.79,-0.458132,-0.458663,0.836389,90.11,1
20233,0,45875,45440,45883.85,45370.35,-8.85,69.65,-0.458132,-0.458666,0.837588,90.08,1
20275,0,45881,45445,45883.85,45370.50,-2.85,74.50,-0.458131,-0.458669,0.838773,90.05,1
20313,0,45888,45442,45883.86,45370.65,4.14,71.35,-0.458132,-0.458672,0.839946,90.02,1
20351,0,45886,45450,45883.86,45370.81,2.14,79.19,-0.458132,-0.458676,0.841104,89.99,1
20393,0,45890,45452,45883.87,45370.97,6.13,81.03,-0.458132,-0.458680,0.842247,89.96,1
20432,0,45893,45460,45883.89,45371.15,9.11,88.85,-0.458133,-0.458684,0.843373,89.92,1
20473,0,45898,45459,45883.92,45371.33,14.08,87.67,-0.458133,-0.458687,0.844482,89.89,1
20512,0,45903,45463,45883.96,45371.51,19.04,91.49,-0.458134,-0.458691,0.845573,89.86,1
20551,0,45903,45469,45884.00,45371.71,19.00,97.29,-0.458135,-0.458696,0.846645,89.83,1
20592,0,45904,45469,45884.04,45371.90,19.96,97.10,-0.458136,-0.458700,0.847697,89.80,1
20633,0,45907,45465,45884.09,45372.09,22.91,92.91,-0.458137,-0.458704,0.848732,89.77,1
20672,0,45902,45464,45884.12,45372.27,17.87,91.73,-0.458138,-0.458708,0.849750,89.74,1
20713,0,45900,45473,45884.16,45372.48,15.84,100.52,-0.458138,-0.458713,0.850747,89.71,1
20753,0,45904,45473,45884.20,45372.68,19.80,100.32,-0.458139,-0.458717,0.851724,89.68,1
20794,0,45909,45470,45884.25,45372.87,24.75,97.12,-0.458140,-0.458722,0.852683,89.65,1
20832,0,45909,45479,45884.30,45373.09,24.70,105.91,-0.458141,-0.458726,0.853620,89.62,1
20875,0,45916,45490,45884.36,45373.32,31.64,116.68,-0.458143,-0.458731,0.854533,89.59,1
20913,0,45921,45493,45884.44,45373.57,36.56,119.43,-0.458144,-0.458737,0.855420,89.56,1
20954,0,45923,45499,45884.52,45373.82,38.48,125.18,-0.458146,-0.458742,0.856281,89.53,1
20995,0,45925,45493,45884.60,45374.06,40.40,118.94,-0.458148,-0.458748,0.857117,89.50,1
21034,0,45933,45492,45884.70,45374.30,48.30,117.70,-0.458150,-0.458753,0.857932,89.47,1
21073,0,45933,45495,45884.79,45374.54,48.21,120.46,-0.458152,-0.458758,0.858723,89.45,1
21113,0,45934,45494,45884.89,45374.78,49.11,119.22,-0.458154,-0.458763,0.859493,89.42,1
21153,0,45929,45489,45884.98,45375.01,44.02,113.99,-0.458156,-0.458769,0.860241,89.39,1
21194,0,45932,45491,45885.07,45375.24,46.93,115.76,-0.458158,-0.458774,0.860970,89.36,1
21233,0,45940,45492,45885.18,45375.48,54.82,116.52,-0.458161,-0.458779,0.861678,89.34,1
21275,0,45935,45493,45885.29,45375.71,49.71,117.29,-0.458163,-0.458784,0.862366,89.31,1
21312,0,45939,45492,45885.39,45375.95,53.61,116.05,-0.458165,-0.458789,0.863036,89.28,1
21357,0,45934,45490,45885.49,45376.18,48.51,113.82,-0.458167,-0.458794,0.863686,89.26,1
21397,0,45926,45477,45885.57,45376.38,40.43,100.62,-0.458169,-0.458799,0.864321,89.23,1
21438,0,45925,45479,45885.65,45376.59,39.35,102.41,-0.458171,-0.458803,0.864941,89.20,1
21476,0,45916,45466,45885.71,45376.77,30.29,89.23,-0.458172,-0.458807,0.865547,89.18,1
21511,0,45915,45462,45885.77,45376.94,29.23,85.06,-0.458174,-0.458811,0.866142,89.15,1
21553,0,45909,45460,45885.82,45377.11,23.18,82.89,-0.458175,-0.458815,0.866726,89.13,1
21596,0,45913,45459,45885.87,45377.27,27.12,81.73,-0.458176,-0.458818,0.867299,89.11,1
21634,0,45909,45462,45885.92,45377.44,23.08,84.56,-0.458177,-0.458822,0.867860,89.08,1
21674,0,45912,45464,45885.98,45377.62,26.02,86.38,-0.458178,-0.458826,0.868409,89.06,1
21714,0,45914,45468,45886.04,45377.80,27.96,90.20,-0.458179,-0.458830,0.868945,89.03,1
21753,0,45917,45458,45886.10,45377.96,30.90,80.04,-0.458181,-0.458834,0.869471,89.01,1
21795,0,45918,45454,45886.16,45378.11,31.84,75.89,-0.458182,-0.458837,0.869988,88.99,1
21834,0,45914,45458,45886.22,45378.27,27.78,79.73,-0.458183,-0.458840,0.870495,88.97,1
21871,0,45907,45449,45886.27,45378.42,20.73,70.58,-0.458184,-0.458844,0.870994,88.94,1
21913,0,45902,45448,45886.30,45378.56,15.70,69.44,-0.458185,-0.458847,0.871484,88.92,1
21952,0,45905,45443,45886.34,45378.69,18.66,64.31,-0.458186,-0.458850,0.871967,88.90,1
21990,0,45907,45445,45886.38,45378.82,20.62,66.18,-0.458187,-0.458853,0.872442,88.88,1
22030,0,45900,45444,45886.41,45378.95,13.59,65.05,-0.458187,-0.458856,0.872910,88.86,1
22072,0,45898,45443,45886.43,45379.08,11.57,63.92,-0.458188,-0.458858,0.873370,88.84,1
22113,0,45899,45435,45886.46,45379.20,12.54,55.80,-0.458188,-0.458861,0.873824,88.82,1
22156,0,45895,45433,45886.48,45379.30,8.52,53.70,-0.458189,-0.458863,0.874272,88.80,1
22194,0,45885,45429,45886.48,45379.41,-1.48,49.59,-0.458189,-0.458865,0.874715,88.78,1
22234,0,45877,45428,45886.46,45379.50,-9.46,48.50,-0.458188,-0.458868,0.875154,88.76,1
22279,0,45882,45424,45886.45,45379.59,-4.45,44.41,-0.458188,-0.458870,0.875588,88.74,1
22314,0,45884,45423,45886.45,45379.68,-2.45,43.32,-0.458188,-0.458872,0.876017,88.72,1
22355,0,45879,45429,45886.43,45379.79,-7.43,49.21,-0.458188,-0.458874,0.876442,88.70,1
22395,0,45887,45433,45886.43,45379.89,0.57,53.11,-0.458188,-0.458876,0.876860,88.68,1
22434,0,45889,45435,45886.44,45380.01,2.56,54.99,-0.458188,-0.458879,0.877273,88.66,1
22470,0,45894,45434,45886.46,45380.12,7.54,53.88,-0.458188,-0.458881,0.877679,88.64,1
22515,0,45895,45431,45886.48,45380.22,8.52,50.78,-0.458189,-0.458883,0.878080,88.63,1
22551,0,45894,45434,45886.49,45380.33,7.51,53.67,-0.458189,-0.458886,0.878476,88.61,1
22596,0,45891,45433,45886.50,45380.43,4.50,52.57,-0.458189,-0.458888,0.878865,88.59,1
22633,0,45896,45433,45886.52,45380.54,9.48,52.46,-0.458190,-0.458890,0.879249,88.57,1
22673,0,45894,45428,45886.54,45380.64,7.46,47.36,-0.458190,-0.458893,0.879628,88.56,1
22712,0,45890,45427,45886.55,45380.73,3.45,46.27,-0.458190,-0.458895,0.880003,88.54,1
22752,0,45887,45427,45886.55,45380.82,0.45,46.18,-0.458190,-0.458897,0.880372,88.52,1
22792,0,45888,45424,45886.55,45380.91,1.45,43.09,-0.458191,-0.458899,0.880737,88.51,1
22832,0,45884,45417,45886.55,45380.98,-2.55,36.02,-0.458190,-0.458900,0.881099,88.49,1
22873,0,45879,45415,45886.54,45381.05,-7.54,33.95,-0.458190,-0.458902,0.881458,88.48,1
22916,0,45879,45417,45886.52,45381.13,-7.52,35.87,-0.458190,-0.458903,0.881814,88.46,1
22956,0,45869,45414,45886.48,45381.20,-17.48,32.80,-0.458189,-0.458905,0.882167,88.44,1
22995,0,45867,45415,45886.45,45381.27,-19.45,33.73,-0.458188,-0.458906,0.882518,88.43,1
23038,0,45868,45410,45886.41,45381.32,-18.41,28.68,-0.458187,-0.458908,0.882867,88.41,1
23073,0,45874,45418,45886.39,45381.40,-12.39,36.60,-0.458187,-0.458909,0.883213,88.40,1
23113,0,45872,45421,45886.36,45381.48,-14.36,39.52,-0.458186,-0.458911,0.883555,88.39,1
23152,0,45873,45415,45886.33,45381.55,-13.33,33.45,-0.458186,-0.458913,0.883894,88.37,1
23192,0,45873,45414,45886.30,45381.61,-13.30,32.39,-0.458185,-0.458914,0.884231,88.36,1
23232,0,45883,45413,45886.30,45381.68,-3.30,31.32,-0.458185,-0.458915,0.884565,88.34,1
23271,0,45882,45420,45886.29,45381.75,-4.29,38.25,-0.458185,-0.458917,0.884895,88.33,1
23312,0,45887,45423,45886.30,45381.84,0.70,41.16,-0.458185,-0.458919,0.885221,88.31,1
23353,0,45881,45420,45886.29,45381.91,-5.29,38.09,-0.458185,-0.458921,0.885544,88.30,1
23393,0,45882,45429,45886.28,45382.01,-4.28,46.99,-0.458185,-0.458923,0.885861,88.29,1
23433,0,45886,45427,45886.28,45382.10,-0.28,44.90,-0.458185,-0.458925,0.886173,88.27,1
23473,0,45890,45425,45886.29,45382.18,3.71,42.82,-0.458185,-0.458927,0.886481,88.26,1
23513,0,45885,45431,45886.29,45382.28,-1.29,48.72,-0.458185,-0.458929,0.886783,88.25,1
23553,0,45884,45432,45886.29,45382.38,-2.29,49.62,-0.458185,-0.458931,0.887079,88.24,1
23592,0,45884,45434,45886.28,45382.49,-2.28,51.51,-0.458185,-0.458933,0.887370,88.22,1
23632,0,45887,45438,45886.29,45382.60,0.71,55.40,-0.458185,-0.458936,0.887653,88.21,1
23673,0,45894,45451,45886.30,45382.74,7.70,68.26,-0.458185,-0.458939,0.887926,88.20,1
23713,0,45899,45459,45886.33,45382.89,12.67,76.11,-0.458186,-0.458942,0.888188,88.19,1
23754,0,45901,45464,45886.36,45383.05,14.64,80.95,-0.458186,-0.458946,0.888435,88.17,1
23795,0,45904,45470,45886.39,45383.23,17.61,86.77,-0.458187,-0.458950,0.888668,88.16,1
23837,0,45913,45473,45886.45,45383.41,26.55,89.59,-0.458188,-0.458954,0.888886,88.15,1
23877,0,45912,45486,45886.50,45383.62,25.50,102.38,-0.458189,-0.458958,0.889084,88.14,1
23917,0,45918,45486,45886.56,45383.82,31.44,102.18,-0.458191,-0.458963,0.889263,88.13,1
23957,0,45917,45499,45886.62,45384.05,30.37,114.95,-0.458192,-0.458968,0.889418,88.12,1
23996,0,45932,45495,45886.72,45384.28,45.28,110.72,-0.458194,-0.458973,0.889554,88.11,1
24034,0,45937,45488,45886.82,45384.48,50.18,103.52,-0.458196,-0.458977,0.889675,88.10,1
24078,0,45930,45489,45886.91,45384.70,43.09,104.30,-0.458198,-0.458982,0.889780,88.09,1
24119,0,45929,45495,45886.99,45384.92,42.01,110.08,-0.458200,-0.458987,0.889865,88.08,1
24153,0,45927,45494,45887.07,45385.14,39.93,108.86,-0.458202,-0.458992,0.889933,88.07,1
24193,0,45936,45494,45887.17,45385.36,48.83,108.64,-0.458204,-0.458997,0.889984,88.06,1
24233,0,45939,45487,45887.28,45385.56,51.72,101.44,-0.458206,-0.459001,0.890023,88.05,1
24275,0,45929,45487,45887.36,45385.76,41.64,101.24,-0.458208,-0.459005,0.890047,88.04,1
24312,0,45924,45485,45887.44,45385.96,36.56,99.04,-0.458210,-0.459010,0.890057,88.03,1
24357,0,45921,45483,45887.50,45386.16,33.50,96.84,-0.458211,-0.459014,0.890053,88.02,1
24395,0,45922,45479,45887.57,45386.34,34.43,92.66,-0.458213,-0.459018,0.890037,88.01,1
24435,0,45919,45481,45887.64,45386.54,31.36,94.46,-0.458214,-0.459023,0.890008,88.01,1
24478,0,45916,45488,45887.70,45386.74,28.30,101.26,-0.458215,-0.459027,0.889964,88.00,1
24516,0,45920,45493,45887.76,45386.95,32.24,106.05,-0.458217,-0.459032,0.889903,87.99,1
24557,0,45926,45489,45887.84,45387.16,38.16,101.84,-0.458219,-0.459036,0.889828,87.98,1
24600,0,45924,45498,45887.91,45387.38,36.09,110.62,-0.458220,-0.459041,0.889736,87.98,1
24637,0,45931,45502,45888.00,45387.61,43.00,114.39,-0.458222,-0.459046,0.889628,87.97,1
24676,0,45930,45503,45888.09,45387.84,41.91,115.16,-0.458224,-0.459051,0.889502,87.96,1
24714,0,45926,45493,45888.16,45388.05,37.84,104.95,-0.458226,-0.459056,0.889362,87.96,1
24754,0,45930,45493,45888.25,45388.27,41.75,104.73,-0.458227,-0.459061,0.889210,87.95,1
24793,0,45925,45482,45888.32,45388.45,36.68,93.55,-0.458229,-0.459065,0.889047,87.95,1
24836,0,45925,45480,45888.40,45388.64,36.60,91.36,-0.458231,-0.459069,0.888875,87.94,1
24875,0,45917,45476,45888.46,45388.81,28.54,87.19,-0.458232,-0.459073,0.888693,87.94,1
24915,0,45920,45471,45888.52,45388.98,31.48,82.02,-0.458233,-0.459076,0.888504,87.93,1
24953,0,45916,45466,45888.57,45389.13,27.43,76.87,-0.458235,-0.459080,0.888308,87.93,1
24994,0,45909,45460,45888.62,45389.28,20.38,70.72,-0.458235,-0.459083,0.888105,87.92,1
25035,0,45903,45456,45888.65,45389.41,14.35,66.59,-0.458236,-0.459086,0.887897,87.92,1
25074,0,45898,45448,45888.67,45389.53,9.33,58.47,-0.458237,-0.459089,0.887685,87.92,1
25117,0,45891,45449,45888.67,45389.65,2.33,59.35,-0.458237,-0.459091,0.887468,87.91,1
25158,0,45891,45443,45888.68,45389.76,2.32,53.24,-0.458237,-0.459094,0.887247,87.91,1
25196,0,45886,45443,45888.67,45389.87,-2.67,53.13,-0.458237,-0.459096,0.887022,87.91,1
25238,0,45885,45448,45888.66,45389.98,-3.66,58.02,-0.458237,-0.459099,0.886793,87.91,1
25275,0,45887,45444,45888.66,45390.09,-1.66,53.91,-0.458236,-0.459101,0.886559,87.90,1
25318,0,45894,45446,45888.67,45390.21,5.33,55.79,-0.458237,-0.459103,0.886322,87.90,1
25360,0,45891,45442,45888.68,45390.31,2.32,51.69,-0.458237,-0.459106,0.886081,87.90,1
25398,0,45882,45445,45888.66,45390.42,-6.66,54.58,-0.458237,-0.459108,0.885837,87.90,1
25440,0,45886,45439,45888.66,45390.52,-2.66,48.48,-0.458236,-0.459110,0.885589,87.90,1
25478,0,45880,45438,45888.64,45390.62,-8.64,47.38,-0.458236,-0.459112,0.885339,87.90,1
25519,0,45888,45434,45888.64,45390.71,-0.64,43.29,-0.458236,-0.459114,0.885086,87.90,1
25558,0,45881,45433,45888.63,45390.79,-7.63,42.21,-0.458236,-0.459116,0.884831,87.90,1
25599,0,45874,45427,45888.60,45390.87,-14.60,36.13,-0.458235,-0.459118,0.884576,87.90,1
25639,0,45877,45431,45888.58,45390.95,-11.58,40.05,-0.458235,-0.459120,0.884319,87.90,1
25678,0,45874,45421,45888.55,45391.01,-14.55,29.99,-0.458234,-0.459121,0.884061,87.90,1
25719,0,45872,45410,45888.52,45391.05,-16.52,18.95,-0.458233,-0.459122,0.883805,87.90,1
25758,0,45864,45405,45888.47,45391.08,-24.47,13.92,-0.458232,-0.459123,0.883550,87.90,1
25798,0,45865,45407,45888.43,45391.11,-23.43,15.89,-0.458231,-0.459123,0.883298,87.90,1
25839,0,45860,45408,45888.37,45391.14,-28.37,16.86,-0.458230,-0.459124,0.883048,87.90,1
25880,0,45864,45406,45888.32,45391.18,-24.32,14.82,-0.458229,-0.459125,0.882799,87.90,1
25919,0,45863,45404,45888.27,45391.20,-25.27,12.80,-0.458228,-0.459125,0.882553,87.90,1
25960,0,45858,45412,45888.21,45391.25,-30.21,20.75,-0.458227,-0.459126,0.882310,87.90,1
26000,0,45862,45411,45888.16,45391.29,-26.16,19.71,-0.458226,-0.459127,0.882068,87.90,1
26040,0,45859,45407,45888.11,45391.32,-29.11,15.68,-0.458224,-0.459128,0.881829,87.90,1
26080,0,45858,45407,45888.05,45391.35,-30.05,15.65,-0.458223,-0.459129,0.881593,87.91,1
26119,0,45856,45413,45887.98,45391.39,-31.98,21.61,-0.458222,-0.459130,0.881359,87.91,1
26159,0,45861,45425,45887.93,45391.46,-26.93,33.54,-0.458220,-0.459131,0.881126,87.91,1
26200,0,45866,45427,45887.89,45391.53,-21.89,35.47,-0.458220,-0.459133,0.880893,87.91,1
26239,0,45879,45429,45887.87,45391.61,-8.87,37.39,-0.458219,-0.459134,0.880658,87.91,1
26280,0,45879,45432,45887.86,45391.69,-8.86,40.31,-0.458219,-0.459136,0.880421,87.92,1
26317,0,45884,45435,45887.85,45391.77,-3.85,43.23,-0.458219,-0.459138,0.880181,87.92,1
26360,0,45887,45438,45887.85,45391.87,-0.85,46.13,-0.458219,-0.459140,0.879938,87.92,1
26400,0,45883,45433,45887.84,45391.95,-4.84,41.05,-0.458219,-0.459142,0.879692,87.92,1
26439,0,45883,45431,45887.83,45392.03,-4.83,38.97,-0.458218,-0.459144,0.879444,87.93,1
26478,0,45886,45428,45887.83,45392.10,-1.83,35.90,-0.458218,-0.459145,0.879194,87.93,1
26515,0,45880,45427,45887.81,45392.17,-7.81,34.83,-0.458218,-0.459147,0.878943,87.93,1
26561,0,45887,45434,45887.81,45392.26,-0.81,41.74,-0.458218,-0.459149,0.878689,87.94,1
26603,0,45884,45418,45887.80,45392.31,-3.80,25.69,-0.458218,-0.459150,0.878434,87.94,1
26640,0,45873,45414,45887.78,45392.35,-14.78,21.65,-0.458217,-0.459151,0.878180,87.94,1
26680,0,45874,45414,45887.75,45392.39,-13.75,21.61,-0.458217,-0.459152,0.877927,87.94,1
26721,0,45870,45416,45887.71,45392.44,-17.71,23.56,-0.458216,-0.459153,0.877674,87.95,1
26761,0,45871,45417,45887.68,45392.49,-16.68,24.51,-0.458215,-0.459154,0.877421,87.95,1
26798,0,45872,45418,45887.65,45392.54,-15.65,25.46,-0.458214,-0.459155,0.877168,87.96,1
26840,0,45868,45415,45887.61,45392.59,-19.61,22.41,-0.458214,-0.459156,0.876917,87.96,1
26880,0,45862,45422,45887.56,45392.65,-25.56,29.35,-0.458212,-0.459157,0.876667,87.96,1
26920,0,45875,45426,45887.54,45392.71,-12.54,33.29,-0.458212,-0.459159,0.876415,87.97,1
26961,0,45875,45428,45887.52,45392.79,-12.52,35.21,-0.458211,-0.459160,0.876162,87.97,1
27000,0,45880,45430,45887.50,45392.86,-7.50,37.14,-0.458211,-0.459162,0.875907,87.97,1
27037,0,45882,45429,45887.49,45392.93,-5.49,36.07,-0.458211,-0.459164,0.875651,87.98,1
27081,0,45881,45438,45887.48,45393.02,-6.48,44.98,-0.458211,-0.459165,0.875390,87.98,1
27120,0,45884,45441,45887.47,45393.12,-3.47,47.88,-0.458211,-0.459168,0.875125,87.99,1
27160,0,45887,45439,45887.47,45393.21,-0.47,45.79,-0.458211,-0.459170,0.874856,87.99,1
27201,0,45891,45446,45887.48,45393.32,3.52,52.68,-0.458211,-0.459172,0.874582,88.00,1
27240,0,45895,45445,45887.50,45393.43,7.50,51.57,-0.458211,-0.459174,0.874303,88.00,1
27285,0,45889,45449,45887.50,45393.54,1.50,55.46,-0.458211,-0.459177,0.874018,88.00,1
27322,0,45895,45452,45887.52,45393.66,7.48,58.34,-0.458211,-0.459179,0.873726,88.01,1
27361,0,45893,45446,45887.53,45393.76,5.47,52.24,-0.458212,-0.459182,0.873429,88.01,1
27402,0,45881,45450,45887.52,45393.87,-6.52,56.13,-0.458211,-0.459184,0.873126,88.02,1
27442,0,45890,45457,45887.52,45394.00,2.48,63.00,-0.458212,-0.459187,0.872815,88.02,1
27482,0,45897,45452,45887.54,45394.12,9.46,57.88,-0.458212,-0.459190,0.872498,88.03,1
27521,0,45895,45456,45887.56,45394.25,7.44,61.75,-0.458212,-0.459192,0.872173,88.03,1
27561,0,45899,45466,45887.58,45394.39,11.42,71.61,-0.458213,-0.459196,0.871838,88.04,1
27602,0,45902,45468,45887.61,45394.54,14.39,73.46,-0.458214,-0.459199,0.871493,88.04,1
27642,0,45903,45472,45887.64,45394.70,15.36,77.30,-0.458214,-0.459202,0.871136,88.05,1
27682,0,45913,45479,45887.70,45394.86,25.30,84.14,-0.458215,-0.459206,0.870768,88.05,1
27718,0,45909,45437,45887.74,45394.95,21.26,42.05,-0.458216,-0.459208,0.870398,88.06,1
27762,0,45858,45394,45887.68,45394.95,-29.68,-0.95,-0.458215,-0.459208,0.870033,88.07,1
27802,0,45838,45394,45887.58,45394.95,-49.58,-0.95,-0.458213,-0.459208,0.869678,88.07,1
27843,0,45840,45395,45887.49,45394.95,-47.49,0.05,-0.458211,-0.459208,0.869333,88.08,1
27882,0,45850,45405,45887.41,45394.97,-37.41,10.03,-0.458209,-0.459208,0.868995,88.08,1
27922,0,45865,45424,45887.37,45395.03,-22.37,28.97,-0.458208,-0.459210,0.868658,88.09,1
27961,0,45871,45439,45887.34,45395.12,-16.34,43.88,-0.458208,-0.459212,0.868319,88.10,1
28003,0,45884,45454,45887.34,45395.23,-3.34,58.77,-0.458208,-0.459214,0.867972,88.10,1
28043,0,45894,45454,45887.35,45395.35,6.65,58.65,-0.458208,-0.459217,0.867618,88.11,1
28082,0,45896,45460,45887.37,45395.48,8.63,64.52,-0.458208,-0.459220,0.867256,88.11,1
28123,0,45899,45465,45887.39,45395.62,11.61,69.38,-0.458209,-0.459223,0.866885,88.12,1
28163,0,45892,45459,45887.41,45395.75,4.59,63.25,-0.458209,-0.459226,0.866505,88.13,1
28203,0,45884,45454,45887.40,45395.87,-3.40,58.13,-0.458209,-0.459228,0.866119,88.13,1
28243,0,45890,45462,45887.41,45396.00,2.59,66.00,-0.458209,-0.459231,0.865723,88.14,1
28283,0,45889,45450,45887.41,45396.11,1.59,53.89,-0.458209,-0.459233,0.865322,88.15,1
28324,0,45885,45447,45887.41,45396.21,-2.41,50.79,-0.458209,-0.459236,0.864917,88.15,1
28363,0,45887,45455,45887.41,45396.33,-0.41,58.67,-0.458209,-0.459238,0.864504,88.16,1
28403,0,45892,45448,45887.42,45396.43,4.58,51.57,-0.458209,-0.459241,0.864087,88.17,1
28443,0,45898,45454,45887.45,45396.55,10.55,57.45,-0.458210,-0.459243,0.863664,88.18,1
28479,0,45895,45452,45887.46,45396.66,7.54,55.34,-0.458210,-0.459246,0.863235,88.18,1
28523,0,45892,45451,45887.47,45396.77,4.53,54.23,-0.458211,-0.459248,0.862800,88.19,1
28563,0,45893,45446,45887.48,45396.87,5.52,49.13,-0.458211,-0.459250,0.862362,88.20,1
28601,0,45889,45435,45887.49,45396.95,1.51,38.05,-0.458211,-0.459252,0.861921,88.21,1
28640,0,45891,45428,45887.50,45397.02,3.50,30.98,-0.458211,-0.459253,0.861479,88.21,1
28682,0,45875,45421,45887.47,45397.07,-12.47,23.93,-0.458211,-0.459255,0.861039,88.22,1
28723,0,45874,45425,45887.45,45397.12,-13.45,27.87,-0.458210,-0.459256,0.860598,88.23,1
28763,0,45874,45426,45887.42,45397.18,-13.42,28.82,-0.458209,-0.459257,0.860158,88.24,1
28803,0,45870,45419,45887.38,45397.23,-17.38,21.77,-0.458209,-0.459258,0.859719,88.24,1
28844,0,45871,45416,45887.35,45397.27,-16.35,18.73,-0.458208,-0.459259,0.859282,88.25,1
28884,0,45865,45421,45887.31,45397.31,-22.31,23.69,-0.458207,-0.459260,0.858847,88.26,1
28924,0,45863,45414,45887.26,45397.35,-24.26,16.65,-0.458206,-0.459261,0.858416,88.27,1
28964,0,45856,45406,45887.20,45397.37,-31.20,8.63,-0.458205,-0.459261,0.857990,88.28,1
29004,0,45861,45412,45887.15,45397.40,-26.15,14.60,-0.458203,-0.459262,0.857569,88.29,1
29043,0,45855,45407,45887.09,45397.42,-32.09,9.58,-0.458202,-0.459262,0.857153,88.30,1
29084,0,45850,45402,45887.01,45397.43,-37.01,4.57,-0.458200,-0.459263,0.856746,88.30,1
29123,0,45850,45402,45886.94,45397.44,-36.94,4.56,-0.458199,-0.459263,0.856346,88.31,1
29163,0,45859,45405,45886.88,45397.46,-27.88,7.54,-0.458198,-0.459263,0.855952,88.32,1
29203,0,45858,45404,45886.83,45397.47,-28.83,6.53,-0.458196,-0.459264,0.855563,88.33,1
29245,0,45862,45404,45886.78,45397.49,-24.78,6.51,-0.458195,-0.459264,0.855178,88.34,1
29284,0,45860,45400,45886.73,45397.50,-26.73,2.50,-0.458194,-0.459264,0.854797,88.35,1
29323,0,45858,45403,45886.68,45397.51,-28.68,5.49,-0.458193,-0.459264,0.854423,88.36,1
29364,0,45857,45393,45886.62,45397.50,-29.62,-4.50,-0.458192,-0.459264,0.854053,88.36,1
29403,0,45852,45391,45886.55,45397.49,-34.55,-6.49,-0.458190,-0.459264,0.853692,88.37,1
29444,0,45849,45387,45886.48,45397.47,-37.48,-10.47,-0.458189,-0.459263,0.853338,88.38,1
29485,0,45842,45390,45886.39,45397.45,-44.39,-7.45,-0.458187,-0.459263,0.852996,88.39,1
29523,0,45842,45392,45886.30,45397.45,-44.30,-5.45,-0.458185,-0.459263,0.852665,88.40,1
29564,0,45842,45387,45886.22,45397.43,-44.22,-10.43,-0.458183,-0.459262,0.852345,88.41,1
29605,0,45837,45384,45886.12,45397.40,-49.12,-13.40,-0.458181,-0.459262,0.852039,88.42,1
29646,0,45831,45386,45886.01,45397.37,-55.01,-11.38,-0.458179,-0.459261,0.851750,88.43,1
29684,0,45833,45387,45885.91,45397.36,-52.91,-10.36,-0.458176,-0.459261,0.851477,88.43,1
29725,0,45826,45384,45885.79,45397.33,-59.79,-13.33,-0.458174,-0.459260,0.851223,88.44,1
29762,0,45827,45385,45885.67,45397.30,-58.67,-12.30,-0.458171,-0.459260,0.850989,88.45,1
29803,0,45829,45383,45885.56,45397.28,-56.56,-14.28,-0.458169,-0.459259,0.850772,88.46,1
29841,0,45828,45390,45885.45,45397.27,-57.45,-7.27,-0.458166,-0.459259,0.850574,88.47,1
29881,0,45826,45384,45885.33,45397.24,-59.33,-13.24,-0.458164,-0.459258,0.850395,88.48,1
29921,0,45820,45379,45885.20,45397.21,-65.20,-18.21,-0.458161,-0.459258,0.850239,88.48,1
29963,0,45821,45378,45885.07,45397.17,-64.07,-19.17,-0.458158,-0.459257,0.850105,88.49,1
30004,0,45823,45371,45884.95,45397.12,-61.95,-26.12,-0.458156,-0.459256,0.849989,88.50,1
30041,0,45825,45373,45884.83,45397.07,-59.83,-24.07,-0.458153,-0.459255,0.849892,88.51,1
30083,0,45818,45365,45884.70,45397.01,-66.70,-32.01,-0.458150,-0.459253,0.849816,88.52,1
30123,0,45816,45372,45884.56,45396.96,-68.56,-24.96,-0.458147,-0.459252,0.849763,88.52,1
30165,0,45812,45368,45884.42,45396.90,-72.42,-28.90,-0.458144,-0.459251,0.849736,88.53,1
30205,0,45815,45366,45884.28,45396.84,-69.28,-30.84,-0.458141,-0.459249,0.849732,88.54,1
30245,0,45813,45358,45884.14,45396.76,-71.14,-38.76,-0.458138,-0.459248,0.849749,88.54,1
30285,0,45812,45354,45884.00,45396.67,-72.00,-42.67,-0.458135,-0.459246,0.849787,88.55,1
30325,0,45803,45357,45883.84,45396.59,-80.84,-39.59,-0.458131,-0.459244,0.849854,88.56,1
30368,0,45804,45355,45883.68,45396.51,-79.68,-41.51,-0.458128,-0.459242,0.849948,88.56,1
30406,0,45798,45358,45883.50,45396.44,-85.50,-38.44,-0.458124,-0.459241,0.850074,88.57,1
30446,0,45800,45356,45883.34,45396.36,-83.34,-40.36,-0.458120,-0.459239,0.850230,88.57,1
30485,0,45802,45361,45883.18,45396.29,-81.18,-35.29,-0.458117,-0.459237,0.850414,88.58,1
30526,0,45799,45367,45883.01,45396.23,-84.01,-29.23,-0.458113,-0.459236,0.850631,88.58,1
30565,0,45801,45365,45882.85,45396.17,-81.85,-31.17,-0.458110,-0.459235,0.850879,88.59,1
30603,0,45797,45364,45882.68,45396.11,-85.68,-32.11,-0.458106,-0.459233,0.851159,88.59,1
30645,0,45798,45358,45882.51,45396.03,-84.51,-38.03,-0.458102,-0.459232,0.851468,88.59,1
30686,0,45789,45365,45882.32,45395.97,-93.32,-30.97,-0.458098,-0.459230,0.851817,88.60,1
30726,0,45791,45360,45882.14,45395.90,-91.14,-35.90,-0.458094,-0.459229,0.852200,88.60,1
30766,0,45791,45344,45881.96,45395.80,-90.96,-51.80,-0.458090,-0.459227,0.852612,88.60,1
30806,0,45781,45336,45881.76,45395.68,-100.76,-59.68,-0.458086,-0.459224,0.853055,88.60,1
30846,0,45775,45306,45881.55,45395.50,-106.55,-89.50,-0.458082,-0.459220,0.853512,88.61,1
30886,0,45739,45287,45881.27,45395.29,-142.27,-108.29,-0.458075,-0.459215,0.854005,88.61,1
30924,0,45732,45258,45880.97,45395.01,-148.97,-137.01,-0.458069,-0.459209,0.854508,88.61,1
30966,0,45715,45247,45880.64,45394.72,-165.64,-147.72,-0.458062,-0.459203,0.855027,88.61,1
31006,0,45708,45238,45880.29,45394.41,-172.29,-156.41,-0.458054,-0.459196,0.855557,88.61,1
31046,0,45701,45244,45879.94,45394.11,-178.94,-150.11,-0.458046,-0.459189,0.856113,88.61,1
31087,0,45704,45236,45879.59,45393.79,-175.59,-157.79,-0.458039,-0.459182,0.856679,88.61,1
31126,0,45702,45237,45879.23,45393.48,-177.23,-156.48,-0.458031,-0.459175,0.857256,88.61,1
31163,0,45703,45238,45878.88,45393.17,-175.88,-155.17,-0.458023,-0.459169,0.857844,88.61,1
31207,0,45701,45229,45878.52,45392.84,-177.52,-163.84,-0.458015,-0.459161,0.858434,88.60,1
31247,0,45694,45234,45878.16,45392.52,-184.16,-158.52,-0.458007,-0.459154,0.859037,88.60,1
31287,0,45695,45239,45877.79,45392.22,-182.79,-153.22,-0.458000,-0.459148,0.859656,88.60,1
31323,0,45696,45243,45877.43,45391.92,-181.43,-148.92,-0.457992,-0.459141,0.860293,88.60,1
31365,0,45697,45244,45877.07,45391.63,-180.07,-147.63,-0.457984,-0.459135,0.860944,88.59,1
31407,0,45696,45246,45876.71,45391.34,-180.71,-145.34,-0.457976,-0.459128,0.861612,88.59,1
31446,0,45699,45249,45876.36,45391.05,-177.36,-142.05,-0.457968,-0.459122,0.862296,88.58,1
31487,0,45699,45254,45876.00,45390.78,-177.00,-136.78,-0.457960,-0.459116,0.862997,88.58,1
31525,0,45701,45250,45875.65,45390.50,-174.65,-140.50,-0.457953,-0.459110,0.863710,88.57,1
31564,0,45707,45258,45875.32,45390.23,-168.32,-132.23,-0.457946,-0.459104,0.864436,88.57,1
31605,0,45707,45250,45874.98,45389.96,-167.98,-139.96,-0.457938,-0.459098,0.865168,88.56,1
31647,0,45704,45243,45874.64,45389.66,-170.64,-146.66,-0.457931,-0.459092,0.865902,88.56,1
31687,0,45698,45243,45874.29,45389.37,-176.29,-146.37,-0.457923,-0.459085,0.866642,88.55,1
31727,0,45704,45241,45873.95,45389.07,-169.95,-148.07,-0.457916,-0.459078,0.867382,88.54,1
31766,0,45700,45245,45873.60,45388.79,-173.60,-143.79,-0.457908,-0.459072,0.868127,88.53,1
31807,0,45700,45248,45873.25,45388.51,-173.25,-140.51,-0.457901,-0.459066,0.868880,88.53,1
31847,0,45702,45249,45872.91,45388.23,-170.91,-139.23,-0.457893,-0.459060,0.869638,88.52,1
31888,0,45708,45256,45872.59,45387.97,-164.59,-131.97,-0.457886,-0.459054,0.870403,88.51,1
31928,0,45706,45261,45872.25,45387.71,-166.25,-126.71,-0.457879,-0.459049,0.871178,88.50,1
31968,0,45711,45270,45871.93,45387.48,-160.93,-117.48,-0.457872,-0.459043,0.871965,88.49,1
32009,0,45711,45269,45871.61,45387.25,-160.61,-118.25,-0.457865,-0.459038,0.872762,88.48,1
32047,0,45708,45268,45871.29,45387.01,-163.29,-119.01,-0.457858,-0.459033,0.873571,88.47,1
32088,0,45703,45270,45870.95,45386.77,-167.95,-116.77,-0.457850,-0.459028,0.874394,88.46,1
32127,0,45706,45271,45870.62,45386.54,-164.62,-115.54,-0.457843,-0.459023,0.875230,88.45,1
32168,0,45708,45282,45870.30,45386.34,-162.30,-104.34,-0.457836,-0.459018,0.876083,88.44,1
32208,0,45712,45290,45869.98,45386.14,-157.98,-96.14,-0.457829,-0.459014,0.876954,88.43,1
32248,0,45718,45293,45869.68,45385.96,-151.68,-92.96,-0.457823,-0.459010,0.877840,88.42,1
32287,0,45720,45300,45869.38,45385.79,-149.38,-85.79,-0.457816,-0.459006,0.878743,88.41,1
32328,0,45733,45305,45869.11,45385.63,-136.11,-80.63,-0.457810,-0.459003,0.879659,88.40,1
32368,0,45736,45304,45868.84,45385.47,-132.84,-81.47,-0.457804,-0.458999,0.880585,88.38,1
32408,0,45727,45301,45868.56,45385.30,-141.56,-84.30,-0.457798,-0.458995,0.881524,88.37,1
32448,0,45737,45310,45868.30,45385.15,-131.30,-75.15,-0.457793,-0.458992,0.882475,88.36,1
32488,0,45734,45296,45868.04,45384.98,-134.04,-88.98,-0.457787,-0.458988,0.883433,88.35,1
32527,0,45726,45285,45867.75,45384.78,-141.75,-99.78,-0.457781,-0.458984,0.884397,88.33,1
32569,0,45723,45289,45867.46,45384.59,-144.46,-95.59,-0.457774,-0.458980,0.885370,88.32,1
32608,0,45725,45289,45867.18,45384.39,-142.18,-95.39,-0.457768,-0.458975,0.886351,88.30,1
32649,0,45727,45293,45866.90,45384.21,-139.90,-91.21,-0.457762,-0.458971,0.887339,88.29,1
32689,0,45722,45284,45866.61,45384.02,-144.61,-100.02,-0.457756,-0.458967,0.888334,88.27,1
32729,0,45714,45290,45866.31,45383.83,-152.31,-93.83,-0.457749,-0.458963,0.889342,88.26,1
32769,0,45723,45289,45866.02,45383.64,-143.02,-94.64,-0.457743,-0.458959,0.890356,88.24,1
32809,0,45717,45288,45865.73,45383.45,-148.73,-95.45,-0.457736,-0.458955,0.891381,88.23,1
32849,0,45717,45291,45865.43,45383.27,-148.43,-92.27,-0.457730,-0.458950,0.892416,88.21,1
32889,0,45713,45285,45865.12,45383.07,-152.12,-98.07,-0.457723,-0.458946,0.893460,88.19,1
32928,0,45719,45287,45864.83,45382.88,-145.83,-95.88,-0.457717,-0.458942,0.894511,88.18,1
32969,0,45715,45298,45864.54,45382.71,-149.54,-84.71,-0.457711,-0.458938,0.895576,88.16,1
33009,0,45724,45307,45864.25,45382.56,-140.25,-75.56,-0.457704,-0.458935,0.896654,88.14,1
33049,0,45728,45308,45863.98,45382.41,-135.98,-74.41,-0.457699,-0.458932,0.897743,88.13,1
33088,0,45729,45306,45863.71,45382.26,-134.71,-76.26,-0.457693,-0.458928,0.898842,88.11,1
33125,0,45735,45313,45863.46,45382.12,-128.46,-69.12,-0.457687,-0.458925,0.899951,88.09,1
33168,0,45735,45301,45863.20,45381.96,-128.20,-80.96,-0.457682,-0.458922,0.901066,88.07,1
33210,0,45724,45298,45862.93,45381.80,-138.93,-83.80,-0.457675,-0.458918,0.902188,88.05,1
33248,0,45727,45299,45862.66,45381.63,-135.66,-82.63,-0.457670,-0.458915,0.903318,88.03,1
33287,0,45728,45284,45862.39,45381.44,-134.39,-97.44,-0.457664,-0.458910,0.904448,88.01,1
33325,0,45710,45268,45862.08,45381.21,-152.08,-113.21,-0.457657,-0.458905,0.905577,87.99,1
33368,0,45704,45266,45861.77,45380.98,-157.77,-114.98,-0.457650,-0.458900,0.906706,87.97,1
33410,0,45694,45257,45861.43,45380.73,-167.43,-123.73,-0.457643,-0.458895,0.907836,87.95,1
33450,0,45691,45249,45861.09,45380.47,-170.09,-131.47,-0.457635,-0.458889,0.908962,87.93,1
33490,0,45683,45244,45860.73,45380.20,-177.73,-136.20,-0.457628,-0.458883,0.910085,87.91,1
33528,0,45680,45249,45860.37,45379.94,-180.37,-130.94,-0.457620,-0.458877,0.911210,87.89,1
33569,0,45675,45249,45860.00,45379.68,-185.00,-130.68,-0.457612,-0.458871,0.912339,87.87,1
33611,0,45680,45250,45859.64,45379.42,-179.64,-129.42,-0.457604,-0.458866,0.913470,87.85,1
33650,0,45680,45247,45859.29,45379.16,-179.29,-132.16,-0.457596,-0.458860,0.914601,87.83,1
33691,0,45674,45247,45858.91,45378.89,-184.91,-131.89,-0.457588,-0.458854,0.915735,87.81,1
33729,0,45672,45252,45858.54,45378.64,-186.54,-126.64,-0.457580,-0.458849,0.916876,87.79,1
33770,0,45674,45251,45858.18,45378.39,-184.18,-127.39,-0.457572,-0.458843,0.918021,87.76,1
33810,0,45675,45255,45857.81,45378.14,-182.81,-123.14,-0.457564,-0.458838,0.919172,87.74,1
33850,0,45679,45254,45857.46,45377.89,-178.46,-123.89,-0.457556,-0.458832,0.920326,87.72,1
33890,0,45680,45253,45857.10,45377.64,-177.10,-124.64,-0.457548,-0.458827,0.921483,87.70,1
33930,0,45678,45250,45856.75,45377.39,-178.75,-127.39,-0.457541,-0.458821,0.922640,87.67,1
33970,0,45675,45249,45856.38,45377.14,-181.38,-128.14,-0.457533,-0.458815,0.923800,87.65,1
34010,0,45662,45234,45856.00,45376.85,-194.00,-142.85,-0.457524,-0.458809,0.924958,87.63,1
34050,0,45662,45229,45855.61,45376.56,-193.61,-147.56,-0.457516,-0.458803,0.926112,87.60,1
34091,0,45652,45213,45855.20,45376.23,-203.20,-163.23,-0.457507,-0.458796,0.927257,87.58,1
34130,0,45645,45211,45854.79,45375.91,-209.79,-164.91,-0.457498,-0.458788,0.928393,87.56,1
34171,0,45642,45209,45854.36,45375.57,-212.36,-166.57,-0.457489,-0.458781,0.929523,87.53,1
34211,0,45647,45203,45853.95,45375.23,-206.95,-172.23,-0.457480,-0.458773,0.930639,87.51,1
34252,0,45641,45205,45853.52,45374.89,-212.52,-169.89,-0.457470,-0.458766,0.931747,87.48,1
34291,0,45634,45198,45853.08,45374.54,-219.08,-176.54,-0.457461,-0.458758,0.932845,87.46,1
34332,0,45625,45200,45852.63,45374.19,-227.63,-174.19,-0.457451,-0.458751,0.933939,87.44,1
34371,0,45628,45198,45852.18,45373.84,-224.18,-175.84,-0.457441,-0.458743,0.935027,87.41,1
34411,0,45630,45201,45851.74,45373.50,-221.74,-172.50,-0.457431,-0.458735,0.936110,87.39,1
34450,0,45629,45201,45851.29,45373.15,-222.29,-172.15,-0.457422,-0.458728,0.937188,87.36,1
34490,0,45627,45199,45850.84,45372.80,-223.84,-173.80,-0.457412,-0.458720,0.938262,87.34,1
34531,0,45624,45204,45850.39,45372.47,-226.39,-168.47,-0.457402,-0.458713,0.939334,87.31,1
34571,0,45630,45199,45849.95,45372.12,-219.95,-173.12,-0.457393,-0.458705,0.940401,87.29,1
34612,0,45634,45206,45849.52,45371.79,-215.52,-165.79,-0.457383,-0.458698,0.941463,87.26,1
34651,0,45633,45202,45849.09,45371.45,-216.09,-169.45,-0.457374,-0.458690,0.942521,87.24,1
34691,0,45628,45204,45848.64,45371.12,-220.64,-167.12,-0.457364,-0.458683,0.943576,87.21,1
34731,0,45632,45207,45848.21,45370.79,-216.21,-163.79,-0.457355,-0.458676,0.944628,87.19,1
34772,0,45634,45198,45847.79,45370.45,-213.79,-172.45,-0.457345,-0.458668,0.945673,87.16,1
34811,0,45638,45203,45847.37,45370.11,-209.37,-167.11,-0.457336,-0.458661,0.946711,87.14,1
34851,0,45623,45192,45846.92,45369.76,-223.92,-177.76,-0.457326,-0.458653,0.947743,87.11,1
34892,0,45622,45198,45846.47,45369.41,-224.47,-171.41,-0.457317,-0.458645,0.948772,87.09,1
34932,0,45616,45181,45846.01,45369.04,-230.01,-188.04,-0.457307,-0.458637,0.949791,87.06,1
34972,0,45610,45180,45845.54,45368.66,-235.54,-188.66,-0.457296,-0.458629,0.950804,87.04,1
35012,0,45609,45177,45845.06,45368.28,-236.06,-191.28,-0.457286,-0.458620,0.951808,87.01,1
35051,0,45609,45187,45844.59,45367.92,-235.59,-180.92,-0.457276,-0.458612,0.952810,86.99,1
35091,0,45612,45193,45844.12,45367.57,-232.12,-174.57,-0.457265,-0.458605,0.953810,86.96,1
35130,0,45614,45186,45843.66,45367.21,-229.66,-181.21,-0.457255,-0.458597,0.954806,86.94,1
35172,0,45615,45190,45843.21,45366.86,-228.21,-176.86,-0.457245,-0.458589,0.955797,86.91,1
35211,0,45614,45199,45842.75,45366.52,-228.75,-167.52,-0.457235,-0.458581,0.956790,86.89,1
35252,0,45620,45207,45842.30,45366.20,-222.30,-159.20,-0.457226,-0.458575,0.957785,86.86,1
35291,0,45625,45203,45841.87,45365.88,-216.87,-162.88,-0.457216,-0.458567,0.958778,86.84,1
35331,0,45629,45204,45841.45,45365.55,-212.45,-161.55,-0.457207,-0.458560,0.959770,86.81,1
35371,0,45630,45204,45841.02,45365.23,-211.02,-161.23,-0.457198,-0.458553,0.960758,86.79,1
35411,0,45632,45213,45840.61,45364.93,-208.61,-151.93,-0.457189,-0.458546,0.961747,86.76,1
35452,0,45635,45221,45840.20,45364.64,-205.20,-143.64,-0.457180,-0.458540,0.962738,86.74,1
35491,0,45638,45212,45839.79,45364.34,-201.79,-152.34,-0.457171,-0.458533,0.963727,86.71,1
35531,0,45634,45215,45839.38,45364.04,-205.38,-149.04,-0.457162,-0.458527,0.964717,86.69,1
35571,0,45640,45222,45838.98,45363.76,-198.98,-141.76,-0.457153,-0.458521,0.965707,86.66,1
35610,0,45641,45229,45838.59,45363.49,-197.59,-134.49,-0.457145,-0.458515,0.966700,86.64,1
35651,0,45643,45228,45838.20,45363.22,-195.20,-135.22,-0.457136,-0.458509,0.967695,86.61,1
35691,0,45643,45231,45837.81,45362.96,-194.81,-131.96,-0.457128,-0.458503,0.968693,86.59,1
35733,0,45644,45229,45837.42,45362.70,-193.42,-133.70,-0.457119,-0.458497,0.969693,86.56,1
35771,0,45648,45234,45837.04,45362.44,-189.04,-128.44,-0.457111,-0.458491,0.970696,86.54,1
35812,0,45647,45231,45836.66,45362.18,-189.66,-131.18,-0.457103,-0.458486,0.971699,86.51,1
35851,0,45642,45233,45836.28,45361.92,-194.28,-128.92,-0.457094,-0.458480,0.972706,86.49,1
35893,0,45645,45236,45835.89,45361.67,-190.89,-125.67,-0.457086,-0.458475,0.973717,86.46,1
35932,0,45656,45248,45835.54,45361.44,-179.54,-113.44,-0.457078,-0.458470,0.974731,86.44,1
35975,0,45667,45260,45835.20,45361.24,-168.20,-101.24,-0.457071,-0.458465,0.975750,86.41,1
36012,0,45661,45258,45834.85,45361.03,-173.85,-103.03,-0.457063,-0.458460,0.976775,86.39,1
36052,0,45658,45264,45834.50,45360.84,-176.50,-96.84,-0.457055,-0.458456,0.977806,86.36,1
36093,0,45670,45267,45834.17,45360.65,-164.17,-93.65,-0.457048,-0.458452,0.978843,86.34,1
36132,0,45674,45261,45833.85,45360.45,-159.85,-99.45,-0.457041,-0.458448,0.979883,86.31,1
36172,0,45670,45266,45833.52,45360.27,-163.52,-94.27,-0.457034,-0.458444,0.980928,86.29,1
36212,0,45672,45266,45833.20,45360.08,-161.20,-94.08,-0.457027,-0.458439,0.981976,86.26,1
36252,0,45672,45268,45832.88,45359.89,-160.88,-91.89,-0.457020,-0.458435,0.983030,86.24,1
36292,0,45678,45281,45832.57,45359.74,-154.57,-78.74,-0.457013,-0.458432,0.984089,86.21,1
36332,0,45684,45283,45832.28,45359.59,-148.28,-76.59,-0.457007,-0.458429,0.985154,86.19,1
36373,0,45684,45281,45831.98,45359.43,-147.98,-78.43,-0.457001,-0.458425,0.986224,86.16,1
36411,0,45684,45285,45831.69,45359.28,-147.69,-74.28,-0.456994,-0.458422,0.987299,86.14,1
36452,0,45679,45281,45831.38,45359.12,-152.38,-78.12,-0.456987,-0.458418,0.988380,86.11,1
36493,0,45678,45278,45831.08,45358.96,-153.08,-80.96,-0.456981,-0.458415,0.989466,86.09,1
36534,0,45666,45266,45830.75,45358.78,-164.75,-92.78,-0.456974,-0.458411,0.990557,86.06,1
36573,0,45670,45278,45830.43,45358.62,-160.43,-80.62,-0.456967,-0.458407,0.991656,86.04,1
36614,0,45670,45257,45830.11,45358.42,-160.11,-101.42,-0.456960,-0.458403,0.992756,86.01,1
36654,0,45659,45254,45829.77,45358.21,-170.77,-104.21,-0.456952,-0.458398,0.993859,85.98,1
36694,0,45650,45257,45829.41,45358.01,-179.41,-101.01,-0.456944,-0.458394,0.994969,85.96,1
36732,0,45653,45258,45829.06,45357.81,-176.06,-99.81,-0.456937,-0.458389,0.996084,85.93,1
36774,0,45654,45256,45828.71,45357.61,-174.71,-101.61,-0.456929,-0.458385,0.997205,85.91,1
36813,0,45656,45262,45828.37,45357.41,-172.37,-95.41,-0.456922,-0.458381,0.998331,85.88,1
36854,0,45654,45266,45828.02,45357.23,-174.02,-91.23,-0.456914,-0.458377,0.999465,85.86,1
36892,0,45662,45267,45827.69,45357.05,-165.69,-90.05,-0.456907,-0.458373,1.000605,85.83,1
36932,0,45662,45268,45827.36,45356.87,-165.36,-88.87,-0.456900,-0.458369,1.001750,85.80,1
36975,0,45661,45266,45827.02,45356.70,-166.02,-90.70,-0.456892,-0.458365,1.002901,85.78,1
37013,0,45664,45266,45826.70,45356.52,-162.70,-90.52,-0.456885,-0.458361,1.004056,85.75,1
37053,0,45661,45266,45826.37,45356.34,-165.37,-90.34,-0.456878,-0.458357,1.005217,85.72,1
37094,0,45661,45271,45826.04,45356.17,-165.04,-85.17,-0.456871,-0.458353,1.006384,85.70,1
37132,0,45663,45275,45825.71,45356.01,-162.71,-81.01,-0.456864,-0.458350,1.007558,85.67,1
37173,0,45660,45271,45825.38,45355.84,-165.38,-84.84,-0.456856,-0.458346,1.008739,85.64,1
37212,0,45663,45271,45825.06,45355.67,-162.06,-84.67,-0.456849,-0.458342,1.009925,85.62,1
37254,0,45665,45271,45824.74,45355.50,-159.74,-84.50,-0.456842,-0.458339,1.011117,85.59,1
37293,0,45666,45266,45824.42,45355.32,-158.42,-89.32,-0.456836,-0.458335,1.012312,85.56,1
37333,0,45653,45263,45824.08,45355.14,-171.08,-92.14,-0.456828,-0.458331,1.013513,85.54,1
37375,0,45654,45267,45823.74,45354.96,-169.74,-87.96,-0.456821,-0.458327,1.014721,85.51,1
37414,0,45654,45247,45823.40,45354.75,-169.40,-107.75,-0.456813,-0.458322,1.015928,85.48,1
37455,0,45641,45258,45823.04,45354.56,-182.04,-96.56,-0.456805,-0.458318,1.017144,85.45,1
37493,0,45650,45261,45822.70,45354.37,-172.70,-93.37,-0.456798,-0.458314,1.018365,85.43,1
37533,0,45647,45264,45822.34,45354.19,-175.34,-90.19,-0.456790,-0.458310,1.019593,85.40,1
37574,0,45649,45263,45822.00,45354.01,-173.00,-91.01,-0.456783,-0.458306,1.020827,85.37,1
37613,0,45653,45264,45821.66,45353.83,-168.66,-89.83,-0.456775,-0.458302,1.022067,85.34,1
37654,0,45651,45260,45821.32,45353.64,-170.32,-93.64,-0.456768,-0.458298,1.023312,85.32,1
37693,0,45640,45256,45820.96,45353.45,-180.96,-97.45,-0.456760,-0.458293,1.024563,85.29,1
37733,0,45642,45254,45820.61,45353.25,-178.61,-99.25,-0.456752,-0.458289,1.025819,85.26,1
37773,0,45637,45256,45820.24,45353.06,-183.24,-97.06,-0.456744,-0.458285,1.027082,85.23,1
37813,0,45645,45250,45819.89,45352.86,-174.89,-102.86,-0.456737,-0.458280,1.028347,85.20,1
37854,0,45644,45253,45819.54,45352.66,-175.54,-99.66,-0.456729,-0.458276,1.029617,85.18,1
37891,0,45648,45256,45819.20,45352.46,-171.20,-96.46,-0.456722,-0.458272,1.030890,85.15,1
37931,0,45643,45252,45818.84,45352.27,-175.84,-100.27,-0.456714,-0.458267,1.032166,85.12,1
37974,0,45640,45256,45818.49,45352.07,-178.49,-96.07,-0.456706,-0.458263,1.033448,85.09,1
38013,0,45644,45249,45818.14,45351.87,-174.14,-102.87,-0.456698,-0.458259,1.034732,85.06,1
38056,0,45640,45244,45817.79,45351.66,-177.79,-107.66,-0.456691,-0.458254,1.036017,85.03,1
38093,0,45642,45247,45817.43,45351.45,-175.43,-104.45,-0.456683,-0.458249,1.037304,85.00,1
38134,0,45633,45240,45817.07,45351.23,-184.07,-111.23,-0.456675,-0.458244,1.038593,84.97,1
38178,0,45630,45236,45816.70,45351.00,-186.70,-115.00,-0.456667,-0.458239,1.039882,84.95,1
38215,0,45625,45224,45816.31,45350.74,-191.31,-126.74,-0.456659,-0.458234,1.041168,84.92,1
38255,0,45626,45222,45815.93,45350.48,-189.93,-128.48,-0.456650,-0.458228,1.042450,84.89,1
38296,0,45621,45225,45815.54,45350.23,-194.54,-125.23,-0.456642,-0.458222,1.043731,84.86,1
38335,0,45621,45227,45815.16,45349.99,-194.16,-122.99,-0.456633,-0.458217,1.045012,84.83,1
38375,0,45624,45231,45814.77,45349.75,-190.77,-118.75,-0.456625,-0.458212,1.046293,84.80,1
38415,0,45620,45224,45814.39,45349.50,-194.39,-125.50,-0.456617,-0.458206,1.047572,84.77,1
38456,0,45618,45223,45814.00,45349.25,-196.00,-126.25,-0.456608,-0.458201,1.048850,84.74,1
38495,0,45622,45236,45813.61,45349.02,-191.61,-113.02,-0.456600,-0.458196,1.050131,84.71,1
38535,0,45618,45233,45813.22,45348.79,-195.22,-115.79,-0.456591,-0.458191,1.051414,84.68,1
38575,0,45622,45248,45812.84,45348.59,-190.84,-100.59,-0.456583,-0.458186,1.052704,84.65,1
38615,0,45629,45242,45812.47,45348.38,-183.47,-106.38,-0.456575,-0.458182,1.053997,84.62,1
38655,0,45629,45242,45812.11,45348.17,-183.11,-106.17,-0.456567,-0.458177,1.055292,84.59,1
38695,0,45641,45247,45811.77,45347.97,-170.77,-100.97,-0.456559,-0.458172,1.056588,84.56,1
38735,0,45637,45249,45811.42,45347.77,-174.42,-98.77,-0.456552,-0.458168,1.057887,84.53,1
38776,0,45637,45255,45811.07,45347.59,-174.07,-92.59,-0.456544,-0.458164,1.059190,84.50,1
38815,0,45640,45248,45810.73,45347.39,-170.73,-99.39,-0.456537,-0.458160,1.060495,84.47,1
38855,0,45638,45242,45810.39,45347.18,-172.39,-105.18,-0.456529,-0.458155,1.061799,84.44,1
38894,0,45631,45243,45810.03,45346.97,-179.03,-103.97,-0.456521,-0.458151,1.063105,84.41,1
38936,0,45633,45238,45809.68,45346.76,-176.68,-108.76,-0.456514,-0.458146,1.064411,84.38,1
38974,0,45621,45236,45809.30,45346.54,-188.30,-110.54,-0.456506,-0.458141,1.065718,84.35,1
39016,0,45617,45234,45808.92,45346.32,-191.92,-112.32,-0.456497,-0.458136,1.067027,84.32,1
39056,0,45619,45227,45808.54,45346.08,-189.54,-119.08,-0.456489,-0.458131,1.068335,84.29,1
39097,0,45615,45218,45808.15,45345.82,-193.15,-127.82,-0.456481,-0.458125,1.069639,84.25,1
39137,0,45606,45223,45807.75,45345.58,-201.75,-122.58,-0.456472,-0.458120,1.070944,84.22,1
39177,0,45611,45223,45807.36,45345.34,-196.36,-122.34,-0.456463,-0.458114,1.072248,84.19,1
39215,0,45605,45216,45806.96,45345.08,-201.96,-129.08,-0.456454,-0.458109,1.073550,84.16,1
39257,0,45597,45217,45806.54,45344.82,-209.54,-127.82,-0.456445,-0.458103,1.074852,84.13,1
39296,0,45604,45218,45806.14,45344.57,-202.14,-126.57,-0.456436,-0.458098,1.076153,84.10,1
39336,0,45608,45228,45805.74,45344.34,-197.74,-116.34,-0.456428,-0.458092,1.077456,84.07,1
39375,0,45606,45236,45805.34,45344.12,-199.34,-108.12,-0.456419,-0.458088,1.078765,84.04,1
39416,0,45617,45242,45804.97,45343.92,-187.97,-101.92,-0.456411,-0.458083,1.080079,84.01,1
39457,0,45621,45247,45804.60,45343.73,-183.60,-96.73,-0.456403,-0.458079,1.081397,83.98,1
39496,0,45628,45246,45804.25,45343.54,-176.25,-97.54,-0.456395,-0.458075,1.082718,83.94,1
39537,0,45627,45249,45803.90,45343.35,-176.90,-94.35,-0.456388,-0.458071,1.084043,83.91,1
39576,0,45633,45255,45803.56,45343.17,-170.56,-88.17,-0.456380,-0.458067,1.085372,83.88,1
39615,0,45632,45260,45803.21,45343.01,-171.21,-83.01,-0.456373,-0.458063,1.086706,83.85,1
39656,0,45633,45269,45802.87,45342.86,-169.87,-73.86,-0.456365,-0.458060,1.088049,83.82,1
39695,0,45639,45265,45802.55,45342.70,-163.55,-77.70,-0.456358,-0.458056,1.089398,83.79,1
39737,0,45640,45267,45802.22,45342.55,-162.22,-75.55,-0.456351,-0.458053,1.090752,83.75,1
39775,0,45639,45265,45801.90,45342.40,-162.90,-77.40,-0.456344,-0.458050,1.092111,83.72,1
39815,0,45630,45260,45801.55,45342.24,-171.55,-82.24,-0.456336,-0.458046,1.093476,83.69,1
39856,0,45621,45258,45801.20,45342.07,-180.20,-84.07,-0.456329,-0.458042,1.094849,83.66,1
39896,0,45626,45267,45800.85,45341.92,-174.85,-74.92,-0.456321,-0.458039,1.096231,83.63,1
39939,0,45634,45252,45800.52,45341.74,-166.52,-89.74,-0.456314,-0.458035,1.097615,83.60,1
39977,0,45624,45255,45800.16,45341.57,-176.16,-86.57,-0.456306,-0.458031,1.099005,83.56,1
40017,0,45626,45267,45799.82,45341.42,-173.82,-74.42,-0.456298,-0.458028,1.100403,83.53,1
40057,0,45630,45274,45799.48,45341.29,-169.48,-67.29,-0.456291,-0.458025,1.101811,83.50,1
40097,0,45640,45273,45799.16,45341.15,-159.16,-68.15,-0.456284,-0.458022,1.103226,83.47,1
40138,0,45640,45278,45798.84,45341.03,-158.84,-63.03,-0.456277,-0.458019,1.104648,83.43,1
40176,0,45641,45290,45798.53,45340.93,-157.53,-50.93,-0.456270,-0.458017,1.106080,83.40,1
40217,0,45645,45295,45798.22,45340.84,-153.22,-45.84,-0.456264,-0.458015,1.107523,83.37,1
40258,0,45654,45300,45797.93,45340.75,-143.93,-40.75,-0.456257,-0.458013,1.108975,83.34,1
40297,0,45662,45301,45797.66,45340.68,-135.66,-39.68,-0.456252,-0.458012,1.110434,83.30,1
40337,0,45660,45300,45797.39,45340.59,-137.39,-40.59,-0.456246,-0.458010,1.111900,83.27,1
40376,0,45667,45305,45797.13,45340.52,-130.13,-35.52,-0.456240,-0.458008,1.113374,83.24,1
40417,0,45668,45310,45796.87,45340.46,-128.87,-30.46,-0.456234,-0.458007,1.114855,83.20,1
40456,0,45668,45311,45796.62,45340.41,-128.62,-29.41,-0.456229,-0.458006,1.116343,83.17,1
40497,0,45667,45306,45796.36,45340.34,-129.36,-34.34,-0.456223,-0.458004,1.117838,83.14,1
40537,0,45663,45307,45796.09,45340.27,-133.09,-33.27,-0.456217,-0.458003,1.119341,83.10,1
40579,0,45664,45305,45795.83,45340.20,-131.83,-35.20,-0.456211,-0.458001,1.120851,83.07,1
40617,0,45660,45305,45795.56,45340.13,-135.56,-35.13,-0.456206,-0.458000,1.122370,83.04,1
40658,0,45655,45287,45795.28,45340.03,-140.28,-53.03,-0.456199,-0.457997,1.123895,83.00,1
40698,0,45647,45294,45794.98,45339.94,-147.98,-45.94,-0.456193,-0.457995,1.125429,82.97,1
40739,0,45648,45286,45794.69,45339.83,-146.69,-53.83,-0.456187,-0.457993,1.126970,82.93,1
40777,0,45647,45280,45794.40,45339.71,-147.40,-59.71,-0.456180,-0.457990,1.128518,82.90,1
40817,0,45636,45282,45794.08,45339.60,-158.08,-57.60,-0.456173,-0.457988,1.130074,82.86,1
40858,0,45646,45282,45793.79,45339.49,-147.79,-57.49,-0.456167,-0.457985,1.131637,82.83,1
40898,0,45645,45282,45793.49,45339.37,-148.49,-57.38,-0.456160,-0.457983,1.133206,82.79,1
40938,0,45642,45283,45793.19,45339.26,-151.19,-56.26,-0.456154,-0.457980,1.134784,82.76,1
40978,0,45634,45286,45792.87,45339.16,-158.87,-53.16,-0.456147,-0.457978,1.136372,82.72,1
41016,0,45639,45281,45792.57,45339.04,-153.57,-58.04,-0.456140,-0.457976,1.137968,82.69,1
41055,0,45639,45282,45792.26,45338.93,-153.26,-56.93,-0.456133,-0.457973,1.139571,82.65,1
41095,0,45643,45282,45791.96,45338.82,-148.96,-56.82,-0.456127,-0.457971,1.141182,82.62,1
41139,0,45647,45281,45791.68,45338.70,-144.68,-57.70,-0.456121,-0.457968,1.142798,82.58,1
41177,0,45644,45276,45791.38,45338.58,-147.38,-62.58,-0.456114,-0.457965,1.144419,82.55,1
41219,0,45640,45276,45791.08,45338.45,-151.08,-62.45,-0.456108,-0.457963,1.146046,82.51,1
41259,0,45643,45273,45790.79,45338.32,-147.79,-65.32,-0.456101,-0.457960,1.147676,82.48,1
41298,0,45643,45267,45790.49,45338.18,-147.49,-71.18,-0.456095,-0.457957,1.149308,82.44,1
41339,0,45633,45268,45790.18,45338.04,-157.18,-70.04,-0.456088,-0.457954,1.150945,82.40,1
41377,0,45633,45270,45789.87,45337.91,-156.87,-67.91,-0.456081,-0.457951,1.152587,82.37,1
41418,0,45639,45267,45789.57,45337.77,-150.57,-70.77,-0.456075,-0.457947,1.154232,82.33,1
41459,0,45636,45266,45789.26,45337.62,-153.26,-71.62,-0.456068,-0.457944,1.155879,82.29,1
41499,0,45633,45255,45788.95,45337.46,-155.95,-82.46,-0.456061,-0.457941,1.157525,82.26,1
41539,0,45633,45260,45788.64,45337.31,-155.64,-77.31,-0.456054,-0.457937,1.159173,82.22,1
41579,0,45623,45247,45788.30,45337.13,-165.30,-90.13,-0.456047,-0.457933,1.160818,82.18,1
41619,0,45616,45229,45787.96,45336.91,-171.96,-107.91,-0.456040,-0.457929,1.162454,82.14,1
41659,0,45610,45231,45787.61,45336.70,-177.61,-105.70,-0.456032,-0.457924,1.164084,82.11,1
41700,0,45621,45236,45787.27,45336.50,-166.27,-100.50,-0.456025,-0.457920,1.165706,82.07,1
41740,0,45622,45250,45786.95,45336.33,-164.95,-86.33,-0.456017,-0.457916,1.167329,82.03,1
41779,0,45631,45257,45786.63,45336.18,-155.63,-79.18,-0.456011,-0.457912,1.168951,81.99,1
41819,0,45637,45257,45786.34,45336.02,-149.34,-79.02,-0.456004,-0.457909,1.170573,81.96,1
41859,0,45638,45252,45786.04,45335.85,-148.04,-83.85,-0.455998,-0.457905,1.172190,81.92,1
41898,0,45641,45256,45785.75,45335.69,-144.75,-79.69,-0.455991,-0.457902,1.173805,81.88,1
41940,0,45644,45253,45785.47,45335.53,-141.47,-82.53,-0.455985,-0.457898,1.175414,81.84,1
41979,0,45640,45254,45785.18,45335.37,-145.18,-81.37,-0.455979,-0.457895,1.177020,81.80,1
42019,0,45643,45251,45784.90,45335.20,-141.90,-84.20,-0.455973,-0.457891,1.178620,81.77,1
42059,0,45652,45252,45784.63,45335.04,-132.63,-83.04,-0.455967,-0.457887,1.180212,81.73,1
42100,0,45646,45250,45784.36,45334.87,-138.36,-84.87,-0.455961,-0.457883,1.181798,81.69,1
42139,0,45648,45253,45784.08,45334.70,-136.08,-81.70,-0.455955,-0.457880,1.183377,81.65,1
42180,0,45650,45254,45783.82,45334.54,-133.82,-80.54,-0.455949,-0.457876,1.184950,81.61,1
42220,0,45653,45250,45783.55,45334.37,-130.55,-84.37,-0.455943,-0.457873,1.186515,81.58,1
42260,0,45652,45255,45783.29,45334.22,-131.29,-79.22,-0.455938,-0.457869,1.188074,81.54,1
42300,0,45655,45260,45783.04,45334.07,-128.04,-74.07,-0.455932,-0.457866,1.189628,81.50,1
42340,0,45658,45266,45782.79,45333.93,-124.79,-67.93,-0.455927,-0.457863,1.191179,81.46,1
42379,0,45657,45264,45782.54,45333.79,-125.54,-69.79,-0.455921,-0.457860,1.192727,81.42,1
42421,0,45667,45266,45782.31,45333.66,-115.31,-67.66,-0.455916,-0.457857,1.194270,81.38,1
42460,0,45668,45258,45782.08,45333.51,-114.08,-75.51,-0.455911,-0.457854,1.195804,81.35,1
42500,0,45654,45258,45781.83,45333.36,-127.83,-75.36,-0.455906,-0.457850,1.197334,81.31,1
42541,0,45660,45262,45781.59,45333.22,-121.59,-71.22,-0.455900,-0.457847,1.198858,81.27,1
42581,0,45667,45263,45781.36,45333.08,-114.36,-70.08,-0.455895,-0.457844,1.200376,81.23,1
42620,0,45672,45263,45781.14,45332.94,-109.14,-69.94,-0.455891,-0.457841,1.201888,81.19,1
42660,0,45672,45260,45780.92,45332.80,-108.92,-72.80,-0.455886,-0.457838,1.203390,81.15,1
42699,0,45675,45263,45780.71,45332.66,-105.71,-69.66,-0.455881,-0.457835,1.204886,81.12,1
42741,0,45675,45265,45780.50,45332.53,-105.50,-67.53,-0.455877,-0.457832,1.206374,81.08,1
42780,0,45677,45263,45780.29,45332.39,-103.29,-69.39,-0.455872,-0.457829,1.207854,81.04,1
42820,0,45681,45258,45780.09,45332.24,-99.09,-74.24,-0.455868,-0.457826,1.209323,81.00,1
42860,0,45674,45255,45779.88,45332.09,-105.88,-77.09,-0.455863,-0.457822,1.210782,80.96,1
42900,0,45667,45249,45779.66,45331.93,-112.66,-82.93,-0.455858,-0.457819,1.212228,80.92,1
42940,0,45669,45250,45779.44,45331.76,-110.44,-81.76,-0.455853,-0.457815,1.213662,80.89,1
42981,0,45667,45248,45779.22,45331.59,-112.22,-83.59,-0.455849,-0.457811,1.215084,80.85,1
43021,0,45668,45254,45779.00,45331.44,-111.00,-77.44,-0.455844,-0.457808,1.216497,80.81,1
43061,0,45675,45263,45778.79,45331.30,-103.79,-68.30,-0.455839,-0.457805,1.217902,80.77,1
43100,0,45673,45263,45778.58,45331.17,-105.58,-68.17,-0.455835,-0.457802,1.219300,80.74,1
43143,0,45675,45270,45778.37,45331.05,-103.37,-61.05,-0.455830,-0.457799,1.220695,80.70,1
43181,0,45677,45266,45778.17,45330.92,-101.17,-64.92,-0.455826,-0.457796,1.222083,80.66,1
43222,0,45676,45269,45777.96,45330.80,-101.96,-61.80,-0.455821,-0.457794,1.223466,80.62,1
43260,0,45682,45277,45777.77,45330.69,-95.77,-53.69,-0.455817,-0.457791,1.224846,80.59,1
43302,0,45685,45283,45777.59,45330.60,-92.59,-47.60,-0.455813,-0.457789,1.226224,80.55,1
43341,0,45689,45280,45777.41,45330.50,-88.41,-50.50,-0.455809,-0.457787,1.227598,80.51,1
43381,0,45684,45267,45777.23,45330.37,-93.23,-63.37,-0.455805,-0.457784,1.228965,80.47,1
43421,0,45691,45264,45777.05,45330.24,-86.05,-66.24,-0.455801,-0.457781,1.230322,80.44,1
43461,0,45688,45264,45776.88,45330.11,-88.88,-66.11,-0.455798,-0.457778,1.231670,80.40,1
43502,0,45686,45270,45776.70,45329.99,-90.70,-59.99,-0.455794,-0.457776,1.233011,80.36,1
43542,0,45689,45265,45776.52,45329.86,-87.52,-64.86,-0.455790,-0.457773,1.234344,80.33,1
43578,0,45685,45261,45776.34,45329.72,-91.34,-68.72,-0.455786,-0.457770,1.235666,80.29,1
43621,0,45680,45254,45776.15,45329.57,-96.15,-75.57,-0.455782,-0.457767,1.236977,80.25,1
43660,0,45676,45254,45775.95,45329.43,-99.95,-75.43,-0.455777,-0.457763,1.238276,80.22,1
43702,0,45679,45256,45775.76,45329.28,-96.76,-73.28,-0.455773,-0.457760,1.239565,80.18,1
43742,0,45673,45252,45775.55,45329.13,-102.55,-77.13,-0.455769,-0.457757,1.240842,80.15,1
43783,0,45673,45250,45775.35,45328.97,-102.35,-78.97,-0.455764,-0.457753,1.242108,80.11,1
43820,0,45674,45251,45775.15,45328.82,-101.15,-77.82,-0.455760,-0.457750,1.243362,80.07,1
43861,0,45673,45260,45774.95,45328.68,-101.95,-68.68,-0.455755,-0.457747,1.244608,80.04,1
43901,0,45672,45263,45774.74,45328.55,-102.74,-65.55,-0.455751,-0.457744,1.245849,80.00,1
43942,0,45677,45264,45774.55,45328.42,-97.55,-64.42,-0.455747,-0.457741,1.247084,79.97,1
43984,0,45674,45265,45774.35,45328.30,-100.35,-63.30,-0.455742,-0.457739,1.248314,79.93,1
44021,0,45677,45273,45774.15,45328.19,-97.15,-55.19,-0.455738,-0.457736,1.249541,79.90,1
44061,0,45679,45272,45773.96,45328.08,-94.96,-56.08,-0.455734,-0.457734,1.250765,79.86,1
44102,0,45676,45278,45773.77,45327.98,-97.77,-49.98,-0.455730,-0.457732,1.251988,79.83,1
44141,0,45678,45274,45773.58,45327.87,-95.58,-53.88,-0.455725,-0.457729,1.253209,79.79,1
44179,0,45679,45278,45773.39,45327.78,-94.39,-49.78,-0.455721,-0.457727,1.254429,79.76,1
44220,0,45686,45272,45773.22,45327.67,-87.22,-55.67,-0.455718,-0.457725,1.255643,79.72,1
44261,0,45683,45263,45773.04,45327.54,-90.04,-64.54,-0.455714,-0.457722,1.256850,79.69,1
44302,0,45673,45260,45772.84,45327.41,-99.84,-67.41,-0.455709,-0.457719,1.258049,79.65,1
44341,0,45678,45266,45772.65,45327.29,-94.65,-61.29,-0.455705,-0.457716,1.259243,79.62,1
44382,0,45680,45271,45772.47,45327.17,-92.47,-56.17,-0.455701,-0.457714,1.260433,79.59,1
44422,0,45687,45276,45772.30,45327.07,-85.30,-51.07,-0.455697,-0.457711,1.261620,79.55,1
44462,0,45688,45280,45772.13,45326.98,-84.13,-46.98,-0.455694,-0.457709,1.262804,79.52,1
44504,0,45687,45283,45771.96,45326.89,-84.96,-43.89,-0.455690,-0.457708,1.263986,79.49,1
44543,0,45691,45287,45771.80,45326.81,-80.80,-39.81,-0.455687,-0.457706,1.265168,79.45,1
44583,0,45695,45296,45771.65,45326.75,-76.65,-30.75,-0.455683,-0.457705,1.266351,79.42,1
44626,0,45698,45299,45771.51,45326.70,-73.51,-27.70,-0.455680,-0.457703,1.267534,79.39,1
44663,0,45694,45302,45771.36,45326.65,-77.36,-24.65,-0.455677,-0.457702,1.268720,79.35,1
44703,0,45696,45307,45771.21,45326.61,-75.21,-19.61,-0.455674,-0.457701,1.269907,79.32,1
44742,0,45716,45316,45771.10,45326.59,-55.10,-10.59,-0.455671,-0.457701,1.271096,79.29,1
44782,0,45711,45332,45770.98,45326.61,-59.98,5.39,-0.455669,-0.457701,1.272285,79.25,1
44823,0,45717,45339,45770.87,45326.63,-53.88,12.37,-0.455666,-0.457702,1.273474,79.22,1
44863,0,45728,45343,45770.79,45326.67,-42.79,16.33,-0.455664,-0.457703,1.274661,79.19,1
44905,0,45734,45337,45770.71,45326.69,-36.71,10.31,-0.455663,-0.457703,1.275846,79.16,1
44943,0,45737,45347,45770.65,45326.73,-33.65,20.27,-0.455661,-0.457704,1.277027,79.12,1
44983,0,45737,45346,45770.58,45326.77,-33.58,19.23,-0.455660,-0.457705,1.278205,79.09,1
45024,0,45732,45348,45770.51,45326.82,-38.51,21.18,-0.455658,-0.457706,1.279379,79.06,1
45062,0,45738,45358,45770.45,45326.88,-32.45,31.12,-0.455657,-0.457707,1.280548,79.03,1
45104,0,45744,45348,45770.39,45326.92,-26.39,21.08,-0.455656,-0.457708,1.281712,78.99,1
45142,0,45737,45339,45770.33,45326.95,-33.33,12.05,-0.455654,-0.457709,1.282874,78.96,1
45183,0,45741,45345,45770.27,45326.98,-29.27,18.02,-0.455653,-0.457710,1.284032,78.93,1
45224,0,45735,45341,45770.20,45327.01,-35.20,13.99,-0.455652,-0.457710,1.285188,78.90,1
45264,0,45738,45347,45770.14,45327.05,-32.14,19.95,-0.455650,-0.457711,1.286340,78.87,1
45304,0,45741,45350,45770.08,45327.10,-29.08,22.90,-0.455649,-0.457712,1.287488,78.84,1
45344,0,45741,45346,45770.02,45327.14,-29.02,18.86,-0.455648,-0.457713,1.288633,78.80,1
45383,0,45740,45347,45769.96,45327.18,-29.96,19.82,-0.455646,-0.457714,1.289773,78.77,1
45423,0,45736,45354,45769.89,45327.23,-33.89,26.77,-0.455645,-0.457715,1.290908,78.74,1
45461,0,45740,45353,45769.84,45327.29,-29.84,25.71,-0.455644,-0.457716,1.292039,78.71,1
45503,0,45742,45354,45769.78,45327.34,-27.78,26.66,-0.455642,-0.457717,1.293164,78.68,1
45543,0,45746,45361,45769.73,45327.41,-23.73,33.59,-0.455641,-0.457719,1.294282,78.65,1
45583,0,45738,45364,45769.67,45327.48,-31.67,36.52,-0.455640,-0.457721,1.295392,78.62,1
45624,0,45748,45367,45769.63,45327.57,-21.63,39.43,-0.455639,-0.457722,1.296492,78.59,1
45664,0,45750,45374,45769.59,45327.66,-19.59,46.34,-0.455638,-0.457725,1.297579,78.56,1
45705,0,45757,45370,45769.57,45327.75,-12.57,42.25,-0.455638,-0.457726,1.298655,78.52,1
45744,0,45757,45375,45769.54,45327.84,-12.54,47.16,-0.455637,-0.457729,1.299718,78.49,1
45783,0,45756,45371,45769.52,45327.93,-13.52,43.07,-0.455637,-0.457730,1.300769,78.46,1
45823,0,45752,45372,45769.48,45328.02,-17.48,43.98,-0.455636,-0.457732,1.301808,78.43,1
45863,0,45758,45377,45769.46,45328.11,-11.46,48.89,-0.455635,-0.457735,1.302833,78.40,1
45903,0,45759,45361,45769.44,45328.18,-10.44,32.82,-0.455635,-0.457736,1.303850,78.37,1
45943,0,45751,45361,45769.40,45328.25,-18.40,32.75,-0.455634,-0.457737,1.304860,78.34,1
45986,0,45746,45355,45769.36,45328.30,-23.36,26.70,-0.455633,-0.457739,1.305864,78.31,1
46024,0,45746,45362,45769.31,45328.37,-23.31,33.63,-0.455632,-0.457740,1.306860,78.28,1
46064,0,45749,45361,45769.27,45328.44,-20.27,32.56,-0.455631,-0.457742,1.307849,78.25,1
46106,0,45748,45358,45769.23,45328.50,-21.23,29.50,-0.455630,-0.457743,1.308831,78.23,1
46144,0,45743,45361,45769.18,45328.56,-26.18,32.44,-0.455629,-0.457744,1.309807,78.20,1
46184,0,45743,45361,45769.12,45328.63,-26.12,32.37,-0.455628,-0.457746,1.310775,78.17,1
46225,0,45743,45367,45769.07,45328.71,-26.07,38.29,-0.455627,-0.457748,1.311735,78.14,1
46264,0,45747,45360,45769.03,45328.77,-22.03,31.23,-0.455626,-0.457749,1.312687,78.11,1
46306,0,45744,45362,45768.98,45328.84,-24.98,33.16,-0.455625,-0.457750,1.313633,78.08,1
46344,0,45744,45371,45768.93,45328.92,-24.93,42.08,-0.455624,-0.457752,1.314567,78.05,1
46385,0,45748,45376,45768.89,45329.02,-20.89,46.98,-0.455623,-0.457754,1.315488,78.02,1
46424,0,45753,45383,45768.86,45329.12,-15.86,53.88,-0.455622,-0.457757,1.316392,78.00,1
46466,0,45761,45380,45768.85,45329.23,-7.85,50.77,-0.455622,-0.457759,1.317280,77.97,1
46505,0,45762,45379,45768.84,45329.33,-6.84,49.67,-0.455622,-0.457761,1.318152,77.94,1
46545,0,45767,45382,45768.83,45329.43,-1.83,52.57,-0.455622,-0.457764,1.319008,77.91,1
46588,0,45761,45380,45768.82,45329.54,-7.82,50.46,-0.455621,-0.457766,1.319847,77.89,1
46624,0,45760,45382,45768.80,45329.64,-8.80,52.36,-0.455621,-0.457768,1.320670,77.86,1
46664,0,45758,45364,45768.78,45329.71,-10.78,34.29,-0.455621,-0.457770,1.321485,77.83,1
46705,0,45750,45356,45768.75,45329.77,-18.75,26.23,-0.455620,-0.457771,1.322294,77.81,1
46745,0,45742,45353,45768.70,45329.81,-26.70,23.19,-0.455619,-0.457772,1.323099,77.78,1
46787,0,45747,45354,45768.65,45329.86,-21.65,24.14,-0.455618,-0.457773,1.323900,77.75,1
46825,0,45746,45348,45768.61,45329.90,-22.61,18.10,-0.455617,-0.457774,1.324698,77.73,1
46865,0,45745,45343,45768.56,45329.93,-23.56,13.07,-0.455616,-0.457775,1.325493,77.70,1
46907,0,45743,45345,45768.51,45329.96,-25.51,15.04,-0.455615,-0.457775,1.326287,77.68,1
46946,0,45735,45346,45768.45,45330.00,-33.45,16.00,-0.455613,-0.457776,1.327079,77.65,1
46986,0,45737,45341,45768.38,45330.02,-31.38,10.98,-0.455612,-0.457777,1.327870,77.62,1
47026,0,45740,45345,45768.33,45330.05,-28.33,14.95,-0.455611,-0.457777,1.328659,77.60,1
47065,0,45740,45350,45768.27,45330.09,-28.27,19.91,-0.455610,-0.457778,1.329445,77.57,1
47106,0,45742,45349,45768.22,45330.13,-26.22,18.87,-0.455608,-0.457779,1.330229,77.55,1
47145,0,45745,45351,45768.18,45330.18,-23.18,20.82,-0.455607,-0.457780,1.331009,77.52,1
47187,0,45756,45360,45768.15,45330.24,-12.15,29.76,-0.455607,-0.457781,1.331781,77.50,1
47225,0,45758,45354,45768.13,45330.29,-10.13,23.71,-0.455606,-0.457782,1.332548,77.48,1
47265,0,45761,45353,45768.12,45330.33,-7.12,22.67,-0.455606,-0.457783,1.333310,77.45,1
47306,0,45759,45353,45768.11,45330.38,-9.11,22.62,-0.455606,-0.457784,1.334067,77.43,1
47345,0,45754,45351,45768.08,45330.42,-14.08,20.58,-0.455605,-0.457785,1.334820,77.40,1
47382,0,45750,45343,45768.04,45330.45,-18.04,12.55,-0.455604,-0.457786,1.335570,77.38,1
47422,0,45750,45340,45768.01,45330.47,-18.01,9.53,-0.455604,-0.457786,1.336317,77.36,1
47462,0,45750,45334,45767.97,45330.48,-17.97,3.52,-0.455603,-0.457787,1.337064,77.33,1
47506,0,45745,45324,45767.93,45330.46,-22.93,-6.46,-0.455602,-0.457786,1.337809,77.31,1
47547,0,45734,45316,45767.86,45330.44,-33.86,-14.44,-0.455601,-0.457786,1.338553,77.29,1
47590,0,45736,45316,45767.80,45330.41,-31.80,-14.41,-0.455599,-0.457785,1.339297,77.26,1
47626,0,45736,45320,45767.74,45330.39,-31.74,-10.39,-0.455598,-0.457785,1.340040,77.24,1
47667,0,45740,45322,45767.68,45330.37,-27.68,-8.38,-0.455597,-0.457784,1.340783,77.22,1
47707,0,45738,45325,45767.62,45330.37,-29.62,-5.37,-0.455595,-0.457784,1.341525,77.19,1
47746,0,45738,45322,45767.57,45330.35,-29.57,-8.35,-0.455594,-0.457784,1.342267,77.17,1
47789,0,45743,45327,45767.52,45330.35,-24.52,-3.35,-0.455593,-0.457784,1.343008,77.15,1
47826,0,45737,45327,45767.46,45330.34,-30.46,-3.34,-0.455592,-0.457784,1.343749,77.13,1
47864,0,45737,45333,45767.40,45330.35,-30.40,2.65,-0.455590,-0.457784,1.344491,77.10,1
47906,0,45745,45336,45767.36,45330.36,-22.36,5.64,-0.455590,-0.457784,1.345231,77.08,1
47946,0,45749,45333,45767.32,45330.37,-18.32,2.63,-0.455589,-0.457784,1.345970,77.06,1
47987,0,45752,45334,45767.29,45330.38,-15.29,3.62,-0.455588,-0.457784,1.346707,77.04,1
48026,0,45756,45339,45767.27,45330.40,-11.27,8.60,-0.455588,-0.457785,1.347443,77.02,1
48066,0,45751,45338,45767.24,45330.41,-16.24,7.59,-0.455587,-0.457785,1.348176,77.00,1
48106,0,45754,45336,45767.22,45330.43,-13.22,5.57,-0.455586,-0.457786,1.348907,76.97,1
48146,0,45752,45340,45767.19,45330.45,-15.19,9.55,-0.455586,-0.457786,1.349636,76.95,1
48188,0,45755,45338,45767.17,45330.46,-12.17,7.54,-0.455585,-0.457786,1.350363,76.93,1
48226,0,45754,45332,45767.14,45330.46,-13.14,1.54,-0.455585,-0.457786,1.351088,76.91,1
48267,0,45748,45330,45767.11,45330.46,-19.11,-0.46,-0.455584,-0.457786,1.351812,76.89,1
48307,0,45746,45330,45767.07,45330.46,-21.07,-0.46,-0.455583,-0.457786,1.352535,76.87,1
48348,0,45744,45314,45767.02,45330.43,-23.02,-16.43,-0.455582,-0.457786,1.353256,76.85,1
48389,0,45737,45311,45766.96,45330.39,-29.96,-19.39,-0.455581,-0.457785,1.353974,76.83,1
48429,0,45736,45317,45766.90,45330.37,-30.90,-13.37,-0.455580,-0.457784,1.354692,76.81,1
48467,0,45733,45316,45766.83,45330.34,-33.83,-14.34,-0.455578,-0.457784,1.355409,76.78,1
48509,0,45737,45320,45766.77,45330.32,-29.77,-10.32,-0.455577,-0.457783,1.356126,76.76,1
48547,0,45740,45323,45766.72,45330.31,-26.72,-7.31,-0.455576,-0.457783,1.356843,76.74,1
48590,0,45742,45329,45766.68,45330.31,-24.68,-1.31,-0.455575,-0.457783,1.357559,76.72,1
48627,0,45738,45324,45766.62,45330.30,-28.62,-6.30,-0.455573,-0.457783,1.358276,76.70,1
48668,0,45745,45332,45766.58,45330.30,-21.58,1.70,-0.455572,-0.457783,1.358992,76.68,1
48707,0,45742,45329,45766.53,45330.30,-24.53,-1.30,-0.455571,-0.457783,1.359708,76.66,1
48748,0,45742,45328,45766.48,45330.30,-24.48,-2.30,-0.455570,-0.457783,1.360424,76.64,1
48787,0,45746,45326,45766.45,45330.29,-20.45,-4.29,-0.455570,-0.457783,1.361138,76.62,1
48828,0,45746,45331,45766.41,45330.29,-20.41,0.71,-0.455569,-0.457783,1.361853,76.60,1
48868,0,45748,45336,45766.37,45330.30,-18.37,5.70,-0.455568,-0.457783,1.362565,76.58,1
48908,0,45750,45340,45766.34,45330.32,-16.34,9.68,-0.455567,-0.457783,1.363276,76.56,1
48947,0,45751,45335,45766.31,45330.34,-15.31,4.66,-0.455567,-0.457784,1.363985,76.54,1
48989,0,45748,45331,45766.27,45330.34,-18.27,0.66,-0.455566,-0.457784,1.364693,76.52,1
49027,0,45748,45330,45766.24,45330.34,-18.24,-0.34,-0.455565,-0.457784,1.365401,76.50,1
49069,0,45741,45339,45766.19,45330.36,-25.19,8.64,-0.455564,-0.457784,1.366108,76.48,1
49107,0,45745,45334,45766.14,45330.37,-21.14,3.63,-0.455563,-0.457784,1.366814,76.46,1
49149,0,45740,45331,45766.09,45330.37,-26.09,0.63,-0.455562,-0.457784,1.367520,76.44,1
49189,0,45738,45327,45766.04,45330.37,-28.04,-3.37,-0.455561,-0.457784,1.368228,76.42,1
49229,0,45735,45317,45765.98,45330.34,-30.98,-13.34,-0.455559,-0.457784,1.368935,76.40,1
49269,0,45729,45318,45765.90,45330.32,-36.90,-12.32,-0.455558,-0.457783,1.369643,76.39,1
49311,0,45735,45329,45765.84,45330.32,-30.84,-1.32,-0.455556,-0.457783,1.370353,76.37,1
49348,0,45737,45333,45765.79,45330.32,-28.79,2.68,-0.455555,-0.457783,1.371064,76.35,1
49390,0,45748,45338,45765.75,45330.34,-17.75,7.66,-0.455554,-0.457784,1.371773,76.33,1
49428,0,45741,45343,45765.70,45330.37,-24.70,12.63,-0.455553,-0.457784,1.372481,76.31,1
49470,0,45745,45351,45765.66,45330.41,-20.66,20.59,-0.455553,-0.457785,1.373184,76.29,1
49508,0,45751,45351,45765.64,45330.45,-14.64,20.55,-0.455552,-0.457786,1.373882,76.27,1
49549,0,45755,45357,45765.62,45330.51,-10.62,26.49,-0.455551,-0.457787,1.374570,76.25,1
49590,0,45763,45361,45765.61,45330.57,-2.61,30.43,-0.455551,-0.457789,1.375247,76.23,1
49629,0,45770,45361,45765.62,45330.63,4.37,30.37,-0.455552,-0.457790,1.375912,76.21,1
49670,0,45767,45372,45765.63,45330.71,1.37,41.29,-0.455552,-0.457792,1.376557,76.19,1
49709,0,45770,45373,45765.64,45330.80,4.36,42.20,-0.455552,-0.457794,1.377181,76.18,1
49748,0,45775,45377,45765.66,45330.89,9.34,46.11,-0.455552,-0.457796,1.377781,76.16,1
49789,0,45776,45380,45765.68,45330.99,10.32,49.01,-0.455553,-0.457798,1.378354,76.14,1
49828,0,45776,45384,45765.71,45331.10,10.29,52.90,-0.455553,-0.457800,1.378897,76.12,1
49870,0,45779,45384,45765.73,45331.20,13.27,52.80,-0.455554,-0.457803,1.379410,76.10,1
49909,0,45780,45390,45765.77,45331.32,14.23,58.68,-0.455555,-0.457805,1.379887,76.08,1
49950,0,45783,45395,45765.80,45331.45,17.20,63.55,-0.455555,-0.457808,1.380324,76.07,1
49986,0,45773,45386,45765.82,45331.56,7.18,54.44,-0.455556,-0.457810,1.380729,76.05,1
50030,0,45779,45400,45765.84,45331.70,13.16,68.30,-0.455556,-0.457814,1.381088,76.03,1
50071,0,45782,45396,45765.88,45331.82,16.12,64.18,-0.455557,-0.457816,1.381407,76.01,1
50109,0,45780,45391,45765.91,45331.95,14.09,59.05,-0.455558,-0.457819,1.381693,76.00,1
50149,0,45781,45398,45765.94,45332.08,15.06,65.92,-0.455559,-0.457822,1.381939,75.98,1
50190,0,45781,45400,45765.97,45332.21,15.03,67.79,-0.455559,-0.457825,1.382142,75.97,1
50230,0,45785,45407,45766.01,45332.37,18.99,74.63,-0.455560,-0.457828,1.382296,75.95,1
50270,0,45786,45407,45766.05,45332.52,19.95,74.48,-0.455561,-0.457832,1.382402,75.93,1
50309,0,45789,45411,45766.10,45332.68,22.90,78.32,-0.455562,-0.457835,1.382458,75.92,1
50350,0,45787,45408,45766.14,45332.83,20.86,75.17,-0.455563,-0.457839,1.382468,75.91,1
50391,0,45793,45411,45766.20,45332.98,26.80,78.02,-0.455564,-0.457842,1.382431,75.89,1
50430,0,45794,45413,45766.26,45333.14,27.74,79.86,-0.455565,-0.457846,1.382347,75.88,1
50470,0,45797,45417,45766.32,45333.31,30.68,83.69,-0.455567,-0.457849,1.382213,75.86,1
50512,0,45791,45412,45766.37,45333.47,24.63,78.53,-0.455568,-0.457853,1.382035,75.85,1
50551,0,45791,45410,45766.42,45333.62,24.58,76.37,-0.455569,-0.457856,1.381817,75.84,1
50589,0,45793,45411,45766.48,45333.78,26.52,77.22,-0.455570,-0.457860,1.381561,75.83,1
50629,0,45792,45408,45766.53,45333.93,25.47,74.07,-0.455571,-0.457863,1.381268,75.82,1
50673,0,45786,45406,45766.57,45334.07,19.43,71.93,-0.455572,-0.457866,1.380943,75.81,1
50709,0,45787,45406,45766.61,45334.22,20.39,71.78,-0.455573,-0.457869,1.380585,75.80,1
50751,0,45777,45397,45766.63,45334.34,10.37,62.66,-0.455574,-0.457872,1.380202,75.79,1
50791,0,45778,45396,45766.66,45334.47,11.34,61.53,-0.455574,-0.457875,1.379796,75.78,1
50830,0,45772,45392,45766.67,45334.59,5.33,57.41,-0.455574,-0.457877,1.379369,75.77,1
50870,0,45765,45388,45766.66,45334.70,-1.66,53.30,-0.455574,-0.457880,1.378926,75.77,1
50911,0,45763,45387,45766.66,45334.80,-3.66,52.20,-0.455574,-0.457882,1.378465,75.76,1
50950,0,45766,45382,45766.66,45334.89,-0.66,47.11,-0.455574,-0.457884,1.377992,75.75,1
50990,0,45765,45387,45766.65,45335.00,-1.65,52.00,-0.455574,-0.457886,1.377503,75.75,1
51031,0,45760,45388,45766.64,45335.11,-6.64,52.89,-0.455574,-0.457889,1.376997,75.74,1
51072,0,45763,45391,45766.63,45335.22,-3.63,55.78,-0.455574,-0.457891,1.376473,75.74,1
51110,0,45772,45393,45766.64,45335.34,5.36,57.66,-0.455574,-0.457894,1.375930,75.73,1
51151,0,45772,45392,45766.66,45335.45,5.34,56.55,-0.455574,-0.457896,1.375368,75.73,1
51191,0,45771,45386,45766.67,45335.55,4.33,50.45,-0.455574,-0.457899,1.374792,75.73,1
51231,0,45767,45385,45766.67,45335.65,0.33,49.35,-0.455574,-0.457901,1.374202,75.72,1
51272,0,45764,45383,45766.66,45335.75,-2.66,47.25,-0.455574,-0.457903,1.373600,75.72,1
51311,0,45765,45386,45766.66,45335.85,-1.66,50.15,-0.455574,-0.457905,1.372984,75.72,1
51350,0,45767,45378,45766.66,45335.94,0.34,42.06,-0.455574,-0.457907,1.372359,75.72,1
51392,0,45766,45379,45766.66,45336.02,-0.66,42.98,-0.455574,-0.457909,1.371725,75.72,1
51430,0,45762,45374,45766.65,45336.10,-4.65,37.90,-0.455574,-0.457911,1.371083,75.72,1
51472,0,45759,45378,45766.64,45336.19,-7.64,41.81,-0.455574,-0.457913,1.370433,75.72,1
51511,0,45751,45359,45766.61,45336.23,-15.61,22.77,-0.455573,-0.457914,1.369783,75.72,1
51552,0,45738,45351,45766.55,45336.27,-28.55,14.73,-0.455572,-0.457914,1.369137,75.72,1
51593,0,45735,45356,45766.49,45336.30,-31.49,19.70,-0.455571,-0.457915,1.368495,75.72,1
51632,0,45740,45365,45766.44,45336.36,-26.44,28.64,-0.455569,-0.457917,1.367853,75.73,1
51673,0,45745,45358,45766.39,45336.41,-21.39,21.59,-0.455568,-0.457917,1.367212,75.73,1
51710,0,45729,45346,45766.32,45336.43,-37.32,9.57,-0.455567,-0.457918,1.366580,75.73,1
51751,0,45730,45351,45766.25,45336.46,-36.25,14.54,-0.455565,-0.457919,1.365954,75.74,1
51790,0,45734,45356,45766.19,45336.50,-32.19,19.50,-0.455564,-0.457919,1.365332,75.74,1
51831,0,45738,45366,45766.13,45336.55,-28.13,29.45,-0.455563,-0.457921,1.364711,75.74,1
51872,0,45746,45372,45766.09,45336.62,-20.09,35.38,-0.455562,-0.457922,1.364085,75.75,1
51912,0,45751,45369,45766.07,45336.69,-15.07,32.31,-0.455561,-0.457924,1.363454,75.75,1
51953,0,45754,45366,45766.04,45336.75,-12.04,29.25,-0.455561,-0.457925,1.362821,75.76,1
51992,0,45758,45365,45766.03,45336.81,-8.03,28.19,-0.455560,-0.457926,1.362184,75.76,1
52034,0,45757,45370,45766.01,45336.87,-9.01,33.13,-0.455560,-0.457928,1.361542,75.77,1
52073,0,45752,45370,45765.98,45336.94,-13.98,33.06,-0.455559,-0.457929,1.360896,75.78,1
52112,0,45753,45367,45765.96,45337.00,-12.96,30.00,-0.455559,-0.457931,1.360246,75.78,1
52151,0,45754,45364,45765.94,45337.06,-11.94,26.94,-0.455558,-0.457932,1.359594,75.79,1
52192,0,45750,45362,45765.91,45337.11,-15.91,24.89,-0.455558,-0.457933,1.358940,75.80,1
52232,0,45751,45363,45765.88,45337.16,-14.88,25.84,-0.455557,-0.457934,1.358285,75.80,1
52272,0,45757,45365,45765.86,45337.22,-8.86,27.78,-0.455557,-0.457935,1.357627,75.81,1
52312,0,45750,45359,45765.83,45337.27,-15.83,21.73,-0.455556,-0.457936,1.356969,75.82,1
52354,0,45749,45363,45765.80,45337.32,-16.80,25.68,-0.455555,-0.457937,1.356310,75.83,1
52392,0,45751,45369,45765.77,45337.38,-14.77,31.62,-0.455555,-0.457939,1.355646,75.84,1
52433,0,45750,45371,45765.74,45337.45,-15.74,33.55,-0.455554,-0.457941,1.354978,75.85,1
52473,0,45753,45370,45765.72,45337.52,-12.72,32.48,-0.455554,-0.457942,1.354305,75.85,1
52514,0,45753,45366,45765.70,45337.58,-12.70,28.42,-0.455553,-0.457943,1.353629,75.86,1
52553,0,45751,45361,45765.67,45337.62,-14.67,23.37,-0.455553,-0.457944,1.352952,75.87,1
52592,0,45747,45366,45765.63,45337.68,-18.63,28.32,-0.455552,-0.457946,1.352274,75.88,1
52632,0,45750,45372,45765.60,45337.75,-15.60,34.25,-0.455551,-0.457947,1.351590,75.89,1
52674,0,45756,45373,45765.58,45337.82,-9.58,35.18,-0.455551,-0.457949,1.350899,75.90,1
52713,0,45760,45368,45765.57,45337.89,-5.57,30.11,-0.455550,-0.457950,1.350204,75.91,1
52753,0,45765,45369,45765.57,45337.95,-0.57,31.05,-0.455550,-0.457951,1.349503,75.92,1
52792,0,45764,45374,45765.57,45338.02,-1.57,35.98,-0.455550,-0.457953,1.348795,75.93,1
52833,0,45765,45380,45765.57,45338.11,-0.57,41.89,-0.455550,-0.457955,1.348076,75.94,1
52874,0,45768,45375,45765.57,45338.18,2.43,36.82,-0.455551,-0.457957,1.347349,75.96,1
52913,0,45770,45375,45765.59,45338.26,4.41,36.74,-0.455551,-0.457958,1.346614,75.97,1
52952,0,45768,45369,45765.59,45338.32,2.41,30.68,-0.455551,-0.457960,1.345874,75.98,1
52993,0,45757,45367,45765.58,45338.38,-8.58,28.62,-0.455551,-0.457961,1.345131,75.99,1
53033,0,45761,45371,45765.57,45338.45,-4.57,32.55,-0.455550,-0.457962,1.344382,76.00,1
53075,0,45763,45369,45765.57,45338.51,-2.57,30.49,-0.455550,-0.457964,1.343628,76.01,1
53113,0,45760,45373,45765.55,45338.58,-5.55,34.42,-0.455550,-0.457965,1.342867,76.03,1
53154,0,45762,45369,45765.55,45338.64,-3.55,30.36,-0.455550,-0.457967,1.342102,76.04,1
53193,0,45756,45378,45765.53,45338.72,-9.53,39.28,-0.455549,-0.457968,1.341328,76.05,1
53234,0,45760,45377,45765.52,45338.80,-5.52,38.20,-0.455549,-0.457970,1.340545,76.07,1
53274,0,45755,45373,45765.50,45338.87,-10.50,34.13,-0.455549,-0.457972,1.339756,76.08,1
53313,0,45764,45376,45765.50,45338.94,-1.50,37.06,-0.455549,-0.457973,1.338959,76.09,1
53355,0,45758,45384,45765.48,45339.03,-7.48,44.97,-0.455549,-0.457975,1.338149,76.11,1
53394,0,45765,45381,45765.48,45339.12,-0.48,41.88,-0.455549,-0.457977,1.337328,76.12,1
53433,0,45761,45376,45765.47,45339.19,-4.47,36.81,-0.455548,-0.457979,1.336500,76.13,1
53476,0,45767,45374,45765.48,45339.26,1.52,34.74,-0.455548,-0.457980,1.335664,76.15,1
53514,0,45771,45372,45765.49,45339.33,5.51,32.67,-0.455549,-0.457982,1.334823,76.16,1
53554,0,45773,45375,45765.50,45339.40,7.50,35.60,-0.455549,-0.457983,1.333976,76.18,1
53594,0,45774,45384,45765.52,45339.49,8.48,44.51,-0.455549,-0.457986,1.333116,76.19,1
53634,0,45773,45384,45765.54,45339.58,7.46,44.42,-0.455550,-0.457987,1.332244,76.21,1
53673,0,45782,45382,45765.57,45339.67,16.43,42.33,-0.455551,-0.457989,1.331363,76.22,1
53714,0,45777,45379,45765.60,45339.75,11.40,39.25,-0.455551,-0.457991,1.330474,76.24,1
53753,0,45775,45379,45765.62,45339.82,9.38,39.18,-0.455551,-0.457993,1.329576,76.25,1
53795,0,45773,45380,45765.63,45339.91,7.37,40.09,-0.455552,-0.457995,1.328669,76.27,1
53834,0,45776,45382,45765.66,45339.99,10.34,42.01,-0.455552,-0.457997,1.327753,76.29,1
53871,0,45773,45386,45765.67,45340.09,7.33,45.91,-0.455553,-0.457999,1.326823,76.30,1
53916,0,45779,45390,45765.70,45340.19,13.30,49.81,-0.455553,-0.458001,1.325879,76.32,1
53952,0,45783,45397,45765.73,45340.30,17.27,56.70,-0.455554,-0.458003,1.324917,76.34,1
53992,0,45782,45404,45765.77,45340.43,16.23,63.57,-0.455555,-0.458006,1.323929,76.35,1
54034,0,45784,45408,45765.81,45340.57,18.19,67.43,-0.455556,-0.458009,1.322914,76.37,1
54074,0,45791,45412,45765.86,45340.71,25.14,71.29,-0.455557,-0.458012,1.321872,76.39,1
54114,0,45799,45423,45765.93,45340.87,33.07,82.12,-0.455558,-0.458016,1.320794,76.40,1
54155,0,45805,45436,45766.00,45341.07,39.00,94.93,-0.455560,-0.458020,1.319672,76.42,1
54194,0,45811,45436,45766.09,45341.26,44.91,94.74,-0.455562,-0.458024,1.318511,76.44,1
54236,0,45818,45449,45766.20,45341.47,51.80,107.53,-0.455564,-0.458029,1.317304,76.46,1
