t_ms,phase,red_raw,ir_raw,red_dc,ir_dc,red_ac,ir_ac,OD_red,OD_ir,OD_red_slide,OD_ir_slide,R,spo2,spo2_valid
28,0,50898,54731,50626.62,54327.82,271.38,403.18,-1.384683,-1.384835,-0.186130,-0.188834,0.585150,95.59,1
71,0,50901,54754,50627.17,54328.68,273.83,425.32,-1.384694,-1.384851,-0.186038,-0.188746,0.585399,95.58,1
113,0,50911,54777,50627.74,54329.57,283.26,447.43,-1.384705,-1.384867,-0.185947,-0.188659,0.585648,95.58,1
152,0,50924,54811,50628.34,54330.54,295.66,480.46,-1.384717,-1.384885,-0.185857,-0.188573,0.585895,95.57,1
193,0,50945,54844,50628.97,54331.57,316.03,512.43,-1.384730,-1.384904,-0.185767,-0.188488,0.586142,95.56,1
233,0,50959,54866,50629.63,54332.64,329.37,533.36,-1.384743,-1.384924,-0.185678,-0.188404,0.586387,95.56,1
272,0,50965,54894,50630.30,54333.76,334.70,560.24,-1.384756,-1.384944,-0.185590,-0.188321,0.586629,95.55,1
312,0,50972,54918,50630.98,54334.93,341.02,583.07,-1.384769,-1.384966,-0.185501,-0.188239,0.586866,95.54,1
353,0,50985,54938,50631.70,54336.14,353.30,601.86,-1.384783,-1.384988,-0.185413,-0.188158,0.587098,95.54,1
392,0,50993,54947,50632.42,54337.36,360.58,609.64,-1.384798,-1.385011,-0.185326,-0.188077,0.587327,95.53,1
432,0,51004,54935,50633.16,54338.55,370.84,596.45,-1.384812,-1.385033,-0.185239,-0.187995,0.587555,95.52,1
472,0,50963,54786,50633.82,54339.45,329.18,446.55,-1.384825,-1.385049,-0.185150,-0.187908,0.587791,95.52,1
514,0,50909,54703,50634.37,54340.18,274.62,362.82,-1.384836,-1.385063,-0.185059,-0.187818,0.588032,95.51,1
554,0,50897,54695,50634.90,54340.89,262.10,354.11,-1.384847,-1.385076,-0.184968,-0.187728,0.588277,95.50,1
593,0,50915,54714,50635.46,54341.63,279.54,372.37,-1.384858,-1.385089,-0.184878,-0.187639,0.588527,95.50,1
632,0,50918,54722,50636.03,54342.39,281.97,379.61,-1.384869,-1.385103,-0.184787,-0.187549,0.588782,95.49,1
673,0,50931,54723,50636.62,54343.16,294.38,379.84,-1.384881,-1.385117,-0.184698,-0.187460,0.589044,95.48,1
714,0,50944,54762,50637.24,54344.00,306.76,418.00,-1.384893,-1.385133,-0.184608,-0.187373,0.589310,95.48,1
752,0,50957,54766,50637.88,54344.84,319.12,421.16,-1.384906,-1.385148,-0.184520,-0.187285,0.589583,95.47,1
791,0,50959,54772,50638.52,54345.70,320.48,426.30,-1.384918,-1.385164,-0.184431,-0.187198,0.589863,95.46,1
832,0,50961,54767,50639.17,54346.54,321.83,420.46,-1.384931,-1.385180,-0.184343,-0.187111,0.590148,95.46,1
873,0,50967,54793,50639.82,54347.43,327.18,445.57,-1.384944,-1.385196,-0.184254,-0.187024,0.590439,95.45,1
914,0,50976,54803,50640.50,54348.35,335.50,454.65,-1.384957,-1.385213,-0.184166,-0.186938,0.590736,95.44,1
953,0,50989,54822,50641.20,54349.30,347.80,472.70,-1.384971,-1.385230,-0.184079,-0.186853,0.591037,95.44,1
998,0,50991,54832,50641.89,54350.27,349.11,481.73,-1.384985,-1.385248,-0.183992,-0.186768,0.591344,95.43,1
1033,0,50996,54862,50642.61,54351.29,353.39,510.71,-1.384999,-1.385267,-0.183905,-0.186684,0.591653,95.42,1
1074,0,51002,54869,50643.32,54352.32,358.68,516.68,-1.385013,-1.385286,-0.183818,-0.186601,0.591965,95.42,1
1114,0,51005,54889,50644.05,54353.40,360.95,535.60,-1.385027,-1.385306,-0.183732,-0.186518,0.592277,95.41,1
1154,0,51018,54897,50644.80,54354.49,373.20,542.51,-1.385042,-1.385326,-0.183646,-0.186435,0.592593,95.40,1
1193,0,51025,54908,50645.56,54355.60,379.44,552.40,-1.385057,-1.385346,-0.183560,-0.186353,0.592910,95.40,1
1231,0,50993,54744,50646.26,54356.37,346.74,387.62,-1.385071,-1.385361,-0.183473,-0.186265,0.593238,95.39,1
1270,0,50921,54632,50646.81,54356.93,274.19,275.07,-1.385082,-1.385371,-0.183383,-0.186173,0.593573,95.38,1
1313,0,50899,54610,50647.31,54357.43,251.69,252.57,-1.385092,-1.385380,-0.183292,-0.186080,0.593915,95.38,1
1353,0,50916,54643,50647.85,54358.01,268.15,284.99,-1.385103,-1.385391,-0.183203,-0.185989,0.594263,95.37,1
1394,0,50935,54651,50648.43,54358.59,286.57,292.41,-1.385114,-1.385401,-0.183113,-0.185897,0.594618,95.36,1
1433,0,50943,54663,50649.02,54359.20,293.98,303.80,-1.385126,-1.385413,-0.183025,-0.185806,0.594983,95.36,1
1473,0,50959,54683,50649.64,54359.85,309.36,323.15,-1.385138,-1.385424,-0.182936,-0.185716,0.595355,95.35,1
1513,0,50966,54691,50650.27,54360.52,315.73,330.48,-1.385150,-1.385437,-0.182849,-0.185626,0.595737,95.34,1
1556,0,50970,54692,50650.91,54361.18,319.09,330.82,-1.385163,-1.385449,-0.182761,-0.185536,0.596128,95.33,1
1593,0,50964,54687,50651.54,54361.83,312.46,325.17,-1.385175,-1.385461,-0.182673,-0.185446,0.596528,95.33,1
1633,0,50970,54697,50652.18,54362.50,317.82,334.50,-1.385188,-1.385473,-0.182586,-0.185357,0.596936,95.32,1
1673,0,50965,54700,50652.80,54363.18,312.20,336.82,-1.385200,-1.385486,-0.182498,-0.185268,0.597352,95.31,1
1715,0,50966,54711,50653.43,54363.87,312.57,347.12,-1.385213,-1.385499,-0.182410,-0.185179,0.597774,95.30,1
1753,0,50970,54723,50654.07,54364.59,315.93,358.41,-1.385225,-1.385512,-0.182323,-0.185090,0.598203,95.30,1
1792,0,50967,54727,50654.70,54365.32,312.30,361.68,-1.385238,-1.385525,-0.182235,-0.185002,0.598638,95.29,1
1833,0,50962,54731,50655.31,54366.05,306.69,364.95,-1.385250,-1.385539,-0.182147,-0.184914,0.599077,95.28,1
1874,0,50961,54737,50655.93,54366.80,305.07,370.20,-1.385262,-1.385552,-0.182059,-0.184826,0.599519,95.27,1
1916,0,50961,54744,50656.54,54367.55,304.46,376.45,-1.385274,-1.385566,-0.181972,-0.184738,0.599966,95.26,1
1954,0,50956,54748,50657.14,54368.31,298.86,379.69,-1.385286,-1.385580,-0.181884,-0.184651,0.600414,95.26,1
1997,0,50949,54641,50657.73,54368.86,291.27,272.14,-1.385297,-1.385590,-0.181796,-0.184560,0.600871,95.25,1
2032,0,50871,54511,50658.16,54369.14,212.84,141.86,-1.385306,-1.385595,-0.181704,-0.184463,0.601333,95.24,1
2071,0,50842,54484,50658.52,54369.37,183.48,114.62,-1.385313,-1.385600,-0.181612,-0.184366,0.601798,95.23,1
2114,0,50845,54521,50658.90,54369.68,186.10,151.32,-1.385321,-1.385605,-0.181520,-0.184271,0.602267,95.22,1
2152,0,50864,54540,50659.31,54370.02,204.69,169.98,-1.385329,-1.385612,-0.181429,-0.184176,0.602740,95.21,1
2194,0,50872,54563,50659.73,54370.41,212.27,192.59,-1.385337,-1.385619,-0.181338,-0.184082,0.603217,95.20,1
2234,0,50883,54588,50660.18,54370.85,222.82,217.15,-1.385346,-1.385627,-0.181247,-0.183989,0.603697,95.20,1
2274,0,50896,54615,50660.66,54371.34,235.34,243.66,-1.385355,-1.385636,-0.181157,-0.183897,0.604181,95.19,1
2316,0,50902,54618,50661.14,54371.83,240.86,246.17,-1.385365,-1.385645,-0.181067,-0.183805,0.604669,95.18,1
2355,0,50902,54631,50661.62,54372.35,240.37,258.65,-1.385374,-1.385654,-0.180978,-0.183714,0.605160,95.17,1
2397,0,50913,54657,50662.13,54372.92,250.87,284.08,-1.385384,-1.385665,-0.180888,-0.183624,0.605654,95.16,1
2434,0,50930,54687,50662.66,54373.55,267.34,313.45,-1.385395,-1.385677,-0.180800,-0.183535,0.606151,95.15,1
2475,0,50942,54713,50663.22,54374.23,278.78,338.77,-1.385406,-1.385689,-0.180712,-0.183446,0.606650,95.14,1
2515,0,50955,54747,50663.81,54374.98,291.19,372.02,-1.385417,-1.385703,-0.180624,-0.183359,0.607150,95.13,1
2555,0,50965,54776,50664.41,54375.78,300.59,400.22,-1.385429,-1.385718,-0.180537,-0.183274,0.607650,95.12,1
2595,0,50978,54806,50665.04,54376.64,312.96,429.36,-1.385442,-1.385733,-0.180451,-0.183189,0.608149,95.11,1
2634,0,50988,54828,50665.69,54377.55,322.31,450.45,-1.385455,-1.385750,-0.180365,-0.183105,0.608646,95.10,1
2674,0,51000,54864,50666.36,54378.52,333.64,485.48,-1.385468,-1.385768,-0.180279,-0.183022,0.609139,95.09,1
2718,0,51003,54790,50667.04,54379.34,335.96,410.66,-1.385481,-1.385783,-0.180194,-0.182937,0.609636,95.08,1
2754,0,50948,54695,50667.60,54379.98,280.40,315.02,-1.385492,-1.385795,-0.180106,-0.182849,0.610136,95.07,1
2795,0,50924,54674,50668.12,54380.57,255.88,293.43,-1.385502,-1.385805,-0.180018,-0.182759,0.610639,95.06,1
2835,0,50930,54710,50668.64,54381.23,261.36,328.77,-1.385513,-1.385818,-0.179930,-0.182671,0.611142,95.05,1
2876,0,50949,54731,50669.20,54381.93,279.80,349.07,-1.385524,-1.385831,-0.179842,-0.182584,0.611647,95.04,1
2917,0,50957,54748,50669.78,54382.66,287.22,365.34,-1.385535,-1.385844,-0.179755,-0.182497,0.612152,95.03,1
2955,0,50964,54771,50670.37,54383.44,293.63,387.56,-1.385547,-1.385858,-0.179668,-0.182411,0.612658,95.02,1
2996,0,50977,54790,50670.98,54384.25,306.02,405.75,-1.385559,-1.385873,-0.179582,-0.182326,0.613163,95.01,1
3035,0,50976,54794,50671.60,54385.07,304.40,408.93,-1.385571,-1.385888,-0.179496,-0.182241,0.613667,95.00,1
3074,0,50973,54800,50672.20,54385.91,300.80,414.09,-1.385583,-1.385904,-0.179409,-0.182157,0.614170,94.99,1
3115,0,50978,54821,50672.82,54386.78,305.18,434.22,-1.385595,-1.385920,-0.179323,-0.182073,0.614670,94.98,1
3155,0,50990,54846,50673.45,54387.70,316.55,458.30,-1.385608,-1.385937,-0.179238,-0.181990,0.615166,94.97,1
3197,0,51000,54873,50674.11,54388.67,325.89,484.33,-1.385621,-1.385954,-0.179152,-0.181908,0.615658,94.96,1
3239,0,51004,54883,50674.77,54389.66,329.23,493.34,-1.385634,-1.385973,-0.179067,-0.181826,0.616144,94.95,1
3274,0,51013,54902,50675.45,54390.68,337.55,511.32,-1.385647,-1.385992,-0.178983,-0.181746,0.616625,94.93,1
3315,0,51010,54916,50676.12,54391.73,333.88,524.27,-1.385661,-1.386011,-0.178898,-0.181665,0.617099,94.92,1
3356,0,51012,54930,50676.79,54392.81,335.21,537.19,-1.385674,-1.386031,-0.178813,-0.181586,0.617565,94.91,1
3397,0,51013,54933,50677.46,54393.89,335.54,539.11,-1.385687,-1.386051,-0.178729,-0.181506,0.618022,94.90,1
3437,0,51018,54925,50678.15,54394.96,339.85,530.04,-1.385700,-1.386070,-0.178644,-0.181426,0.618474,94.89,1
3474,0,50984,54798,50678.76,54395.77,305.24,402.23,-1.385713,-1.386085,-0.178559,-0.181341,0.618925,94.88,1
3515,0,50936,54732,50679.28,54396.44,256.72,335.56,-1.385723,-1.386097,-0.178471,-0.181254,0.619377,94.87,1
3553,0,50914,54733,50679.75,54397.12,234.25,335.88,-1.385732,-1.386110,-0.178383,-0.181167,0.619827,94.86,1
3595,0,50929,54750,50680.25,54397.82,248.75,352.18,-1.385742,-1.386123,-0.178295,-0.181081,0.620275,94.85,1
3634,0,50935,54752,50680.76,54398.54,254.24,353.46,-1.385752,-1.386136,-0.178208,-0.180995,0.620722,94.84,1
3676,0,50938,54762,50681.28,54399.26,256.72,362.74,-1.385762,-1.386149,-0.178120,-0.180909,0.621168,94.83,1
3715,0,50945,54783,50681.80,54400.03,263.20,382.97,-1.385773,-1.386163,-0.178033,-0.180824,0.621611,94.81,1
3755,0,50950,54790,50682.34,54400.81,267.66,389.19,-1.385783,-1.386178,-0.177946,-0.180739,0.622051,94.80,1
3796,0,50951,54792,50682.88,54401.60,268.12,390.40,-1.385794,-1.386192,-0.177860,-0.180655,0.622489,94.79,1
3835,0,50951,54792,50683.42,54402.38,267.58,389.62,-1.385805,-1.386207,-0.177773,-0.180570,0.622925,94.78,1
3878,0,50951,54808,50683.96,54403.19,267.04,404.81,-1.385815,-1.386221,-0.177686,-0.180486,0.623358,94.77,1
3918,0,50956,54805,50684.50,54404.00,271.50,401.00,-1.385826,-1.386236,-0.177600,-0.180402,0.623787,94.76,1
3957,0,50961,54824,50685.06,54404.84,275.94,419.16,-1.385837,-1.386252,-0.177514,-0.180319,0.624214,94.75,1
3997,0,50961,54841,50685.61,54405.71,275.39,435.29,-1.385848,-1.386268,-0.177428,-0.180236,0.624635,94.74,1
4035,0,50969,54856,50686.18,54406.61,282.82,449.39,-1.385859,-1.386284,-0.177342,-0.180154,0.625051,94.73,1
4081,0,50970,54872,50686.75,54407.55,283.25,464.45,-1.385870,-1.386302,-0.177256,-0.180072,0.625461,94.72,1
4114,0,50977,54891,50687.33,54408.52,289.67,482.48,-1.385882,-1.386319,-0.177170,-0.179992,0.625864,94.71,1
4156,0,50980,54898,50687.92,54409.50,292.08,488.50,-1.385893,-1.386337,-0.177085,-0.179911,0.626261,94.69,1
4198,0,50983,54875,50688.51,54410.43,294.49,464.57,-1.385905,-1.386355,-0.177000,-0.179830,0.626652,94.68,1
4235,0,50929,54743,50688.99,54411.10,240.01,331.90,-1.385914,-1.386367,-0.176913,-0.179743,0.627043,94.67,1
4274,0,50890,54687,50689.39,54411.65,200.61,275.35,-1.385922,-1.386377,-0.176824,-0.179655,0.627434,94.66,1
4316,0,50873,54692,50689.76,54412.21,183.24,279.79,-1.385929,-1.386387,-0.176734,-0.179567,0.627822,94.65,1
4360,0,50897,54709,50690.17,54412.81,206.83,296.19,-1.385938,-1.386398,-0.176646,-0.179480,0.628209,94.64,1
4395,0,50900,54713,50690.59,54413.41,209.41,299.59,-1.385946,-1.386409,-0.176558,-0.179392,0.628594,94.63,1
4436,0,50908,54715,50691.03,54414.02,216.97,300.98,-1.385955,-1.386420,-0.176470,-0.179305,0.628979,94.62,1
4478,0,50916,54740,50691.48,54414.67,224.52,325.33,-1.385964,-1.386432,-0.176382,-0.179219,0.629362,94.61,1
4516,0,50917,54748,50691.94,54415.34,225.06,332.66,-1.385973,-1.386445,-0.176295,-0.179133,0.629744,94.60,1
4554,0,50922,54752,50692.40,54416.01,229.60,335.99,-1.385982,-1.386457,-0.176207,-0.179048,0.630123,94.59,1
4594,0,50921,54759,50692.86,54416.70,228.14,342.30,-1.385991,-1.386470,-0.176120,-0.178962,0.630501,94.58,1
4634,0,50931,54772,50693.33,54417.41,237.67,354.59,-1.386000,-1.386483,-0.176033,-0.178877,0.630876,94.57,1
4675,0,50934,54780,50693.82,54418.14,240.18,361.86,-1.386010,-1.386496,-0.175947,-0.178793,0.631249,94.56,1
4714,0,50936,54800,50694.30,54418.90,241.70,381.10,-1.386019,-1.386510,-0.175860,-0.178709,0.631619,94.55,1
4755,0,50942,54819,50694.80,54419.70,247.20,399.30,-1.386029,-1.386525,-0.175774,-0.178626,0.631984,94.54,1
4796,0,50947,54834,50695.30,54420.53,251.70,413.47,-1.386039,-1.386540,-0.175687,-0.178543,0.632345,94.53,1
4838,0,50954,54848,50695.82,54421.39,258.18,426.61,-1.386049,-1.386556,-0.175602,-0.178461,0.632701,94.51,1
4878,0,50959,54866,50696.35,54422.28,262.65,443.72,-1.386060,-1.386572,-0.175516,-0.178380,0.633051,94.50,1
4917,0,50965,54878,50696.89,54423.19,268.11,454.81,-1.386070,-1.386589,-0.175431,-0.178299,0.633395,94.49,1
4957,0,50977,54876,50697.45,54424.10,279.55,451.90,-1.386081,-1.386606,-0.175346,-0.178218,0.633734,94.48,1
5000,0,50937,54759,50697.93,54424.77,239.07,334.23,-1.386091,-1.386618,-0.175260,-0.178133,0.634073,94.47,1
5042,0,50883,54682,50698.30,54425.29,184.70,256.71,-1.386098,-1.386628,-0.175171,-0.178045,0.634412,94.46,1
5078,0,50873,54683,50698.65,54425.80,174.35,257.20,-1.386105,-1.386637,-0.175083,-0.177957,0.634749,94.45,1
5118,0,50886,54705,50699.03,54426.36,186.97,278.64,-1.386112,-1.386647,-0.174994,-0.177870,0.635085,94.44,1
5158,0,50897,54717,50699.43,54426.94,197.57,290.06,-1.386120,-1.386658,-0.174907,-0.177783,0.635419,94.43,1
5199,0,50899,54724,50699.83,54427.54,199.17,296.46,-1.386128,-1.386669,-0.174819,-0.177697,0.635752,94.42,1
5239,0,50905,54755,50700.24,54428.19,204.76,326.81,-1.386136,-1.386681,-0.174732,-0.177612,0.636082,94.41,1
5277,0,50916,54763,50700.67,54428.86,215.33,334.14,-1.386145,-1.386693,-0.174645,-0.177527,0.636410,94.40,1
5317,0,50925,54773,50701.12,54429.55,223.88,343.45,-1.386154,-1.386706,-0.174558,-0.177443,0.636736,94.40,1
5357,0,50927,54774,50701.57,54430.25,225.43,343.75,-1.386163,-1.386719,-0.174472,-0.177358,0.637059,94.39,1
5398,0,50935,54786,50702.04,54430.96,232.96,355.04,-1.386172,-1.386732,-0.174386,-0.177274,0.637381,94.38,1
5437,0,50939,54800,50702.52,54431.70,236.48,368.30,-1.386181,-1.386745,-0.174300,-0.177191,0.637700,94.37,1
5481,0,50944,54816,50703.00,54432.47,241.00,383.53,-1.386191,-1.386760,-0.174214,-0.177108,0.638016,94.36,1
5516,0,50942,54827,50703.48,54433.26,238.52,393.74,-1.386200,-1.386774,-0.174129,-0.177026,0.638328,94.35,1
5558,0,50956,54846,50703.99,54434.09,252.01,411.91,-1.386210,-1.386789,-0.174044,-0.176944,0.638636,94.34,1
5601,0,50955,54857,50704.50,54434.93,250.50,422.07,-1.386220,-1.386805,-0.173958,-0.176863,0.638939,94.33,1
5639,0,50965,54874,50705.02,54435.81,259.98,438.19,-1.386231,-1.386821,-0.173874,-0.176783,0.639237,94.32,1
5678,0,50971,54888,50705.55,54436.72,265.45,451.28,-1.386241,-1.386838,-0.173789,-0.176702,0.639530,94.31,1
5716,0,50970,54912,50706.09,54437.67,263.91,474.33,-1.386252,-1.386855,-0.173705,-0.176623,0.639816,94.30,1
5758,0,50968,54807,50706.61,54438.41,261.39,368.59,-1.386262,-1.386869,-0.173620,-0.176540,0.640101,94.29,1
5801,0,50902,54710,50707.00,54438.95,195.00,271.05,-1.386270,-1.386879,-0.173533,-0.176454,0.640386,94.28,1
5838,0,50873,54661,50707.33,54439.40,165.67,221.60,-1.386276,-1.386887,-0.173445,-0.176366,0.640672,94.27,1
5880,0,50877,54682,50707.67,54439.89,169.33,242.11,-1.386283,-1.386896,-0.173357,-0.176278,0.640956,94.26,1
5916,0,50883,54686,50708.02,54440.38,174.98,245.62,-1.386290,-1.386905,-0.173270,-0.176191,0.641240,94.26,1
5959,0,50887,54699,50708.38,54440.90,178.62,258.10,-1.386297,-1.386914,-0.173182,-0.176104,0.641524,94.25,1
5998,0,50889,54729,50708.75,54441.48,180.25,287.52,-1.386304,-1.386925,-0.173095,-0.176018,0.641805,94.24,1
6039,0,50909,54743,50709.15,54442.08,199.85,300.92,-1.386312,-1.386936,-0.173008,-0.175933,0.642085,94.23,1
6079,0,50908,54740,50709.55,54442.68,198.45,297.32,-1.386320,-1.386947,-0.172922,-0.175848,0.642364,94.22,1
6118,0,50910,54740,50709.95,54443.28,200.05,296.72,-1.386328,-1.386958,-0.172835,-0.175763,0.642642,94.21,1
6158,0,50903,54745,50710.34,54443.88,192.66,301.12,-1.386335,-1.386969,-0.172749,-0.175678,0.642918,94.20,1
6200,0,50908,54756,50710.73,54444.51,197.27,311.49,-1.386343,-1.386981,-0.172662,-0.175593,0.643193,94.20,1
6238,0,50913,54764,50711.14,54445.15,201.86,318.85,-1.386351,-1.386992,-0.172576,-0.175509,0.643465,94.19,1
6278,0,50911,54767,50711.54,54445.79,199.46,321.21,-1.386359,-1.387004,-0.172490,-0.175425,0.643734,94.18,1
6318,0,50915,54781,50711.95,54446.46,203.05,334.54,-1.386367,-1.387017,-0.172404,-0.175342,0.644001,94.17,1
6361,0,50921,54790,50712.37,54447.15,208.63,342.85,-1.386376,-1.387029,-0.172318,-0.175258,0.644265,94.16,1
6395,0,50923,54802,50712.79,54447.86,210.21,354.14,-1.386384,-1.387042,-0.172232,-0.175176,0.644526,94.15,1
6438,0,50927,54802,50713.22,54448.57,213.78,353.43,-1.386392,-1.387055,-0.172147,-0.175093,0.644783,94.15,1
6476,0,50923,54803,50713.64,54449.29,209.36,353.71,-1.386401,-1.387068,-0.172061,-0.175011,0.645038,94.14,1
6516,0,50901,54681,50714.02,54449.75,186.98,231.25,-1.386408,-1.387077,-0.171975,-0.174923,0.645293,94.13,1
6558,0,50841,54578,50714.27,54450.01,126.73,127.99,-1.386413,-1.387082,-0.171886,-0.174833,0.645549,94.12,1
6600,0,50817,54563,50714.48,54450.23,102.52,112.77,-1.386417,-1.387086,-0.171796,-0.174741,0.645806,94.11,1
6638,0,50833,54590,50714.72,54450.52,118.28,139.48,-1.386422,-1.387091,-0.171707,-0.174651,0.646062,94.11,1
6679,0,50842,54611,50714.98,54450.84,127.02,160.16,-1.386427,-1.387097,-0.171619,-0.174562,0.646319,94.10,1
6718,0,50849,54629,50715.25,54451.20,133.75,177.80,-1.386432,-1.387104,-0.171530,-0.174473,0.646575,94.09,1
6758,0,50861,54649,50715.54,54451.60,145.46,197.40,-1.386438,-1.387111,-0.171443,-0.174385,0.646832,94.08,1
6800,0,50867,54654,50715.84,54452.00,151.16,202.00,-1.386444,-1.387118,-0.171355,-0.174297,0.647088,94.07,1
6840,0,50872,54645,50716.16,54452.39,155.84,192.61,-1.386450,-1.387125,-0.171268,-0.174209,0.647345,94.07,1
6879,0,50872,54650,50716.47,54452.79,155.53,197.21,-1.386456,-1.387133,-0.171181,-0.174121,0.647602,94.06,1
6920,0,50877,54671,50716.79,54453.23,160.21,217.77,-1.386463,-1.387141,-0.171094,-0.174034,0.647859,94.05,1
6961,0,50886,54684,50717.13,54453.69,168.87,230.31,-1.386469,-1.387149,-0.171007,-0.173948,0.648116,94.04,1
7001,0,50889,54711,50717.48,54454.21,171.52,256.79,-1.386476,-1.387159,-0.170921,-0.173862,0.648372,94.04,1
7040,0,50900,54727,50717.84,54454.75,182.16,272.25,-1.386483,-1.387169,-0.170835,-0.173777,0.648628,94.03,1
7077,0,50910,54745,50718.23,54455.34,191.77,289.66,-1.386491,-1.387179,-0.170749,-0.173693,0.648881,94.02,1
7118,0,50926,54771,50718.65,54455.97,207.35,315.03,-1.386499,-1.387191,-0.170664,-0.173610,0.649134,94.01,1
7161,0,50935,54797,50719.08,54456.65,215.92,340.35,-1.386508,-1.387204,-0.170580,-0.173528,0.649384,94.01,1
7198,0,50937,54749,50719.52,54457.24,217.48,291.76,-1.386517,-1.387214,-0.170496,-0.173444,0.649635,94.00,1
7239,0,50885,54626,50719.85,54457.58,165.15,168.42,-1.386523,-1.387221,-0.170409,-0.173355,0.649888,93.99,1
7280,0,50857,54590,50720.13,54457.84,136.87,132.16,-1.386528,-1.387226,-0.170322,-0.173265,0.650143,93.98,1
7319,0,50865,54622,50720.42,54458.17,144.58,163.83,-1.386534,-1.387232,-0.170235,-0.173177,0.650398,93.98,1
7360,0,50889,54648,50720.76,54458.55,168.24,189.45,-1.386541,-1.387239,-0.170149,-0.173089,0.650656,93.97,1
7399,0,50906,54670,50721.13,54458.98,184.87,211.02,-1.386548,-1.387246,-0.170063,-0.173003,0.650915,93.96,1
7440,0,50914,54693,50721.52,54459.45,192.48,233.55,-1.386556,-1.387255,-0.169978,-0.172917,0.651175,93.95,1
7481,0,50934,54715,50721.95,54459.96,212.05,255.04,-1.386564,-1.387264,-0.169894,-0.172832,0.651439,93.95,1
7519,0,50930,54718,50722.36,54460.48,207.64,257.52,-1.386573,-1.387274,-0.169810,-0.172747,0.651703,93.94,1
7560,0,50937,54718,50722.79,54460.99,214.21,257.01,-1.386581,-1.387283,-0.169726,-0.172662,0.651970,93.93,1
7603,0,50938,54737,50723.23,54461.55,214.77,275.45,-1.386590,-1.387294,-0.169642,-0.172578,0.652239,93.93,1
7638,0,50954,54766,50723.69,54462.16,230.31,303.84,-1.386599,-1.387305,-0.169558,-0.172495,0.652508,93.92,1
7679,0,50974,54790,50724.19,54462.81,249.81,327.19,-1.386609,-1.387317,-0.169476,-0.172413,0.652779,93.91,1
7720,0,50978,54821,50724.70,54463.53,253.30,357.47,-1.386619,-1.387330,-0.169394,-0.172332,0.653050,93.90,1
7757,0,50992,54848,50725.23,54464.30,266.77,383.70,-1.386629,-1.387344,-0.169312,-0.172253,0.653320,93.90,1
7799,0,51006,54878,50725.79,54465.13,280.21,412.87,-1.386640,-1.387359,-0.169231,-0.172174,0.653589,93.89,1
7838,0,51023,54896,50726.39,54465.99,296.61,430.01,-1.386652,-1.387375,-0.169150,-0.172096,0.653857,93.88,1
7880,0,51035,54899,50727.01,54466.86,307.99,432.14,-1.386664,-1.387391,-0.169070,-0.172018,0.654125,93.88,1
7923,0,50993,54752,50727.54,54467.43,265.46,284.57,-1.386675,-1.387402,-0.168989,-0.171934,0.654399,93.87,1
7960,0,50942,54680,50727.97,54467.86,214.03,212.14,-1.386683,-1.387409,-0.168905,-0.171848,0.654677,93.86,1
8000,0,50927,54684,50728.37,54468.29,198.63,215.71,-1.386691,-1.387417,-0.168821,-0.171763,0.654958,93.85,1
8040,0,50949,54717,50728.81,54468.79,220.19,248.21,-1.386700,-1.387427,-0.168738,-0.171678,0.655242,93.85,1
8084,0,50965,54727,50729.29,54469.31,235.71,257.69,-1.386709,-1.387436,-0.168655,-0.171594,0.655530,93.84,1
8118,0,50975,54752,50729.78,54469.87,245.22,282.12,-1.386719,-1.387446,-0.168573,-0.171511,0.655821,93.83,1
8160,0,50987,54787,50730.29,54470.51,256.71,316.49,-1.386729,-1.387458,-0.168492,-0.171429,0.656115,93.83,1
8200,0,51004,54804,50730.84,54471.18,273.16,332.82,-1.386740,-1.387470,-0.168411,-0.171348,0.656413,93.82,1
8241,0,51010,54812,50731.40,54471.86,278.60,340.14,-1.386751,-1.387483,-0.168330,-0.171267,0.656714,93.81,1
8280,0,51014,54823,50731.96,54472.57,282.04,350.43,-1.386762,-1.387496,-0.168250,-0.171186,0.657017,93.81,1
8322,0,51027,54838,50732.55,54473.30,294.45,364.70,-1.386773,-1.387509,-0.168170,-0.171106,0.657325,93.80,1
8362,0,51035,54857,50733.16,54474.07,301.84,382.93,-1.386785,-1.387523,-0.168090,-0.171027,0.657634,93.79,1
8401,0,51048,54878,50733.79,54474.87,314.21,403.12,-1.386798,-1.387538,-0.168011,-0.170949,0.657947,93.78,1
8439,0,51049,54900,50734.43,54475.73,314.57,424.27,-1.386810,-1.387554,-0.167932,-0.170871,0.658260,93.78,1
8482,0,51059,54913,50735.08,54476.60,323.92,436.40,-1.386823,-1.387570,-0.167853,-0.170794,0.658574,93.77,1
8518,0,51065,54932,50735.74,54477.52,329.26,454.48,-1.386836,-1.387587,-0.167775,-0.170718,0.658889,93.76,1
8561,0,51075,54945,50736.42,54478.45,338.58,466.55,-1.386850,-1.387604,-0.167697,-0.170642,0.659203,93.75,1
8600,0,51080,54923,50737.11,54479.34,342.89,443.66,-1.386863,-1.387620,-0.167619,-0.170565,0.659519,93.75,1
8640,0,51029,54776,50737.69,54479.94,291.31,296.06,-1.386875,-1.387631,-0.167540,-0.170483,0.659843,93.74,1
8679,0,50987,54711,50738.19,54480.40,248.81,230.60,-1.386885,-1.387640,-0.167458,-0.170399,0.660172,93.73,1
8726,0,50972,54726,50738.66,54480.89,233.34,245.11,-1.386894,-1.387649,-0.167377,-0.170315,0.660506,93.73,1
8760,0,50990,54746,50739.16,54481.43,250.84,264.57,-1.386904,-1.387658,-0.167295,-0.170232,0.660843,93.72,1
8800,0,50997,54749,50739.68,54481.96,257.32,267.04,-1.386914,-1.387668,-0.167215,-0.170149,0.661186,93.71,1
8839,0,51006,54776,50740.21,54482.55,265.79,293.45,-1.386924,-1.387679,-0.167134,-0.170067,0.661532,93.70,1
8883,0,51017,54801,50740.77,54483.19,276.23,317.81,-1.386935,-1.387691,-0.167054,-0.169986,0.661882,93.70,1
8922,0,51029,54817,50741.35,54483.86,287.65,333.14,-1.386947,-1.387703,-0.166975,-0.169906,0.662236,93.69,1
8962,0,51037,54823,50741.94,54484.54,295.06,338.46,-1.386958,-1.387715,-0.166895,-0.169826,0.662594,93.68,1
9000,0,51038,54836,50742.54,54485.24,295.46,350.76,-1.386970,-1.387728,-0.166816,-0.169746,0.662955,93.67,1
9043,0,51048,54854,50743.15,54485.98,304.85,368.02,-1.386982,-1.387742,-0.166738,-0.169667,0.663320,93.67,1
9082,0,51055,54880,50743.77,54486.77,311.23,393.23,-1.386995,-1.387756,-0.166659,-0.169589,0.663686,93.66,1
9122,0,51064,54905,50744.41,54487.60,319.59,417.40,-1.387007,-1.387772,-0.166581,-0.169512,0.664052,93.65,1
9162,0,51081,54934,50745.09,54488.50,335.91,445.50,-1.387021,-1.387788,-0.166504,-0.169436,0.664419,93.64,1
9202,0,51088,54952,50745.78,54489.43,342.22,462.57,-1.387034,-1.387805,-0.166427,-0.169361,0.664785,93.63,1
9241,0,51098,54970,50746.48,54490.39,351.52,479.61,-1.387048,-1.387823,-0.166350,-0.169286,0.665150,93.63,1
9282,0,51109,54988,50747.21,54491.38,361.79,496.62,-1.387062,-1.387841,-0.166274,-0.169213,0.665514,93.62,1
9322,0,51114,55005,50747.95,54492.41,366.05,512.59,-1.387077,-1.387860,-0.166198,-0.169139,0.665876,93.61,1
9363,0,51109,54909,50748.67,54493.25,360.33,415.75,-1.387091,-1.387875,-0.166122,-0.169062,0.666243,93.60,1
9400,0,51050,54820,50749.27,54493.90,300.73,326.10,-1.387103,-1.387887,-0.166044,-0.168982,0.666615,93.59,1
9441,0,51027,54793,50749.83,54494.50,277.17,298.50,-1.387114,-1.387898,-0.165964,-0.168901,0.666991,93.59,1
9481,0,51032,54822,50750.40,54495.16,281.60,326.84,-1.387125,-1.387910,-0.165885,-0.168821,0.667370,93.58,1
9522,0,51044,54821,50750.99,54495.81,293.01,325.19,-1.387137,-1.387923,-0.165807,-0.168741,0.667753,93.57,1
9563,0,51041,54831,50751.57,54496.48,289.43,334.52,-1.387148,-1.387935,-0.165728,-0.168662,0.668139,93.56,1
9601,0,51050,54853,50752.17,54497.20,297.83,355.80,-1.387160,-1.387948,-0.165650,-0.168583,0.668527,93.55,1
9642,0,51060,54872,50752.79,54497.95,307.21,374.05,-1.387172,-1.387962,-0.165572,-0.168505,0.668917,93.55,1
9683,0,51066,54870,50753.41,54498.69,312.59,371.31,-1.387185,-1.387975,-0.165494,-0.168427,0.669310,93.54,1
9722,0,51068,54875,50754.04,54499.45,313.96,375.55,-1.387197,-1.387989,-0.165417,-0.168349,0.669706,93.53,1
9763,0,51074,54893,50754.68,54500.23,319.32,392.77,-1.387210,-1.388004,-0.165339,-0.168272,0.670103,93.52,1
9806,0,51074,54908,50755.32,54501.05,318.68,406.95,-1.387222,-1.388019,-0.165262,-0.168195,0.670500,93.51,1
9847,0,51075,54926,50755.96,54501.90,319.04,424.10,-1.387235,-1.388034,-0.165185,-0.168119,0.670897,93.50,1
9879,0,51081,54939,50756.62,54502.78,324.38,436.22,-1.387248,-1.388050,-0.165108,-0.168044,0.671292,93.49,1
9920,0,51091,54952,50757.29,54503.68,333.71,448.32,-1.387261,-1.388067,-0.165031,-0.167969,0.671686,93.49,1
9962,0,51092,54965,50757.96,54504.60,334.04,460.40,-1.387274,-1.388084,-0.164955,-0.167895,0.672078,93.48,1
10003,0,51098,54981,50758.64,54505.55,339.36,475.45,-1.387287,-1.388101,-0.164879,-0.167821,0.672466,93.47,1
10042,0,51097,55002,50759.32,54506.55,337.68,495.45,-1.387301,-1.388120,-0.164803,-0.167747,0.672850,93.46,1
10083,0,51098,55012,50760.00,54507.56,338.00,504.44,-1.387314,-1.388138,-0.164726,-0.167675,0.673227,93.45,1
10122,0,51103,54958,50760.69,54508.46,342.31,449.54,-1.387328,-1.388155,-0.164650,-0.167600,0.673605,93.44,1
10164,0,51047,54822,50761.26,54509.09,285.74,312.91,-1.387339,-1.388166,-0.164572,-0.167520,0.673986,93.43,1
10202,0,51007,54769,50761.75,54509.61,245.25,259.39,-1.387349,-1.388176,-0.164493,-0.167439,0.674369,93.42,1
10242,0,50998,54776,50762.23,54510.15,235.77,265.85,-1.387358,-1.388186,-0.164412,-0.167358,0.674755,93.42,1
10281,0,51005,54788,50762.71,54510.71,242.29,277.29,-1.387368,-1.388196,-0.164333,-0.167277,0.675141,93.41,1
10322,0,51010,54807,50763.21,54511.30,246.79,295.70,-1.387378,-1.388207,-0.164253,-0.167197,0.675529,93.40,1
10362,0,51015,54815,50763.71,54511.91,251.29,303.09,-1.387388,-1.388218,-0.164174,-0.167117,0.675918,93.39,1
10402,0,51021,54825,50764.23,54512.54,256.77,312.46,-1.387398,-1.388229,-0.164095,-0.167037,0.676307,93.38,1
10443,0,51022,54818,50764.75,54513.15,257.25,304.85,-1.387408,-1.388241,-0.164016,-0.166958,0.676697,93.37,1
10484,0,51017,54806,50765.25,54513.74,251.75,292.26,-1.387418,-1.388251,-0.163937,-0.166878,0.677089,93.36,1
10521,0,51007,54806,50765.73,54514.32,241.27,291.68,-1.387427,-1.388262,-0.163857,-0.166798,0.677482,93.35,1
10563,0,51006,54813,50766.21,54514.92,239.79,298.08,-1.387437,-1.388273,-0.163778,-0.166718,0.677875,93.34,1
10602,0,51006,54828,50766.70,54515.55,239.30,312.45,-1.387446,-1.388285,-0.163698,-0.166639,0.678266,93.34,1
10645,0,51011,54829,50767.18,54516.18,243.82,312.82,-1.387456,-1.388296,-0.163619,-0.166560,0.678658,93.33,1
10683,0,51010,54842,50767.67,54516.83,242.33,325.17,-1.387465,-1.388308,-0.163540,-0.166481,0.679048,93.32,1
10722,0,51015,54858,50768.17,54517.52,246.83,340.48,-1.387475,-1.388321,-0.163461,-0.166403,0.679435,93.31,1
10761,0,51020,54878,50768.67,54518.24,251.33,359.76,-1.387485,-1.388334,-0.163382,-0.166326,0.679820,93.30,1
10803,0,51029,54896,50769.20,54519.00,259.80,377.00,-1.387495,-1.388348,-0.163303,-0.166249,0.680202,93.29,1
10844,0,51039,54921,50769.73,54519.80,269.27,401.20,-1.387506,-1.388363,-0.163225,-0.166173,0.680579,93.28,1
10883,0,51026,54825,50770.25,54520.41,255.75,304.59,-1.387516,-1.388374,-0.163147,-0.166094,0.680958,93.27,1
10925,0,50984,54751,50770.68,54520.87,213.32,230.12,-1.387525,-1.388382,-0.163067,-0.166013,0.681338,93.26,1
10959,0,50962,54752,50771.06,54521.34,190.94,230.66,-1.387532,-1.388391,-0.162986,-0.165931,0.681718,93.25,1
11000,0,50980,54791,50771.48,54521.88,208.52,269.12,-1.387540,-1.388401,-0.162906,-0.165850,0.682097,93.24,1
11040,0,50993,54821,50771.93,54522.48,221.07,298.52,-1.387549,-1.388412,-0.162826,-0.165771,0.682475,93.24,1
11083,0,51013,54858,50772.41,54523.15,240.59,334.85,-1.387559,-1.388424,-0.162747,-0.165693,0.682851,93.23,1
11124,0,51029,54887,50772.93,54523.88,256.07,363.12,-1.387569,-1.388438,-0.162669,-0.165617,0.683224,93.22,1
11164,0,51049,54908,50773.48,54524.65,275.52,383.35,-1.387580,-1.388452,-0.162591,-0.165541,0.683594,93.21,1
11204,0,51058,54917,50774.05,54525.44,283.95,391.56,-1.387591,-1.388466,-0.162514,-0.165465,0.683963,93.20,1
11245,0,51065,54935,50774.63,54526.26,290.37,408.74,-1.387603,-1.388481,-0.162438,-0.165390,0.684329,93.19,1
11283,0,51075,54961,50775.23,54527.13,299.77,433.87,-1.387614,-1.388497,-0.162361,-0.165316,0.684690,93.18,1
11325,0,51085,54978,50775.86,54528.03,309.14,449.97,-1.387627,-1.388514,-0.162285,-0.165243,0.685048,93.17,1
11363,0,51092,55002,50776.49,54528.98,315.51,473.02,-1.387639,-1.388531,-0.162210,-0.165171,0.685400,93.16,1
11404,0,51101,55013,50777.14,54529.95,323.86,483.05,-1.387652,-1.388549,-0.162135,-0.165099,0.685746,93.15,1
11443,0,51109,55036,50777.80,54530.96,331.20,505.04,-1.387665,-1.388567,-0.162060,-0.165028,0.686087,93.14,1
11483,0,51115,55059,50778.48,54532.02,336.52,526.98,-1.387678,-1.388587,-0.161985,-0.164957,0.686419,93.13,1
11524,0,51119,55074,50779.16,54533.11,339.84,540.89,-1.387692,-1.388607,-0.161911,-0.164887,0.686742,93.13,1
11563,0,51132,55065,50779.87,54534.17,352.13,530.83,-1.387706,-1.388626,-0.161837,-0.164817,0.687060,93.12,1
11605,0,51096,54950,50780.50,54535.00,315.50,415.00,-1.387718,-1.388641,-0.161761,-0.164743,0.687378,93.11,1
11645,0,51064,54901,50781.07,54535.74,282.93,365.26,-1.387729,-1.388655,-0.161685,-0.164667,0.687695,93.10,1
11683,0,51058,54919,50781.62,54536.51,276.38,382.49,-1.387740,-1.388669,-0.161608,-0.164592,0.688012,93.09,1
11725,0,51073,54946,50782.21,54537.33,290.79,408.67,-1.387752,-1.388684,-0.161532,-0.164517,0.688326,93.08,1
11763,0,51084,54965,50782.81,54538.18,301.19,426.82,-1.387764,-1.388700,-0.161456,-0.164443,0.688638,93.07,1
11804,0,51090,54981,50783.43,54539.07,306.57,441.93,-1.387776,-1.388716,-0.161381,-0.164370,0.688947,93.06,1
11844,0,51106,55009,50784.07,54540.01,321.93,468.99,-1.387789,-1.388733,-0.161306,-0.164298,0.689253,93.05,1
11884,0,51112,55014,50784.73,54540.96,327.27,473.04,-1.387801,-1.388751,-0.161231,-0.164227,0.689555,93.04,1
11926,0,51116,55022,50785.39,54541.93,330.61,480.07,-1.387814,-1.388768,-0.161157,-0.164155,0.689854,93.04,1
11967,0,51116,55042,50786.06,54542.93,329.94,499.07,-1.387828,-1.388787,-0.161083,-0.164084,0.690148,93.03,1
12005,0,51129,55061,50786.75,54543.96,342.25,517.04,-1.387841,-1.388806,-0.161009,-0.164014,0.690437,93.02,1
12044,0,51135,55081,50787.45,54545.04,347.55,535.96,-1.387855,-1.388825,-0.160935,-0.163945,0.690720,93.01,1
12089,0,51149,55107,50788.17,54546.16,360.83,560.84,-1.387869,-1.388846,-0.160862,-0.163876,0.690996,93.00,1
12121,0,51157,55123,50788.91,54547.32,368.09,575.68,-1.387884,-1.388867,-0.160789,-0.163808,0.691265,92.99,1
12165,0,51169,55142,50789.67,54548.51,379.33,593.49,-1.387899,-1.388889,-0.160717,-0.163741,0.691527,92.98,1
12205,0,51175,55155,50790.44,54549.73,384.56,605.27,-1.387914,-1.388911,-0.160645,-0.163675,0.691781,92.98,1
12246,0,51185,55170,50791.23,54550.97,393.77,619.03,-1.387929,-1.388934,-0.160574,-0.163608,0.692028,92.97,1
12284,0,51185,55184,50792.02,54552.23,392.98,631.77,-1.387945,-1.388957,-0.160502,-0.163543,0.692267,92.96,1
12324,0,51169,55070,50792.77,54553.27,376.23,516.73,-1.387960,-1.388976,-0.160430,-0.163473,0.692505,92.95,1
12364,0,51112,54968,50793.41,54554.10,318.59,413.90,-1.387972,-1.388991,-0.160356,-0.163399,0.692744,92.94,1
12405,0,51090,54942,50794.01,54554.88,295.99,387.12,-1.387984,-1.389006,-0.160280,-0.163325,0.692985,92.94,1
12445,0,51097,54962,50794.61,54555.70,302.39,406.30,-1.387996,-1.389021,-0.160205,-0.163251,0.693225,92.93,1
12484,0,51104,54975,50795.23,54556.54,308.77,418.46,-1.388008,-1.389036,-0.160131,-0.163178,0.693465,92.92,1
12525,0,51115,54981,50795.87,54557.39,319.12,423.61,-1.388021,-1.389052,-0.160057,-0.163105,0.693706,92.91,1
12563,0,51120,55006,50796.52,54558.29,323.48,447.71,-1.388034,-1.389068,-0.159982,-0.163033,0.693946,92.90,1
12605,0,51136,55021,50797.20,54559.21,338.80,461.79,-1.388047,-1.389085,-0.159909,-0.162961,0.694187,92.90,1
12645,0,51137,55023,50797.88,54560.14,339.12,462.86,-1.388060,-1.389102,-0.159836,-0.162890,0.694427,92.89,1
12686,0,51138,55026,50798.56,54561.07,339.44,464.93,-1.388074,-1.389119,-0.159763,-0.162819,0.694666,92.88,1
12724,0,51141,55042,50799.25,54562.04,341.75,479.96,-1.388087,-1.389137,-0.159690,-0.162748,0.694905,92.87,1
12763,0,51150,55055,50799.95,54563.03,350.05,491.97,-1.388101,-1.389155,-0.159617,-0.162678,0.695142,92.87,1
12805,0,51156,55078,50800.67,54564.06,355.33,513.94,-1.388115,-1.389174,-0.159544,-0.162608,0.695377,92.86,1
12841,0,51164,55096,50801.39,54565.12,362.61,530.87,-1.388129,-1.389194,-0.159472,-0.162540,0.695610,92.85,1
12884,0,51174,55125,50802.14,54566.25,371.86,558.75,-1.388144,-1.389214,-0.159400,-0.162472,0.695838,92.84,1
12927,0,51179,55145,50802.89,54567.41,376.11,577.59,-1.388159,-1.389235,-0.159329,-0.162405,0.696062,92.84,1
12966,0,51191,55162,50803.67,54568.60,387.33,593.40,-1.388174,-1.389257,-0.159258,-0.162339,0.696281,92.83,1
13006,0,51204,55171,50804.47,54569.80,399.53,601.20,-1.388190,-1.389279,-0.159187,-0.162273,0.696495,92.82,1
13045,0,51204,55186,50805.27,54571.04,398.73,614.96,-1.388206,-1.389302,-0.159117,-0.162207,0.696705,92.81,1
13089,0,51193,55060,50806.05,54572.02,386.95,487.98,-1.388221,-1.389320,-0.159046,-0.162137,0.696917,92.81,1
13122,0,51121,54942,50806.68,54572.76,314.32,369.24,-1.388234,-1.389333,-0.158972,-0.162063,0.697133,92.80,1
13165,0,51089,54896,50807.25,54573.41,281.75,322.59,-1.388245,-1.389345,-0.158897,-0.161987,0.697352,92.79,1
13204,0,51093,54919,50807.82,54574.10,285.18,344.90,-1.388256,-1.389358,-0.158822,-0.161911,0.697573,92.79,1
13245,0,51104,54919,50808.42,54574.79,295.58,344.21,-1.388268,-1.389371,-0.158748,-0.161836,0.697796,92.78,1
13285,0,51108,54926,50809.02,54575.50,298.98,350.50,-1.388280,-1.389384,-0.158674,-0.161761,0.698022,92.77,1
13326,0,51107,54936,50809.62,54576.22,297.38,359.78,-1.388291,-1.389397,-0.158600,-0.161687,0.698251,92.77,1
13366,0,51122,54951,50810.24,54576.97,311.76,374.03,-1.388304,-1.389411,-0.158526,-0.161613,0.698482,92.76,1
13409,0,51121,54952,50810.86,54577.72,310.14,374.28,-1.388316,-1.389424,-0.158452,-0.161539,0.698716,92.75,1
13446,0,51121,54946,50811.48,54578.46,309.52,367.54,-1.388328,-1.389438,-0.158379,-0.161465,0.698952,92.75,1
13486,0,51117,54943,50812.10,54579.19,304.90,363.81,-1.388340,-1.389451,-0.158305,-0.161390,0.699190,92.74,1
13526,0,51117,54944,50812.71,54579.92,304.29,364.08,-1.388352,-1.389465,-0.158231,-0.161316,0.699431,92.73,1
13566,0,51116,54955,50813.32,54580.67,302.68,374.33,-1.388364,-1.389478,-0.158158,-0.161242,0.699674,92.72,1
13606,0,51117,54964,50813.93,54581.44,303.07,382.56,-1.388376,-1.389493,-0.158084,-0.161169,0.699918,92.72,1
13647,0,51120,54976,50814.54,54582.23,305.46,393.77,-1.388388,-1.389507,-0.158010,-0.161096,0.700162,92.71,1
13686,0,51127,54982,50815.16,54583.03,311.84,398.97,-1.388400,-1.389522,-0.157937,-0.161023,0.700408,92.70,1
13727,0,51123,54988,50815.78,54583.84,307.22,404.16,-1.388413,-1.389536,-0.157864,-0.160951,0.700654,92.70,1
13767,0,51130,55003,50816.41,54584.68,313.59,418.32,-1.388425,-1.389552,-0.157791,-0.160879,0.700900,92.69,1
13807,0,51132,55024,50817.04,54585.56,314.96,438.44,-1.388438,-1.389568,-0.157718,-0.160808,0.701145,92.69,1
13850,0,51132,54946,50817.68,54586.28,314.32,359.72,-1.388450,-1.389581,-0.157645,-0.160734,0.701393,92.68,1
13886,0,51077,54825,50818.20,54586.76,258.80,238.24,-1.388460,-1.389590,-0.157570,-0.160656,0.701645,92.67,1
13927,0,51047,54792,50818.65,54587.17,228.35,204.83,-1.388469,-1.389598,-0.157493,-0.160576,0.701901,92.67,1
13967,0,51060,54823,50819.14,54587.64,240.86,235.36,-1.388479,-1.389606,-0.157418,-0.160498,0.702160,92.66,1
14006,0,51079,54850,50819.66,54588.17,259.34,261.83,-1.388489,-1.389616,-0.157343,-0.160420,0.702422,92.65,1
14046,0,51100,54878,50820.22,54588.75,279.78,289.25,-1.388500,-1.389627,-0.157269,-0.160344,0.702688,92.65,1
14089,0,51105,54901,50820.79,54589.38,284.21,311.62,-1.388511,-1.389638,-0.157195,-0.160268,0.702956,92.64,1
14124,0,51121,54913,50821.39,54590.03,299.61,322.97,-1.388523,-1.389650,-0.157121,-0.160193,0.703229,92.63,1
14165,0,51125,54909,50822.00,54590.67,303.00,318.33,-1.388535,-1.389662,-0.157048,-0.160118,0.703506,92.63,1
14203,0,51123,54907,50822.60,54591.30,300.40,315.70,-1.388547,-1.389673,-0.156975,-0.160043,0.703786,92.62,1
14244,0,51125,54927,50823.21,54591.97,301.79,335.03,-1.388559,-1.389686,-0.156902,-0.159969,0.704070,92.61,1
14286,0,51141,54946,50823.84,54592.68,317.16,353.32,-1.388571,-1.389699,-0.156830,-0.159895,0.704358,92.61,1
14328,0,51147,54976,50824.49,54593.45,322.51,382.55,-1.388584,-1.389713,-0.156758,-0.159822,0.704647,92.60,1
14367,0,51163,55011,50825.17,54594.29,337.83,416.71,-1.388597,-1.389728,-0.156686,-0.159751,0.704939,92.59,1
14409,0,51185,55047,50825.89,54595.20,359.11,451.80,-1.388612,-1.389745,-0.156616,-0.159681,0.705231,92.59,1
14448,0,51198,55070,50826.64,54596.14,371.36,473.86,-1.388626,-1.389762,-0.156546,-0.159612,0.705525,92.58,1
14487,0,51212,55098,50827.41,54597.15,384.59,500.85,-1.388642,-1.389780,-0.156476,-0.159544,0.705818,92.57,1
14528,0,51219,55114,50828.20,54598.18,390.80,515.82,-1.388657,-1.389799,-0.156407,-0.159476,0.706111,92.57,1
14566,0,51222,55110,50828.99,54599.21,393.01,510.79,-1.388672,-1.389818,-0.156338,-0.159409,0.706405,92.56,1
14612,0,51191,54963,50829.71,54599.94,361.29,363.06,-1.388687,-1.389831,-0.156268,-0.159335,0.706705,92.55,1
14648,0,51137,54864,50830.33,54600.47,306.67,263.53,-1.388699,-1.389841,-0.156195,-0.159259,0.707011,92.55,1
14689,0,51118,54868,50830.91,54601.00,287.09,267.00,-1.388710,-1.389851,-0.156122,-0.159182,0.707322,92.54,1
14730,0,51142,54903,50831.54,54601.61,310.46,301.39,-1.388723,-1.389862,-0.156050,-0.159107,0.707639,92.53,1
14766,0,51152,54933,50832.18,54602.27,319.82,330.73,-1.388735,-1.389874,-0.155978,-0.159033,0.707959,92.52,1
14808,0,51173,54951,50832.86,54602.97,340.14,348.03,-1.388749,-1.389887,-0.155907,-0.158960,0.708285,92.52,1
14849,0,51189,54994,50833.57,54603.76,355.43,390.24,-1.388763,-1.389901,-0.155837,-0.158888,0.708615,92.51,1
14887,0,51203,55002,50834.31,54604.55,368.69,397.45,-1.388777,-1.389916,-0.155767,-0.158817,0.708951,92.50,1
14927,0,51210,55008,50835.07,54605.36,374.93,402.64,-1.388792,-1.389931,-0.155697,-0.158745,0.709291,92.50,1
14966,0,51212,55013,50835.82,54606.18,376.18,406.82,-1.388807,-1.389946,-0.155628,-0.158674,0.709636,92.49,1
15005,0,51221,55041,50836.59,54607.05,384.41,433.95,-1.388822,-1.389962,-0.155559,-0.158604,0.709985,92.48,1
15047,0,51237,55067,50837.39,54607.97,399.61,459.03,-1.388838,-1.389979,-0.155491,-0.158535,0.710337,92.48,1
15086,0,51246,55090,50838.21,54608.94,407.79,481.06,-1.388854,-1.389996,-0.155423,-0.158467,0.710692,92.47,1
15128,0,51255,55113,50839.05,54609.95,415.95,503.05,-1.388870,-1.390015,-0.155355,-0.158400,0.711049,92.46,1
15167,0,51267,55133,50839.91,54610.99,427.09,522.01,-1.388887,-1.390034,-0.155288,-0.158333,0.711408,92.45,1
15209,0,51276,55154,50840.78,54612.08,435.22,541.92,-1.388904,-1.390054,-0.155221,-0.158267,0.711767,92.45,1
15248,0,51284,55166,50841.67,54613.19,442.33,552.81,-1.388922,-1.390074,-0.155155,-0.158202,0.712127,92.44,1
15287,0,51288,55183,50842.56,54614.33,445.44,568.67,-1.388940,-1.390095,-0.155088,-0.158137,0.712487,92.43,1
15330,0,51293,55204,50843.46,54615.51,449.54,588.49,-1.388957,-1.390117,-0.155022,-0.158073,0.712844,92.42,1
15365,0,51281,55070,50844.34,54616.42,436.66,453.58,-1.388975,-1.390133,-0.154956,-0.158004,0.713209,92.42,1
15407,0,51215,54934,50845.08,54617.05,369.92,316.95,-1.388989,-1.390145,-0.154886,-0.157930,0.713582,92.41,1
15448,0,51181,54899,50845.75,54617.62,335.25,281.38,-1.389002,-1.390155,-0.154816,-0.157855,0.713962,92.40,1
15488,0,51193,54925,50846.45,54618.24,346.55,306.76,-1.389016,-1.390167,-0.154746,-0.157781,0.714349,92.39,1
15528,0,51208,54943,50847.17,54618.89,360.83,324.11,-1.389030,-1.390179,-0.154677,-0.157707,0.714742,92.38,1
15566,0,51216,54958,50847.91,54619.57,368.09,338.43,-1.389045,-1.390191,-0.154607,-0.157634,0.715143,92.38,1
15610,0,51222,54982,50848.66,54620.30,373.34,361.70,-1.389059,-1.390204,-0.154539,-0.157562,0.715549,92.37,1
15648,0,51233,54998,50849.43,54621.05,383.57,376.95,-1.389075,-1.390218,-0.154470,-0.157491,0.715961,92.36,1
15689,0,51240,55002,50850.21,54621.82,389.79,380.18,-1.389090,-1.390232,-0.154402,-0.157419,0.716380,92.35,1
15729,0,51244,54996,50851.00,54622.57,393.00,373.43,-1.389105,-1.390246,-0.154334,-0.157348,0.716805,92.34,1
15768,0,51243,55020,50851.79,54623.36,391.21,396.64,-1.389121,-1.390260,-0.154266,-0.157277,0.717236,92.34,1
15809,0,51257,55039,50852.60,54624.20,404.40,414.80,-1.389137,-1.390276,-0.154199,-0.157207,0.717672,92.33,1
15849,0,51263,55070,50853.42,54625.09,409.58,444.91,-1.389153,-1.390292,-0.154132,-0.157139,0.718111,92.32,1
15888,0,51276,55096,50854.27,54626.03,421.73,469.97,-1.389170,-1.390309,-0.154065,-0.157071,0.718554,92.31,1
15929,0,51287,55116,50855.13,54627.01,431.87,488.99,-1.389187,-1.390327,-0.153999,-0.157004,0.718999,92.30,1
15968,0,51296,55136,50856.02,54628.03,439.98,507.97,-1.389204,-1.390346,-0.153933,-0.156937,0.719445,92.29,1
16008,0,51309,55149,50856.92,54629.07,452.08,519.93,-1.389222,-1.390365,-0.153867,-0.156872,0.719894,92.29,1
16048,0,51311,55163,50857.83,54630.14,453.17,532.86,-1.389240,-1.390385,-0.153802,-0.156806,0.720343,92.28,1
16089,0,51318,55175,50858.75,54631.23,459.25,543.77,-1.389258,-1.390404,-0.153737,-0.156741,0.720794,92.27,1
16128,0,51327,55187,50859.69,54632.35,467.31,554.65,-1.389276,-1.390425,-0.153672,-0.156677,0.721244,92.26,1
16169,0,51290,55020,50860.55,54633.12,429.45,386.87,-1.389293,-1.390439,-0.153606,-0.156606,0.721704,92.25,1
16209,0,51228,54893,50861.29,54633.64,366.71,259.36,-1.389308,-1.390448,-0.153538,-0.156531,0.722172,92.24,1
16249,0,51198,54875,50861.96,54634.13,336.04,240.87,-1.389321,-1.390457,-0.153468,-0.156455,0.722648,92.23,1
16288,0,51213,54902,50862.67,54634.67,350.33,267.33,-1.389335,-1.390467,-0.153399,-0.156381,0.723131,92.22,1
16329,0,51218,54920,50863.38,54635.24,354.62,284.76,-1.389349,-1.390478,-0.153330,-0.156306,0.723621,92.21,1
16369,0,51231,54935,50864.12,54635.84,366.88,299.16,-1.389363,-1.390489,-0.153262,-0.156233,0.724118,92.20,1
16408,0,51237,54965,50864.86,54636.50,372.14,328.50,-1.389378,-1.390501,-0.153194,-0.156160,0.724621,92.19,1
16446,0,51246,54976,50865.62,54637.18,380.37,338.82,-1.389393,-1.390513,-0.153126,-0.156088,0.725130,92.18,1
16488,0,51249,54976,50866.39,54637.86,382.61,338.14,-1.389408,-1.390526,-0.153058,-0.156016,0.725646,92.17,1
16526,0,51247,54975,50867.16,54638.54,379.84,336.46,-1.389423,-1.390538,-0.152991,-0.155944,0.726168,92.16,1
16568,0,51252,54992,50867.93,54639.24,384.07,352.76,-1.389438,-1.390551,-0.152923,-0.155873,0.726695,92.15,1
16611,0,51258,55012,50868.71,54639.99,389.29,372.01,-1.389454,-1.390565,-0.152856,-0.155802,0.727227,92.14,1
16651,0,51263,55038,50869.50,54640.79,393.50,397.21,-1.389469,-1.390579,-0.152789,-0.155733,0.727762,92.13,1
16689,0,51272,55058,50870.30,54641.62,401.70,416.38,-1.389485,-1.390594,-0.152722,-0.155664,0.728301,92.12,1
16731,0,51278,55073,50871.12,54642.48,406.88,430.52,-1.389501,-1.390610,-0.152656,-0.155595,0.728841,92.11,1
16771,0,51280,55085,50871.94,54643.37,408.06,441.63,-1.389517,-1.390627,-0.152589,-0.155527,0.729383,92.10,1
16809,0,51281,55087,50872.76,54644.26,408.24,442.74,-1.389533,-1.390643,-0.152523,-0.155459,0.729927,92.09,1
16851,0,51281,55096,50873.57,54645.16,407.43,450.84,-1.389549,-1.390659,-0.152457,-0.155392,0.730471,92.08,1
16888,0,51277,55098,50874.38,54646.07,402.62,451.93,-1.389565,-1.390676,-0.152390,-0.155325,0.731015,92.07,1
16931,0,51272,55051,50875.18,54646.88,396.82,404.12,-1.389581,-1.390691,-0.152324,-0.155255,0.731562,92.06,1
16969,0,51204,54852,50875.84,54647.29,328.16,204.71,-1.389594,-1.390698,-0.152254,-0.155179,0.732117,92.05,1
17011,0,51141,54739,50876.37,54647.48,264.63,91.52,-1.389604,-1.390702,-0.152183,-0.155098,0.732677,92.04,1
17047,0,51111,54733,50876.84,54647.65,234.16,85.35,-1.389614,-1.390705,-0.152110,-0.155018,0.733241,92.03,1
17086,0,51121,54753,50877.33,54647.86,243.67,105.14,-1.389623,-1.390709,-0.152037,-0.154938,0.733810,92.02,1
17128,0,51128,54762,50877.83,54648.09,250.17,113.91,-1.389633,-1.390713,-0.151965,-0.154858,0.734383,92.00,1
17167,0,51131,54775,50878.34,54648.34,252.66,126.66,-1.389643,-1.390718,-0.151893,-0.154779,0.734961,91.99,1
17210,0,51136,54780,50878.86,54648.61,257.14,131.39,-1.389653,-1.390723,-0.151821,-0.154700,0.735543,91.98,1
17251,0,51129,54765,50879.36,54648.84,249.64,116.16,-1.389663,-1.390727,-0.151749,-0.154621,0.736130,91.97,1
17288,0,51114,54739,50879.82,54649.03,234.18,89.97,-1.389672,-1.390730,-0.151676,-0.154541,0.736721,91.96,1
17331,0,51104,54735,50880.27,54649.20,223.73,85.80,-1.389681,-1.390733,-0.151603,-0.154460,0.737316,91.95,1
17370,0,51095,54738,50880.70,54649.38,214.30,88.62,-1.389689,-1.390736,-0.151530,-0.154380,0.737914,91.94,1
17409,0,51101,54753,50881.14,54649.59,219.86,103.41,-1.389698,-1.390740,-0.151457,-0.154301,0.738515,91.92,1
17449,0,51098,54763,50881.58,54649.81,216.42,113.19,-1.389707,-1.390744,-0.151383,-0.154221,0.739119,91.91,1
17491,0,51102,54786,50882.02,54650.09,219.98,135.91,-1.389715,-1.390749,-0.151310,-0.154143,0.739725,91.90,1
17529,0,51110,54800,50882.48,54650.39,227.52,149.61,-1.389724,-1.390755,-0.151238,-0.154065,0.740335,91.89,1
17567,0,51119,54816,50882.95,54650.72,236.05,165.28,-1.389734,-1.390761,-0.151165,-0.153988,0.740946,91.87,1
17608,0,51124,54837,50883.43,54651.09,240.57,185.91,-1.389743,-1.390768,-0.151093,-0.153912,0.741560,91.86,1
17652,0,51125,54850,50883.92,54651.49,241.08,198.51,-1.389753,-1.390775,-0.151021,-0.153836,0.742176,91.85,1
17693,0,51126,54786,50884.40,54651.76,241.60,134.24,-1.389762,-1.390780,-0.150949,-0.153757,0.742795,91.84,1
17731,0,51056,54627,50884.75,54651.71,171.25,-24.71,-1.389769,-1.390779,-0.150875,-0.153674,0.743417,91.82,1
17770,0,51011,54554,50885.00,54651.52,126.00,-97.52,-1.389774,-1.390776,-0.150798,-0.153587,0.744038,91.81,1
17811,0,51013,54583,50885.26,54651.38,127.74,-68.38,-1.389779,-1.390773,-0.150722,-0.153501,0.744658,91.80,1
17851,0,51031,54623,50885.55,54651.33,145.45,-28.33,-1.389785,-1.390772,-0.150646,-0.153418,0.745280,91.79,1
17890,0,51049,54657,50885.88,54651.34,163.12,5.66,-1.389791,-1.390772,-0.150572,-0.153335,0.745903,91.77,1
17930,0,51064,54704,50886.24,54651.45,177.76,52.55,-1.389798,-1.390774,-0.150497,-0.153254,0.746528,91.76,1
17971,0,51081,54724,50886.63,54651.59,194.37,72.41,-1.389806,-1.390777,-0.150424,-0.153174,0.747156,91.75,1
18011,0,51085,54718,50887.03,54651.73,197.97,66.27,-1.389814,-1.390779,-0.150351,-0.153094,0.747788,91.73,1
18050,0,51082,54710,50887.42,54651.84,194.58,58.16,-1.389821,-1.390782,-0.150277,-0.153013,0.748422,91.72,1
18092,0,51088,54732,50887.82,54652.00,200.18,80.00,-1.389829,-1.390785,-0.150204,-0.152933,0.749059,91.71,1
18131,0,51100,54761,50888.25,54652.22,211.75,108.78,-1.389838,-1.390789,-0.150131,-0.152855,0.749700,91.69,1
18171,0,51114,54789,50888.70,54652.50,225.30,136.50,-1.389847,-1.390794,-0.150059,-0.152777,0.750344,91.68,1
18212,0,51127,54826,50889.18,54652.84,237.82,173.16,-1.389856,-1.390800,-0.149988,-0.152701,0.750990,91.67,1
18251,0,51141,54857,50889.68,54653.25,251.32,203.75,-1.389866,-1.390807,-0.149917,-0.152626,0.751639,91.65,1
18293,0,51158,54877,50890.22,54653.70,267.78,223.30,-1.389876,-1.390816,-0.149846,-0.152552,0.752291,91.64,1
18331,0,51168,54892,50890.78,54654.18,277.22,237.82,-1.389887,-1.390824,-0.149777,-0.152478,0.752945,91.62,1
18371,0,51175,54927,50891.35,54654.73,283.65,272.27,-1.389899,-1.390834,-0.149707,-0.152406,0.753600,91.61,1
18410,0,51173,54808,50891.91,54655.04,281.09,152.96,-1.389910,-1.390840,-0.149638,-0.152329,0.754262,91.60,1
18449,0,51101,54656,50892.33,54655.04,208.67,0.96,-1.389918,-1.390840,-0.149565,-0.152247,0.754929,91.58,1
18490,0,51055,54608,50892.66,54654.95,162.34,-46.95,-1.389924,-1.390838,-0.149491,-0.152163,0.755597,91.57,1
18533,0,51064,54644,50893.00,54654.93,171.00,-10.93,-1.389931,-1.390838,-0.149417,-0.152081,0.756268,91.55,1
18571,0,51086,54668,50893.39,54654.95,192.61,13.05,-1.389939,-1.390839,-0.149344,-0.151999,0.756942,91.54,1
18611,0,51101,54694,50893.81,54655.03,207.19,38.97,-1.389947,-1.390840,-0.149272,-0.151918,0.757621,91.53,1
18653,0,51109,54721,50894.24,54655.16,214.76,65.84,-1.389956,-1.390842,-0.149200,-0.151839,0.758304,91.51,1
18688,0,51127,54742,50894.71,54655.34,232.29,86.66,-1.389965,-1.390846,-0.149129,-0.151760,0.758993,91.50,1
18729,0,51127,54746,50895.18,54655.52,231.82,90.48,-1.389974,-1.390849,-0.149057,-0.151681,0.759687,91.48,1
18771,0,51130,54754,50895.65,54655.72,234.35,98.28,-1.389983,-1.390853,-0.148986,-0.151603,0.760386,91.47,1
18811,0,51138,54770,50896.13,54655.95,241.87,114.05,-1.389993,-1.390857,-0.148915,-0.151526,0.761091,91.45,1
18851,0,51150,54799,50896.64,54656.24,253.36,142.76,-1.390003,-1.390862,-0.148845,-0.151449,0.761801,91.44,1
18894,0,51166,54838,50897.18,54656.61,268.82,181.39,-1.390013,-1.390869,-0.148775,-0.151374,0.762516,91.42,1
18931,0,51177,54866,50897.74,54657.03,279.26,208.97,-1.390024,-1.390877,-0.148706,-0.151300,0.763236,91.41,1
18971,0,51190,54892,50898.33,54657.50,291.67,234.50,-1.390036,-1.390885,-0.148638,-0.151227,0.763959,91.39,1
19008,0,51199,54917,50898.93,54658.02,300.07,258.98,-1.390048,-1.390895,-0.148569,-0.151155,0.764685,91.38,1
19051,0,51214,54927,50899.56,54658.56,314.44,268.44,-1.390060,-1.390905,-0.148502,-0.151083,0.765415,91.36,1
19090,0,51214,54953,50900.19,54659.15,313.81,293.85,-1.390072,-1.390915,-0.148434,-0.151013,0.766147,91.35,1
19128,0,51216,54837,50900.82,54659.50,315.18,177.50,-1.390085,-1.390922,-0.148367,-0.150938,0.766888,91.33,1
19168,0,51133,54654,50901.29,54659.50,231.71,-5.50,-1.390094,-1.390922,-0.148296,-0.150856,0.767635,91.31,1
19208,0,51081,54580,50901.65,54659.34,179.35,-79.34,-1.390101,-1.390919,-0.148223,-0.150772,0.768385,91.30,1
19250,0,51076,54600,50902.00,54659.22,174.00,-59.22,-1.390108,-1.390917,-0.148150,-0.150688,0.769137,91.28,1
19293,0,51090,54607,50902.38,54659.12,187.62,-52.12,-1.390115,-1.390915,-0.148078,-0.150605,0.769892,91.27,1
19332,0,51089,54621,50902.75,54659.05,186.25,-38.05,-1.390123,-1.390913,-0.148005,-0.150523,0.770651,91.25,1
19371,0,51100,54636,50903.15,54659.00,196.85,-23.00,-1.390130,-1.390913,-0.147933,-0.150441,0.771414,91.24,1
19411,0,51117,54671,50903.58,54659.03,213.42,11.97,-1.390139,-1.390913,-0.147862,-0.150360,0.772182,91.22,1
19452,0,51122,54680,50904.02,54659.07,217.98,20.93,-1.390148,-1.390914,-0.147791,-0.150280,0.772956,91.20,1
19493,0,51122,54682,50904.45,54659.12,217.55,22.88,-1.390156,-1.390915,-0.147720,-0.150200,0.773737,91.19,1
19534,0,51122,54691,50904.89,54659.19,217.11,31.81,-1.390165,-1.390916,-0.147649,-0.150120,0.774523,91.17,1
19573,0,51133,54713,50905.35,54659.30,227.65,53.70,-1.390174,-1.390918,-0.147578,-0.150041,0.775315,91.15,1
19613,0,51139,54743,50905.82,54659.46,233.18,83.54,-1.390183,-1.390921,-0.147508,-0.149963,0.776114,91.14,1
19652,0,51149,54761,50906.30,54659.67,242.70,101.33,-1.390192,-1.390925,-0.147438,-0.149886,0.776919,91.12,1
19692,0,51155,54792,50906.80,54659.93,248.20,132.07,-1.390202,-1.390930,-0.147369,-0.149810,0.777729,91.10,1
19734,0,51164,54811,50907.32,54660.24,256.68,150.76,-1.390212,-1.390935,-0.147299,-0.149735,0.778546,91.09,1
19772,0,51174,54835,50907.86,54660.59,266.14,174.41,-1.390223,-1.390942,-0.147230,-0.149660,0.779368,91.07,1
19809,0,51179,54851,50908.40,54660.97,270.60,190.03,-1.390234,-1.390949,-0.147162,-0.149587,0.780194,91.05,1
19852,0,51193,54828,50908.97,54661.31,284.03,166.69,-1.390245,-1.390955,-0.147094,-0.149512,0.781027,91.03,1
19891,0,51126,54632,50909.40,54661.25,216.60,-29.25,-1.390253,-1.390954,-0.147023,-0.149430,0.781867,91.02,1
19932,0,51059,54521,50909.70,54660.97,149.30,-139.97,-1.390259,-1.390949,-0.146950,-0.149345,0.782705,91.00,1
19972,0,51039,54520,50909.96,54660.69,129.04,-140.69,-1.390264,-1.390944,-0.146876,-0.149259,0.783540,90.98,1
20012,0,51059,54545,50910.27,54660.46,148.73,-115.46,-1.390270,-1.390939,-0.146803,-0.149174,0.784374,90.96,1
20051,0,51068,54558,50910.58,54660.26,157.42,-102.26,-1.390276,-1.390936,-0.146730,-0.149090,0.785208,90.95,1
20093,0,51074,54576,50910.91,54660.09,163.09,-84.09,-1.390283,-1.390933,-0.146657,-0.149007,0.786043,90.93,1
20133,0,51089,54619,50911.27,54660.01,177.73,-41.01,-1.390290,-1.390931,-0.146585,-0.148925,0.786882,90.91,1
20173,0,51105,54637,50911.66,54659.96,193.34,-22.96,-1.390298,-1.390930,-0.146514,-0.148844,0.787725,90.89,1
20211,0,51111,54652,50912.06,54659.95,198.94,-7.95,-1.390305,-1.390930,-0.146443,-0.148764,0.788574,90.87,1
20252,0,51109,54662,50912.45,54659.95,196.55,2.05,-1.390313,-1.390930,-0.146372,-0.148683,0.789428,90.86,1
20292,0,51130,54692,50912.89,54660.02,217.11,31.98,-1.390322,-1.390931,-0.146302,-0.148605,0.790288,90.84,1
20333,0,51137,54719,50913.34,54660.14,223.66,58.86,-1.390331,-1.390934,-0.146232,-0.148527,0.791156,90.82,1
20371,0,51150,54757,50913.82,54660.34,236.18,96.66,-1.390340,-1.390937,-0.146163,-0.148450,0.792030,90.80,1
20412,0,51161,54791,50914.31,54660.60,246.69,130.40,-1.390350,-1.390942,-0.146094,-0.148375,0.792910,90.78,1
20453,0,51177,54819,50914.84,54660.91,262.16,158.09,-1.390360,-1.390948,-0.146025,-0.148301,0.793797,90.76,1
20491,0,51194,54851,50915.40,54661.30,278.60,189.70,-1.390371,-1.390955,-0.145958,-0.148228,0.794689,90.74,1
20533,0,51204,54872,50915.98,54661.72,288.02,210.28,-1.390382,-1.390962,-0.145890,-0.148156,0.795586,90.72,1
20575,0,51211,54902,50916.57,54662.20,294.43,239.80,-1.390394,-1.390971,-0.145823,-0.148085,0.796486,90.71,1
20615,0,51216,54818,50917.17,54662.51,298.83,155.49,-1.390406,-1.390977,-0.145757,-0.148011,0.797397,90.69,1
20654,0,51140,54664,50917.61,54662.52,222.39,1.48,-1.390415,-1.390977,-0.145687,-0.147931,0.798315,90.67,1
20690,0,51102,54607,50917.98,54662.41,184.02,-55.41,-1.390422,-1.390975,-0.145616,-0.147849,0.799237,90.65,1
20732,0,51106,54636,50918.36,54662.36,187.64,-26.36,-1.390429,-1.390974,-0.145545,-0.147769,0.800164,90.63,1
20773,0,51123,54657,50918.77,54662.35,204.23,-5.35,-1.390437,-1.390974,-0.145475,-0.147689,0.801096,90.61,1
20818,0,51130,54677,50919.20,54662.38,210.80,14.62,-1.390446,-1.390974,-0.145405,-0.147610,0.802035,90.59,1
20849,0,51140,54706,50919.64,54662.47,220.36,43.53,-1.390454,-1.390976,-0.145335,-0.147532,0.802982,90.57,1
20890,0,51156,54736,50920.11,54662.62,235.89,73.38,-1.390464,-1.390979,-0.145266,-0.147455,0.803936,90.55,1
20930,0,51165,54753,50920.60,54662.80,244.40,90.20,-1.390473,-1.390982,-0.145198,-0.147379,0.804899,90.53,1
20974,0,51170,54759,50921.10,54663.00,248.90,96.00,-1.390483,-1.390986,-0.145130,-0.147304,0.805870,90.51,1
21014,0,51183,54782,50921.62,54663.23,261.37,118.77,-1.390493,-1.390990,-0.145062,-0.147229,0.806850,90.49,1
21052,0,51187,54802,50922.16,54663.51,264.84,138.49,-1.390504,-1.390995,-0.144994,-0.147154,0.807837,90.47,1
21093,0,51196,54833,50922.71,54663.85,273.29,169.15,-1.390515,-1.391001,-0.144927,-0.147081,0.808832,90.45,1
21132,0,51211,54859,50923.29,54664.24,287.71,194.76,-1.390526,-1.391008,-0.144860,-0.147009,0.809832,90.43,1
21173,0,51218,54886,50923.87,54664.69,294.12,221.31,-1.390538,-1.391017,-0.144794,-0.146938,0.810836,90.41,1
21215,0,51228,54909,50924.48,54665.18,303.52,243.82,-1.390550,-1.391026,-0.144728,-0.146868,0.811843,90.38,1
21254,0,51235,54918,50925.11,54665.68,309.89,252.32,-1.390562,-1.391035,-0.144663,-0.146798,0.812851,90.36,1
21292,0,51241,54943,50925.74,54666.24,315.26,276.76,-1.390574,-1.391045,-0.144597,-0.146729,0.813859,90.34,1
21333,0,51244,54958,50926.37,54666.82,317.62,291.18,-1.390587,-1.391056,-0.144532,-0.146661,0.814866,90.32,1
21371,0,51251,54907,50927.03,54667.30,323.97,239.70,-1.390599,-1.391064,-0.144467,-0.146591,0.815877,90.30,1
21415,0,51182,54744,50927.54,54667.46,254.46,76.54,-1.390610,-1.391067,-0.144399,-0.146515,0.816899,90.28,1
21454,0,51125,54645,50927.93,54667.42,197.07,-22.42,-1.390617,-1.391067,-0.144329,-0.146435,0.817926,90.26,1
21495,0,51106,54657,50928.29,54667.40,177.71,-10.40,-1.390624,-1.391066,-0.144259,-0.146356,0.818957,90.23,1
21534,0,51118,54666,50928.67,54667.40,189.33,-1.40,-1.390632,-1.391066,-0.144189,-0.146277,0.819993,90.21,1
21573,0,51113,54681,50929.04,54667.43,183.96,13.57,-1.390639,-1.391067,-0.144119,-0.146199,0.821034,90.19,1
21614,0,51121,54694,50929.43,54667.48,191.57,26.52,-1.390647,-1.391068,-0.144049,-0.146121,0.822080,90.17,1
21656,0,51126,54719,50929.82,54667.59,196.18,51.41,-1.390654,-1.391070,-0.143979,-0.146045,0.823131,90.14,1
21696,0,51130,54712,50930.23,54667.68,199.77,44.32,-1.390662,-1.391071,-0.143909,-0.145968,0.824188,90.12,1
21733,0,51129,54707,50930.62,54667.75,198.37,39.25,-1.390670,-1.391073,-0.143840,-0.145891,0.825250,90.10,1
21774,0,51120,54712,50931.00,54667.84,189.00,44.16,-1.390677,-1.391074,-0.143770,-0.145814,0.826317,90.08,1
21813,0,51126,54734,50931.39,54667.98,194.61,66.02,-1.390685,-1.391077,-0.143700,-0.145738,0.827389,90.05,1
21853,0,51126,54757,50931.79,54668.16,194.21,88.84,-1.390693,-1.391080,-0.143631,-0.145663,0.828464,90.03,1
21895,0,51137,54777,50932.20,54668.37,204.80,108.62,-1.390701,-1.391084,-0.143562,-0.145588,0.829542,90.01,1
21933,0,51145,54798,50932.62,54668.64,212.38,129.36,-1.390709,-1.391089,-0.143493,-0.145515,0.830624,89.98,1
21974,0,51153,54814,50933.06,54668.93,219.94,145.07,-1.390718,-1.391094,-0.143424,-0.145442,0.831708,89.96,1
22017,0,51156,54831,50933.51,54669.25,222.49,161.75,-1.390727,-1.391100,-0.143356,-0.145369,0.832792,89.94,1
22052,0,51167,54841,50933.98,54669.60,233.02,171.40,-1.390736,-1.391106,-0.143288,-0.145297,0.833878,89.91,1
22092,0,51173,54871,50934.46,54670.00,238.54,201.00,-1.390745,-1.391114,-0.143221,-0.145227,0.834963,89.89,1
22134,0,51168,54779,50934.93,54670.22,233.07,108.78,-1.390754,-1.391118,-0.143153,-0.145153,0.836054,89.87,1
22177,0,51106,54655,50935.27,54670.19,170.73,-15.19,-1.390761,-1.391117,-0.143083,-0.145074,0.837149,89.84,1
22215,0,51066,54613,50935.53,54670.08,130.47,-57.08,-1.390766,-1.391115,-0.143011,-0.144994,0.838244,89.82,1
22254,0,51070,54636,50935.80,54670.01,134.20,-34.01,-1.390772,-1.391114,-0.142939,-0.144915,0.839339,89.80,1
22294,0,51083,54667,50936.10,54670.01,146.90,-3.01,-1.390778,-1.391114,-0.142868,-0.144837,0.840437,89.77,1
22334,0,51101,54697,50936.43,54670.06,164.57,26.94,-1.390784,-1.391115,-0.142798,-0.144760,0.841539,89.75,1
22375,0,51111,54731,50936.78,54670.19,174.22,60.81,-1.390791,-1.391117,-0.142728,-0.144684,0.842644,89.72,1
22415,0,51130,54750,50937.17,54670.35,192.83,79.65,-1.390799,-1.391120,-0.142659,-0.144609,0.843753,89.70,1
22456,0,51129,54750,50937.55,54670.51,191.45,79.49,-1.390806,-1.391123,-0.142590,-0.144534,0.844867,89.67,1
22497,0,51132,54763,50937.95,54670.70,194.05,92.30,-1.390814,-1.391127,-0.142521,-0.144460,0.845985,89.65,1
22535,0,51142,54782,50938.36,54670.92,203.64,111.08,-1.390822,-1.391131,-0.142453,-0.144387,0.847105,89.62,1
22575,0,51149,54809,50938.78,54671.20,210.22,137.80,-1.390830,-1.391136,-0.142384,-0.144314,0.848228,89.60,1
22616,0,51161,54845,50939.22,54671.54,221.78,173.46,-1.390839,-1.391142,-0.142317,-0.144243,0.849351,89.57,1
22655,0,51169,54878,50939.68,54671.96,229.32,206.04,-1.390848,-1.391150,-0.142249,-0.144173,0.850469,89.55,1
22698,0,51189,54909,50940.18,54672.43,248.82,236.57,-1.390858,-1.391158,-0.142183,-0.144104,0.851581,89.52,1
22735,0,51201,54941,50940.71,54672.97,260.29,268.03,-1.390868,-1.391168,-0.142117,-0.144036,0.852683,89.50,1
22776,0,51221,54980,50941.27,54673.59,279.73,306.41,-1.390879,-1.391179,-0.142051,-0.143970,0.853770,89.47,1
22815,0,51232,55017,50941.85,54674.28,290.15,342.72,-1.390890,-1.391192,-0.141986,-0.143905,0.854836,89.45,1
22857,0,51230,54935,50942.43,54674.80,287.57,260.20,-1.390902,-1.391202,-0.141922,-0.143838,0.855897,89.42,1
22895,0,51175,54812,50942.89,54675.08,232.11,136.92,-1.390911,-1.391207,-0.141854,-0.143765,0.856964,89.40,1
22935,0,51140,54783,50943.29,54675.30,196.71,107.70,-1.390919,-1.391211,-0.141786,-0.143692,0.858034,89.37,1
22975,0,51151,54813,50943.71,54675.57,207.29,137.43,-1.390927,-1.391216,-0.141718,-0.143620,0.859106,89.35,1
23017,0,51165,54837,50944.15,54675.90,220.85,161.10,-1.390936,-1.391222,-0.141651,-0.143549,0.860179,89.32,1
23055,0,51179,54864,50944.62,54676.28,234.37,187.72,-1.390945,-1.391229,-0.141584,-0.143478,0.861252,89.30,1
23097,0,51194,54905,50945.12,54676.73,248.87,228.27,-1.390955,-1.391237,-0.141518,-0.143410,0.862319,89.27,1
23141,0,51218,54939,50945.67,54677.26,272.33,261.74,-1.390965,-1.391247,-0.141452,-0.143342,0.863380,89.24,1
23173,0,51223,54952,50946.23,54677.81,276.77,274.19,-1.390976,-1.391257,-0.141387,-0.143275,0.864432,89.22,1
23215,0,51229,54965,50946.79,54678.39,282.21,286.61,-1.390987,-1.391267,-0.141323,-0.143209,0.865474,89.19,1
23255,0,51237,54989,50947.37,54679.01,289.62,309.99,-1.390999,-1.391279,-0.141258,-0.143143,0.866503,89.17,1
23297,0,51251,55019,50947.98,54679.69,303.02,339.31,-1.391011,-1.391291,-0.141194,-0.143079,0.867514,89.14,1
23336,0,51263,55048,50948.62,54680.43,314.38,367.57,-1.391023,-1.391304,-0.141131,-0.143015,0.868503,89.12,1
23377,0,51271,55071,50949.26,54681.21,321.74,389.79,-1.391036,-1.391319,-0.141068,-0.142953,0.869467,89.09,1
23415,0,51279,55094,50949.92,54682.04,329.08,411.96,-1.391049,-1.391334,-0.141005,-0.142891,0.870402,89.06,1
23456,0,51289,55123,50950.60,54682.92,338.40,440.08,-1.391062,-1.391350,-0.140943,-0.142830,0.871304,89.04,1
23492,0,51300,55134,50951.30,54683.82,348.70,450.18,-1.391076,-1.391367,-0.140881,-0.142770,0.872174,89.01,1
23538,0,51309,55157,50952.02,54684.77,356.98,472.23,-1.391090,-1.391384,-0.140819,-0.142711,0.873008,88.99,1
23576,0,51311,55180,50952.73,54685.76,358.27,494.24,-1.391104,-1.391402,-0.140758,-0.142652,0.873803,88.96,1
23616,0,51297,55056,50953.43,54686.50,343.57,369.50,-1.391118,-1.391416,-0.140696,-0.142589,0.874587,88.94,1
23655,0,51226,54941,50953.97,54687.02,272.03,253.98,-1.391128,-1.391425,-0.140631,-0.142522,0.875370,88.91,1
23697,0,51199,54904,50954.46,54687.45,244.54,216.55,-1.391138,-1.391433,-0.140565,-0.142453,0.876151,88.89,1
23737,0,51203,54929,50954.96,54687.93,248.04,241.07,-1.391148,-1.391442,-0.140499,-0.142386,0.876930,88.87,1
23777,0,51212,54946,50955.48,54688.45,256.52,257.55,-1.391158,-1.391451,-0.140434,-0.142318,0.877704,88.84,1
23816,0,51215,54964,50956.00,54689.00,259.00,275.00,-1.391168,-1.391461,-0.140369,-0.142252,0.878472,88.82,1
23858,0,51232,55001,50956.55,54689.62,275.45,311.37,-1.391179,-1.391473,-0.140304,-0.142187,0.879230,88.79,1
23895,0,51249,55031,50957.14,54690.31,291.86,340.69,-1.391191,-1.391485,-0.140241,-0.142123,0.879975,88.77,1
23937,0,51259,55043,50957.75,54691.02,301.25,351.98,-1.391202,-1.391498,-0.140177,-0.142060,0.880706,88.75,1
23974,0,51266,55054,50958.36,54691.74,307.64,362.26,-1.391214,-1.391511,-0.140114,-0.141997,0.881425,88.72,1
24012,0,51271,55075,50958.99,54692.51,312.01,382.49,-1.391227,-1.391526,-0.140051,-0.141935,0.882126,88.70,1
24053,0,51282,55102,50959.64,54693.33,322.36,408.67,-1.391240,-1.391540,-0.139989,-0.141873,0.882808,88.68,1
24094,0,51296,55134,50960.31,54694.21,335.69,439.79,-1.391253,-1.391557,-0.139927,-0.141813,0.883467,88.65,1
24136,0,51306,55163,50961.00,54695.15,345.00,467.85,-1.391266,-1.391574,-0.139865,-0.141754,0.884098,88.63,1
24177,0,51321,55184,50961.73,54696.13,359.27,487.87,-1.391281,-1.391592,-0.139805,-0.141696,0.884702,88.61,1
24216,0,51332,55207,50962.47,54697.16,369.53,509.84,-1.391295,-1.391610,-0.139744,-0.141639,0.885276,88.59,1
24260,0,51340,55225,50963.23,54698.21,376.77,526.79,-1.391310,-1.391630,-0.139684,-0.141582,0.885819,88.56,1
24294,0,51345,55242,50963.99,54699.30,381.01,542.70,-1.391325,-1.391650,-0.139624,-0.141526,0.886330,88.54,1
24336,0,51349,55263,50964.76,54700.43,384.24,562.57,-1.391340,-1.391670,-0.139564,-0.141471,0.886807,88.52,1
24376,0,51345,55174,50965.52,54701.38,379.48,472.62,-1.391355,-1.391688,-0.139504,-0.141412,0.887269,88.50,1
24417,0,51276,55034,50966.14,54702.05,309.86,331.95,-1.391367,-1.391700,-0.139442,-0.141348,0.887728,88.48,1
24457,0,51234,54966,50966.68,54702.58,267.32,263.42,-1.391378,-1.391710,-0.139377,-0.141282,0.888186,88.46,1
24501,0,51222,54977,50967.19,54703.13,254.81,273.87,-1.391388,-1.391720,-0.139313,-0.141216,0.888643,88.44,1
24537,0,51228,54982,50967.71,54703.69,260.29,278.31,-1.391398,-1.391730,-0.139248,-0.141151,0.889097,88.42,1
24577,0,51223,54984,50968.23,54704.25,254.77,279.75,-1.391408,-1.391740,-0.139184,-0.141085,0.889548,88.40,1
24616,0,51222,54996,50968.73,54704.84,253.27,291.16,-1.391418,-1.391751,-0.139119,-0.141020,0.889994,88.38,1
24658,0,51237,55021,50969.27,54705.47,267.73,315.53,-1.391429,-1.391762,-0.139055,-0.140956,0.890435,88.36,1
24698,0,51236,55021,50969.81,54706.11,266.19,314.89,-1.391439,-1.391774,-0.138991,-0.140892,0.890870,88.34,1
24740,0,51233,55011,50970.34,54706.71,262.66,304.29,-1.391449,-1.391785,-0.138927,-0.140827,0.891300,88.32,1
24777,0,51228,55016,50970.85,54707.34,257.15,308.66,-1.391460,-1.391796,-0.138862,-0.140763,0.891724,88.30,1
24816,0,51230,55031,50971.37,54707.98,258.63,323.02,-1.391470,-1.391808,-0.138798,-0.140699,0.892141,88.29,1
24857,0,51230,55045,50971.89,54708.66,258.11,336.34,-1.391480,-1.391821,-0.138734,-0.140636,0.892549,88.27,1
24899,0,51234,55057,50972.42,54709.36,261.58,347.64,-1.391490,-1.391833,-0.138670,-0.140574,0.892948,88.25,1
24939,0,51245,55080,50972.96,54710.10,272.04,369.90,-1.391501,-1.391847,-0.138606,-0.140512,0.893335,88.23,1
24978,0,51249,55091,50973.52,54710.86,275.48,380.14,-1.391512,-1.391861,-0.138543,-0.140450,0.893709,88.22,1
25016,0,51259,55109,50974.09,54711.66,284.91,397.34,-1.391523,-1.391876,-0.138480,-0.140389,0.894071,88.20,1
25059,0,51266,55132,50974.68,54712.50,291.32,419.50,-1.391535,-1.391891,-0.138417,-0.140330,0.894417,88.18,1
25099,0,51276,55156,50975.29,54713.39,300.71,442.61,-1.391547,-1.391907,-0.138354,-0.140270,0.894746,88.16,1
25137,0,51283,55109,50975.90,54714.18,307.10,394.82,-1.391559,-1.391922,-0.138292,-0.140210,0.895065,88.15,1
25176,0,51219,54960,50976.39,54714.68,242.61,245.32,-1.391568,-1.391931,-0.138228,-0.140143,0.895385,88.13,1
25217,0,51168,54880,50976.77,54715.01,191.23,164.99,-1.391576,-1.391937,-0.138161,-0.140074,0.895707,88.12,1
25256,0,51159,54899,50977.14,54715.38,181.86,183.62,-1.391583,-1.391943,-0.138094,-0.140006,0.896028,88.10,1
25296,0,51168,54910,50977.52,54715.77,190.48,194.23,-1.391590,-1.391951,-0.138028,-0.139938,0.896349,88.09,1
25337,0,51170,54939,50977.91,54716.22,192.09,222.78,-1.391598,-1.391959,-0.137961,-0.139871,0.896668,88.07,1
25382,0,51183,54964,50978.32,54716.71,204.68,247.29,-1.391606,-1.391968,-0.137896,-0.139805,0.896983,88.06,1
25416,0,51196,54988,50978.76,54717.26,217.24,270.74,-1.391615,-1.391978,-0.137830,-0.139740,0.897294,88.04,1
25458,0,51201,54989,50979.20,54717.80,221.80,271.20,-1.391623,-1.391988,-0.137765,-0.139675,0.897601,88.03,1
25500,0,51197,54986,50979.64,54718.34,217.36,267.66,-1.391632,-1.391998,-0.137700,-0.139610,0.897904,88.01,1
25535,0,51196,55001,50980.07,54718.91,215.93,282.09,-1.391641,-1.392008,-0.137635,-0.139545,0.898202,88.00,1
25575,0,51201,55027,50980.52,54719.52,220.48,307.48,-1.391649,-1.392019,-0.137569,-0.139482,0.898492,87.98,1
25615,0,51212,55052,50980.98,54720.19,231.02,331.81,-1.391658,-1.392031,-0.137505,-0.139419,0.898773,87.97,1
25660,0,51222,55077,50981.46,54720.91,240.54,356.09,-1.391668,-1.392045,-0.137441,-0.139357,0.899043,87.96,1
25701,0,51228,55102,50981.96,54721.67,246.04,380.33,-1.391677,-1.392058,-0.137377,-0.139296,0.899300,87.94,1
25738,0,51247,55127,50982.49,54722.48,264.51,404.52,-1.391688,-1.392073,-0.137314,-0.139237,0.899542,87.93,1
25779,0,51252,55152,50983.03,54723.34,268.97,428.66,-1.391698,-1.392089,-0.137251,-0.139178,0.899767,87.92,1
25818,0,51262,55180,50983.59,54724.25,278.41,455.75,-1.391710,-1.392106,-0.137188,-0.139120,0.899972,87.91,1
25859,0,51270,55140,50984.16,54725.09,285.84,414.91,-1.391721,-1.392121,-0.137126,-0.139060,0.900166,87.89,1
25898,0,51220,54996,50984.64,54725.63,235.36,270.37,-1.391730,-1.392131,-0.137062,-0.138996,0.900358,87.88,1
25938,0,51173,54938,50985.02,54726.05,187.98,211.95,-1.391737,-1.392138,-0.136996,-0.138929,0.900549,87.87,1
25978,0,51167,54952,50985.38,54726.51,181.62,225.49,-1.391745,-1.392147,-0.136929,-0.138863,0.900739,87.86,1
26022,0,51186,54979,50985.79,54727.02,200.21,251.98,-1.391753,-1.392156,-0.136864,-0.138798,0.900925,87.85,1
26058,0,51193,55005,50986.20,54727.57,206.80,277.43,-1.391761,-1.392166,-0.136799,-0.138733,0.901107,87.84,1
26102,0,51205,55034,50986.64,54728.19,218.36,305.81,-1.391769,-1.392178,-0.136734,-0.138670,0.901283,87.82,1
26138,0,51223,55063,50987.11,54728.86,235.89,334.14,-1.391779,-1.392190,-0.136670,-0.138608,0.901452,87.81,1
26176,0,51231,55064,50987.60,54729.53,243.40,334.47,-1.391788,-1.392202,-0.136607,-0.138546,0.901614,87.80,1
26217,0,51232,55060,50988.09,54730.20,243.91,329.80,-1.391798,-1.392214,-0.136543,-0.138484,0.901770,87.79,1
26258,0,51225,55071,50988.56,54730.88,236.44,340.12,-1.391807,-1.392227,-0.136479,-0.138422,0.901919,87.78,1
26298,0,51230,55090,50989.05,54731.60,240.95,358.40,-1.391816,-1.392240,-0.136416,-0.138361,0.902058,87.77,1
26339,0,51238,55122,50989.55,54732.38,248.45,389.62,-1.391826,-1.392254,-0.136352,-0.138301,0.902186,87.76,1
26379,0,51254,55147,50990.08,54733.21,263.92,413.79,-1.391837,-1.392269,-0.136290,-0.138242,0.902300,87.75,1
26419,0,51265,55174,50990.63,54734.09,274.37,439.91,-1.391847,-1.392285,-0.136228,-0.138184,0.902400,87.74,1
26463,0,51276,55197,50991.20,54735.02,284.80,461.98,-1.391859,-1.392302,-0.136166,-0.138127,0.902484,87.73,1
26502,0,51285,55217,50991.79,54735.98,293.21,481.02,-1.391870,-1.392320,-0.136104,-0.138071,0.902550,87.73,1
26536,0,51292,55235,50992.39,54736.98,299.61,498.02,-1.391882,-1.392338,-0.136043,-0.138015,0.902597,87.72,1
26581,0,51297,55243,50993.00,54738.00,304.00,505.00,-1.391894,-1.392357,-0.135982,-0.137959,0.902626,87.71,1
26619,0,51262,55093,50993.54,54738.71,268.46,354.29,-1.391905,-1.392370,-0.135920,-0.137898,0.902652,87.70,1
26659,0,51191,54978,50993.93,54739.19,197.07,238.81,-1.391912,-1.392378,-0.135855,-0.137833,0.902677,87.69,1
26699,0,51156,54934,50994.26,54739.58,161.74,194.42,-1.391919,-1.392386,-0.135789,-0.137766,0.902702,87.68,1
26741,0,51168,54959,50994.61,54740.02,173.39,218.98,-1.391926,-1.392394,-0.135723,-0.137701,0.902726,87.68,1
26781,0,51177,54971,50994.97,54740.48,182.03,230.52,-1.391933,-1.392402,-0.135657,-0.137635,0.902749,87.67,1
26819,0,51186,54992,50995.36,54740.99,190.64,251.01,-1.391940,-1.392411,-0.135592,-0.137571,0.902770,87.66,1
26857,0,51197,55029,50995.76,54741.57,201.24,287.43,-1.391948,-1.392422,-0.135528,-0.137508,0.902787,87.66,1
26899,0,51217,55057,50996.21,54742.20,220.79,314.80,-1.391957,-1.392434,-0.135464,-0.137446,0.902800,87.65,1
26940,0,51223,55066,50996.66,54742.85,226.34,323.15,-1.391966,-1.392445,-0.135400,-0.137384,0.902808,87.64,1
26981,0,51234,55066,50997.14,54743.50,236.86,322.50,-1.391975,-1.392457,-0.135337,-0.137322,0.902812,87.64,1
27019,0,51236,55082,50997.62,54744.18,238.38,337.82,-1.391985,-1.392470,-0.135274,-0.137261,0.902812,87.63,1
27060,0,51248,55107,50998.12,54744.90,249.88,362.10,-1.391994,-1.392483,-0.135212,-0.137201,0.902806,87.62,1
27099,0,51260,55142,50998.64,54745.70,261.36,396.30,-1.392005,-1.392497,-0.135150,-0.137142,0.902791,87.62,1
27141,0,51271,55167,50999.19,54746.54,271.81,420.46,-1.392015,-1.392513,-0.135088,-0.137083,0.902767,87.61,1
27176,0,51285,55193,50999.77,54747.44,285.23,445.56,-1.392027,-1.392529,-0.135027,-0.137026,0.902732,87.61,1
27216,0,51294,55212,51000.36,54748.37,293.64,463.63,-1.392038,-1.392546,-0.134966,-0.136970,0.902685,87.60,1
27258,0,51298,55229,51000.95,54749.33,297.05,479.67,-1.392050,-1.392564,-0.134906,-0.136914,0.902624,87.60,1
27297,0,51310,55247,51001.57,54750.32,308.43,496.68,-1.392062,-1.392582,-0.134846,-0.136859,0.902551,87.59,1
27338,0,51317,55221,51002.21,54751.27,314.79,469.73,-1.392075,-1.392599,-0.134786,-0.136803,0.902468,87.59,1
27380,0,51265,55047,51002.73,54751.86,262.27,295.14,-1.392085,-1.392610,-0.134724,-0.136740,0.902388,87.58,1
27419,0,51199,54940,51003.13,54752.24,195.87,187.76,-1.392093,-1.392617,-0.134660,-0.136674,0.902311,87.58,1
27462,0,51173,54928,51003.47,54752.59,169.53,175.41,-1.392099,-1.392623,-0.134594,-0.136607,0.902235,87.57,1
27500,0,51192,54948,51003.85,54752.98,188.15,195.02,-1.392107,-1.392630,-0.134530,-0.136541,0.902162,87.57,1
27542,0,51199,54950,51004.24,54753.37,194.76,196.62,-1.392114,-1.392638,-0.134465,-0.136475,0.902092,87.57,1
27582,0,51204,54953,51004.64,54753.78,199.36,199.22,-1.392122,-1.392645,-0.134401,-0.136410,0.902024,87.56,1
27621,0,51210,54989,51005.05,54754.25,204.95,234.75,-1.392130,-1.392654,-0.134338,-0.136345,0.901957,87.56,1
27657,0,51216,54987,51005.47,54754.72,210.53,232.28,-1.392139,-1.392662,-0.134274,-0.136281,0.901892,87.56,1
27697,0,51219,54991,51005.90,54755.19,213.10,235.81,-1.392147,-1.392671,-0.134211,-0.136216,0.901829,87.55,1
27743,0,51213,54982,51006.32,54755.64,206.68,226.36,-1.392155,-1.392679,-0.134147,-0.136152,0.901768,87.55,1
27779,0,51224,55004,51006.75,54756.14,217.25,247.86,-1.392164,-1.392688,-0.134084,-0.136088,0.901708,87.55,1
27819,0,51223,55010,51007.19,54756.65,215.81,253.35,-1.392172,-1.392698,-0.134021,-0.136024,0.901649,87.55,1
27861,0,51227,55033,51007.63,54757.21,219.37,275.79,-1.392181,-1.392708,-0.133957,-0.135962,0.901589,87.54,1
27902,0,51226,55041,51008.07,54757.78,217.93,283.22,-1.392190,-1.392718,-0.133894,-0.135899,0.901528,87.54,1
27943,0,51238,55053,51008.53,54758.37,229.47,294.63,-1.392198,-1.392729,-0.133832,-0.135837,0.901466,87.54,1
27982,0,51246,55058,51009.00,54758.97,237.00,299.03,-1.392208,-1.392740,-0.133770,-0.135776,0.901404,87.54,1
28022,0,51242,55064,51009.47,54759.59,232.53,304.41,-1.392217,-1.392751,-0.133707,-0.135714,0.901340,87.53,1
28062,0,51244,55062,51009.94,54760.19,234.06,301.81,-1.392226,-1.392762,-0.133645,-0.135652,0.901275,87.53,1
28099,0,51242,55043,51010.41,54760.76,231.59,282.24,-1.392235,-1.392773,-0.133583,-0.135590,0.901211,87.53,1
28140,0,51197,54868,51010.78,54760.97,186.22,107.03,-1.392243,-1.392776,-0.133518,-0.135521,0.901152,87.53,1
28180,0,51124,54750,51011.01,54760.95,112.99,-10.95,-1.392247,-1.392776,-0.133451,-0.135449,0.901095,87.53,1
28222,0,51099,54733,51011.18,54760.90,87.82,-27.90,-1.392251,-1.392775,-0.133384,-0.135375,0.901041,87.52,1
28260,0,51107,54753,51011.37,54760.88,95.62,-7.88,-1.392254,-1.392775,-0.133316,-0.135302,0.900988,87.52,1
28299,0,51112,54751,51011.58,54760.86,100.42,-9.86,-1.392258,-1.392774,-0.133249,-0.135229,0.900938,87.52,1
28340,0,51113,54750,51011.78,54760.84,101.22,-10.84,-1.392262,-1.392774,-0.133182,-0.135157,0.900890,87.52,1
28381,0,51117,54767,51011.99,54760.86,105.01,6.14,-1.392266,-1.392774,-0.133114,-0.135085,0.900844,87.52,1
28419,0,51116,54769,51012.20,54760.88,103.80,8.12,-1.392271,-1.392775,-0.133047,-0.135013,0.900801,87.52,1
28460,0,51111,54757,51012.40,54760.87,98.60,-3.87,-1.392274,-1.392774,-0.132980,-0.134940,0.900761,87.52,1
28500,0,51111,54757,51012.60,54760.86,98.40,-3.86,-1.392278,-1.392774,-0.132913,-0.134868,0.900722,87.52,1
28543,0,51117,54775,51012.81,54760.89,104.19,14.11,-1.392282,-1.392775,-0.132846,-0.134797,0.900686,87.52,1
28581,0,51124,54801,51013.04,54760.98,110.96,40.02,-1.392287,-1.392776,-0.132779,-0.134726,0.900653,87.51,1
28626,0,51135,54821,51013.28,54761.10,121.72,59.90,-1.392292,-1.392779,-0.132713,-0.134656,0.900622,87.51,1
28660,0,51142,54847,51013.54,54761.27,128.46,85.73,-1.392297,-1.392782,-0.132647,-0.134587,0.900594,87.51,1
28701,0,51147,54866,51013.81,54761.48,133.19,104.52,-1.392302,-1.392786,-0.132582,-0.134519,0.900569,87.51,1
28741,0,51159,54899,51014.10,54761.76,144.90,137.24,-1.392308,-1.392791,-0.132517,-0.134452,0.900545,87.51,1
28781,0,51173,54930,51014.42,54762.10,158.58,167.90,-1.392314,-1.392797,-0.132452,-0.134386,0.900523,87.51,1
28821,0,51199,54903,51014.79,54762.38,184.21,140.62,-1.392321,-1.392802,-0.132389,-0.134320,0.900506,87.51,1
28861,0,51141,54755,51015.05,54762.37,125.95,-7.37,-1.392326,-1.392802,-0.132323,-0.134247,0.900492,87.51,1
28902,0,51093,54683,51015.20,54762.21,77.80,-79.21,-1.392329,-1.392799,-0.132255,-0.134173,0.900479,87.51,1
28941,0,51077,54704,51015.33,54762.10,61.67,-58.10,-1.392332,-1.392797,-0.132187,-0.134099,0.900467,87.51,1
28981,0,51103,54742,51015.50,54762.06,87.50,-20.06,-1.392335,-1.392796,-0.132120,-0.134027,0.900456,87.51,1
29021,0,51116,54768,51015.71,54762.07,100.29,5.93,-1.392339,-1.392797,-0.132053,-0.133955,0.900448,87.51,1
29063,0,51142,54804,51015.96,54762.16,126.04,41.84,-1.392344,-1.392798,-0.131988,-0.133885,0.900443,87.51,1
29100,0,51158,54844,51016.25,54762.32,141.75,81.68,-1.392350,-1.392801,-0.131923,-0.133816,0.900442,87.51,1
29142,0,51170,54847,51016.55,54762.50,153.45,84.50,-1.392356,-1.392804,-0.131858,-0.133748,0.900446,87.50,1
29181,0,51172,54851,51016.87,54762.68,155.13,88.32,-1.392362,-1.392808,-0.131794,-0.133680,0.900454,87.50,1
29220,0,51175,54867,51017.18,54762.89,157.82,104.11,-1.392368,-1.392811,-0.131730,-0.133612,0.900467,87.50,1
29261,0,51181,54896,51017.51,54763.16,163.49,132.84,-1.392375,-1.392816,-0.131666,-0.133546,0.900484,87.50,1
29301,0,51195,54923,51017.87,54763.48,177.13,159.52,-1.392382,-1.392822,-0.131602,-0.133480,0.900504,87.50,1
29344,0,51212,54953,51018.26,54763.86,193.74,189.14,-1.392389,-1.392829,-0.131540,-0.133416,0.900527,87.50,1
29383,0,51227,54983,51018.68,54764.30,208.32,218.70,-1.392397,-1.392837,-0.131478,-0.133352,0.900552,87.50,1
29420,0,51237,55012,51019.11,54764.79,217.89,247.21,-1.392406,-1.392846,-0.131416,-0.133290,0.900578,87.50,1
29463,0,51249,55036,51019.57,54765.34,229.43,270.66,-1.392415,-1.392856,-0.131355,-0.133229,0.900604,87.50,1
29501,0,51257,55056,51020.05,54765.92,236.95,290.08,-1.392424,-1.392867,-0.131294,-0.133168,0.900629,87.50,1
29543,0,51241,54931,51020.49,54766.25,220.51,164.75,-1.392433,-1.392873,-0.131232,-0.133103,0.900661,87.50,1
29581,0,51168,54789,51020.79,54766.30,147.21,22.70,-1.392439,-1.392874,-0.131168,-0.133033,0.900699,87.50,1
29623,0,51133,54750,51021.02,54766.27,111.98,-16.27,-1.392443,-1.392873,-0.131102,-0.132961,0.900740,87.50,1
29662,0,51144,54780,51021.26,54766.29,122.74,13.71,-1.392448,-1.392874,-0.131037,-0.132890,0.900785,87.50,1
29702,0,51156,54807,51021.53,54766.37,134.47,40.63,-1.392453,-1.392875,-0.130973,-0.132821,0.900835,87.50,1
29743,0,51167,54829,51021.82,54766.50,145.18,62.50,-1.392459,-1.392877,-0.130909,-0.132752,0.900889,87.50,1
29780,0,51179,54867,51022.14,54766.70,156.86,100.30,-1.392465,-1.392881,-0.130845,-0.132685,0.900948,87.50,1
29821,0,51198,54895,51022.49,54766.96,175.51,128.04,-1.392472,-1.392886,-0.130782,-0.132619,0.901011,87.50,1
29862,0,51209,54907,51022.87,54767.24,186.13,139.76,-1.392480,-1.392891,-0.130719,-0.132553,0.901080,87.50,1
29902,0,51216,54916,51023.25,54767.54,192.75,148.46,-1.392487,-1.392896,-0.130657,-0.132488,0.901155,87.49,1
29944,0,51220,54947,51023.65,54767.90,196.35,179.10,-1.392495,-1.392903,-0.130595,-0.132423,0.901234,87.49,1
29981,0,51236,54980,51024.07,54768.33,211.93,211.67,-1.392503,-1.392911,-0.130534,-0.132360,0.901315,87.49,1
30022,0,51248,55017,51024.52,54768.83,223.48,248.17,-1.392512,-1.392920,-0.130473,-0.132299,0.901398,87.49,1
30063,0,51267,55050,51025.01,54769.39,241.99,280.61,-1.392522,-1.392930,-0.130413,-0.132238,0.901480,87.49,1
30102,0,51281,55080,51025.52,54770.01,255.48,309.99,-1.392532,-1.392941,-0.130353,-0.132179,0.901559,87.49,1
30142,0,51296,55108,51026.06,54770.69,269.94,337.31,-1.392542,-1.392954,-0.130294,-0.132121,0.901636,87.49,1
30182,0,51307,55126,51026.62,54771.40,280.37,354.60,-1.392553,-1.392967,-0.130236,-0.132063,0.901708,87.49,1
30226,0,51313,55144,51027.20,54772.14,285.80,371.86,-1.392565,-1.392980,-0.130177,-0.132006,0.901774,87.49,1
30263,0,51303,55016,51027.75,54772.63,275.25,243.37,-1.392575,-1.392989,-0.130119,-0.131944,0.901848,87.49,1
30302,0,51224,54863,51028.15,54772.82,195.85,90.18,-1.392583,-1.392993,-0.130057,-0.131877,0.901931,87.49,1
30345,0,51178,54810,51028.45,54772.89,149.55,37.11,-1.392589,-1.392994,-0.129993,-0.131808,0.902020,87.48,1
30382,0,51172,54830,51028.74,54773.01,143.26,56.99,-1.392595,-1.392996,-0.129930,-0.131740,0.902113,87.48,1
30423,0,51188,54831,51029.06,54773.12,158.94,57.88,-1.392601,-1.392998,-0.129867,-0.131672,0.902213,87.48,1
30459,0,51193,54841,51029.39,54773.26,163.61,67.74,-1.392607,-1.393001,-0.129804,-0.131604,0.902319,87.48,1
30500,0,51195,54866,51029.72,54773.45,165.28,92.55,-1.392614,-1.393004,-0.129741,-0.131537,0.902430,87.48,1
30540,0,51215,54905,51030.09,54773.71,184.91,131.29,-1.392621,-1.393009,-0.129679,-0.131471,0.902547,87.48,1
30582,0,51223,54920,51030.48,54774.01,192.52,145.99,-1.392629,-1.393014,-0.129617,-0.131407,0.902670,87.48,1
30623,0,51229,54937,51030.87,54774.34,198.12,162.66,-1.392637,-1.393021,-0.129556,-0.131342,0.902797,87.48,1
30663,0,51235,54952,51031.29,54774.69,203.71,177.31,-1.392645,-1.393027,-0.129495,-0.131279,0.902930,87.47,1
30703,0,51245,54979,51031.71,54775.10,213.29,203.90,-1.392653,-1.393034,-0.129434,-0.131216,0.903065,87.47,1
30745,0,51255,55008,51032.16,54775.57,222.84,232.43,-1.392662,-1.393043,-0.129374,-0.131155,0.903203,87.47,1
30782,0,51263,55038,51032.63,54776.10,230.37,261.90,-1.392671,-1.393053,-0.129314,-0.131094,0.903339,87.47,1
30827,0,51276,55072,51033.12,54776.69,242.88,295.31,-1.392681,-1.393063,-0.129255,-0.131035,0.903473,87.47,1
30862,0,51285,55094,51033.62,54777.33,251.38,316.67,-1.392690,-1.393075,-0.129195,-0.130977,0.903602,87.47,1
30901,0,51298,55122,51034.15,54778.02,263.85,343.98,-1.392701,-1.393088,-0.129137,-0.130919,0.903724,87.46,1
30942,0,51308,55142,51034.70,54778.75,273.30,363.25,-1.392712,-1.393101,-0.129079,-0.130863,0.903839,87.46,1
30983,0,51325,55118,51035.29,54779.43,289.71,338.57,-1.392723,-1.393113,-0.129021,-0.130805,0.903951,87.46,1
31024,0,51263,54939,51035.74,54779.75,227.26,159.25,-1.392732,-1.393119,-0.128961,-0.130741,0.904073,87.46,1
31064,0,51204,54849,51036.08,54779.89,167.92,69.11,-1.392738,-1.393122,-0.128899,-0.130674,0.904200,87.46,1
31103,0,51182,54847,51036.37,54780.03,145.63,66.97,-1.392744,-1.393124,-0.128836,-0.130607,0.904333,87.45,1
31146,0,51196,54874,51036.69,54780.21,159.31,93.79,-1.392751,-1.393128,-0.128774,-0.130540,0.904471,87.45,1
31186,0,51206,54883,51037.03,54780.42,168.97,102.58,-1.392757,-1.393131,-0.128712,-0.130475,0.904614,87.45,1
31225,0,51214,54897,51037.39,54780.66,176.61,116.34,-1.392764,-1.393136,-0.128650,-0.130409,0.904762,87.45,1
31264,0,51228,54937,51037.77,54780.97,190.23,156.03,-1.392772,-1.393142,-0.128589,-0.130345,0.904915,87.45,1
31302,0,51244,54951,51038.18,54781.31,205.82,169.69,-1.392780,-1.393148,-0.128528,-0.130282,0.905074,87.44,1
31343,0,51242,54958,51038.59,54781.66,203.41,176.34,-1.392788,-1.393154,-0.128468,-0.130219,0.905236,87.44,1
31387,0,51242,54968,51039.00,54782.04,203.00,185.96,-1.392796,-1.393161,-0.128407,-0.130156,0.905403,87.44,1
31421,0,51248,54987,51039.42,54782.45,208.58,204.55,-1.392804,-1.393168,-0.128347,-0.130094,0.905572,87.44,1
31460,0,51261,55008,51039.86,54782.90,221.14,225.10,-1.392813,-1.393177,-0.128287,-0.130033,0.905742,87.44,1
31500,0,51267,55031,51040.32,54783.40,226.68,247.60,-1.392822,-1.393186,-0.128228,-0.129972,0.905913,87.43,1
31541,0,51275,55058,51040.79,54783.95,234.21,274.05,-1.392831,-1.393196,-0.128169,-0.129913,0.906082,87.43,1
31583,0,51288,55085,51041.29,54784.55,246.71,300.45,-1.392841,-1.393207,-0.128110,-0.129855,0.906246,87.43,1
31622,0,51292,55094,51041.79,54785.18,250.21,308.82,-1.392850,-1.393218,-0.128052,-0.129797,0.906407,87.42,1
31666,0,51298,55104,51042.30,54785.82,255.70,318.18,-1.392861,-1.393230,-0.127993,-0.129739,0.906562,87.42,1
31703,0,51296,55109,51042.81,54786.46,253.19,322.54,-1.392870,-1.393242,-0.127935,-0.129682,0.906711,87.42,1
31747,0,51290,55008,51043.31,54786.91,246.69,221.09,-1.392880,-1.393250,-0.127877,-0.129621,0.906866,87.42,1
31783,0,51208,54829,51043.64,54787.00,164.36,42.00,-1.392887,-1.393251,-0.127815,-0.129553,0.907028,87.41,1
31825,0,51149,54746,51043.85,54786.91,105.15,-40.91,-1.392891,-1.393250,-0.127751,-0.129483,0.907193,87.41,1
31865,0,51134,54759,51044.03,54786.86,89.97,-27.86,-1.392894,-1.393249,-0.127686,-0.129413,0.907359,87.41,1
31904,0,51143,54768,51044.23,54786.82,98.77,-18.82,-1.392898,-1.393248,-0.127622,-0.129343,0.907528,87.41,1
31942,0,51145,54779,51044.43,54786.81,100.57,-7.81,-1.392902,-1.393248,-0.127558,-0.129274,0.907699,87.40,1
31980,0,51155,54808,51044.66,54786.85,110.34,21.15,-1.392907,-1.393249,-0.127494,-0.129205,0.907873,87.40,1
32023,0,51169,54841,51044.91,54786.96,124.09,54.04,-1.392911,-1.393251,-0.127431,-0.129138,0.908051,87.40,1
32064,0,51171,54842,51045.16,54787.07,125.84,54.93,-1.392916,-1.393253,-0.127368,-0.129072,0.908232,87.39,1
32103,0,51166,54837,51045.40,54787.18,120.60,49.82,-1.392921,-1.393255,-0.127305,-0.129005,0.908417,87.39,1
32145,0,51171,54852,51045.66,54787.31,125.34,64.69,-1.392926,-1.393257,-0.127242,-0.128938,0.908605,87.39,1
32183,0,51180,54867,51045.93,54787.47,134.07,79.53,-1.392931,-1.393260,-0.127180,-0.128872,0.908797,87.38,1
32225,0,51186,54886,51046.21,54787.67,139.79,98.33,-1.392937,-1.393264,-0.127117,-0.128807,0.908992,87.38,1
32263,0,51196,54907,51046.51,54787.91,149.49,119.09,-1.392943,-1.393268,-0.127056,-0.128743,0.909189,87.38,1
32304,0,51206,54923,51046.83,54788.18,159.17,134.82,-1.392949,-1.393273,-0.126994,-0.128679,0.909390,87.37,1
32345,0,51207,54941,51047.15,54788.49,159.85,152.51,-1.392955,-1.393279,-0.126933,-0.128616,0.909591,87.37,1
32384,0,51215,54963,51047.48,54788.84,167.52,174.16,-1.392962,-1.393285,-0.126872,-0.128554,0.909794,87.37,1
32425,0,51224,54989,51047.84,54789.24,176.16,199.76,-1.392969,-1.393293,-0.126811,-0.128493,0.909995,87.36,1
32465,0,51225,54900,51048.20,54789.46,176.80,110.54,-1.392976,-1.393297,-0.126750,-0.128428,0.910202,87.36,1
32503,0,51159,54750,51048.42,54789.39,110.58,-39.39,-1.392980,-1.393295,-0.126687,-0.128358,0.910412,87.36,1
32546,0,51118,54711,51048.56,54789.23,69.44,-78.23,-1.392983,-1.393292,-0.126622,-0.128287,0.910622,87.35,1
32583,0,51127,54752,51048.71,54789.16,78.29,-37.16,-1.392986,-1.393291,-0.126558,-0.128217,0.910832,87.35,1
32626,0,51140,54770,51048.90,54789.12,91.10,-19.12,-1.392990,-1.393290,-0.126494,-0.128148,0.911045,87.35,1
32667,0,51153,54796,51049.11,54789.14,103.89,6.86,-1.392994,-1.393291,-0.126431,-0.128080,0.911261,87.34,1
32706,0,51163,54835,51049.34,54789.23,113.66,45.77,-1.392998,-1.393292,-0.126368,-0.128014,0.911480,87.34,1
32746,0,51186,54854,51049.61,54789.36,136.39,64.64,-1.393004,-1.393295,-0.126306,-0.127948,0.911703,87.33,1
32786,0,51186,54851,51049.89,54789.49,136.11,61.51,-1.393009,-1.393297,-0.126244,-0.127882,0.911932,87.33,1
32827,0,51186,54860,51050.16,54789.63,135.84,70.37,-1.393014,-1.393300,-0.126182,-0.127816,0.912165,87.33,1
32866,0,51189,54885,51050.44,54789.82,138.56,95.18,-1.393020,-1.393303,-0.126121,-0.127752,0.912401,87.32,1
32904,0,51205,54917,51050.75,54790.07,154.25,126.93,-1.393026,-1.393308,-0.126059,-0.127688,0.912640,87.32,1
32945,0,51217,54951,51051.08,54790.40,165.92,160.60,-1.393032,-1.393314,-0.125999,-0.127626,0.912880,87.31,1
32985,0,51233,54980,51051.44,54790.78,181.56,189.22,-1.393039,-1.393320,-0.125939,-0.127565,0.913121,87.31,1
33028,0,51251,55004,51051.84,54791.21,199.16,212.79,-1.393047,-1.393328,-0.125880,-0.127505,0.913361,87.30,1
33066,0,51260,55037,51052.26,54791.70,207.74,245.30,-1.393056,-1.393337,-0.125821,-0.127446,0.913597,87.30,1
33102,0,51264,55062,51052.69,54792.24,211.31,269.76,-1.393064,-1.393347,-0.125762,-0.127388,0.913826,87.30,1
33144,0,51278,55019,51053.14,54792.70,224.86,226.30,-1.393073,-1.393355,-0.125704,-0.127328,0.914057,87.29,1
33185,0,51217,54851,51053.47,54792.81,163.53,58.19,-1.393079,-1.393358,-0.125643,-0.127262,0.914296,87.29,1
33227,0,51166,54768,51053.70,54792.77,112.30,-24.77,-1.393084,-1.393357,-0.125581,-0.127194,0.914539,87.28,1
33264,0,51153,54782,51053.89,54792.75,99.11,-10.75,-1.393088,-1.393356,-0.125518,-0.127125,0.914785,87.28,1
33304,0,51177,54806,51054.14,54792.77,122.86,13.23,-1.393092,-1.393357,-0.125456,-0.127058,0.915035,87.27,1
33346,0,51185,54828,51054.40,54792.84,130.60,35.16,-1.393097,-1.393358,-0.125394,-0.126992,0.915291,87.27,1
33385,0,51195,54856,51054.68,54792.97,140.32,63.03,-1.393103,-1.393361,-0.125333,-0.126926,0.915552,87.26,1
33426,0,51213,54901,51055.00,54793.19,158.00,107.81,-1.393109,-1.393365,-0.125272,-0.126863,0.915818,87.26,1
33465,0,51227,54912,51055.34,54793.43,171.66,118.57,-1.393116,-1.393369,-0.125212,-0.126800,0.916090,87.25,1
33505,0,51229,54911,51055.69,54793.67,173.31,117.33,-1.393123,-1.393373,-0.125153,-0.126736,0.916367,87.25,1
33544,0,51235,54926,51056.05,54793.93,178.95,132.07,-1.393130,-1.393378,-0.125093,-0.126674,0.916651,87.24,1
33585,0,51241,54952,51056.42,54794.25,184.58,157.75,-1.393137,-1.393384,-0.125034,-0.126612,0.916938,87.24,1
33622,0,51252,54976,51056.81,54794.61,195.19,181.39,-1.393145,-1.393391,-0.124975,-0.126551,0.917227,87.23,1
33663,0,51262,55003,51057.22,54795.03,204.78,207.97,-1.393153,-1.393398,-0.124916,-0.126491,0.917517,87.23,1
33706,0,51272,55028,51057.65,54795.50,214.35,232.50,-1.393161,-1.393407,-0.124858,-0.126432,0.917806,87.22,1
33747,0,51282,55048,51058.10,54796.01,223.90,251.99,-1.393170,-1.393416,-0.124800,-0.126374,0.918091,87.22,1
33785,0,51301,55080,51058.59,54796.58,242.41,283.42,-1.393180,-1.393426,-0.124743,-0.126317,0.918370,87.21,1
33827,0,51305,55104,51059.09,54797.20,245.91,306.80,-1.393189,-1.393438,-0.124687,-0.126261,0.918639,87.21,1
33865,0,51309,55000,51059.59,54797.60,249.41,202.40,-1.393199,-1.393445,-0.124630,-0.126202,0.918918,87.20,1
33906,0,51223,54833,51059.91,54797.67,163.09,35.33,-1.393205,-1.393446,-0.124570,-0.126136,0.919206,87.20,1
33946,0,51183,54770,51060.16,54797.62,122.84,-27.62,-1.393210,-1.393445,-0.124509,-0.126067,0.919498,87.19,1
33988,0,51171,54796,51060.38,54797.62,110.62,-1.62,-1.393215,-1.393445,-0.124447,-0.126000,0.919794,87.19,1
34025,0,51193,54818,51060.65,54797.66,132.35,20.34,-1.393220,-1.393446,-0.124386,-0.125934,0.920096,87.18,1
34062,0,51202,54833,51060.93,54797.73,141.07,35.27,-1.393225,-1.393448,-0.124325,-0.125868,0.920404,87.17,1
34103,0,51213,54867,51061.24,54797.87,151.76,69.13,-1.393231,-1.393450,-0.124265,-0.125804,0.920719,87.17,1
34148,0,51241,54919,51061.60,54798.11,179.40,120.89,-1.393238,-1.393454,-0.124206,-0.125741,0.921040,87.16,1
34186,0,51250,54938,51061.98,54798.39,188.02,139.61,-1.393246,-1.393460,-0.124147,-0.125679,0.921367,87.16,1
34224,0,51257,54962,51062.37,54798.72,194.63,163.28,-1.393253,-1.393466,-0.124089,-0.125618,0.921699,87.15,1
34264,0,51266,54978,51062.78,54799.08,203.22,178.92,-1.393261,-1.393472,-0.124031,-0.125558,0.922034,87.15,1
34306,0,51281,55013,51063.21,54799.51,217.79,213.49,-1.393270,-1.393480,-0.123973,-0.125499,0.922371,87.14,1
34346,0,51296,55044,51063.68,54800.00,232.32,244.00,-1.393279,-1.393489,-0.123916,-0.125441,0.922706,87.13,1
34385,0,51312,55081,51064.18,54800.57,247.82,280.43,-1.393289,-1.393499,-0.123860,-0.125385,0.923035,87.13,1
34426,0,51325,55113,51064.70,54801.19,260.30,311.81,-1.393299,-1.393511,-0.123804,-0.125329,0.923354,87.12,1
34466,0,51341,55149,51065.26,54801.89,275.74,347.11,-1.393310,-1.393523,-0.123750,-0.125275,0.923660,87.11,1
34506,0,51353,55170,51065.84,54802.62,287.16,367.37,-1.393321,-1.393537,-0.123695,-0.125222,0.923949,87.11,1
34547,0,51355,55195,51066.41,54803.41,288.59,391.59,-1.393333,-1.393551,-0.123640,-0.125170,0.924216,87.10,1
34586,0,51365,55159,51067.01,54804.12,297.99,354.88,-1.393344,-1.393564,-0.123586,-0.125116,0.924474,87.09,1
34627,0,51306,54984,51067.49,54804.48,238.51,179.52,-1.393354,-1.393571,-0.123530,-0.125056,0.924742,87.09,1
34666,0,51245,54902,51067.85,54804.68,177.15,97.32,-1.393361,-1.393574,-0.123471,-0.124993,0.925018,87.08,1
34706,0,51229,54906,51068.17,54804.88,160.83,101.12,-1.393367,-1.393578,-0.123412,-0.124930,0.925299,87.08,1
34746,0,51243,54919,51068.52,54805.11,174.48,113.89,-1.393374,-1.393582,-0.123353,-0.124868,0.925586,87.07,1
34787,0,51243,54927,51068.87,54805.36,174.12,121.64,-1.393381,-1.393587,-0.123294,-0.124806,0.925878,87.06,1
34826,0,51247,54947,51069.23,54805.64,177.77,141.36,-1.393388,-1.393592,-0.123236,-0.124744,0.926175,87.06,1
34865,0,51261,54978,51069.62,54805.99,191.38,172.01,-1.393396,-1.393598,-0.123178,-0.124684,0.926474,87.05,1
34907,0,51270,54991,51070.02,54806.36,199.98,184.64,-1.393403,-1.393605,-0.123120,-0.124625,0.926776,87.04,1
34948,0,51272,54995,51070.43,54806.74,201.57,188.26,-1.393411,-1.393612,-0.123063,-0.124565,0.927080,87.04,1
34987,0,51269,55012,51070.83,54807.15,198.17,204.85,-1.393419,-1.393619,-0.123005,-0.124507,0.927383,87.03,1
35024,0,51276,55030,51071.24,54807.59,204.76,222.41,-1.393427,-1.393627,-0.122948,-0.124448,0.927684,87.02,1
35066,0,51278,55055,51071.65,54808.09,206.35,246.91,-1.393435,-1.393636,-0.122890,-0.124391,0.927980,87.02,1
35107,0,51290,55087,51072.09,54808.65,217.91,278.35,-1.393444,-1.393647,-0.122834,-0.124335,0.928265,87.01,1
35147,0,51301,55110,51072.55,54809.25,228.45,300.75,-1.393453,-1.393658,-0.122777,-0.124280,0.928539,87.00,1
35188,0,51305,55137,51073.02,54809.91,231.98,327.09,-1.393462,-1.393670,-0.122721,-0.124226,0.928796,87.00,1
35227,0,51314,55153,51073.50,54810.60,240.50,342.40,-1.393471,-1.393682,-0.122665,-0.124172,0.929035,86.99,1
35267,0,51323,55177,51074.00,54811.33,249.00,365.67,-1.393481,-1.393696,-0.122610,-0.124120,0.929253,86.98,1
35307,0,51327,55194,51074.51,54812.10,252.49,381.90,-1.393491,-1.393710,-0.122555,-0.124068,0.929448,86.98,1
35348,0,51329,55153,51075.02,54812.78,253.98,340.22,-1.393501,-1.393722,-0.122500,-0.124014,0.929630,86.97,1
35385,0,51273,55011,51075.42,54813.18,197.58,197.82,-1.393509,-1.393729,-0.122442,-0.123955,0.929814,86.96,1
35427,0,51226,54943,51075.72,54813.44,150.28,129.56,-1.393515,-1.393734,-0.122383,-0.123894,0.930000,86.96,1
35466,0,51214,54955,51076.00,54813.73,138.00,141.27,-1.393520,-1.393739,-0.122323,-0.123833,0.930186,86.95,1
35508,0,51226,54966,51076.30,54814.03,149.70,151.97,-1.393526,-1.393745,-0.122264,-0.123773,0.930372,86.94,1
35546,0,51229,54975,51076.61,54814.36,152.39,160.64,-1.393532,-1.393751,-0.122205,-0.123713,0.930559,86.94,1
35588,0,51230,54990,51076.91,54814.71,153.09,175.29,-1.393538,-1.393757,-0.122146,-0.123654,0.930744,86.93,1
35625,0,51243,55017,51077.25,54815.11,165.75,201.89,-1.393545,-1.393765,-0.122088,-0.123595,0.930925,86.93,1
35668,0,51248,55017,51077.59,54815.52,170.41,201.48,-1.393552,-1.393772,-0.122030,-0.123537,0.931104,86.92,1
35707,0,51242,55017,51077.92,54815.93,164.08,201.07,-1.393558,-1.393779,-0.121971,-0.123479,0.931280,86.91,1
35749,0,51242,55023,51078.25,54816.34,163.75,206.66,-1.393564,-1.393787,-0.121913,-0.123420,0.931451,86.91,1
35786,0,51244,55039,51078.58,54816.79,165.42,222.21,-1.393571,-1.393795,-0.121854,-0.123363,0.931617,86.90,1
35829,0,51251,55062,51078.93,54817.28,172.07,244.72,-1.393578,-1.393804,-0.121797,-0.123306,0.931775,86.90,1
35866,0,51257,55085,51079.29,54817.81,177.71,267.19,-1.393585,-1.393814,-0.121739,-0.123251,0.931922,86.89,1
35907,0,51260,55105,51079.65,54818.39,180.35,286.61,-1.393592,-1.393824,-0.121681,-0.123196,0.932055,86.88,1
35947,0,51272,55129,51080.04,54819.01,191.96,309.99,-1.393600,-1.393836,-0.121624,-0.123141,0.932172,86.88,1
35993,0,51285,55157,51080.45,54819.68,204.55,337.32,-1.393607,-1.393848,-0.121567,-0.123088,0.932270,86.87,1
36032,0,51288,55184,51080.87,54820.41,207.13,363.59,-1.393616,-1.393861,-0.121511,-0.123036,0.932346,86.87,1
36068,0,51297,55135,51081.30,54821.04,215.70,313.96,-1.393624,-1.393873,-0.121455,-0.122982,0.932409,86.86,1
36110,0,51252,55027,51081.64,54821.46,170.36,205.54,-1.393631,-1.393880,-0.121397,-0.122924,0.932471,86.86,1
36149,0,51218,54999,51081.92,54821.81,136.08,177.19,-1.393636,-1.393887,-0.121338,-0.122865,0.932531,86.85,1
36189,0,51222,55037,51082.20,54822.25,139.80,214.75,-1.393642,-1.393895,-0.121279,-0.122808,0.932584,86.85,1
36225,0,51236,55069,51082.51,54822.74,153.49,246.26,-1.393648,-1.393904,-0.121220,-0.122752,0.932629,86.84,1
36267,0,51257,55108,51082.86,54823.31,174.14,284.69,-1.393655,-1.393914,-0.121163,-0.122697,0.932661,86.84,1
36307,0,51270,55149,51083.23,54823.96,186.77,325.04,-1.393662,-1.393926,-0.121106,-0.122643,0.932677,86.83,1
36347,0,51294,55176,51083.66,54824.67,210.34,351.33,-1.393670,-1.393939,-0.121050,-0.122591,0.932675,86.83,1
36388,0,51301,55189,51084.09,54825.40,216.91,363.60,-1.393679,-1.393952,-0.120994,-0.122539,0.932655,86.82,1
36428,0,51307,55199,51084.54,54826.15,222.46,372.85,-1.393687,-1.393966,-0.120938,-0.122488,0.932615,86.82,1
36466,0,51304,55225,51084.98,54826.95,219.02,398.05,-1.393696,-1.393981,-0.120883,-0.122437,0.932553,86.82,1
36508,0,51317,55249,51085.45,54827.80,231.55,421.20,-1.393705,-1.393996,-0.120828,-0.122387,0.932465,86.81,1
36549,0,51327,55278,51085.93,54828.70,241.07,449.30,-1.393715,-1.394012,-0.120773,-0.122339,0.932350,86.81,1
36587,0,51340,55299,51086.44,54829.64,253.56,469.36,-1.393725,-1.394030,-0.120719,-0.122291,0.932205,86.80,1
36629,0,51351,55325,51086.97,54830.63,264.03,494.37,-1.393735,-1.394048,-0.120665,-0.122244,0.932030,86.80,1
36668,0,51357,55339,51087.51,54831.65,269.49,507.35,-1.393746,-1.394066,-0.120612,-0.122198,0.931825,86.80,1
36709,0,51366,55359,51088.07,54832.71,277.93,526.29,-1.393757,-1.394086,-0.120558,-0.122152,0.931589,86.80,1
36748,0,51370,55374,51088.64,54833.79,281.36,540.21,-1.393768,-1.394105,-0.120506,-0.122107,0.931322,86.79,1
36787,0,51357,55277,51089.18,54834.68,267.82,442.32,-1.393778,-1.394121,-0.120452,-0.122058,0.931040,86.79,1
36831,0,51300,55177,51089.60,54835.37,210.40,341.63,-1.393787,-1.394134,-0.120396,-0.122006,0.930752,86.79,1
36869,0,51271,55154,51089.96,54836.01,181.04,317.99,-1.393794,-1.394146,-0.120339,-0.121952,0.930456,86.79,1
36907,0,51280,55178,51090.34,54836.69,189.66,341.31,-1.393801,-1.394158,-0.120283,-0.121900,0.930151,86.79,1
36947,0,51284,55186,51090.73,54837.39,193.27,348.61,-1.393809,-1.394171,-0.120227,-0.121848,0.929837,86.79,1
36986,0,51288,55198,51091.12,54838.11,196.87,359.89,-1.393816,-1.394184,-0.120171,-0.121796,0.929512,86.79,1
37028,0,51295,55233,51091.54,54838.91,203.46,394.09,-1.393825,-1.394199,-0.120115,-0.121746,0.929173,86.78,1
37067,0,51317,55261,51091.99,54839.75,225.01,421.25,-1.393833,-1.394214,-0.120060,-0.121697,0.928821,86.78,1
37109,0,51323,55277,51092.45,54840.62,230.55,436.37,-1.393842,-1.394230,-0.120005,-0.121648,0.928453,86.78,1
37149,0,51332,55286,51092.93,54841.52,239.07,444.48,-1.393852,-1.394246,-0.119951,-0.121600,0.928071,86.79,1
37190,0,51339,55308,51093.43,54842.45,245.57,465.55,-1.393862,-1.394263,-0.119897,-0.121552,0.927674,86.79,1
37230,0,51348,55327,51093.94,54843.42,254.06,483.58,-1.393872,-1.394281,-0.119843,-0.121505,0.927259,86.79,1
37270,0,51356,55358,51094.46,54844.45,261.54,513.55,-1.393882,-1.394300,-0.119790,-0.121459,0.926826,86.79,1
37309,0,51362,55381,51095.00,54845.52,267.00,535.48,-1.393892,-1.394319,-0.119737,-0.121414,0.926372,86.79,1
37349,0,51371,55412,51095.55,54846.66,275.45,565.34,-1.393903,-1.394340,-0.119684,-0.121370,0.925895,86.79,1
37389,0,51381,55426,51096.12,54847.82,284.87,578.18,-1.393914,-1.394361,-0.119632,-0.121327,0.925396,86.79,1
37432,0,51389,55447,51096.71,54849.02,292.29,597.98,-1.393926,-1.394383,-0.119580,-0.121285,0.924876,86.80,1
37467,0,51394,55465,51097.31,54850.25,296.69,614.75,-1.393937,-1.394405,-0.119528,-0.121243,0.924332,86.80,1
37510,0,51398,55414,51097.91,54851.38,300.09,562.62,-1.393949,-1.394426,-0.119476,-0.121199,0.923775,86.80,1
37549,0,51333,55285,51098.38,54852.25,234.62,432.75,-1.393959,-1.394442,-0.119422,-0.121150,0.923211,86.81,1
37586,0,51304,55237,51098.80,54853.02,205.20,383.98,-1.393967,-1.394456,-0.119367,-0.121100,0.922643,86.81,1
37629,0,51291,55247,51099.18,54853.80,191.82,393.20,-1.393974,-1.394470,-0.119311,-0.121050,0.922067,86.81,1
37668,0,51301,55254,51099.59,54854.61,201.41,399.39,-1.393982,-1.394485,-0.119255,-0.121000,0.921485,86.82,1
37707,0,51308,55253,51100.01,54855.40,207.99,397.60,-1.393990,-1.394499,-0.119200,-0.120950,0.920898,86.82,1
37748,0,51314,55270,51100.44,54856.23,213.56,413.77,-1.393999,-1.394515,-0.119145,-0.120901,0.920305,86.83,1
37788,0,51327,55299,51100.89,54857.12,226.11,441.88,-1.394008,-1.394531,-0.119091,-0.120853,0.919704,86.83,1
37833,0,51337,55308,51101.36,54858.02,235.64,449.98,-1.394017,-1.394547,-0.119037,-0.120805,0.919097,86.84,1
37870,0,51339,55315,51101.84,54858.94,237.16,456.06,-1.394026,-1.394564,-0.118983,-0.120758,0.918483,86.85,1
37909,0,51339,55326,51102.32,54859.87,236.68,466.13,-1.394035,-1.394581,-0.118929,-0.120711,0.917861,86.85,1
37949,0,51341,55334,51102.80,54860.82,238.20,473.18,-1.394045,-1.394598,-0.118876,-0.120664,0.917232,86.86,1
37986,0,51346,55345,51103.29,54861.79,242.71,483.21,-1.394055,-1.394616,-0.118822,-0.120617,0.916594,86.86,1
38031,0,51347,55357,51103.77,54862.78,243.23,494.22,-1.394064,-1.394634,-0.118769,-0.120571,0.915948,86.87,1
38068,0,51349,55370,51104.27,54863.80,244.73,506.20,-1.394074,-1.394652,-0.118715,-0.120526,0.915293,86.88,1
38110,0,51354,55384,51104.77,54864.84,249.23,519.16,-1.394083,-1.394671,-0.118662,-0.120481,0.914628,86.89,1
38150,0,51354,55394,51105.27,54865.90,248.73,528.10,-1.394093,-1.394691,-0.118609,-0.120436,0.913953,86.89,1
38189,0,51358,55406,51105.77,54866.98,252.23,539.02,-1.394103,-1.394710,-0.118556,-0.120392,0.913267,86.90,1
38229,0,51350,55407,51106.26,54868.06,243.74,538.94,-1.394113,-1.394730,-0.118502,-0.120348,0.912571,86.91,1
38270,0,51357,55352,51106.77,54869.03,250.23,482.97,-1.394122,-1.394748,-0.118449,-0.120301,0.911869,86.92,1
38306,0,51291,55200,51107.14,54869.70,183.86,330.30,-1.394130,-1.394760,-0.118394,-0.120250,0.911168,86.93,1
38347,0,51243,55129,51107.41,54870.21,135.59,258.79,-1.394135,-1.394769,-0.118336,-0.120195,0.910467,86.94,1
38391,0,51221,55124,51107.64,54870.72,113.36,253.28,-1.394140,-1.394779,-0.118278,-0.120141,0.909766,86.95,1
38432,0,51223,55117,51107.87,54871.21,115.13,245.79,-1.394144,-1.394788,-0.118220,-0.120086,0.909064,86.96,1
38470,0,51218,55127,51108.09,54871.73,109.91,255.27,-1.394148,-1.394797,-0.118161,-0.120031,0.908361,86.97,1
38513,0,51227,55127,51108.33,54872.24,118.67,254.76,-1.394153,-1.394806,-0.118103,-0.119977,0.907657,86.98,1
38550,0,51236,55149,51108.59,54872.79,127.41,276.21,-1.394158,-1.394816,-0.118046,-0.119923,0.906953,86.99,1
38589,0,51237,55148,51108.84,54873.34,128.16,274.66,-1.394163,-1.394826,-0.117988,-0.119870,0.906248,87.00,1
38630,0,51232,55147,51109.09,54873.89,122.91,273.11,-1.394168,-1.394836,-0.117930,-0.119816,0.905541,87.01,1
38670,0,51234,55152,51109.34,54874.45,124.66,277.55,-1.394173,-1.394846,-0.117873,-0.119762,0.904834,87.02,1
38708,0,51237,55166,51109.60,54875.04,127.40,290.96,-1.394178,-1.394857,-0.117815,-0.119710,0.904125,87.03,1
38750,0,51243,55179,51109.87,54875.64,133.13,303.36,-1.394183,-1.394868,-0.117758,-0.119657,0.903413,87.04,1
38789,0,51252,55200,51110.15,54876.29,141.85,323.71,-1.394189,-1.394880,-0.117701,-0.119605,0.902700,87.06,1
38831,0,51254,55213,51110.44,54876.97,143.56,336.03,-1.394194,-1.394892,-0.117644,-0.119554,0.901983,87.07,1
38870,0,51263,55231,51110.75,54877.68,152.25,353.32,-1.394200,-1.394905,-0.117588,-0.119504,0.901262,87.08,1
38910,0,51275,55260,51111.07,54878.45,163.93,381.55,-1.394207,-1.394919,-0.117532,-0.119454,0.900537,87.09,1
38949,0,51283,55285,51111.42,54879.26,171.58,405.74,-1.394214,-1.394934,-0.117476,-0.119406,0.899807,87.10,1
38992,0,51294,55271,51111.79,54880.05,182.21,390.95,-1.394221,-1.394948,-0.117421,-0.119357,0.899073,87.12,1
39031,0,51257,55145,51112.08,54880.58,144.92,264.42,-1.394226,-1.394958,-0.117364,-0.119303,0.898340,87.13,1
39070,0,51201,55055,51112.26,54880.93,88.74,174.07,-1.394230,-1.394965,-0.117306,-0.119246,0.897609,87.14,1
39110,0,51191,55067,51112.42,54881.30,78.58,185.70,-1.394233,-1.394971,-0.117247,-0.119189,0.896878,87.16,1
39150,0,51205,55088,51112.61,54881.72,92.39,206.28,-1.394237,-1.394979,-0.117188,-0.119134,0.896148,87.17,1
39189,0,51212,55106,51112.80,54882.17,99.20,223.83,-1.394241,-1.394987,-0.117130,-0.119079,0.895418,87.18,1
39232,0,51229,55133,51113.04,54882.67,115.96,250.33,-1.394245,-1.394996,-0.117072,-0.119025,0.894687,87.20,1
39271,0,51242,55163,51113.30,54883.23,128.70,279.77,-1.394250,-1.395007,-0.117015,-0.118972,0.893956,87.21,1
39311,0,51250,55161,51113.57,54883.79,136.43,277.21,-1.394256,-1.395017,-0.116959,-0.118919,0.893225,87.22,1
39350,0,51250,55156,51113.84,54884.34,136.16,271.66,-1.394261,-1.395027,-0.116902,-0.118866,0.892494,87.24,1
39391,0,51251,55169,51114.12,54884.91,136.88,284.09,-1.394266,-1.395037,-0.116845,-0.118813,0.891762,87.25,1
39431,0,51262,55191,51114.42,54885.52,147.58,305.48,-1.394272,-1.395048,-0.116789,-0.118761,0.891030,87.27,1
39471,0,51265,55223,51114.72,54886.20,150.28,336.80,-1.394278,-1.395061,-0.116733,-0.118710,0.890295,87.28,1
39511,0,51278,55245,51115.05,54886.92,162.95,358.08,-1.394284,-1.395074,-0.116678,-0.118660,0.889557,87.29,1
39553,0,51290,55268,51115.40,54887.68,174.60,380.32,-1.394291,-1.395088,-0.116623,-0.118611,0.888817,87.31,1
39589,0,51303,55291,51115.77,54888.49,187.23,402.51,-1.394299,-1.395102,-0.116568,-0.118563,0.888073,87.32,1
39630,0,51313,55311,51116.17,54889.34,196.83,421.66,-1.394307,-1.395118,-0.116514,-0.118516,0.887325,87.34,1
39670,0,51315,55336,51116.57,54890.23,198.43,445.77,-1.394314,-1.395134,-0.116460,-0.118469,0.886571,87.35,1
39709,0,51325,55321,51116.98,54891.09,208.02,429.91,-1.394323,-1.395150,-0.116407,-0.118422,0.885815,87.37,1
39750,0,51282,55173,51117.32,54891.66,164.68,281.34,-1.394329,-1.395160,-0.116352,-0.118369,0.885061,87.38,1
39792,0,51234,55089,51117.55,54892.05,116.45,196.95,-1.394334,-1.395167,-0.116294,-0.118314,0.884309,87.40,1
39831,0,51226,55091,51117.77,54892.45,108.23,198.55,-1.394338,-1.395175,-0.116237,-0.118258,0.883559,87.41,1
39871,0,51246,55125,51118.03,54892.92,127.97,232.08,-1.394343,-1.395183,-0.116181,-0.118204,0.882811,87.43,1
39911,0,51263,55144,51118.32,54893.42,144.68,250.58,-1.394349,-1.395192,-0.116125,-0.118150,0.882065,87.44,1
39952,0,51277,55158,51118.64,54893.95,158.36,264.05,-1.394355,-1.395202,-0.116069,-0.118097,0.881321,87.46,1
39991,0,51287,55196,51118.98,54894.56,168.02,301.44,-1.394361,-1.395213,-0.116015,-0.118046,0.880578,87.48,1
40029,0,51300,55206,51119.34,54895.18,180.66,310.82,-1.394369,-1.395224,-0.115960,-0.117995,0.879838,87.49,1
40071,0,51304,55210,51119.71,54895.82,184.29,314.18,-1.394376,-1.395236,-0.115906,-0.117944,0.879099,87.51,1
40111,0,51310,55224,51120.10,54896.47,189.90,327.53,-1.394383,-1.395248,-0.115852,-0.117893,0.878363,87.52,1
40150,0,51322,55244,51120.50,54897.17,201.50,346.83,-1.394391,-1.395260,-0.115798,-0.117843,0.877628,87.54,1
40191,0,51331,55268,51120.93,54897.91,210.07,370.09,-1.394400,-1.395274,-0.115745,-0.117794,0.876895,87.56,1
40231,0,51340,55289,51121.37,54898.70,218.63,390.30,-1.394408,-1.395288,-0.115693,-0.117746,0.876162,87.57,1
40269,0,51346,55312,51121.82,54899.52,224.18,412.48,-1.394417,-1.395303,-0.115640,-0.117698,0.875430,87.59,1
40311,0,51353,55327,51122.28,54900.38,230.72,426.62,-1.394426,-1.395319,-0.115588,-0.117652,0.874697,87.61,1
40354,0,51358,55345,51122.75,54901.27,235.25,443.73,-1.394435,-1.395335,-0.115536,-0.117605,0.873964,87.62,1
40390,0,51372,55355,51123.25,54902.18,248.75,452.82,-1.394445,-1.395352,-0.115485,-0.117560,0.873230,87.64,1
40429,0,51372,55374,51123.75,54903.12,248.25,470.87,-1.394455,-1.395369,-0.115433,-0.117514,0.872495,87.65,1
40471,0,51380,55303,51124.27,54903.93,255.73,399.07,-1.394465,-1.395383,-0.115382,-0.117467,0.871765,87.67,1
40512,0,51307,55138,51124.64,54904.39,182.36,233.61,-1.394472,-1.395392,-0.115328,-0.117413,0.871041,87.69,1
40552,0,51262,55074,51124.91,54904.73,137.09,169.27,-1.394478,-1.395398,-0.115272,-0.117357,0.870321,87.70,1
40592,0,51257,55092,51125.18,54905.11,131.82,186.89,-1.394483,-1.395405,-0.115217,-0.117301,0.869605,87.72,1
40633,0,51276,55106,51125.48,54905.51,150.52,200.49,-1.394489,-1.395412,-0.115162,-0.117247,0.868893,87.74,1
40674,0,51284,55118,51125.80,54905.94,158.20,212.06,-1.394495,-1.395420,-0.115107,-0.117192,0.868185,87.75,1
40712,0,51296,55142,51126.14,54906.41,169.86,235.59,-1.394502,-1.395429,-0.115052,-0.117139,0.867482,87.77,1
40751,0,51314,55175,51126.52,54906.95,187.48,268.05,-1.394509,-1.395439,-0.114999,-0.117086,0.866783,87.79,1
40792,0,51322,55185,51126.91,54907.51,195.09,277.49,-1.394517,-1.395449,-0.114946,-0.117034,0.866090,87.80,1
40833,0,51326,55191,51127.31,54908.08,198.69,282.92,-1.394524,-1.395459,-0.114893,-0.116983,0.865401,87.82,1
40872,0,51331,55207,51127.72,54908.68,203.28,298.32,-1.394533,-1.395470,-0.114840,-0.116932,0.864717,87.84,1
40915,0,51344,55224,51128.15,54909.31,215.85,314.69,-1.394541,-1.395482,-0.114787,-0.116881,0.864038,87.86,1
40951,0,51354,55253,51128.61,54910.00,225.39,343.00,-1.394550,-1.395494,-0.114735,-0.116832,0.863364,87.87,1
40993,0,51369,55272,51129.09,54910.72,239.91,361.28,-1.394559,-1.395507,-0.114684,-0.116783,0.862694,87.89,1
41032,0,51376,55299,51129.58,54911.50,246.42,387.50,-1.394569,-1.395522,-0.114633,-0.116735,0.862028,87.91,1
41076,0,51386,55325,51130.10,54912.33,255.90,412.67,-1.394579,-1.395537,-0.114582,-0.116688,0.861365,87.92,1
41111,0,51395,55337,51130.63,54913.18,264.37,423.82,-1.394589,-1.395552,-0.114532,-0.116642,0.860706,87.94,1
41153,0,51395,55344,51131.16,54914.04,263.84,429.96,-1.394600,-1.395568,-0.114482,-0.116596,0.860049,87.96,1
41191,0,51395,55345,51131.69,54914.91,263.31,430.09,-1.394610,-1.395584,-0.114432,-0.116550,0.859396,87.97,1
41232,0,51396,55294,51132.22,54915.66,263.78,378.34,-1.394620,-1.395597,-0.114381,-0.116502,0.858748,87.99,1
41272,0,51330,55108,51132.62,54916.05,197.38,191.95,-1.394628,-1.395604,-0.114329,-0.116447,0.858109,88.01,1
41313,0,51260,54997,51132.87,54916.21,127.12,80.79,-1.394633,-1.395607,-0.114273,-0.116388,0.857475,88.02,1
41352,0,51240,55000,51133.09,54916.38,106.91,83.62,-1.394637,-1.395610,-0.114217,-0.116330,0.856846,88.04,1
41393,0,51253,55010,51133.33,54916.57,119.67,93.43,-1.394642,-1.395614,-0.114161,-0.116271,0.856221,88.06,1
41432,0,51257,55020,51133.58,54916.78,123.42,103.22,-1.394647,-1.395617,-0.114105,-0.116214,0.855600,88.07,1
41474,0,51261,55028,51133.84,54917.00,127.16,111.00,-1.394652,-1.395622,-0.114050,-0.116156,0.854984,88.09,1
41513,0,51267,55049,51134.11,54917.27,132.89,131.73,-1.394657,-1.395627,-0.113995,-0.116099,0.854374,88.11,1
41553,0,51271,55046,51134.38,54917.52,136.62,128.48,-1.394663,-1.395631,-0.113940,-0.116042,0.853768,88.12,1
41591,0,51269,55040,51134.65,54917.77,134.35,122.23,-1.394668,-1.395636,-0.113885,-0.115985,0.853167,88.14,1
41633,0,51268,55049,51134.92,54918.04,133.08,130.96,-1.394673,-1.395640,-0.113830,-0.115929,0.852570,88.16,1
41673,0,51276,55068,51135.21,54918.34,140.79,149.66,-1.394679,-1.395646,-0.113775,-0.115873,0.851979,88.17,1
41713,0,51289,55102,51135.52,54918.70,153.48,183.30,-1.394685,-1.395653,-0.113721,-0.115818,0.851392,88.19,1
41753,0,51299,55133,51135.84,54919.13,163.16,213.87,-1.394691,-1.395661,-0.113667,-0.115765,0.850810,88.20,1
41794,0,51313,55162,51136.20,54919.62,176.80,242.38,-1.394698,-1.395669,-0.113614,-0.115712,0.850231,88.22,1
41835,0,51322,55190,51136.57,54920.16,185.43,269.84,-1.394706,-1.395679,-0.113561,-0.115661,0.849657,88.24,1
41875,0,51343,55219,51136.98,54920.76,206.02,298.24,-1.394714,-1.395690,-0.113509,-0.115610,0.849086,88.25,1
41913,0,51348,55246,51137.41,54921.41,210.59,324.59,-1.394722,-1.395702,-0.113457,-0.115561,0.848518,88.27,1
41954,0,51370,55210,51137.87,54921.99,232.13,288.01,-1.394731,-1.395712,-0.113406,-0.115510,0.847958,88.28,1
41996,0,51310,55051,51138.21,54922.25,171.79,128.75,-1.394738,-1.395717,-0.113353,-0.115454,0.847406,88.30,1
42034,0,51262,54981,51138.46,54922.37,123.54,58.63,-1.394743,-1.395719,-0.113298,-0.115395,0.846859,88.32,1
42073,0,51249,55007,51138.69,54922.54,110.31,84.46,-1.394747,-1.395723,-0.113242,-0.115337,0.846317,88.33,1
42114,0,51279,55040,51138.97,54922.78,140.03,117.22,-1.394753,-1.395727,-0.113188,-0.115280,0.845779,88.35,1
42153,0,51292,55070,51139.28,54923.07,152.72,146.93,-1.394759,-1.395732,-0.113134,-0.115224,0.845248,88.36,1
42194,0,51307,55107,51139.61,54923.45,167.39,183.55,-1.394765,-1.395739,-0.113081,-0.115170,0.844722,88.38,1
42232,0,51329,55131,51139.99,54923.86,189.01,207.14,-1.394773,-1.395747,-0.113028,-0.115116,0.844203,88.39,1
42274,0,51328,55136,51140.37,54924.29,187.63,211.71,-1.394780,-1.395754,-0.112976,-0.115063,0.843690,88.41,1
42313,0,51324,55125,51140.74,54924.69,183.26,200.31,-1.394787,-1.395762,-0.112923,-0.115010,0.843184,88.43,1
42354,0,51323,55138,51141.11,54925.12,181.89,212.88,-1.394794,-1.395769,-0.112871,-0.114956,0.842683,88.44,1
42394,0,51334,55166,51141.49,54925.61,192.51,240.39,-1.394802,-1.395778,-0.112819,-0.114904,0.842188,88.46,1
42435,0,51350,55189,51141.91,54926.13,208.09,262.87,-1.394810,-1.395788,-0.112767,-0.114853,0.841699,88.47,1
42476,0,51359,55228,51142.34,54926.74,216.66,301.26,-1.394818,-1.395799,-0.112716,-0.114803,0.841214,88.49,1
42513,0,51369,55253,51142.80,54927.39,226.20,325.61,-1.394827,-1.395811,-0.112665,-0.114754,0.840733,88.50,1
42554,0,51385,55284,51143.28,54928.11,241.72,355.89,-1.394837,-1.395824,-0.112615,-0.114707,0.840255,88.52,1
42593,0,51389,55306,51143.77,54928.86,245.23,377.14,-1.394846,-1.395838,-0.112565,-0.114660,0.839780,88.53,1
42634,0,51399,55327,51144.29,54929.66,254.71,397.34,-1.394856,-1.395852,-0.112515,-0.114613,0.839307,88.54,1
42674,0,51402,55236,51144.80,54930.27,257.20,305.73,-1.394866,-1.395863,-0.112466,-0.114564,0.838842,88.56,1
42714,0,51328,55073,51145.17,54930.56,182.83,142.44,-1.394874,-1.395868,-0.112414,-0.114508,0.838386,88.57,1
42754,0,51282,55013,51145.44,54930.73,136.56,82.27,-1.394879,-1.395872,-0.112360,-0.114451,0.837935,88.59,1
42795,0,51278,55051,51145.71,54930.97,132.29,120.03,-1.394884,-1.395876,-0.112305,-0.114395,0.837489,88.60,1
42834,0,51304,55076,51146.02,54931.26,157.98,144.74,-1.394890,-1.395881,-0.112252,-0.114339,0.837049,88.62,1
42875,0,51314,55095,51146.36,54931.59,167.64,163.41,-1.394897,-1.395887,-0.112199,-0.114285,0.836615,88.63,1
42914,0,51324,55123,51146.71,54931.97,177.29,191.03,-1.394904,-1.395894,-0.112147,-0.114231,0.836187,88.64,1
42955,0,51348,55159,51147.12,54932.43,200.88,226.57,-1.394912,-1.395903,-0.112095,-0.114179,0.835765,88.66,1
42994,0,51353,55155,51147.53,54932.87,205.47,222.12,-1.394920,-1.395911,-0.112044,-0.114127,0.835351,88.67,1
43035,0,51356,55159,51147.95,54933.33,208.05,225.67,-1.394928,-1.395919,-0.111993,-0.114075,0.834944,88.69,1
43073,0,51354,55179,51148.36,54933.82,205.64,245.18,-1.394936,-1.395928,-0.111942,-0.114023,0.834543,88.70,1
43117,0,51367,55198,51148.80,54934.35,218.20,263.65,-1.394945,-1.395938,-0.111891,-0.113973,0.834148,88.71,1
43153,0,51373,55223,51149.25,54934.93,223.75,288.07,-1.394953,-1.395948,-0.111841,-0.113923,0.833758,88.73,1
43196,0,51387,55247,51149.73,54935.55,237.27,311.45,-1.394963,-1.395959,-0.111791,-0.113874,0.833374,88.74,1
43234,0,51393,55270,51150.21,54936.23,242.79,333.77,-1.394972,-1.395972,-0.111742,-0.113826,0.832994,88.75,1
43275,0,51405,55291,51150.73,54936.94,254.27,354.06,-1.394982,-1.395985,-0.111692,-0.113778,0.832618,88.77,1
43314,0,51407,55316,51151.24,54937.70,255.76,378.30,-1.394992,-1.395998,-0.111643,-0.113732,0.832243,88.78,1
43354,0,51418,55326,51151.78,54938.47,266.22,387.53,-1.395003,-1.396013,-0.111595,-0.113686,0.831872,88.79,1
43395,0,51427,55311,51152.33,54939.22,274.67,371.78,-1.395014,-1.396026,-0.111547,-0.113639,0.831506,88.80,1
43435,0,51376,55105,51152.78,54939.55,223.22,165.45,-1.395023,-1.396032,-0.111496,-0.113585,0.831151,88.82,1
43475,0,51308,54997,51153.09,54939.67,154.91,57.33,-1.395029,-1.396034,-0.111444,-0.113527,0.830803,88.83,1
43514,0,51285,54995,51153.36,54939.78,131.64,55.22,-1.395034,-1.396036,-0.111390,-0.113469,0.830461,88.84,1
43553,0,51305,55030,51153.66,54939.96,151.34,90.04,-1.395040,-1.396040,-0.111337,-0.113412,0.830125,88.85,1
43594,0,51316,55045,51153.98,54940.18,162.02,104.82,-1.395046,-1.396044,-0.111284,-0.113356,0.829796,88.86,1
43634,0,51329,55067,51154.34,54940.43,174.66,126.57,-1.395053,-1.396048,-0.111232,-0.113301,0.829475,88.88,1
43676,0,51342,55104,51154.71,54940.76,187.29,163.24,-1.395060,-1.396054,-0.111181,-0.113247,0.829161,88.89,1
43715,0,51360,55118,51155.12,54941.11,204.88,176.89,-1.395068,-1.396061,-0.111130,-0.113194,0.828856,88.90,1
43755,0,51365,55120,51155.54,54941.47,209.46,178.53,-1.395077,-1.396067,-0.111080,-0.113140,0.828560,88.91,1
43796,0,51358,55125,51155.95,54941.84,202.05,183.16,-1.395085,-1.396074,-0.111029,-0.113087,0.828272,88.92,1
43834,0,51361,55141,51156.36,54942.24,204.64,198.76,-1.395092,-1.396081,-0.110978,-0.113034,0.827991,88.93,1
43872,0,51367,55158,51156.78,54942.67,210.22,215.33,-1.395101,-1.396089,-0.110928,-0.112982,0.827718,88.95,1
43913,0,51381,55179,51157.23,54943.14,223.77,235.86,-1.395110,-1.396098,-0.110878,-0.112931,0.827453,88.96,1
43953,0,51388,55197,51157.69,54943.65,230.31,253.35,-1.395118,-1.396107,-0.110828,-0.112881,0.827194,88.97,1
43992,0,51398,55215,51158.17,54944.20,239.83,270.80,-1.395128,-1.396117,-0.110779,-0.112831,0.826943,88.98,1
44035,0,51403,55224,51158.66,54944.76,244.34,279.24,-1.395138,-1.396127,-0.110730,-0.112781,0.826699,88.99,1
44077,0,51400,55228,51159.15,54945.32,240.85,282.68,-1.395147,-1.396137,-0.110681,-0.112732,0.826461,89.00,1
44114,0,51399,55226,51159.63,54945.89,239.37,280.11,-1.395156,-1.396147,-0.110632,-0.112683,0.826229,89.01,1
44156,0,51381,55097,51160.07,54946.19,220.93,150.81,-1.395165,-1.396153,-0.110582,-0.112629,0.826009,89.02,1
