t_ms,phase,red_raw,ir_raw,red_dc,ir_dc,red_ac,ir_ac,OD_red,OD_ir,R,spo2,spo2_valid
6,0,52585,56780,53269.56,57630.26,-684.56,-850.26,-0.457115,-0.472808,0.616414,94.89,1
46,0,52578,56781,53268.18,57628.56,-690.18,-847.56,-0.457089,-0.472778,0.616777,94.88,1
86,0,52597,56927,53266.84,57627.16,-669.84,-700.16,-0.457064,-0.472754,0.617144,94.87,1
128,0,52660,57118,53265.62,57626.14,-605.62,-508.14,-0.457041,-0.472736,0.617514,94.86,1
166,0,52731,57287,53264.56,57625.47,-533.56,-338.47,-0.457021,-0.472725,0.617887,94.85,1
207,0,52781,57401,53263.59,57625.02,-482.59,-224.02,-0.457003,-0.472717,0.618263,94.84,1
246,0,52815,57489,53262.70,57624.75,-447.70,-135.75,-0.456986,-0.472712,0.618641,94.83,1
290,0,52842,57553,53261.86,57624.61,-419.86,-71.61,-0.456970,-0.472710,0.619022,94.82,1
327,0,52863,57621,53261.06,57624.61,-398.06,-3.61,-0.456955,-0.472710,0.619404,94.81,1
367,0,52887,57683,53260.32,57624.72,-373.32,58.28,-0.456941,-0.472712,0.619788,94.80,1
409,0,52903,57754,53259.60,57624.98,-356.60,129.02,-0.456928,-0.472716,0.620174,94.79,1
447,0,52929,57806,53258.94,57625.35,-329.94,180.65,-0.456915,-0.472722,0.620560,94.78,1
491,0,52906,57364,53258.24,57624.83,-352.24,-260.83,-0.456902,-0.472713,0.620947,94.78,1
527,0,52566,56304,53256.86,57622.19,-690.86,-1318.19,-0.456876,-0.472668,0.621325,94.77,1
567,0,52368,56183,53255.08,57619.31,-887.08,-1436.31,-0.456843,-0.472618,0.621699,94.76,1
607,0,52391,56252,53253.35,57616.58,-862.35,-1364.58,-0.456810,-0.472570,0.622068,94.75,1
647,0,52419,56274,53251.68,57613.89,-832.68,-1339.89,-0.456779,-0.472524,0.622433,94.74,1
687,0,52426,56335,53250.04,57611.34,-824.04,-1276.34,-0.456748,-0.472479,0.622796,94.73,1
727,0,52479,56491,53248.50,57609.10,-769.50,-1118.10,-0.456719,-0.472441,0.623157,94.72,1
770,0,52520,56562,53247.04,57607.01,-727.04,-1045.01,-0.456692,-0.472404,0.623518,94.71,1
810,0,52527,56544,53245.60,57604.88,-718.60,-1060.88,-0.456665,-0.472367,0.623877,94.70,1
851,0,52526,56601,53244.16,57602.87,-718.16,-1001.87,-0.456638,-0.472332,0.624235,94.69,1
890,0,52575,56780,53242.83,57601.23,-667.83,-821.23,-0.456613,-0.472304,0.624596,94.68,1
931,0,52635,56948,53241.61,57599.93,-606.61,-651.93,-0.456590,-0.472281,0.624958,94.67,1
971,0,52685,57097,53240.50,57598.92,-555.50,-501.92,-0.456569,-0.472264,0.625323,94.66,1
1012,0,52732,57223,53239.48,57598.17,-507.48,-375.17,-0.456550,-0.472251,0.625691,94.66,1
1050,0,52773,57308,53238.55,57597.59,-465.55,-289.59,-0.456533,-0.472241,0.626061,94.65,1
1092,0,52798,57390,53237.68,57597.18,-439.68,-207.18,-0.456516,-0.472234,0.626434,94.64,1
1132,0,52819,57464,53236.84,57596.91,-417.84,-132.91,-0.456500,-0.472229,0.626809,94.63,1
1168,0,52849,57557,53236.07,57596.84,-387.07,-39.84,-0.456486,-0.472228,0.627186,94.62,1
1211,0,52885,57654,53235.37,57596.95,-350.37,57.05,-0.456473,-0.472230,0.627565,94.61,1
1252,0,52922,57723,53234.74,57597.21,-312.74,125.79,-0.456461,-0.472234,0.627944,94.60,1
1289,0,52876,57120,53234.03,57596.25,-358.03,-476.25,-0.456447,-0.472217,0.628323,94.59,1
1332,0,52510,56207,53232.58,57593.48,-722.58,-1386.48,-0.456420,-0.472169,0.628692,94.58,1
1372,0,52379,56138,53230.87,57590.57,-851.87,-1452.57,-0.456388,-0.472119,0.629053,94.57,1
1408,0,52399,56176,53229.21,57587.74,-830.21,-1411.74,-0.456357,-0.472070,0.629408,94.56,1
1451,0,52409,56167,53227.57,57584.90,-818.57,-1417.90,-0.456326,-0.472020,0.629755,94.55,1
1492,0,52409,56220,53225.93,57582.17,-816.93,-1362.17,-0.456295,-0.471973,0.630097,94.54,1
1530,0,52447,56375,53224.38,57579.76,-777.38,-1204.76,-0.456266,-0.471931,0.630437,94.54,1
1571,0,52490,56447,53222.91,57577.49,-732.91,-1130.49,-0.456239,-0.471892,0.630774,94.53,1
1612,0,52505,56454,53221.48,57575.25,-716.48,-1121.25,-0.456212,-0.471853,0.631108,94.52,1
1650,0,52508,56520,53220.05,57573.14,-712.05,-1053.14,-0.456185,-0.471816,0.631441,94.51,1
1688,0,52541,56714,53218.70,57571.42,-677.70,-857.42,-0.456159,-0.471786,0.631775,94.50,1
1729,0,52613,56903,53217.48,57570.09,-604.48,-667.09,-0.456137,-0.471763,0.632112,94.49,1
1769,0,52675,57045,53216.40,57569.04,-541.40,-524.04,-0.456116,-0.471745,0.632451,94.48,1
1809,0,52723,57160,53215.42,57568.22,-492.42,-408.22,-0.456098,-0.471731,0.632792,94.47,1
1849,0,52752,57249,53214.49,57567.59,-462.49,-318.59,-0.456080,-0.471720,0.633136,94.46,1
1889,0,52780,57344,53213.62,57567.14,-433.62,-223.14,-0.456064,-0.471712,0.633482,94.45,1
1929,0,52822,57456,53212.84,57566.92,-390.84,-110.92,-0.456049,-0.471708,0.633831,94.45,1
1968,0,52859,57567,53212.14,57566.92,-353.14,0.08,-0.456036,-0.471708,0.634181,94.44,1
2009,0,52890,57651,53211.49,57567.09,-321.49,83.91,-0.456024,-0.471711,0.634533,94.43,1
2049,0,52926,57737,53210.92,57567.43,-284.92,169.57,-0.456013,-0.471717,0.634885,94.42,1
2089,0,52941,57488,53210.38,57567.27,-269.38,-79.27,-0.456003,-0.471714,0.635237,94.41,1
2130,0,52657,56360,53209.28,57564.86,-552.28,-1204.86,-0.455982,-0.471672,0.635580,94.40,1
2170,0,52382,56111,53207.62,57561.95,-825.62,-1450.95,-0.455951,-0.471622,0.635914,94.39,1
2210,0,52382,56142,53205.98,57559.11,-823.98,-1417.11,-0.455920,-0.471572,0.636241,94.38,1
2253,0,52400,56158,53204.37,57556.31,-804.37,-1398.31,-0.455890,-0.471524,0.636560,94.37,1
2289,0,52401,56172,53202.76,57553.54,-801.76,-1381.54,-0.455860,-0.471476,0.636873,94.36,1
2332,0,52421,56306,53201.20,57551.05,-780.20,-1245.05,-0.455831,-0.471432,0.637183,94.36,1
2370,0,52476,56430,53199.75,57548.81,-723.75,-1118.81,-0.455803,-0.471393,0.637490,94.35,1
2414,0,52498,56419,53198.35,57546.55,-700.35,-1127.55,-0.455777,-0.471354,0.637794,94.34,1
2453,0,52485,56448,53196.92,57544.36,-711.92,-1096.36,-0.455750,-0.471316,0.638096,94.33,1
2493,0,52513,56592,53195.55,57542.45,-682.55,-950.45,-0.455725,-0.471283,0.638398,94.32,1
2531,0,52571,56790,53194.31,57540.95,-623.31,-750.95,-0.455701,-0.471257,0.638702,94.31,1
2573,0,52634,56943,53193.19,57539.75,-559.19,-596.75,-0.455680,-0.471236,0.639008,94.30,1
2610,0,52685,57085,53192.17,57538.85,-507.17,-453.85,-0.455661,-0.471220,0.639317,94.29,1
2654,0,52728,57181,53191.25,57538.13,-463.25,-357.13,-0.455644,-0.471208,0.639628,94.29,1
2694,0,52757,57271,53190.38,57537.60,-433.38,-266.60,-0.455627,-0.471199,0.639942,94.28,1
2734,0,52793,57377,53189.59,57537.28,-396.59,-160.28,-0.455612,-0.471193,0.640258,94.27,1
2773,0,52831,57454,53188.87,57537.12,-357.87,-83.12,-0.455599,-0.471190,0.640576,94.26,1
2813,0,52857,57531,53188.21,57537.11,-331.21,-6.11,-0.455586,-0.471190,0.640896,94.25,1
2855,0,52881,57633,53187.59,57537.30,-306.59,95.70,-0.455575,-0.471193,0.641217,94.24,1
2894,0,52915,57683,53187.05,57537.59,-272.05,145.41,-0.455565,-0.471198,0.641539,94.24,1
2932,0,52858,57015,53186.39,57536.55,-328.39,-521.55,-0.455552,-0.471180,0.641859,94.23,1
2972,0,52461,56134,53184.95,57533.74,-723.95,-1399.74,-0.455525,-0.471132,0.642168,94.22,1
3012,0,52337,56070,53183.25,57530.82,-846.25,-1460.82,-0.455493,-0.471081,0.642469,94.21,1
3050,0,52352,56142,53181.59,57528.04,-829.59,-1386.04,-0.455462,-0.471032,0.642765,94.20,1
3094,0,52365,56139,53179.96,57525.26,-814.96,-1386.26,-0.455431,-0.470984,0.643054,94.19,1
3135,0,52364,56222,53178.33,57522.66,-814.33,-1300.66,-0.455401,-0.470939,0.643339,94.19,1
3174,0,52412,56392,53176.80,57520.39,-764.80,-1128.39,-0.455372,-0.470899,0.643623,94.18,1
3214,0,52463,56529,53175.37,57518.41,-712.37,-989.41,-0.455345,-0.470865,0.643907,94.17,1
3255,0,52476,56509,53173.97,57516.40,-697.97,-1007.40,-0.455319,-0.470830,0.644191,94.16,1
3295,0,52473,56556,53172.57,57514.48,-699.57,-958.48,-0.455292,-0.470797,0.644476,94.15,1
3333,0,52514,56715,53171.25,57512.88,-657.25,-797.88,-0.455268,-0.470769,0.644763,94.14,1
3375,0,52575,56895,53170.06,57511.65,-595.06,-616.65,-0.455245,-0.470747,0.645053,94.14,1
3415,0,52627,57015,53168.98,57510.66,-541.98,-495.66,-0.455225,-0.470730,0.645346,94.13,1
3455,0,52673,57121,53167.98,57509.88,-494.98,-388.88,-0.455206,-0.470717,0.645642,94.12,1
3495,0,52709,57209,53167.07,57509.28,-458.07,-300.28,-0.455189,-0.470706,0.645942,94.11,1
3535,0,52742,57301,53166.22,57508.86,-424.22,-207.86,-0.455173,-0.470699,0.646244,94.10,1
3574,0,52775,57422,53165.44,57508.69,-390.44,-86.69,-0.455158,-0.470696,0.646549,94.10,1
3614,0,52817,57546,53164.74,57508.77,-347.74,37.23,-0.455145,-0.470697,0.646856,94.09,1
3655,0,52846,57623,53164.11,57509.00,-318.11,114.00,-0.455133,-0.470701,0.647165,94.08,1
3695,0,52880,57699,53163.54,57509.38,-283.54,189.62,-0.455123,-0.470708,0.647474,94.07,1
3734,0,52868,57314,53162.95,57508.99,-294.95,-194.99,-0.455111,-0.470701,0.647784,94.06,1
3771,0,52524,56236,53161.67,57506.45,-637.67,-1270.45,-0.455087,-0.470657,0.648083,94.06,1
3813,0,52313,56123,53159.98,57503.68,-846.98,-1380.68,-0.455056,-0.470609,0.648378,94.05,1
3854,0,52340,56209,53158.34,57501.09,-818.34,-1292.09,-0.455025,-0.470564,0.648668,94.04,1
3894,0,52364,56253,53156.75,57498.60,-792.75,-1245.60,-0.454995,-0.470520,0.648955,94.03,1
3932,0,52370,56338,53155.18,57496.28,-785.18,-1158.28,-0.454965,-0.470480,0.649240,94.02,1
3973,0,52428,56511,53153.73,57494.31,-725.73,-983.31,-0.454938,-0.470446,0.649526,94.02,1
4013,0,52477,56580,53152.38,57492.48,-675.38,-912.48,-0.454913,-0.470414,0.649813,94.01,1
4054,0,52473,56538,53151.02,57490.57,-678.02,-952.57,-0.454887,-0.470381,0.650099,94.00,1
4093,0,52470,56610,53149.66,57488.82,-679.66,-878.82,-0.454861,-0.470350,0.650387,93.99,1
4136,0,52514,56737,53148.39,57487.31,-634.39,-750.31,-0.454838,-0.470324,0.650678,93.98,1
4176,0,52569,56902,53147.24,57486.14,-578.24,-584.14,-0.454816,-0.470304,0.650971,93.98,1
4214,0,52631,57047,53146.21,57485.27,-515.21,-438.27,-0.454796,-0.470289,0.651269,93.97,1
4252,0,52675,57162,53145.27,57484.62,-470.27,-322.62,-0.454779,-0.470277,0.651569,93.96,1
4294,0,52711,57269,53144.40,57484.20,-433.40,-215.20,-0.454762,-0.470270,0.651873,93.95,1
4334,0,52742,57341,53143.59,57483.91,-401.59,-142.91,-0.454747,-0.470265,0.652179,93.95,1
4374,0,52769,57405,53142.85,57483.75,-373.85,-78.75,-0.454733,-0.470262,0.652489,93.94,1
4413,0,52793,57482,53142.15,57483.75,-349.15,-1.75,-0.454720,-0.470262,0.652800,93.93,1
4452,0,52819,57571,53141.50,57483.93,-322.50,87.07,-0.454708,-0.470265,0.653113,93.92,1
4494,0,52845,57492,53140.91,57483.95,-295.91,8.05,-0.454697,-0.470266,0.653428,93.92,1
4533,0,52660,56453,53139.95,57481.89,-479.95,-1028.89,-0.454679,-0.470230,0.653734,93.91,1
4574,0,52311,56015,53138.30,57478.95,-827.30,-1463.95,-0.454648,-0.470179,0.654029,93.90,1
4613,0,52278,56033,53136.58,57476.06,-858.58,-1443.06,-0.454615,-0.470129,0.654317,93.89,1
4654,0,52298,56068,53134.90,57473.25,-836.90,-1405.25,-0.454584,-0.470079,0.654598,93.88,1
4696,0,52303,56075,53133.24,57470.45,-830.24,-1395.45,-0.454552,-0.470031,0.654872,93.88,1
4736,0,52318,56172,53131.61,57467.86,-813.61,-1295.86,-0.454522,-0.469986,0.655141,93.87,1
4776,0,52369,56271,53130.09,57465.46,-761.09,-1194.46,-0.454493,-0.469944,0.655407,93.86,1
4817,0,52379,56258,53128.59,57463.05,-749.59,-1205.05,-0.454465,-0.469902,0.655670,93.85,1
4855,0,52381,56254,53127.09,57460.63,-746.09,-1206.63,-0.454437,-0.469860,0.655928,93.85,1
4897,0,52396,56339,53125.63,57458.39,-729.63,-1119.39,-0.454409,-0.469821,0.656184,93.84,1
4935,0,52440,56497,53124.26,57456.47,-684.26,-959.47,-0.454383,-0.469787,0.656441,93.83,1
4977,0,52493,56627,53123.00,57454.81,-630.00,-827.81,-0.454360,-0.469759,0.656698,93.82,1
5013,0,52526,56755,53121.81,57453.41,-595.81,-698.41,-0.454337,-0.469734,0.656957,93.82,1
5056,0,52573,56871,53120.71,57452.25,-547.71,-581.25,-0.454317,-0.469714,0.657220,93.81,1
5093,0,52613,56960,53119.70,57451.27,-506.70,-491.27,-0.454297,-0.469697,0.657485,93.80,1
5137,0,52640,57089,53118.74,57450.54,-478.74,-361.54,-0.454279,-0.469684,0.657753,93.79,1
5177,0,52672,57181,53117.85,57450.00,-445.85,-269.00,-0.454263,-0.469675,0.658025,93.79,1
5217,0,52710,57251,53117.04,57449.61,-407.04,-198.61,-0.454247,-0.469668,0.658300,93.78,1
5258,0,52740,57371,53116.28,57449.45,-376.28,-78.45,-0.454233,-0.469665,0.658578,93.77,1
5297,0,52783,57377,53115.62,57449.30,-332.62,-72.30,-0.454221,-0.469663,0.658857,93.76,1
5334,0,52644,56411,53114.68,57447.23,-470.68,-1036.23,-0.454203,-0.469627,0.659128,93.76,1
5374,0,52274,55917,53113.00,57444.17,-839.00,-1527.17,-0.454171,-0.469573,0.659388,93.75,1
5414,0,52225,55901,53111.22,57441.09,-886.22,-1540.09,-0.454138,-0.469520,0.659638,93.74,1
5454,0,52248,55926,53109.50,57438.06,-861.50,-1512.06,-0.454105,-0.469467,0.659879,93.74,1
5494,0,52240,55916,53107.76,57435.02,-867.76,-1519.02,-0.454073,-0.469414,0.660111,93.73,1
5534,0,52238,55980,53106.02,57432.11,-868.02,-1452.11,-0.454040,-0.469363,0.660336,93.72,1
5574,0,52289,56099,53104.39,57429.44,-815.39,-1330.44,-0.454009,-0.469317,0.660557,93.71,1
5614,0,52319,56119,53102.82,57426.82,-783.82,-1307.82,-0.453980,-0.469271,0.660773,93.71,1
5654,0,52313,56129,53101.24,57424.23,-788.24,-1295.23,-0.453950,-0.469226,0.660985,93.70,1
5699,0,52321,56205,53099.68,57421.79,-778.68,-1216.79,-0.453921,-0.469184,0.661195,93.69,1
5738,0,52358,56363,53098.20,57419.67,-740.20,-1056.67,-0.453893,-0.469147,0.661404,93.69,1
5776,0,52410,56519,53096.82,57417.87,-686.82,-898.87,-0.453867,-0.469115,0.661616,93.68,1
5818,0,52461,56658,53095.55,57416.35,-634.55,-758.35,-0.453843,-0.469089,0.661830,93.67,1
5858,0,52500,56780,53094.36,57415.08,-594.36,-635.08,-0.453820,-0.469067,0.662048,93.67,1
5899,0,52539,56890,53093.25,57414.04,-554.25,-524.04,-0.453800,-0.469049,0.662270,93.66,1
5936,0,52576,56999,53092.22,57413.21,-516.22,-414.21,-0.453780,-0.469034,0.662495,93.65,1
5978,0,52609,57066,53091.26,57412.52,-482.26,-346.52,-0.453762,-0.469022,0.662724,93.65,1
6018,0,52631,57162,53090.34,57412.02,-459.34,-250.02,-0.453745,-0.469014,0.662957,93.64,1
6058,0,52665,57309,53089.49,57411.81,-424.49,-102.81,-0.453729,-0.469010,0.663194,93.63,1
6098,0,52720,57368,53088.75,57411.73,-368.75,-43.73,-0.453715,-0.469009,0.663434,93.63,1
6139,0,52632,56546,53087.84,57410.00,-455.84,-864.00,-0.453698,-0.468978,0.663669,93.62,1
6179,0,52245,55919,53086.16,57407.02,-841.16,-1488.02,-0.453666,-0.468926,0.663895,93.61,1
6219,0,52189,55924,53084.36,57404.05,-895.36,-1480.05,-0.453632,-0.468875,0.664115,93.61,1
6259,0,52219,55952,53082.63,57401.15,-863.63,-1449.15,-0.453600,-0.468824,0.664328,93.60,1
6298,0,52227,55953,53080.92,57398.25,-853.92,-1445.25,-0.453567,-0.468774,0.664535,93.59,1
6339,0,52230,56019,53079.22,57395.50,-849.22,-1376.50,-0.453535,-0.468726,0.664738,93.59,1
6379,0,52287,56189,53077.64,57393.09,-790.64,-1204.09,-0.453505,-0.468684,0.664939,93.58,1
6416,0,52323,56221,53076.13,57390.74,-753.13,-1169.74,-0.453477,-0.468643,0.665138,93.58,1
6457,0,52316,56215,53074.61,57388.39,-758.61,-1173.39,-0.453448,-0.468602,0.665335,93.57,1
6497,0,52335,56315,53073.14,57386.25,-738.14,-1071.25,-0.453421,-0.468565,0.665532,93.56,1
6539,0,52378,56478,53071.75,57384.43,-693.75,-906.43,-0.453394,-0.468533,0.665730,93.56,1
6579,0,52437,56644,53070.48,57382.95,-633.48,-738.95,-0.453370,-0.468507,0.665932,93.55,1
6619,0,52483,56747,53069.30,57381.68,-586.30,-634.68,-0.453348,-0.468485,0.666138,93.54,1
6661,0,52519,56841,53068.21,57380.60,-549.21,-539.60,-0.453328,-0.468466,0.666346,93.54,1
6696,0,52546,56924,53067.16,57379.69,-521.16,-455.69,-0.453308,-0.468450,0.666558,93.53,1
6739,0,52569,56989,53066.17,57378.91,-497.17,-389.91,-0.453289,-0.468437,0.666774,93.53,1
6780,0,52589,57067,53065.21,57378.29,-476.21,-311.29,-0.453271,-0.468426,0.666994,93.52,1
6818,0,52628,57208,53064.34,57377.95,-436.34,-169.95,-0.453255,-0.468420,0.667218,93.51,1
6856,0,52666,57065,53063.54,57377.32,-397.54,-312.32,-0.453240,-0.468409,0.667444,93.51,1
6896,0,52449,56151,53062.32,57374.87,-613.32,-1223.88,-0.453217,-0.468366,0.667660,93.50,1
6937,0,52204,55893,53060.60,57371.91,-856.60,-1478.91,-0.453184,-0.468315,0.667869,93.50,1
6976,0,52195,55914,53058.87,57369.00,-863.87,-1455.00,-0.453152,-0.468264,0.668072,93.49,1
7018,0,52217,55911,53057.19,57366.09,-840.19,-1455.09,-0.453120,-0.468213,0.668267,93.48,1
7056,0,52205,55918,53055.48,57363.19,-850.48,-1445.19,-0.453088,-0.468163,0.668456,93.48,1
7096,0,52231,56050,53053.84,57360.57,-822.84,-1310.57,-0.453057,-0.468117,0.668641,93.47,1
7136,0,52279,56148,53052.29,57358.14,-773.29,-1210.14,-0.453028,-0.468075,0.668824,93.47,1
7176,0,52289,56123,53050.77,57355.68,-761.77,-1232.68,-0.452999,-0.468032,0.669004,93.46,1
7216,0,52276,56145,53049.22,57353.26,-773.22,-1208.26,-0.452970,-0.467990,0.669182,93.46,1
7256,0,52294,56250,53047.71,57351.05,-753.71,-1101.05,-0.452941,-0.467951,0.669360,93.45,1
7297,0,52342,56443,53046.30,57349.24,-704.30,-906.24,-0.452915,-0.467919,0.669540,93.44,1
7336,0,52409,56559,53045.03,57347.66,-636.03,-788.66,-0.452891,-0.467892,0.669723,93.44,1
7376,0,52430,56604,53043.80,57346.18,-613.80,-742.18,-0.452868,-0.467866,0.669908,93.43,1
7416,0,52452,56667,53042.61,57344.82,-590.61,-677.82,-0.452845,-0.467842,0.670095,93.43,1
7457,0,52471,56737,53041.47,57343.61,-570.47,-606.61,-0.452824,-0.467821,0.670286,93.42,1
7497,0,52497,56786,53040.39,57342.49,-543.39,-556.49,-0.452803,-0.467802,0.670480,93.42,1
7539,0,52517,56863,53039.34,57341.54,-522.34,-478.54,-0.452784,-0.467785,0.670678,93.41,1
7580,0,52549,56899,53038.36,57340.65,-489.36,-441.65,-0.452765,-0.467770,0.670878,93.41,1
7619,0,52496,56308,53037.28,57338.59,-541.28,-1030.59,-0.452745,-0.467734,0.671073,93.40,1
7660,0,52206,55766,53035.62,57335.45,-829.62,-1569.45,-0.452713,-0.467679,0.671257,93.39,1
7697,0,52115,55670,53033.78,57332.12,-918.78,-1662.12,-0.452679,-0.467621,0.671430,93.39,1
7737,0,52109,55662,53031.93,57328.78,-922.93,-1666.78,-0.452644,-0.467563,0.671592,93.38,1
7777,0,52098,55621,53030.06,57325.36,-932.06,-1704.36,-0.452609,-0.467503,0.671744,93.38,1
7817,0,52076,55647,53028.16,57322.01,-952.16,-1675.01,-0.452573,-0.467445,0.671887,93.37,1
7857,0,52101,55749,53026.30,57318.86,-925.30,-1569.86,-0.452538,-0.467390,0.672024,93.37,1
7898,0,52139,55791,53024.53,57315.81,-885.53,-1524.81,-0.452504,-0.467336,0.672156,93.36,1
7937,0,52126,55763,53022.73,57312.70,-896.73,-1549.70,-0.452470,-0.467282,0.672281,93.36,1
7980,0,52120,55802,53020.93,57309.68,-900.93,-1507.68,-0.452436,-0.467230,0.672402,93.35,1
8021,0,52142,55913,53019.17,57306.89,-877.17,-1393.89,-0.452403,-0.467181,0.672522,93.35,1
8062,0,52183,56039,53017.50,57304.36,-834.50,-1265.36,-0.452372,-0.467137,0.672640,93.34,1
8102,0,52226,56152,53015.92,57302.05,-789.92,-1150.05,-0.452342,-0.467096,0.672760,93.34,1
8142,0,52255,56292,53014.40,57300.03,-759.40,-1008.03,-0.452313,-0.467061,0.672882,93.33,1
8182,0,52308,56443,53012.99,57298.32,-704.99,-855.32,-0.452287,-0.467031,0.673007,93.33,1
8221,0,52352,56556,53011.67,57296.84,-659.67,-740.84,-0.452262,-0.467005,0.673137,93.32,1
8261,0,52388,56631,53010.42,57295.50,-622.42,-664.50,-0.452238,-0.466982,0.673270,93.32,1
8301,0,52417,56749,53009.24,57294.41,-592.24,-545.41,-0.452216,-0.466963,0.673408,93.31,1
8341,0,52447,56537,53008.11,57292.90,-561.11,-755.90,-0.452195,-0.466937,0.673547,93.31,1
8378,0,52206,55758,53006.51,57289.84,-800.51,-1531.84,-0.452165,-0.466883,0.673676,93.31,1
8418,0,52029,55564,53004.56,57286.39,-975.56,-1722.39,-0.452128,-0.466823,0.673797,93.30,1
8458,0,52011,55580,53002.57,57282.98,-991.57,-1702.98,-0.452090,-0.466763,0.673912,93.30,1
8498,0,52019,55560,53000.61,57279.53,-981.61,-1719.53,-0.452053,-0.466703,0.674020,93.29,1
8538,0,51993,55556,52998.59,57276.09,-1005.59,-1720.09,-0.452015,-0.466643,0.674122,93.29,1
8578,0,52013,55682,52996.62,57272.90,-983.62,-1590.90,-0.451978,-0.466587,0.674221,93.28,1
8618,0,52070,55792,52994.77,57269.94,-924.77,-1477.94,-0.451943,-0.466536,0.674318,93.28,1
8658,0,52084,55782,52992.95,57266.96,-908.95,-1484.96,-0.451909,-0.466484,0.674412,93.27,1
8698,0,52071,55789,52991.11,57264.01,-920.11,-1475.01,-0.451874,-0.466432,0.674504,93.27,1
8739,0,52099,55892,52989.33,57261.27,-890.33,-1369.27,-0.451840,-0.466384,0.674596,93.27,1
8779,0,52140,56014,52987.63,57258.78,-847.63,-1244.78,-0.451808,-0.466341,0.674689,93.26,1
8819,0,52183,56154,52986.02,57256.57,-803.02,-1102.57,-0.451778,-0.466302,0.674784,93.26,1
8859,0,52221,56247,52984.49,57254.55,-763.49,-1007.55,-0.451749,-0.466267,0.674882,93.25,1
8899,0,52257,56341,52983.04,57252.73,-726.04,-911.73,-0.451722,-0.466235,0.674983,93.25,1
8939,0,52291,56398,52981.66,57251.02,-690.66,-853.02,-0.451695,-0.466205,0.675087,93.25,1
8979,0,52315,56511,52980.32,57249.54,-665.32,-738.54,-0.451670,-0.466179,0.675194,93.24,1
9019,0,52355,56601,52979.07,57248.24,-624.07,-647.24,-0.451647,-0.466157,0.675306,93.24,1
9059,0,52342,56201,52977.80,57246.15,-635.80,-1045.15,-0.451623,-0.466120,0.675416,93.24,1
9099,0,52088,55615,52976.02,57242.89,-888.02,-1627.89,-0.451589,-0.466063,0.675518,93.23,1
9139,0,51973,55512,52974.02,57239.43,-1001.02,-1727.43,-0.451551,-0.466003,0.675614,93.23,1
9179,0,51982,55530,52972.04,57236.01,-990.04,-1706.01,-0.451514,-0.465943,0.675705,93.22,1
9219,0,51972,55516,52970.04,57232.57,-998.04,-1716.57,-0.451476,-0.465883,0.675790,93.22,1
9259,0,51963,55555,52968.02,57229.21,-1005.02,-1674.21,-0.451438,-0.465824,0.675871,93.22,1
9299,0,52001,55701,52966.09,57226.16,-965.09,-1525.16,-0.451402,-0.465771,0.675951,93.21,1
9339,0,52044,55770,52964.25,57223.25,-920.25,-1453.25,-0.451367,-0.465720,0.676030,93.21,1
9379,0,52041,55760,52962.40,57220.32,-921.40,-1460.32,-0.451332,-0.465669,0.676108,93.21,1
9419,0,52042,55817,52960.56,57217.52,-918.56,-1400.52,-0.451297,-0.465620,0.676186,93.20,1
9460,0,52078,55949,52958.80,57214.98,-880.80,-1265.98,-0.451264,-0.465576,0.676265,93.20,1
9500,0,52133,56097,52957.15,57212.75,-824.15,-1115.75,-0.451233,-0.465537,0.676347,93.20,1
9540,0,52189,56203,52955.61,57210.73,-766.61,-1007.73,-0.451204,-0.465501,0.676431,93.19,1
9579,0,52218,56229,52954.14,57208.77,-736.14,-979.77,-0.451176,-0.465467,0.676518,93.19,1
9620,0,52230,56275,52952.70,57206.90,-722.70,-931.90,-0.451149,-0.465434,0.676608,93.19,1
9660,0,52246,56311,52951.29,57205.11,-705.29,-894.11,-0.451122,-0.465403,0.676700,93.18,1
9699,0,52264,56392,52949.91,57203.49,-685.91,-811.49,-0.451096,-0.465375,0.676795,93.18,1
9740,0,52271,56141,52948.55,57201.36,-677.55,-1060.36,-0.451070,-0.465338,0.676890,93.18,1
9780,0,52041,55560,52946.74,57198.08,-905.74,-1638.08,-0.451036,-0.465280,0.676978,93.18,1
9820,0,51914,55433,52944.68,57194.55,-1030.68,-1761.55,-0.450997,-0.465219,0.677061,93.17,1
9860,0,51911,55463,52942.61,57191.09,-1031.61,-1728.09,-0.450958,-0.465158,0.677139,93.17,1
9900,0,51930,55492,52940.59,57187.70,-1010.59,-1695.70,-0.450920,-0.465099,0.677214,93.17,1
9940,0,51932,55515,52938.57,57184.35,-1006.57,-1669.35,-0.450882,-0.465040,0.677286,93.16,1
9980,0,51964,55677,52936.62,57181.34,-972.62,-1504.34,-0.450845,-0.464988,0.677357,93.16,1
10020,0,52011,55714,52934.77,57178.41,-923.77,-1464.41,-0.450810,-0.464936,0.677427,93.16,1
10060,0,52011,55690,52932.93,57175.43,-921.93,-1485.43,-0.450775,-0.464884,0.677495,93.15,1
10100,0,51997,55714,52931.05,57172.51,-934.05,-1458.51,-0.450740,-0.464833,0.677563,93.15,1
10140,0,52039,55921,52929.27,57170.01,-890.27,-1249.01,-0.450706,-0.464789,0.677633,93.15,1
10181,0,52124,56092,52927.66,57167.85,-803.66,-1075.85,-0.450676,-0.464752,0.677706,93.15,1
10221,0,52160,56172,52926.13,57165.86,-766.13,-993.86,-0.450647,-0.464717,0.677781,93.14,1
10262,0,52174,56256,52924.62,57164.05,-750.62,-908.05,-0.450618,-0.464685,0.677860,93.14,1
10303,0,52217,56366,52923.21,57162.45,-706.21,-796.45,-0.450592,-0.464657,0.677943,93.14,1
10343,0,52272,56483,52921.91,57161.09,-649.91,-678.09,-0.450567,-0.464633,0.678029,93.14,1
10381,0,52315,56575,52920.70,57159.92,-605.70,-584.92,-0.450544,-0.464613,0.678120,93.13,1
10422,0,52369,56694,52919.60,57158.99,-550.60,-464.99,-0.450523,-0.464597,0.678213,93.13,1
10463,0,52333,56094,52918.43,57156.86,-585.43,-1062.86,-0.450501,-0.464559,0.678304,93.13,1
10502,0,52036,55558,52916.66,57153.67,-880.66,-1595.67,-0.450468,-0.464503,0.678389,93.12,1
10541,0,51956,55533,52914.74,57150.43,-958.74,-1617.43,-0.450432,-0.464447,0.678470,93.12,1
10581,0,51986,55617,52912.89,57147.36,-926.89,-1530.36,-0.450397,-0.464393,0.678548,93.12,1
10621,0,52000,55642,52911.06,57144.36,-911.06,-1502.36,-0.450362,-0.464341,0.678624,93.12,1
10661,0,52017,55761,52909.28,57141.59,-892.28,-1380.59,-0.450328,-0.464292,0.678699,93.11,1
10701,0,52083,55925,52907.62,57139.16,-824.62,-1214.16,-0.450297,-0.464250,0.678775,93.11,1
10741,0,52126,55943,52906.06,57136.77,-780.06,-1193.77,-0.450268,-0.464208,0.678850,93.11,1
10781,0,52114,55932,52904.48,57134.36,-790.48,-1202.36,-0.450238,-0.464166,0.678926,93.11,1
10823,0,52132,56025,52902.94,57132.14,-770.94,-1107.14,-0.450209,-0.464127,0.679002,93.10,1
10863,0,52172,56198,52901.48,57130.27,-729.48,-932.27,-0.450181,-0.464094,0.679082,93.10,1
10905,0,52235,56393,52900.14,57128.80,-665.14,-735.80,-0.450156,-0.464068,0.679164,93.10,1
10946,0,52312,56571,52898.97,57127.69,-586.97,-556.69,-0.450134,-0.464049,0.679251,93.10,1
10985,0,52365,56705,52897.90,57126.84,-532.90,-421.84,-0.450113,-0.464034,0.679341,93.09,1
11024,0,52401,56833,52896.91,57126.26,-495.91,-293.26,-0.450095,-0.464024,0.679434,93.09,1
11064,0,52447,56957,52896.01,57125.92,-449.01,-168.92,-0.450078,-0.464018,0.679531,93.09,1
11104,0,52499,57086,52895.22,57125.84,-396.22,-39.84,-0.450063,-0.464016,0.679630,93.09,1
11144,0,52534,57017,52894.50,57125.63,-360.50,-108.63,-0.450049,-0.464013,0.679731,93.09,1
11184,0,52333,56011,52893.37,57123.40,-560.37,-1112.40,-0.450028,-0.463974,0.679828,93.08,1
11225,0,52042,55736,52891.67,57120.63,-849.67,-1384.63,-0.449996,-0.463925,0.679922,93.08,1
11264,0,52056,55826,52890.00,57118.04,-834.00,-1292.04,-0.449964,-0.463880,0.680016,93.08,1
11304,0,52105,55884,52888.43,57115.58,-783.43,-1231.58,-0.449934,-0.463837,0.680108,93.08,1
11345,0,52115,55934,52886.88,57113.21,-771.88,-1179.21,-0.449905,-0.463795,0.680200,93.07,1
11384,0,52149,56064,52885.41,57111.12,-736.41,-1047.12,-0.449877,-0.463759,0.680293,93.07,1
11424,0,52187,56096,52884.02,57109.09,-697.02,-1013.09,-0.449851,-0.463723,0.680386,93.07,1
11465,0,52178,56088,52882.61,57107.05,-704.61,-1019.05,-0.449824,-0.463687,0.680480,93.07,1
11505,0,52179,56154,52881.20,57105.14,-702.20,-951.14,-0.449798,-0.463654,0.680575,93.06,1
11544,0,52219,56286,52879.87,57103.51,-660.87,-817.51,-0.449773,-0.463625,0.680673,93.06,1
11584,0,52259,56412,52878.63,57102.12,-619.63,-690.12,-0.449749,-0.463601,0.680774,93.06,1
11625,0,52302,56548,52877.48,57101.02,-575.48,-553.02,-0.449727,-0.463582,0.680879,93.06,1
11665,0,52348,56684,52876.42,57100.19,-528.42,-416.19,-0.449707,-0.463567,0.680987,93.05,1
11704,0,52389,56773,52875.45,57099.54,-486.45,-326.54,-0.449689,-0.463556,0.681098,93.05,1
11745,0,52413,56857,52874.53,57099.05,-461.53,-242.05,-0.449671,-0.463547,0.681213,93.05,1
11785,0,52447,56962,52873.67,57098.78,-426.67,-136.78,-0.449655,-0.463543,0.681330,93.05,1
11825,0,52464,56643,52872.86,57097.87,-408.86,-454.87,-0.449640,-0.463527,0.681449,93.04,1
11865,0,52168,55778,52871.45,57095.23,-703.45,-1317.23,-0.449613,-0.463481,0.681562,93.04,1
11905,0,51994,55644,52869.69,57092.33,-875.69,-1448.33,-0.449580,-0.463430,0.681672,93.04,1
11945,0,52009,55726,52867.97,57089.60,-858.97,-1363.60,-0.449547,-0.463382,0.681779,93.04,1
11985,0,52040,55757,52866.32,57086.93,-826.32,-1329.93,-0.449516,-0.463335,0.681884,93.03,1
12025,0,52045,55806,52864.68,57084.37,-819.68,-1278.38,-0.449485,-0.463290,0.681988,93.03,1
12066,0,52089,55939,52863.12,57082.09,-774.12,-1143.09,-0.449456,-0.463250,0.682092,93.03,1
12105,0,52124,55984,52861.65,57079.89,-737.65,-1095.89,-0.449428,-0.463212,0.682196,93.03,1
12145,0,52110,55937,52860.15,57077.61,-750.15,-1140.61,-0.449399,-0.463172,0.682300,93.02,1
12185,0,52106,56021,52858.64,57075.49,-752.64,-1054.49,-0.449371,-0.463135,0.682404,93.02,1
12226,0,52156,56171,52857.24,57073.68,-701.24,-902.68,-0.449344,-0.463103,0.682511,93.02,1
12266,0,52200,56330,52855.93,57072.20,-655.93,-742.20,-0.449320,-0.463077,0.682621,93.02,1
12309,0,52261,56507,52854.74,57071.07,-593.74,-564.07,-0.449297,-0.463057,0.682735,93.01,1
12347,0,52314,56622,52853.66,57070.17,-539.66,-448.17,-0.449277,-0.463041,0.682853,93.01,1
12388,0,52354,56699,52852.66,57069.43,-498.66,-370.43,-0.449258,-0.463028,0.682974,93.01,1
12427,0,52375,56809,52851.71,57068.91,-476.71,-259.91,-0.449240,-0.463019,0.683098,93.01,1
12467,0,52416,56951,52850.84,57068.68,-434.84,-117.68,-0.449223,-0.463015,0.683226,93.00,1
12507,0,52449,56871,52850.04,57068.28,-401.04,-197.28,-0.449208,-0.463008,0.683357,93.00,1
12546,0,52263,55870,52848.86,57065.89,-585.86,-1195.89,-0.449186,-0.462966,0.683481,93.00,1
12587,0,51985,55627,52847.14,57063.01,-862.14,-1436.01,-0.449153,-0.462916,0.683601,93.00,1
12628,0,51989,55683,52845.42,57060.25,-856.42,-1377.25,-0.449121,-0.462868,0.683717,92.99,1
12667,0,52021,55694,52843.77,57057.52,-822.77,-1363.52,-0.449090,-0.462820,0.683831,92.99,1
12707,0,52020,55687,52842.13,57054.79,-822.13,-1367.79,-0.449058,-0.462772,0.683941,92.99,1
12748,0,52036,55790,52840.52,57052.26,-804.52,-1262.26,-0.449028,-0.462728,0.684049,92.99,1
12788,0,52081,55922,52839.00,57050.00,-758.00,-1128.00,-0.448999,-0.462688,0.684157,92.98,1
12828,0,52092,55938,52837.51,57047.78,-745.51,-1109.78,-0.448971,-0.462649,0.684265,92.98,1
12865,0,52083,55972,52836.00,57045.63,-753.00,-1073.63,-0.448942,-0.462611,0.684374,92.98,1
12905,0,52121,56097,52834.57,57043.73,-713.57,-946.73,-0.448915,-0.462578,0.684484,92.97,1
12946,0,52176,56254,52833.25,57042.16,-657.25,-788.16,-0.448891,-0.462550,0.684598,92.97,1
12986,0,52225,56406,52832.04,57040.89,-607.04,-634.89,-0.448868,-0.462528,0.684714,92.97,1
13025,0,52274,56525,52830.93,57039.86,-556.93,-514.86,-0.448846,-0.462510,0.684835,92.97,1
13068,0,52318,56585,52829.90,57038.95,-511.90,-453.95,-0.448827,-0.462494,0.684958,92.96,1
13108,0,52338,56648,52828.92,57038.16,-490.92,-390.16,-0.448808,-0.462480,0.685085,92.96,1
13148,0,52359,56723,52827.98,57037.54,-468.98,-314.54,-0.448791,-0.462469,0.685214,92.96,1
13189,0,52388,56812,52827.10,57037.09,-439.10,-225.09,-0.448774,-0.462462,0.685347,92.96,1
13229,0,52417,56692,52826.28,57036.40,-409.28,-344.40,-0.448759,-0.462450,0.685482,92.95,1
13268,0,52212,55781,52825.05,57033.89,-613.05,-1252.89,-0.448735,-0.462406,0.685610,92.95,1
13309,0,51957,55530,52823.32,57030.88,-866.32,-1500.88,-0.448702,-0.462353,0.685731,92.95,1
13348,0,51940,55551,52821.55,57027.93,-881.55,-1476.93,-0.448669,-0.462301,0.685847,92.94,1
13388,0,51955,55553,52819.82,57024.98,-864.82,-1471.98,-0.448636,-0.462249,0.685959,92.94,1
13428,0,51945,55540,52818.07,57022.01,-873.07,-1482.01,-0.448603,-0.462197,0.686065,92.94,1
13468,0,51959,55636,52816.36,57019.24,-857.36,-1383.24,-0.448571,-0.462149,0.686169,92.94,1
13508,0,52003,55748,52814.73,57016.70,-811.73,-1268.70,-0.448540,-0.462104,0.686271,92.93,1
13548,0,52010,55730,52813.12,57014.13,-803.12,-1284.13,-0.448509,-0.462059,0.686371,92.93,1
13589,0,52001,55739,52811.50,57011.58,-810.50,-1272.58,-0.448479,-0.462014,0.686470,92.93,1
13625,0,52019,55823,52809.92,57009.21,-790.92,-1186.21,-0.448449,-0.461973,0.686568,92.92,1
13668,0,52064,55949,52808.43,57007.09,-744.43,-1058.09,-0.448421,-0.461936,0.686667,92.92,1
13708,0,52102,56059,52807.02,57005.20,-705.02,-946.20,-0.448394,-0.461902,0.686767,92.92,1
13749,0,52134,56174,52805.68,57003.54,-671.68,-829.54,-0.448368,-0.461873,0.686871,92.92,1
13789,0,52174,56261,52804.41,57002.05,-630.41,-741.05,-0.448344,-0.461847,0.686977,92.91,1
13830,0,52200,56347,52803.21,57000.74,-603.21,-653.74,-0.448322,-0.461824,0.687086,92.91,1
13868,0,52226,56446,52802.05,56999.63,-576.05,-553.63,-0.448300,-0.461805,0.687199,92.91,1
13906,0,52259,56553,52800.97,56998.74,-541.97,-445.74,-0.448279,-0.461789,0.687316,92.91,1
13945,0,52300,56677,52799.97,56998.10,-499.97,-321.10,-0.448260,-0.461778,0.687436,92.90,1
13986,0,52324,56416,52799.02,56996.94,-475.02,-580.94,-0.448242,-0.461757,0.687558,92.90,1
14027,0,52040,55577,52797.50,56994.10,-757.50,-1417.10,-0.448214,-0.461708,0.687673,92.90,1
14069,0,51864,55419,52795.64,56990.95,-931.64,-1571.95,-0.448178,-0.461652,0.687782,92.89,1
14109,0,51861,55465,52793.77,56987.90,-932.77,-1522.90,-0.448143,-0.461599,0.687887,92.89,1
14148,0,51888,55480,52791.96,56984.88,-903.96,-1504.88,-0.448109,-0.461546,0.687987,92.89,1
14189,0,51888,55506,52790.16,56981.93,-902.16,-1475.93,-0.448074,-0.461494,0.688084,92.89,1
14228,0,51911,55624,52788.40,56979.21,-877.40,-1355.21,-0.448041,-0.461446,0.688180,92.88,1
14269,0,51958,55745,52786.74,56976.74,-828.74,-1231.74,-0.448010,-0.461403,0.688276,92.88,1
14306,0,51982,55755,52785.13,56974.30,-803.13,-1219.30,-0.447979,-0.461360,0.688371,92.88,1
14349,0,51987,55788,52783.54,56971.93,-796.54,-1183.93,-0.447949,-0.461319,0.688466,92.88,1
14386,0,52016,55919,52782.00,56969.82,-766.00,-1050.82,-0.447920,-0.461282,0.688562,92.87,1
14429,0,52071,56096,52780.58,56968.08,-709.58,-872.08,-0.447893,-0.461251,0.688662,92.87,1
14470,0,52130,56249,52779.28,56966.64,-649.28,-717.64,-0.447868,-0.461226,0.688765,92.87,1
14510,0,52177,56372,52778.07,56965.45,-601.07,-593.45,-0.447846,-0.461205,0.688872,92.86,1
14550,0,52216,56484,52776.95,56964.49,-560.95,-480.49,-0.447824,-0.461188,0.688982,92.86,1
14590,0,52251,56602,52775.90,56963.77,-524.90,-361.77,-0.447804,-0.461175,0.689097,92.86,1
14630,0,52285,56714,52774.92,56963.27,-489.92,-249.27,-0.447786,-0.461167,0.689216,92.86,1
14669,0,52323,56830,52774.02,56963.00,-451.02,-133.00,-0.447769,-0.461162,0.689339,92.85,1
14710,0,52370,56975,52773.21,56963.03,-403.21,11.97,-0.447753,-0.461162,0.689465,92.85,1
14751,0,52420,57066,52772.51,56963.24,-352.51,102.76,-0.447740,-0.461166,0.689593,92.85,1
14791,0,52384,56432,52771.73,56962.18,-387.73,-530.18,-0.447725,-0.461147,0.689721,92.85,1
14832,0,51961,55596,52770.11,56959.45,-809.11,-1363.45,-0.447695,-0.461099,0.689845,92.84,1
14867,0,51885,55600,52768.34,56956.73,-883.34,-1356.73,-0.447661,-0.461052,0.689966,92.84,1
14910,0,51927,55710,52766.66,56954.23,-839.66,-1244.23,-0.447629,-0.461008,0.690088,92.84,1
14947,0,51962,55737,52765.05,56951.80,-803.05,-1214.80,-0.447599,-0.460965,0.690208,92.83,1
14987,0,51970,55823,52763.46,56949.54,-793.46,-1126.54,-0.447569,-0.460926,0.690329,92.83,1
15028,0,52027,55969,52761.99,56947.58,-734.99,-978.58,-0.447541,-0.460891,0.690451,92.83,1
15067,0,52054,55985,52760.57,56945.66,-706.57,-960.66,-0.447514,-0.460857,0.690575,92.83,1
15106,0,52045,55971,52759.14,56943.71,-714.14,-972.71,-0.447487,-0.460823,0.690700,92.82,1
15147,0,52055,56052,52757.74,56941.93,-702.74,-889.93,-0.447460,-0.460792,0.690827,92.82,1
15192,0,52105,56221,52756.43,56940.49,-651.43,-719.49,-0.447435,-0.460767,0.690958,92.82,1
15231,0,52169,56393,52755.26,56939.39,-586.26,-546.39,-0.447413,-0.460747,0.691093,92.82,1
15272,0,52220,56499,52754.19,56938.52,-534.19,-439.52,-0.447393,-0.460732,0.691232,92.81,1
15312,0,52260,56574,52753.20,56937.79,-493.20,-363.79,-0.447374,-0.460719,0.691374,92.81,1
15393,0,52288,56615,52752.27,56937.14,-464.27,-322.14,-0.447357,-0.460708,0.691519,92.81,1
15401,0,52318,56661,52751.41,56936.59,-433.41,-275.59,-0.447340,-0.460698,0.691667,92.80,1
15432,0,52336,56730,52750.58,56936.18,-414.58,-206.18,-0.447324,-0.460691,0.691818,92.80,1
15471,0,52365,56853,52749.81,56936.02,-384.81,-83.02,-0.447310,-0.460688,0.691972,92.80,1
15512,0,52422,56917,52749.16,56935.98,-327.16,-18.98,-0.447297,-0.460687,0.692128,92.79,1
15552,0,52359,56215,52748.38,56934.54,-389.38,-719.54,-0.447283,-0.460662,0.692282,92.79,1
15591,0,52007,55616,52746.90,56931.91,-739.90,-1315.91,-0.447255,-0.460616,0.692428,92.79,1
15628,0,51943,55602,52745.29,56929.25,-802.29,-1327.25,-0.447224,-0.460569,0.692570,92.79,1
15670,0,51971,55686,52743.75,56926.76,-772.75,-1240.76,-0.447195,-0.460525,0.692709,92.78,1
15710,0,51991,55703,52742.24,56924.32,-751.24,-1221.32,-0.447166,-0.460483,0.692844,92.78,1
15751,0,51997,55773,52740.75,56922.02,-743.75,-1149.02,-0.447138,-0.460442,0.692978,92.78,1
15792,0,52034,55869,52739.34,56919.91,-705.34,-1050.91,-0.447111,-0.460405,0.693110,92.77,1
15832,0,52055,55867,52737.97,56917.80,-682.97,-1050.80,-0.447085,-0.460368,0.693241,92.77,1
15873,0,52037,55835,52736.57,56915.64,-699.57,-1080.64,-0.447059,-0.460330,0.693371,92.77,1
15912,0,52039,55889,52735.18,56913.59,-696.18,-1024.59,-0.447032,-0.460294,0.693500,92.76,1
15951,0,52078,56013,52733.86,56911.79,-655.86,-898.79,-0.447008,-0.460262,0.693630,92.76,1
15989,0,52121,56120,52732.64,56910.21,-611.64,-790.21,-0.446984,-0.460235,0.693761,92.76,1
16029,0,52157,56225,52731.49,56908.84,-574.49,-683.84,-0.446963,-0.460211,0.693894,92.75,1
16069,0,52200,56308,52730.43,56907.64,-530.43,-599.64,-0.446942,-0.460189,0.694030,92.75,1
16109,0,52229,56365,52729.43,56906.56,-500.43,-541.56,-0.446923,-0.460171,0.694167,92.75,1
16149,0,52244,56466,52728.46,56905.68,-484.46,-439.68,-0.446905,-0.460155,0.694308,92.74,1
16189,0,52282,56559,52727.57,56904.99,-445.57,-345.99,-0.446888,-0.460143,0.694451,92.74,1
16229,0,52319,56627,52726.75,56904.43,-407.75,-277.43,-0.446873,-0.460133,0.694597,92.74,1
16269,0,52356,56717,52726.02,56904.06,-370.02,-187.06,-0.446859,-0.460127,0.694746,92.74,1
16309,0,52370,56409,52725.30,56903.07,-355.30,-494.07,-0.446845,-0.460109,0.694894,92.73,1
16349,0,52073,55606,52724.00,56900.48,-651.00,-1294.48,-0.446820,-0.460064,0.695033,92.73,1
16392,0,51894,55432,52722.34,56897.54,-828.34,-1465.54,-0.446789,-0.460012,0.695164,92.73,1
16432,0,51890,55464,52720.68,56894.68,-830.68,-1430.68,-0.446757,-0.459962,0.695288,92.72,1
16469,0,51911,55492,52719.06,56891.87,-808.06,-1399.87,-0.446727,-0.459912,0.695406,92.72,1
16510,0,51902,55483,52717.43,56889.05,-815.43,-1406.05,-0.446696,-0.459863,0.695518,92.72,1
16552,0,51916,55562,52715.82,56886.40,-799.82,-1324.40,-0.446665,-0.459816,0.695625,92.71,1
16593,0,51953,55629,52714.30,56883.89,-761.30,-1254.89,-0.446636,-0.459772,0.695729,92.71,1
16633,0,51958,55614,52712.79,56881.35,-754.79,-1267.35,-0.446608,-0.459727,0.695829,92.71,1
16673,0,51946,55647,52711.26,56878.88,-765.26,-1231.88,-0.446579,-0.459684,0.695926,92.70,1
16714,0,51972,55753,52709.78,56876.63,-737.78,-1123.63,-0.446551,-0.459645,0.696022,92.70,1
16753,0,52018,55890,52708.40,56874.66,-690.40,-984.66,-0.446525,-0.459610,0.696119,92.70,1
16793,0,52069,55994,52707.12,56872.90,-638.12,-878.90,-0.446500,-0.459579,0.696216,92.69,1
16834,0,52103,56073,52705.91,56871.30,-602.91,-798.30,-0.446477,-0.459551,0.696315,92.69,1
16872,0,52134,56145,52704.77,56869.85,-570.77,-724.85,-0.446456,-0.459525,0.696416,92.69,1
16913,0,52156,56196,52703.68,56868.50,-547.68,-672.50,-0.446435,-0.459502,0.696518,92.68,1
16951,0,52166,56256,52702.60,56867.28,-536.60,-611.28,-0.446415,-0.459480,0.696623,92.68,1
16994,0,52186,56365,52701.57,56866.28,-515.57,-501.28,-0.446395,-0.459462,0.696730,92.68,1
17032,0,52229,56483,52700.62,56865.51,-471.62,-382.51,-0.446377,-0.459449,0.696842,92.68,1
17072,0,52278,56583,52699.78,56864.95,-421.78,-281.95,-0.446361,-0.459439,0.696956,92.67,1
17111,0,52303,56370,52698.99,56863.96,-395.99,-493.96,-0.446346,-0.459422,0.697070,92.67,1
17151,0,52035,55519,52697.66,56861.27,-662.66,-1342.27,-0.446321,-0.459374,0.697176,92.67,1
17192,0,51837,55311,52695.94,56858.18,-858.94,-1547.18,-0.446288,-0.459320,0.697272,92.66,1
17234,0,51822,55313,52694.20,56855.09,-872.20,-1542.09,-0.446255,-0.459266,0.697360,92.66,1
17275,0,51829,55349,52692.46,56852.07,-863.46,-1503.07,-0.446222,-0.459213,0.697442,92.66,1
17311,0,51835,55373,52690.75,56849.12,-855.75,-1476.12,-0.446190,-0.459161,0.697518,92.66,1
17354,0,51859,55474,52689.09,56846.37,-830.09,-1372.37,-0.446158,-0.459112,0.697590,92.65,1
17394,0,51912,55602,52687.53,56843.88,-775.53,-1241.88,-0.446129,-0.459068,0.697660,92.65,1
17434,0,51939,55603,52686.04,56841.40,-747.04,-1238.40,-0.446100,-0.459025,0.697727,92.65,1
17471,0,51937,55636,52684.54,56838.99,-747.54,-1202.99,-0.446072,-0.458982,0.697791,92.64,1
17514,0,51952,55763,52683.07,56836.84,-731.07,-1073.84,-0.446044,-0.458945,0.697856,92.64,1
17555,0,52008,55923,52681.73,56835.01,-673.73,-912.01,-0.446018,-0.458912,0.697923,92.64,1
17594,0,52063,56037,52680.49,56833.41,-617.49,-796.41,-0.445995,-0.458884,0.697991,92.64,1
17634,0,52112,56149,52679.36,56832.05,-567.36,-683.05,-0.445973,-0.458860,0.698062,92.63,1
17674,0,52187,56311,52678.37,56831.01,-491.37,-520.01,-0.445955,-0.458842,0.698136,92.63,1
17714,0,52246,56387,52677.51,56830.12,-431.51,-443.12,-0.445938,-0.458826,0.698211,92.63,1
17755,0,52265,56462,52676.68,56829.39,-411.68,-367.39,-0.445923,-0.458813,0.698289,92.63,1
17795,0,52295,56569,52675.92,56828.87,-380.92,-259.87,-0.445908,-0.458804,0.698369,92.62,1
17834,0,52329,56704,52675.23,56828.62,-346.23,-124.62,-0.445895,-0.458800,0.698452,92.62,1
17874,0,52371,56875,52674.62,56828.71,-303.62,46.29,-0.445884,-0.458802,0.698536,92.62,1
17914,0,52435,56973,52674.15,56829.00,-239.15,144.00,-0.445875,-0.458807,0.698622,92.62,1
17954,0,52366,56147,52673.54,56827.64,-307.54,-680.64,-0.445863,-0.458783,0.698704,92.61,1
17996,0,51955,55541,52672.10,56825.07,-717.10,-1284.07,-0.445836,-0.458737,0.698780,92.61,1
18036,0,51896,55557,52670.55,56822.53,-774.55,-1265.53,-0.445806,-0.458693,0.698854,92.61,1
18076,0,51937,55670,52669.08,56820.23,-732.08,-1150.23,-0.445778,-0.458652,0.698926,92.61,1
18115,0,51983,55679,52667.71,56817.95,-684.71,-1138.95,-0.445752,-0.458612,0.698994,92.60,1
18156,0,52000,55737,52666.37,56815.79,-666.37,-1078.79,-0.445727,-0.458574,0.699061,92.60,1
18196,0,52052,55830,52665.15,56813.82,-613.15,-983.82,-0.445704,-0.458539,0.699126,92.60,1
18235,0,52065,55819,52663.95,56811.83,-598.95,-992.83,-0.445681,-0.458504,0.699189,92.60,1
18275,0,52046,55819,52662.71,56809.84,-616.71,-990.84,-0.445657,-0.458470,0.699251,92.59,1
18315,0,52063,55928,52661.52,56808.08,-598.52,-880.08,-0.445635,-0.458439,0.699313,92.59,1
18354,0,52115,56076,52660.43,56806.62,-545.43,-730.62,-0.445614,-0.458413,0.699375,92.59,1
18395,0,52174,56219,52659.45,56805.45,-485.45,-586.45,-0.445596,-0.458392,0.699440,92.59,1
18435,0,52222,56342,52658.58,56804.52,-436.58,-462.52,-0.445579,-0.458376,0.699507,92.58,1
18475,0,52269,56475,52657.80,56803.87,-388.80,-328.87,-0.445564,-0.458364,0.699576,92.58,1
18515,0,52299,56568,52657.09,56803.40,-358.09,-235.40,-0.445551,-0.458356,0.699647,92.58,1
18556,0,52335,56696,52656.44,56803.18,-321.44,-107.18,-0.445538,-0.458352,0.699721,92.58,1
18591,0,52369,56831,52655.87,56803.24,-286.87,27.76,-0.445527,-0.458353,0.699796,92.58,1
18635,0,52424,56993,52655.41,56803.62,-231.41,189.37,-0.445519,-0.458360,0.699872,92.57,1
18676,0,52475,57084,52655.05,56804.19,-180.05,279.81,-0.445512,-0.458370,0.699948,92.57,1
18716,0,52444,56492,52654.62,56803.57,-210.62,-311.57,-0.445504,-0.458359,0.700024,92.57,1
18756,0,52052,55661,52653.42,56801.28,-601.42,-1140.28,-0.445481,-0.458319,0.700094,92.57,1
18797,0,51951,55639,52652.02,56798.96,-701.02,-1159.96,-0.445454,-0.458278,0.700161,92.57,1
18837,0,51995,55717,52650.71,56796.79,-655.71,-1079.79,-0.445429,-0.458240,0.700224,92.56,1
18876,0,52020,55766,52649.45,56794.73,-629.45,-1028.73,-0.445405,-0.458203,0.700286,92.56,1
18916,0,52039,55871,52648.23,56792.89,-609.23,-921.89,-0.445382,-0.458171,0.700348,92.56,1
18955,0,52095,56032,52647.12,56791.37,-552.12,-759.37,-0.445361,-0.458144,0.700410,92.56,1
18993,0,52132,56045,52646.09,56789.87,-514.09,-744.87,-0.445342,-0.458118,0.700472,92.55,1
19033,0,52112,56008,52645.03,56788.31,-533.03,-780.31,-0.445322,-0.458090,0.700535,92.55,1
19073,0,52116,56065,52643.97,56786.87,-527.97,-721.87,-0.445301,-0.458065,0.700599,92.55,1
19115,0,52168,56219,52643.02,56785.73,-475.02,-566.73,-0.445283,-0.458045,0.700664,92.55,1
19155,0,52225,56346,52642.18,56784.86,-417.18,-438.86,-0.445267,-0.458030,0.700732,92.55,1
19197,0,52268,56491,52641.44,56784.27,-373.44,-293.27,-0.445253,-0.458019,0.700802,92.54,1
19236,0,52317,56598,52640.79,56783.90,-323.79,-185.90,-0.445241,-0.458013,0.700875,92.54,1
19277,0,52357,56696,52640.22,56783.72,-283.22,-87.72,-0.445230,-0.458010,0.700949,92.54,1
19316,0,52394,56765,52639.73,56783.69,-245.73,-18.69,-0.445221,-0.458009,0.701025,92.54,1
19355,0,52413,56863,52639.28,56783.85,-226.28,79.15,-0.445212,-0.458012,0.701102,92.54,1
19397,0,52446,56971,52638.89,56784.22,-192.89,186.78,-0.445205,-0.458018,0.701179,92.53,1
19438,0,52485,56918,52638.59,56784.49,-153.59,133.51,-0.445199,-0.458023,0.701256,92.53,1
19477,0,52307,55933,52637.93,56782.79,-330.93,-849.79,-0.445187,-0.457993,0.701327,92.53,1
19518,0,51983,55569,52636.62,56780.36,-653.62,-1211.36,-0.445162,-0.457950,0.701392,92.53,1
19557,0,51949,55585,52635.24,56777.97,-686.24,-1192.97,-0.445136,-0.457908,0.701451,92.53,1
19596,0,51972,55599,52633.92,56775.62,-661.92,-1176.62,-0.445110,-0.457867,0.701505,92.52,1
19637,0,51962,55561,52632.57,56773.19,-670.57,-1212.19,-0.445085,-0.457824,0.701553,92.52,1
19676,0,51949,55632,52631.21,56770.91,-682.21,-1138.91,-0.445059,-0.457784,0.701598,92.52,1
19717,0,51995,55752,52629.94,56768.87,-634.94,-1016.87,-0.445035,-0.457748,0.701642,92.52,1
19758,0,52026,55744,52628.73,56766.82,-602.73,-1022.82,-0.445012,-0.457712,0.701682,92.52,1
19797,0,52018,55716,52627.51,56764.72,-609.51,-1048.72,-0.444989,-0.457675,0.701720,92.52,1
19837,0,52039,55781,52626.34,56762.76,-587.34,-981.76,-0.444966,-0.457640,0.701755,92.51,1
19877,0,52075,55914,52625.23,56761.06,-550.23,-847.06,-0.444945,-0.457610,0.701789,92.51,1
19918,0,52111,56035,52624.21,56759.61,-513.21,-724.61,-0.444926,-0.457585,0.701825,92.51,1
19957,0,52147,56155,52623.25,56758.41,-476.25,-603.41,-0.444908,-0.457564,0.701862,92.51,1
19998,0,52187,56233,52622.38,56757.36,-435.38,-524.36,-0.444891,-0.457545,0.701901,92.51,1
20038,0,52206,56309,52621.55,56756.46,-415.55,-447.46,-0.444875,-0.457529,0.701942,92.51,1
20077,0,52230,56391,52620.77,56755.73,-390.77,-364.73,-0.444861,-0.457517,0.701986,92.50,1
20118,0,52260,56431,52620.05,56755.08,-360.05,-324.08,-0.444847,-0.457505,0.702032,92.50,1
20158,0,52274,56527,52619.36,56754.63,-345.36,-227.63,-0.444834,-0.457497,0.702081,92.50,1
20199,0,52314,56611,52618.75,56754.34,-304.75,-143.34,-0.444822,-0.457492,0.702132,92.50,1
20237,0,52269,56010,52618.05,56752.86,-349.05,-742.86,-0.444809,-0.457466,0.702179,92.50,1
20279,0,51933,55417,52616.68,56750.18,-683.68,-1333.18,-0.444783,-0.457419,0.702217,92.50,1
20318,0,51832,55339,52615.12,56747.36,-783.12,-1408.36,-0.444753,-0.457369,0.702248,92.49,1
20357,0,51844,55347,52613.58,56744.56,-769.58,-1397.56,-0.444724,-0.457320,0.702270,92.49,1
20399,0,51846,55322,52612.04,56741.72,-766.04,-1419.72,-0.444695,-0.457270,0.702285,92.49,1
20437,0,51826,55335,52610.47,56738.91,-784.47,-1403.91,-0.444665,-0.457220,0.702293,92.49,1
20476,0,51857,55468,52608.97,56736.37,-751.97,-1268.37,-0.444636,-0.457175,0.702298,92.49,1
20520,0,51910,55553,52607.57,56734.00,-697.57,-1181.00,-0.444610,-0.457134,0.702299,92.49,1
20559,0,51925,55537,52606.21,56731.61,-681.21,-1194.61,-0.444584,-0.457091,0.702297,92.49,1
20596,0,51922,55563,52604.84,56729.27,-682.84,-1166.27,-0.444558,-0.457050,0.702291,92.48,1
20636,0,51947,55682,52603.53,56727.18,-656.53,-1045.18,-0.444533,-0.457013,0.702285,92.48,1
20679,0,51996,55781,52602.31,56725.29,-606.31,-944.29,-0.444510,-0.456980,0.702279,92.48,1
20716,0,52036,55874,52601.18,56723.59,-565.18,-849.59,-0.444488,-0.456950,0.702273,92.48,1
20755,0,52071,55955,52600.12,56722.05,-529.12,-767.05,-0.444468,-0.456923,0.702268,92.48,1
20796,0,52099,55992,52599.12,56720.60,-500.12,-728.60,-0.444449,-0.456897,0.702263,92.48,1
20839,0,52111,56046,52598.14,56719.25,-487.14,-673.25,-0.444431,-0.456874,0.702260,92.48,1
20876,0,52135,56109,52597.22,56718.03,-462.22,-609.03,-0.444413,-0.456852,0.702259,92.48,1
20920,0,52156,56201,52596.34,56717.00,-440.34,-516.00,-0.444396,-0.456834,0.702259,92.48,1
20960,0,52200,56341,52595.54,56716.25,-395.54,-375.25,-0.444381,-0.456821,0.702263,92.47,1
21000,0,52234,56189,52594.82,56715.20,-360.82,-526.20,-0.444367,-0.456802,0.702267,92.47,1
21040,0,52018,55501,52593.67,56712.77,-575.67,-1211.77,-0.444345,-0.456759,0.702262,92.47,1
21077,0,51837,55292,52592.16,56709.93,-755.16,-1417.93,-0.444317,-0.456709,0.702250,92.47,1
21120,0,51809,55313,52590.59,56707.14,-781.59,-1394.14,-0.444287,-0.456660,0.702231,92.47,1
21161,0,51825,55345,52589.06,56704.41,-764.06,-1359.41,-0.444258,-0.456612,0.702208,92.47,1
21200,0,51820,55353,52587.52,56701.71,-767.52,-1348.71,-0.444229,-0.456564,0.702180,92.47,1
21238,0,51836,55468,52586.02,56699.25,-750.02,-1231.25,-0.444200,-0.456521,0.702151,92.47,1
21280,0,51899,55609,52584.65,56697.07,-685.65,-1088.07,-0.444174,-0.456482,0.702121,92.47,1
21320,0,51933,55635,52583.35,56694.95,-650.35,-1059.95,-0.444149,-0.456445,0.702090,92.47,1
21359,0,51925,55659,52582.04,56692.87,-657.04,-1033.88,-0.444124,-0.456408,0.702059,92.47,1
21400,0,51941,55765,52580.75,56691.02,-639.75,-926.02,-0.444100,-0.456376,0.702030,92.47,1
21436,0,51993,55917,52579.58,56689.47,-586.58,-772.47,-0.444077,-0.456348,0.702003,92.47,1
21478,0,52055,56069,52578.53,56688.23,-523.53,-619.23,-0.444058,-0.456327,0.701980,92.47,1
21517,0,52100,56176,52577.57,56687.21,-477.57,-511.21,-0.444039,-0.456309,0.701960,92.46,1
21561,0,52133,56299,52576.69,56686.44,-443.69,-387.44,-0.444023,-0.456295,0.701943,92.46,1
21601,0,52176,56397,52575.89,56685.86,-399.89,-288.86,-0.444007,-0.456285,0.701930,92.46,1
21637,0,52205,56496,52575.14,56685.48,-370.14,-189.48,-0.443993,-0.456278,0.701921,92.46,1
21677,0,52249,56622,52574.49,56685.36,-325.49,-63.36,-0.443981,-0.456276,0.701915,92.46,1
21717,0,52298,56772,52573.94,56685.53,-275.94,86.47,-0.443970,-0.456279,0.701911,92.46,1
21756,0,52348,56801,52573.49,56685.76,-225.49,115.24,-0.443962,-0.456283,0.701908,92.46,1
21797,0,52229,55991,52572.80,56684.37,-343.80,-693.37,-0.443949,-0.456259,0.701903,92.46,1
21841,0,51892,55526,52571.45,56682.06,-679.45,-1156.06,-0.443923,-0.456218,0.701894,92.46,1
21880,0,51867,55584,52570.04,56679.86,-703.04,-1095.86,-0.443896,-0.456179,0.701886,92.46,1
21920,0,51912,55632,52568.72,56677.77,-656.72,-1045.77,-0.443871,-0.456142,0.701877,92.46,1
21961,0,51922,55658,52567.43,56675.73,-645.43,-1017.73,-0.443846,-0.456106,0.701867,92.46,1
22001,0,51952,55799,52566.20,56673.98,-614.20,-874.98,-0.443823,-0.456075,0.701858,92.46,1
22040,0,52013,55912,52565.09,56672.45,-552.09,-760.45,-0.443802,-0.456048,0.701852,92.46,1
22081,0,52028,55882,52564.02,56670.87,-536.02,-788.87,-0.443782,-0.456020,0.701846,92.46,1
22120,0,52007,55880,52562.91,56669.29,-555.91,-789.29,-0.443760,-0.455992,0.701842,92.46,1
22159,0,52033,55983,52561.85,56667.92,-528.85,-684.92,-0.443740,-0.455968,0.701840,92.46,1
22201,0,52085,56123,52560.89,56666.83,-475.89,-543.83,-0.443722,-0.455949,0.701841,92.46,1
22242,0,52128,56219,52560.03,56665.94,-432.03,-446.94,-0.443706,-0.455933,0.701844,92.46,1
22282,0,52163,56309,52559.24,56665.23,-396.24,-356.23,-0.443691,-0.455921,0.701851,92.46,1
22322,0,52186,56379,52558.49,56664.66,-372.49,-285.66,-0.443676,-0.455911,0.701861,92.46,1
22362,0,52208,56438,52557.79,56664.20,-349.79,-226.20,-0.443663,-0.455903,0.701874,92.46,1
22402,0,52233,56513,52557.14,56663.90,-324.14,-150.90,-0.443651,-0.455897,0.701890,92.46,1
22442,0,52263,56649,52556.56,56663.87,-293.56,-14.88,-0.443640,-0.455897,0.701909,92.46,1
22478,0,52318,56658,52556.08,56663.86,-238.08,-5.86,-0.443631,-0.455897,0.701929,92.46,1
22522,0,52203,55912,52555.38,56662.36,-352.38,-750.36,-0.443617,-0.455870,0.701945,92.46,1
22562,0,51906,55471,52554.08,56659.98,-648.08,-1188.98,-0.443592,-0.455828,0.701956,92.46,1
22602,0,51855,55449,52552.68,56657.55,-697.68,-1208.55,-0.443566,-0.455785,0.701962,92.46,1
22642,0,51880,55478,52551.34,56655.20,-671.34,-1177.20,-0.443540,-0.455744,0.701964,92.46,1
22682,0,51878,55461,52550.00,56652.81,-672.00,-1191.81,-0.443515,-0.455702,0.701961,92.46,1
22722,0,51883,55546,52548.66,56650.60,-665.66,-1104.60,-0.443489,-0.455662,0.701956,92.46,1
22762,0,51931,55665,52547.43,56648.63,-616.43,-983.63,-0.443466,-0.455628,0.701950,92.46,1
22802,0,51952,55664,52546.24,56646.66,-594.24,-982.66,-0.443443,-0.455593,0.701943,92.46,1
22838,0,51938,55641,52545.02,56644.65,-607.02,-1003.65,-0.443420,-0.455557,0.701934,92.46,1
22882,0,51946,55697,52543.83,56642.75,-597.83,-945.75,-0.443397,-0.455524,0.701924,92.46,1
22922,0,51984,55823,52542.71,56641.12,-558.71,-818.12,-0.443376,-0.455495,0.701916,92.46,1
22963,0,52033,55925,52541.69,56639.69,-508.69,-714.69,-0.443357,-0.455470,0.701908,92.46,1
23001,0,52067,56029,52540.74,56638.47,-473.74,-609.47,-0.443339,-0.455448,0.701903,92.46,1
23043,0,52104,56106,52539.87,56637.41,-435.87,-531.41,-0.443322,-0.455430,0.701900,92.46,1
23083,0,52127,56149,52539.05,56636.43,-412.05,-487.43,-0.443306,-0.455412,0.701899,92.46,1
23123,0,52155,56286,52538.28,56635.73,-383.28,-349.73,-0.443292,-0.455400,0.701901,92.46,1
23159,0,52221,56489,52537.65,56635.44,-316.65,-146.44,-0.443280,-0.455395,0.701906,92.46,1
23199,0,52314,56724,52537.20,56635.62,-223.20,88.38,-0.443271,-0.455398,0.701912,92.46,1
23240,0,52390,56716,52536.91,56635.78,-146.91,80.22,-0.443266,-0.455401,0.701919,92.46,1
23283,0,52230,55811,52536.30,56634.13,-306.30,-823.13,-0.443254,-0.455372,0.701919,92.46,1
23322,0,51941,55500,52535.11,56631.87,-594.11,-1131.87,-0.443231,-0.455332,0.701914,92.46,1
23363,0,51921,55516,52533.88,56629.64,-612.88,-1113.64,-0.443208,-0.455292,0.701904,92.46,1
23399,0,51944,55518,52532.70,56627.41,-588.70,-1109.41,-0.443186,-0.455253,0.701888,92.46,1
23440,0,51928,55506,52531.50,56625.17,-603.50,-1119.17,-0.443163,-0.455214,0.701868,92.46,1
23479,0,51937,55601,52530.31,56623.12,-593.31,-1022.12,-0.443140,-0.455177,0.701845,92.46,1
23523,0,51989,55736,52529.23,56621.35,-540.23,-885.35,-0.443119,-0.455146,0.701821,92.46,1
23559,0,52024,55707,52528.22,56619.52,-504.22,-912.52,-0.443100,-0.455114,0.701794,92.46,1
23598,0,52004,55681,52527.17,56617.65,-523.17,-936.65,-0.443080,-0.455081,0.701764,92.46,1
23639,0,52022,55767,52526.16,56615.95,-504.16,-848.95,-0.443061,-0.455051,0.701733,92.46,1
23680,0,52059,55919,52525.23,56614.56,-466.23,-695.56,-0.443043,-0.455026,0.701703,92.46,1
23724,0,52111,56063,52524.40,56613.46,-413.40,-550.46,-0.443028,-0.455007,0.701675,92.46,1
23760,0,52156,56162,52523.67,56612.55,-367.67,-450.55,-0.443014,-0.454991,0.701648,92.46,1
23800,0,52192,56280,52523.01,56611.89,-331.01,-331.89,-0.443001,-0.454979,0.701623,92.46,1
23842,0,52228,56351,52522.42,56611.37,-294.42,-260.37,-0.442990,-0.454970,0.701600,92.46,1
23880,0,52257,56393,52521.89,56610.94,-264.89,-217.94,-0.442980,-0.454962,0.701579,92.46,1
23920,0,52278,56495,52521.40,56610.71,-243.40,-115.71,-0.442970,-0.454958,0.701560,92.46,1
23959,0,52324,56628,52521.00,56610.74,-197.00,17.26,-0.442963,-0.454959,0.701542,92.46,1
24000,0,52387,56720,52520.74,56610.96,-133.74,109.04,-0.442958,-0.454962,0.701524,92.46,1
24040,0,52338,56114,52520.37,56609.97,-182.37,-495.97,-0.442951,-0.454945,0.701505,92.46,1
24085,0,52008,55531,52519.35,56607.81,-511.35,-1076.81,-0.442931,-0.454907,0.701478,92.46,1
24123,0,51915,55485,52518.14,56605.57,-603.14,-1120.57,-0.442908,-0.454867,0.701445,92.46,1
24164,0,51930,55512,52516.97,56603.38,-586.97,-1091.38,-0.442886,-0.454829,0.701408,92.46,1
24203,0,51926,55462,52515.79,56601.10,-589.79,-1139.10,-0.442864,-0.454788,0.701365,92.46,1
24242,0,51899,55494,52514.56,56598.89,-615.56,-1104.89,-0.442840,-0.454749,0.701318,92.46,1
24283,0,51934,55651,52513.40,56596.99,-579.40,-945.99,-0.442818,-0.454716,0.701271,92.46,1
24322,0,51982,55751,52512.34,56595.30,-530.34,-844.30,-0.442798,-0.454686,0.701223,92.46,1
24365,0,51998,55771,52511.31,56593.65,-513.31,-822.65,-0.442778,-0.454657,0.701175,92.46,1
24404,0,52010,55847,52510.31,56592.16,-500.31,-745.16,-0.442759,-0.454630,0.701128,92.46,1
24445,0,52061,56000,52509.41,56590.98,-448.41,-590.98,-0.442742,-0.454609,0.701083,92.46,1
24485,0,52120,56143,52508.63,56590.08,-388.63,-447.08,-0.442727,-0.454594,0.701041,92.46,1
24524,0,52174,56282,52507.96,56589.47,-333.96,-307.47,-0.442715,-0.454583,0.701001,92.46,1
24565,0,52223,56381,52507.39,56589.05,-284.39,-208.05,-0.442704,-0.454575,0.700963,92.46,1
24605,0,52273,56510,52506.93,56588.90,-233.93,-78.90,-0.442695,-0.454573,0.700928,92.46,1
24645,0,52313,56637,52506.54,56589.00,-193.54,48.00,-0.442687,-0.454574,0.700894,92.46,1
24684,0,52370,56768,52506.27,56589.36,-136.27,178.64,-0.442682,-0.454581,0.700860,92.46,1
24724,0,52416,56900,52506.09,56589.98,-90.09,310.02,-0.442679,-0.454592,0.700825,92.46,1
24765,0,52480,57111,52506.04,56591.02,-26.04,519.98,-0.442678,-0.454610,0.700787,92.46,1
24804,0,52556,57132,52506.14,56592.10,49.86,539.90,-0.442680,-0.454629,0.700744,92.46,1
24844,0,52437,56305,52506.00,56591.53,-69.00,-286.53,-0.442677,-0.454619,0.700700,92.46,1
24882,0,52029,55651,52505.05,56589.65,-476.05,-938.65,-0.442659,-0.454586,0.700652,92.47,1
24924,0,51964,55680,52503.96,56587.83,-539.96,-907.83,-0.442638,-0.454554,0.700603,92.47,1
24965,0,52007,55711,52502.97,56586.08,-495.97,-875.08,-0.442620,-0.454523,0.700551,92.47,1
25005,0,52005,55709,52501.98,56584.32,-496.98,-875.32,-0.442601,-0.454492,0.700497,92.47,1
25044,0,52007,55836,52500.99,56582.83,-493.99,-746.83,-0.442582,-0.454465,0.700444,92.47,1
25083,0,52092,56063,52500.17,56581.79,-408.17,-518.79,-0.442566,-0.454447,0.700393,92.47,1
25122,0,52147,56100,52499.47,56580.83,-352.47,-480.83,-0.442553,-0.454430,0.700344,92.47,1
25161,0,52146,56083,52498.76,56579.83,-352.76,-496.83,-0.442539,-0.454412,0.700296,92.47,1
25201,0,52155,56199,52498.07,56579.07,-343.07,-380.07,-0.442526,-0.454399,0.700250,92.47,1
25246,0,52223,56424,52497.53,56578.76,-274.53,-154.76,-0.442516,-0.454394,0.700206,92.47,1
25285,0,52318,56688,52497.17,56578.98,-179.17,109.02,-0.442509,-0.454397,0.700164,92.47,1
25325,0,52412,56909,52497.00,56579.64,-85.00,329.36,-0.442506,-0.454409,0.700121,92.47,1
25365,0,52485,57052,52496.98,56580.59,-11.98,471.41,-0.442505,-0.454426,0.700074,92.47,1
25405,0,52538,57178,52497.06,56581.78,40.94,596.22,-0.442507,-0.454447,0.700022,92.47,1
25445,0,52588,57301,52497.24,56583.22,90.76,717.78,-0.442510,-0.454472,0.699963,92.48,1
25485,0,52644,57413,52497.54,56584.88,146.46,828.12,-0.442516,-0.454502,0.699893,92.48,1
25525,0,52678,57511,52497.90,56586.74,180.10,924.26,-0.442523,-0.454535,0.699812,92.48,1
25566,0,52713,57623,52498.33,56588.81,214.67,1034.19,-0.442531,-0.454571,0.699717,92.48,1
25605,0,52756,57682,52498.84,56591.00,257.16,1091.00,-0.442541,-0.454610,0.699606,92.48,1
25646,0,52724,57226,52499.30,56592.27,224.70,633.73,-0.442549,-0.454632,0.699492,92.48,1
25685,0,52376,56363,52499.05,56591.81,-123.05,-228.81,-0.442545,-0.454624,0.699378,92.48,1
25726,0,52179,56287,52498.41,56591.20,-319.41,-304.20,-0.442533,-0.454613,0.699267,92.48,1
25766,0,52243,56506,52497.90,56591.04,-254.90,-85.04,-0.442523,-0.454611,0.699159,92.48,1
25807,0,52303,56592,52497.52,56591.04,-194.52,0.96,-0.442516,-0.454611,0.699053,92.48,1
25847,0,52335,56756,52497.19,56591.37,-162.19,164.63,-0.442509,-0.454616,0.698947,92.49,1
25887,0,52424,56978,52497.05,56592.14,-73.05,385.86,-0.442507,-0.454630,0.698840,92.49,1
25927,0,52479,57089,52497.01,56593.14,-18.01,495.86,-0.442506,-0.454648,0.698730,92.49,1
25967,0,52502,57145,52497.02,56594.25,4.98,550.75,-0.442506,-0.454667,0.698615,92.49,1
26006,0,52530,57268,52497.09,56595.59,32.91,672.41,-0.442507,-0.454691,0.698493,92.49,1
26047,0,52601,57413,52497.30,56597.23,103.70,815.77,-0.442511,-0.454720,0.698361,92.49,1
26086,0,52652,57553,52497.61,56599.14,154.39,953.86,-0.442517,-0.454754,0.698216,92.49,1
26125,0,52706,57661,52498.03,56601.27,207.97,1059.73,-0.442525,-0.454791,0.698056,92.50,1
26162,0,52743,57755,52498.52,56603.58,244.48,1151.42,-0.442535,-0.454832,0.697879,92.50,1
26202,0,52781,57815,52499.09,56606.00,281.91,1209.00,-0.442546,-0.454875,0.697684,92.50,1
26242,0,52807,57864,52499.71,56608.52,307.29,1255.48,-0.442557,-0.454919,0.697470,92.50,1
26282,0,52825,57911,52500.36,56611.12,324.64,1299.88,-0.442570,-0.454965,0.697237,92.50,1
26327,0,52845,57968,52501.05,56613.84,343.95,1354.16,-0.442583,-0.455013,0.696985,92.51,1
26365,0,52868,58003,52501.79,56616.62,366.21,1386.38,-0.442597,-0.455063,0.696713,92.51,1
26407,0,52841,57704,52502.46,56618.80,338.54,1085.20,-0.442610,-0.455101,0.696431,92.51,1
26447,0,52593,56912,52502.65,56619.38,90.35,292.62,-0.442613,-0.455111,0.696149,92.51,1
26485,0,52379,56741,52502.40,56619.63,-123.40,121.37,-0.442609,-0.455116,0.695868,92.52,1
26525,0,52417,56920,52502.23,56620.23,-85.23,299.77,-0.442605,-0.455126,0.695587,92.52,1
26562,0,52485,57058,52502.20,56621.11,-17.20,436.89,-0.442605,-0.455142,0.695305,92.52,1
26608,0,52537,57204,52502.27,56622.28,34.73,581.72,-0.442606,-0.455162,0.695019,92.52,1
26648,0,52600,57330,52502.47,56623.70,97.53,706.30,-0.442610,-0.455187,0.694727,92.53,1
26687,0,52621,57344,52502.71,56625.14,118.29,718.86,-0.442614,-0.455213,0.694430,92.53,1
26728,0,52612,57338,52502.93,56626.56,109.07,711.44,-0.442619,-0.455238,0.694128,92.53,1
26768,0,52627,57425,52503.18,56628.16,123.82,796.84,-0.442623,-0.455266,0.693818,92.54,1
26808,0,52671,57533,52503.51,56629.97,167.49,903.03,-0.442630,-0.455298,0.693500,92.54,1
26848,0,52723,57649,52503.95,56632.01,219.05,1016.99,-0.442638,-0.455334,0.693171,92.55,1
26888,0,52767,57746,52504.48,56634.24,262.52,1111.76,-0.442648,-0.455374,0.692830,92.55,1
26928,0,52801,57827,52505.07,56636.63,295.93,1190.37,-0.442660,-0.455416,0.692476,92.55,1
26968,0,52837,57880,52505.74,56639.12,331.26,1240.88,-0.442672,-0.455460,0.692108,92.56,1
27008,0,52855,57924,52506.44,56641.69,348.56,1282.31,-0.442686,-0.455505,0.691726,92.56,1
27049,0,52881,57979,52507.19,56644.36,373.81,1334.64,-0.442700,-0.455552,0.691330,92.57,1
27084,0,52904,58010,52507.98,56647.10,396.02,1362.90,-0.442715,-0.455601,0.690921,92.57,1
27125,0,52893,57707,52508.75,56649.22,384.25,1057.78,-0.442730,-0.455638,0.690506,92.58,1
27163,0,52608,56768,52508.95,56649.46,99.05,118.54,-0.442733,-0.455642,0.690093,92.58,1
27204,0,52326,56444,52508.59,56649.05,-182.59,-205.05,-0.442726,-0.455635,0.689682,92.59,1
27247,0,52326,56524,52508.23,56648.80,-182.23,-124.80,-0.442720,-0.455631,0.689273,92.59,1
27288,0,52358,56566,52507.93,56648.63,-149.93,-82.63,-0.442714,-0.455628,0.688867,92.60,1
27328,0,52363,56643,52507.64,56648.62,-144.64,-5.62,-0.442708,-0.455628,0.688463,92.60,1
27366,0,52425,56828,52507.47,56648.98,-82.47,179.02,-0.442705,-0.455634,0.688060,92.61,1
27405,0,52482,56863,52507.42,56649.41,-25.42,213.59,-0.442704,-0.455641,0.687658,92.62,1
27449,0,52468,56807,52507.34,56649.73,-39.34,157.27,-0.442703,-0.455647,0.687257,92.62,1
27484,0,52457,56851,52507.25,56650.13,-50.25,200.87,-0.442701,-0.455654,0.686856,92.63,1
27524,0,52497,57012,52507.23,56650.86,-10.23,361.14,-0.442701,-0.455667,0.686455,92.63,1
27564,0,52564,57175,52507.34,56651.91,56.66,523.09,-0.442703,-0.455686,0.686053,92.64,1
27606,0,52614,57303,52507.55,56653.21,106.45,649.79,-0.442707,-0.455709,0.685646,92.65,1
27644,0,52662,57405,52507.86,56654.71,154.14,750.29,-0.442713,-0.455735,0.685235,92.65,1
27686,0,52699,57504,52508.25,56656.41,190.75,847.59,-0.442720,-0.455765,0.684817,92.66,1
27725,0,52727,57559,52508.68,56658.22,218.32,900.78,-0.442728,-0.455797,0.684393,92.67,1
27764,0,52744,57624,52509.16,56660.15,234.84,963.85,-0.442737,-0.455831,0.683962,92.67,1
27807,0,52778,57694,52509.70,56662.22,268.30,1031.78,-0.442748,-0.455868,0.683522,92.68,1
27849,0,52806,57739,52510.29,56664.38,295.71,1074.62,-0.442759,-0.455906,0.683074,92.69,1
27889,0,52776,57252,52510.82,56665.55,265.18,586.45,-0.442769,-0.455926,0.682626,92.70,1
27924,0,52400,56249,52510.60,56664.72,-110.60,-415.72,-0.442765,-0.455912,0.682178,92.70,1
27966,0,52188,56127,52509.96,56663.65,-321.96,-536.65,-0.442753,-0.455893,0.681733,92.71,1
28008,0,52212,56179,52509.36,56662.68,-297.36,-483.68,-0.442741,-0.455876,0.681291,92.72,1
28044,0,52228,56156,52508.80,56661.67,-280.80,-505.67,-0.442731,-0.455858,0.680852,92.73,1
28084,0,52212,56167,52508.21,56660.68,-296.21,-493.68,-0.442719,-0.455840,0.680415,92.73,1
28126,0,52244,56346,52507.68,56660.05,-263.68,-314.05,-0.442709,-0.455829,0.679981,92.74,1
28165,0,52307,56449,52507.28,56659.63,-200.28,-210.63,-0.442702,-0.455822,0.679551,92.75,1
28205,0,52314,56416,52506.89,56659.14,-192.89,-243.14,-0.442694,-0.455813,0.679123,92.76,1
28250,0,52310,56472,52506.50,56658.77,-196.50,-186.77,-0.442687,-0.455807,0.678697,92.77,1
28286,0,52352,56649,52506.20,56658.75,-154.20,-9.75,-0.442681,-0.455806,0.678275,92.78,1
28325,0,52423,56836,52506.03,56659.11,-83.03,176.89,-0.442678,-0.455813,0.677853,92.78,1
28365,0,52487,56988,52506.00,56659.77,-19.00,328.23,-0.442677,-0.455824,0.677432,92.79,1
28405,0,52536,57097,52506.06,56660.64,29.94,436.36,-0.442678,-0.455840,0.677009,92.80,1
28448,0,52581,57206,52506.21,56661.74,74.79,544.26,-0.442681,-0.455859,0.676583,92.81,1
28485,0,52617,57307,52506.43,56663.03,110.57,643.97,-0.442685,-0.455882,0.676155,92.82,1
28526,0,52649,57398,52506.72,56664.50,142.28,733.50,-0.442691,-0.455908,0.675721,92.83,1
28565,0,52687,57488,52507.08,56666.15,179.92,821.85,-0.442698,-0.455937,0.675281,92.84,1
28605,0,52725,57596,52507.52,56668.01,217.48,927.99,-0.442706,-0.455970,0.674834,92.84,1
28647,0,52764,57565,52508.04,56669.81,255.96,895.19,-0.442716,-0.456002,0.674381,92.85,1
28689,0,52620,56691,52508.26,56669.85,111.74,21.15,-0.442720,-0.456002,0.673930,92.86,1
28726,0,52234,56117,52507.71,56668.75,-273.71,-551.75,-0.442710,-0.455983,0.673480,92.87,1
28769,0,52181,56179,52507.06,56667.77,-326.06,-488.77,-0.442697,-0.455966,0.673035,92.88,1
28806,0,52224,56252,52506.50,56666.94,-282.50,-414.94,-0.442687,-0.455951,0.672593,92.89,1
28845,0,52238,56282,52505.96,56666.17,-267.96,-384.17,-0.442676,-0.455937,0.672155,92.90,1
28886,0,52255,56457,52505.46,56665.75,-250.46,-208.75,-0.442667,-0.455930,0.671721,92.91,1
28925,0,52346,56686,52505.14,56665.80,-159.14,20.20,-0.442661,-0.455931,0.671290,92.92,1
28971,0,52402,56763,52504.94,56665.99,-102.94,97.01,-0.442657,-0.455934,0.670861,92.93,1
29011,0,52406,56803,52504.75,56666.27,-98.75,136.73,-0.442653,-0.455939,0.670433,92.94,1
29051,0,52434,56966,52504.61,56666.87,-70.61,299.13,-0.442651,-0.455950,0.670006,92.95,1
29091,0,52504,57189,52504.61,56667.92,-0.61,521.08,-0.442651,-0.455968,0.669576,92.95,1
29130,0,52581,57354,52504.76,56669.29,76.24,684.71,-0.442654,-0.455992,0.669141,92.96,1
29166,0,52631,57472,52505.01,56670.90,125.99,801.10,-0.442658,-0.456021,0.668699,92.97,1
29207,0,52670,57580,52505.34,56672.72,164.66,907.28,-0.442665,-0.456053,0.668248,92.98,1
29247,0,52711,57675,52505.76,56674.73,205.24,1000.27,-0.442673,-0.456088,0.667787,92.99,1
29289,0,52742,57758,52506.23,56676.89,235.77,1081.11,-0.442682,-0.456127,0.667315,93.00,1
29329,0,52772,57830,52506.76,56679.20,265.24,1150.80,-0.442692,-0.456167,0.666830,93.01,1
29369,0,52803,57916,52507.36,56681.68,295.64,1234.32,-0.442703,-0.456211,0.666332,93.02,1
29409,0,52840,57961,52508.02,56684.24,331.98,1276.76,-0.442716,-0.456256,0.665821,93.03,1
29449,0,52844,57765,52508.70,56686.40,335.30,1078.60,-0.442728,-0.456294,0.665304,93.04,1
29489,0,52613,56923,52508.91,56686.88,104.09,236.12,-0.442733,-0.456303,0.664788,93.05,1
29529,0,52334,56594,52508.56,56686.70,-174.56,-92.70,-0.442726,-0.456299,0.664276,93.06,1
29569,0,52337,56660,52508.22,56686.64,-171.22,-26.64,-0.442719,-0.456299,0.663767,93.07,1
29611,0,52373,56692,52507.95,56686.66,-134.95,5.34,-0.442714,-0.456299,0.663261,93.08,1
29650,0,52379,56753,52507.69,56686.79,-128.69,66.21,-0.442709,-0.456301,0.662757,93.09,1
29688,0,52437,56930,52507.55,56687.28,-70.55,242.72,-0.442707,-0.456310,0.662254,93.10,1
29730,0,52488,56992,52507.51,56687.89,-19.51,304.11,-0.442706,-0.456320,0.661751,93.11,1
29772,0,52484,56974,52507.46,56688.46,-23.46,285.54,-0.442705,-0.456331,0.661249,93.13,1
29810,0,52478,57022,52507.41,56689.13,-29.41,332.87,-0.442704,-0.456342,0.660747,93.14,1
29852,0,52526,57188,52507.45,56690.13,18.55,497.87,-0.442705,-0.456360,0.660243,93.15,1
29891,0,52592,57334,52507.62,56691.42,84.38,642.58,-0.442708,-0.456383,0.659736,93.16,1
29931,0,52636,57415,52507.87,56692.87,128.12,722.13,-0.442713,-0.456408,0.659224,93.17,1
29972,0,52663,57475,52508.19,56694.43,154.81,780.57,-0.442719,-0.456436,0.658707,93.18,1
30012,0,52687,57531,52508.55,56696.11,178.45,834.89,-0.442726,-0.456466,0.658184,93.19,1
30052,0,52708,57596,52508.95,56697.91,199.05,898.09,-0.442733,-0.456497,0.657655,93.20,1
30092,0,52732,57657,52509.39,56699.83,222.61,957.17,-0.442742,-0.456531,0.657118,93.21,1
30129,0,52758,57724,52509.89,56701.88,248.11,1022.12,-0.442751,-0.456567,0.656574,93.22,1
30168,0,52789,57677,52510.45,56703.83,278.55,973.17,-0.442762,-0.456602,0.656024,93.24,1
30212,0,52656,56849,52510.75,56704.12,145.25,144.87,-0.442768,-0.456607,0.655477,93.25,1
30249,0,52263,56173,52510.25,56703.06,-247.25,-530.06,-0.442758,-0.456588,0.654932,93.26,1
30288,0,52183,56202,52509.60,56702.06,-326.60,-500.06,-0.442746,-0.456571,0.654393,93.27,1
30329,0,52217,56260,52509.02,56701.18,-292.02,-441.18,-0.442735,-0.456555,0.653859,93.28,1
30372,0,52223,56227,52508.45,56700.23,-285.45,-473.23,-0.442724,-0.456538,0.653328,93.29,1
30412,0,52234,56340,52507.90,56699.52,-273.90,-359.52,-0.442713,-0.456526,0.652803,93.30,1
30452,0,52302,56520,52507.49,56699.16,-205.49,-179.16,-0.442706,-0.456519,0.652282,93.32,1
30491,0,52343,56542,52507.16,56698.84,-164.16,-156.84,-0.442699,-0.456514,0.651764,93.33,1
30533,0,52333,56508,52506.82,56698.46,-173.82,-190.46,-0.442693,-0.456507,0.651249,93.34,1
30573,0,52352,56642,52506.51,56698.35,-154.51,-56.35,-0.442687,-0.456505,0.650737,93.35,1
30613,0,52418,56798,52506.33,56698.55,-88.33,99.45,-0.442684,-0.456509,0.650227,93.36,1
30649,0,52458,56957,52506.24,56699.07,-48.24,257.93,-0.442682,-0.456518,0.649718,93.37,1
30692,0,52498,57124,52506.22,56699.92,-8.22,424.08,-0.442681,-0.456533,0.649208,93.39,1
30733,0,52556,57308,52506.32,56701.14,49.68,606.86,-0.442683,-0.456554,0.648695,93.40,1
30773,0,52616,57445,52506.55,56702.63,109.45,742.37,-0.442688,-0.456580,0.648175,93.41,1
30813,0,52656,57562,52506.85,56704.35,149.15,857.65,-0.442693,-0.456611,0.647649,93.42,1
30853,0,52696,57663,52507.23,56706.27,188.77,956.73,-0.442701,-0.456645,0.647114,93.43,1
30889,0,52732,57764,52507.68,56708.38,224.32,1055.62,-0.442709,-0.456682,0.646570,93.45,1
30933,0,52775,57827,52508.21,56710.62,266.79,1116.38,-0.442719,-0.456721,0.646015,93.46,1
30972,0,52744,57425,52508.68,56712.05,235.32,712.95,-0.442728,-0.456747,0.645459,93.47,1
31012,0,52434,56546,52508.54,56711.72,-74.54,-165.72,-0.442725,-0.456741,0.644905,93.48,1
31053,0,52249,56450,52508.02,56711.20,-259.02,-261.20,-0.442716,-0.456732,0.644356,93.49,1
31093,0,52300,56586,52507.60,56710.95,-207.60,-124.95,-0.442708,-0.456727,0.643813,93.51,1
31133,0,52330,56602,52507.25,56710.73,-177.25,-108.73,-0.442701,-0.456723,0.643273,93.52,1
31172,0,52348,56770,52506.93,56710.85,-158.93,59.15,-0.442695,-0.456726,0.642736,93.53,1
31208,0,52458,57038,52506.83,56711.51,-48.83,326.49,-0.442693,-0.456737,0.642200,93.54,1
31248,0,52536,57184,52506.89,56712.45,29.11,471.55,-0.442694,-0.456754,0.641663,93.56,1
31290,0,52558,57205,52507.00,56713.44,51.00,491.56,-0.442696,-0.456771,0.641123,93.57,1
31334,0,52581,57334,52507.14,56714.68,73.86,619.32,-0.442699,-0.456793,0.640581,93.58,1
31370,0,52646,57484,52507.42,56716.22,138.58,767.78,-0.442704,-0.456820,0.640033,93.59,1
31409,0,52698,57594,52507.80,56717.98,190.20,876.02,-0.442712,-0.456851,0.639479,93.61,1
31449,0,52735,57702,52508.26,56719.95,226.74,982.05,-0.442720,-0.456886,0.638917,93.62,1
31494,0,52765,57801,52508.78,56722.11,256.22,1078.89,-0.442730,-0.456924,0.638347,93.63,1
31534,0,52797,57874,52509.36,56724.42,287.64,1149.58,-0.442741,-0.456965,0.637767,93.64,1
31573,0,52822,57948,52509.98,56726.87,312.02,1221.13,-0.442753,-0.457008,0.637177,93.66,1
31614,0,52847,58027,52510.66,56729.47,336.34,1297.53,-0.442766,-0.457054,0.636576,93.67,1
31654,0,52882,58098,52511.40,56732.21,370.60,1365.79,-0.442780,-0.457102,0.635965,93.68,1
31694,0,52911,58043,52512.20,56734.83,398.80,1308.17,-0.442795,-0.457148,0.635347,93.70,1
31733,0,52783,57354,52512.74,56736.07,270.26,617.93,-0.442806,-0.457170,0.634732,93.71,1
31771,0,52464,56760,52512.64,56736.12,-48.64,23.88,-0.442804,-0.457171,0.634119,93.72,1
31814,0,52412,56786,52512.45,56736.22,-100.45,49.78,-0.442800,-0.457173,0.633508,93.74,1
31854,0,52443,56800,52512.31,56736.35,-69.31,63.65,-0.442797,-0.457175,0.632900,93.75,1
31894,0,52436,56857,52512.16,56736.59,-76.16,120.41,-0.442794,-0.457179,0.632294,93.76,1
31934,0,52502,57081,52512.14,56737.29,-10.14,343.71,-0.442794,-0.457191,0.631688,93.78,1
31973,0,52579,57241,52512.27,56738.29,66.73,502.71,-0.442797,-0.457209,0.631081,93.79,1
32013,0,52596,57269,52512.44,56739.36,83.56,529.64,-0.442800,-0.457228,0.630473,93.80,1
32053,0,52602,57400,52512.62,56740.68,89.38,659.32,-0.442803,-0.457251,0.629863,93.82,1
32093,0,52665,57563,52512.93,56742.32,152.07,820.68,-0.442809,-0.457280,0.629247,93.83,1
32134,0,52727,57675,52513.36,56744.19,213.64,930.81,-0.442817,-0.457313,0.628627,93.84,1
32171,0,52769,57742,52513.87,56746.19,255.13,995.81,-0.442827,-0.457348,0.628002,93.86,1
32214,0,52797,57825,52514.43,56748.35,282.57,1076.65,-0.442838,-0.457386,0.627371,93.87,1
32250,0,52833,57883,52515.07,56750.62,317.93,1132.38,-0.442850,-0.457426,0.626736,93.88,1
32295,0,52859,57933,52515.76,56752.98,343.24,1180.02,-0.442863,-0.457468,0.626095,93.90,1
32330,0,52873,57953,52516.47,56755.39,356.53,1197.61,-0.442877,-0.457511,0.625451,93.91,1
32371,0,52883,58011,52517.21,56757.90,365.79,1253.10,-0.442891,-0.457555,0.624801,93.93,1
32410,0,52915,58076,52518.00,56760.54,397.00,1315.46,-0.442906,-0.457601,0.624147,93.94,1
32450,0,52921,57827,52518.81,56762.67,402.19,1064.33,-0.442921,-0.457639,0.623494,93.95,1
32490,0,52646,56784,52519.07,56762.71,126.93,21.29,-0.442926,-0.457640,0.622845,93.97,1
32531,0,52348,56482,52518.73,56762.15,-170.73,-280.15,-0.442920,-0.457630,0.622200,93.98,1
32575,0,52349,56542,52518.39,56761.71,-169.39,-219.71,-0.442913,-0.457622,0.621557,94.00,1
32611,0,52364,56525,52518.08,56761.24,-154.08,-236.24,-0.442907,-0.457614,0.620918,94.01,1
32654,0,52352,56509,52517.75,56760.74,-165.75,-251.74,-0.442901,-0.457605,0.620282,94.03,1
32695,0,52380,56690,52517.47,56760.60,-137.47,-70.60,-0.442896,-0.457602,0.619650,94.04,1
32735,0,52446,56785,52517.33,56760.65,-71.33,24.35,-0.442893,-0.457603,0.619020,94.06,1
32776,0,52444,56735,52517.19,56760.60,-73.19,-25.60,-0.442890,-0.457602,0.618392,94.07,1
32816,0,52432,56769,52517.02,56760.62,-85.02,8.38,-0.442887,-0.457603,0.617766,94.08,1
32857,0,52463,56877,52516.91,56760.85,-53.91,116.15,-0.442885,-0.457607,0.617143,94.10,1
32895,0,52510,57021,52516.90,56761.37,-6.90,259.62,-0.442885,-0.457616,0.616521,94.11,1
32936,0,52555,57171,52516.98,56762.20,38.02,408.80,-0.442886,-0.457630,0.615898,94.13,1
32976,0,52614,57315,52517.18,56763.30,96.82,551.70,-0.442890,-0.457650,0.615275,94.14,1
33016,0,52676,57452,52517.50,56764.68,158.50,687.32,-0.442896,-0.457674,0.614650,94.16,1
33056,0,52714,57567,52517.89,56766.29,196.11,800.71,-0.442904,-0.457702,0.614023,94.17,1
33094,0,52764,57681,52518.38,56768.12,245.62,912.88,-0.442913,-0.457735,0.613393,94.19,1
33135,0,52809,57766,52518.96,56770.11,290.04,995.89,-0.442924,-0.457770,0.612761,94.20,1
33173,0,52847,57850,52519.62,56772.27,327.38,1077.73,-0.442937,-0.457808,0.612126,94.22,1
33211,0,52877,57821,52520.34,56774.37,356.66,1046.63,-0.442950,-0.457845,0.611491,94.23,1
33253,0,52740,57025,52520.78,56774.87,219.22,250.12,-0.442959,-0.457854,0.610861,94.25,1
33295,0,52385,56445,52520.51,56774.21,-135.51,-329.21,-0.442953,-0.457842,0.610234,94.26,1
33335,0,52328,56519,52520.12,56773.71,-192.12,-254.71,-0.442946,-0.457833,0.609610,94.28,1
33375,0,52374,56615,52519.84,56773.39,-145.84,-158.39,-0.442941,-0.457828,0.608990,94.29,1
33415,0,52383,56665,52519.56,56773.18,-136.56,-108.18,-0.442935,-0.457824,0.608374,94.31,1
33454,0,52416,56892,52519.36,56773.41,-103.36,118.59,-0.442931,-0.457828,0.607759,94.32,1
33495,0,52526,57157,52519.37,56774.18,6.63,382.82,-0.442932,-0.457842,0.607145,94.34,1
33535,0,52594,57270,52519.52,56775.18,74.48,494.82,-0.442935,-0.457859,0.606531,94.35,1
33575,0,52617,57338,52519.72,56776.30,97.28,561.70,-0.442938,-0.457879,0.605915,94.37,1
33615,0,52654,57471,52519.99,56777.70,134.01,693.30,-0.442944,-0.457904,0.605297,94.38,1
33653,0,52727,57660,52520.40,56779.46,206.60,880.54,-0.442951,-0.457935,0.604676,94.40,1
33695,0,52795,57802,52520.95,56781.51,274.05,1020.49,-0.442962,-0.457971,0.604050,94.41,1
33735,0,52849,57916,52521.61,56783.78,327.39,1132.22,-0.442974,-0.458011,0.603421,94.43,1
33776,0,52894,57992,52522.36,56786.20,371.64,1205.80,-0.442989,-0.458053,0.602790,94.44,1
33816,0,52929,58065,52523.17,56788.75,405.83,1276.25,-0.443004,-0.458098,0.602156,94.46,1
33855,0,52953,58123,52524.03,56791.43,428.97,1331.57,-0.443021,-0.458145,0.601520,94.47,1
33895,0,52965,58193,52524.91,56794.23,440.09,1398.77,-0.443037,-0.458195,0.600882,94.49,1
33934,0,53002,58279,52525.87,56797.20,476.13,1481.80,-0.443056,-0.458247,0.600241,94.50,1
33977,0,53034,58294,52526.89,56800.20,507.11,1493.80,-0.443075,-0.458300,0.599599,94.52,1
34017,0,52983,57897,52527.80,56802.39,455.20,1094.61,-0.443092,-0.458338,0.598964,94.53,1
34055,0,52697,57122,52528.14,56803.04,168.86,318.96,-0.443099,-0.458350,0.598332,94.55,1
34096,0,52538,57069,52528.16,56803.57,9.84,265.43,-0.443099,-0.458359,0.597701,94.56,1
34138,0,52586,57198,52528.28,56804.36,57.72,393.64,-0.443101,-0.458373,0.597070,94.58,1
34178,0,52619,57277,52528.46,56805.30,90.54,471.70,-0.443105,-0.458390,0.596440,94.59,1
34215,0,52659,57424,52528.73,56806.54,130.27,617.46,-0.443110,-0.458411,0.595810,94.61,1
34258,0,52728,57577,52529.12,56808.09,198.87,768.91,-0.443117,-0.458439,0.595178,94.62,1
34298,0,52750,57527,52529.57,56809.52,220.43,717.48,-0.443126,-0.458464,0.594548,94.64,1
34338,0,52723,57480,52529.95,56810.87,193.05,669.13,-0.443133,-0.458488,0.593917,94.66,1
34377,0,52738,57567,52530.37,56812.38,207.63,754.62,-0.443141,-0.458514,0.593286,94.67,1
34417,0,52781,57709,52530.87,56814.18,250.12,894.82,-0.443151,-0.458546,0.592655,94.69,1
34454,0,52833,57825,52531.48,56816.20,301.52,1008.80,-0.443162,-0.458581,0.592022,94.70,1
34493,0,52871,57901,52532.16,56818.37,338.84,1082.63,-0.443175,-0.458620,0.591389,94.72,1
34533,0,52903,57958,52532.90,56820.65,370.10,1137.35,-0.443189,-0.458660,0.590756,94.73,1
34573,0,52921,57998,52533.68,56823.01,387.32,1174.99,-0.443204,-0.458701,0.590123,94.75,1
34613,0,52929,58043,52534.47,56825.45,394.53,1217.55,-0.443219,-0.458744,0.589490,94.76,1
34653,0,52955,58084,52535.32,56827.97,419.68,1256.03,-0.443235,-0.458789,0.588858,94.78,1
34694,0,52960,58050,52536.17,56830.41,423.83,1219.59,-0.443252,-0.458832,0.588228,94.79,1
34733,0,52839,57331,52536.77,56831.42,302.23,499.58,-0.443263,-0.458849,0.587604,94.81,1
34777,0,52484,56632,52536.67,56831.02,-52.67,-199.02,-0.443261,-0.458842,0.586981,94.83,1
34819,0,52382,56596,52536.36,56830.55,-154.36,-234.55,-0.443255,-0.458834,0.586362,94.84,1
34859,0,52403,56658,52536.09,56830.21,-133.09,-172.21,-0.443250,-0.458828,0.585746,94.86,1
34899,0,52415,56683,52535.85,56829.91,-120.85,-146.91,-0.443246,-0.458823,0.585132,94.87,1
34939,0,52435,56851,52535.65,56829.96,-100.65,21.04,-0.443242,-0.458824,0.584521,94.89,1
34978,0,52520,57044,52535.62,56830.39,-15.62,213.61,-0.443241,-0.458831,0.583912,94.90,1
35019,0,52557,57091,52535.66,56830.91,21.34,260.09,-0.443242,-0.458840,0.583303,94.92,1
35058,0,52562,57141,52535.72,56831.53,26.28,309.47,-0.443243,-0.458851,0.582696,94.93,1
35097,0,52594,57286,52535.84,56832.44,58.16,453.56,-0.443245,-0.458867,0.582089,94.95,1
35139,0,52664,57520,52536.09,56833.82,127.91,686.18,-0.443250,-0.458891,0.581480,94.96,1
35178,0,52749,57684,52536.52,56835.52,212.48,848.48,-0.443258,-0.458921,0.580870,94.98,1
35218,0,52803,57780,52537.05,56837.41,265.95,942.59,-0.443268,-0.458955,0.580258,95.00,1
35259,0,52841,57862,52537.66,56839.46,303.34,1022.54,-0.443280,-0.458991,0.579646,95.01,1
35299,0,52877,57940,52538.34,56841.66,338.66,1098.34,-0.443293,-0.459029,0.579033,95.03,1
35338,0,52895,57986,52539.06,56843.95,355.94,1142.05,-0.443307,-0.459070,0.578420,95.04,1
35379,0,52914,58043,52539.81,56846.35,374.19,1196.65,-0.443321,-0.459112,0.577806,95.06,1
35418,0,52937,58124,52540.61,56848.91,396.39,1275.09,-0.443336,-0.459157,0.577191,95.07,1
35459,0,52950,57943,52541.43,56851.10,408.57,1091.90,-0.443352,-0.459196,0.576580,95.09,1
35497,0,52712,56984,52541.77,56851.37,170.23,132.63,-0.443358,-0.459200,0.575973,95.10,1
35538,0,52384,56568,52541.46,56850.80,-157.46,-282.80,-0.443352,-0.459190,0.575369,95.12,1
35578,0,52364,56630,52541.10,56850.36,-177.10,-220.36,-0.443345,-0.459182,0.574768,95.13,1
35618,0,52377,56605,52540.77,56849.87,-163.77,-244.87,-0.443339,-0.459174,0.574171,95.15,1
35658,0,52359,56613,52540.41,56849.40,-181.41,-236.40,-0.443332,-0.459166,0.573578,95.16,1
35698,0,52403,56819,52540.14,56849.34,-137.14,-30.34,-0.443327,-0.459165,0.572988,95.18,1
35737,0,52488,56979,52540.04,56849.60,-52.04,129.40,-0.443325,-0.459169,0.572399,95.20,1
35778,0,52519,57004,52540.00,56849.91,-21.00,154.09,-0.443324,-0.459175,0.571813,95.21,1
35820,0,52528,57027,52539.97,56850.27,-11.97,176.73,-0.443324,-0.459181,0.571228,95.23,1
35859,0,52558,57173,52540.01,56850.91,17.99,322.09,-0.443325,-0.459192,0.570643,95.24,1
35899,0,52631,57372,52540.20,56851.96,90.80,520.04,-0.443328,-0.459211,0.570059,95.26,1
35939,0,52695,57509,52540.51,56853.27,154.49,655.73,-0.443334,-0.459234,0.569473,95.27,1
35977,0,52736,57627,52540.90,56854.82,195.10,772.18,-0.443342,-0.459261,0.568887,95.29,1
36020,0,52785,57726,52541.39,56856.57,243.61,869.43,-0.443351,-0.459292,0.568300,95.30,1
36059,0,52816,57796,52541.94,56858.45,274.06,937.55,-0.443361,-0.459325,0.567713,95.32,1
36100,0,52840,57853,52542.54,56860.44,297.46,992.56,-0.443373,-0.459360,0.567125,95.33,1
36139,0,52861,57910,52543.17,56862.54,317.83,1047.46,-0.443385,-0.459397,0.566536,95.35,1
36182,0,52878,57991,52543.84,56864.80,334.16,1126.20,-0.443398,-0.459436,0.565947,95.36,1
36221,0,52907,57931,52544.57,56866.93,362.43,1064.07,-0.443411,-0.459474,0.565359,95.38,1
36260,0,52742,57100,52544.96,56867.40,197.04,232.60,-0.443419,-0.459482,0.564775,95.39,1
36300,0,52381,56550,52544.64,56866.77,-163.64,-316.77,-0.443413,-0.459471,0.564194,95.41,1
36341,0,52329,56620,52544.21,56866.27,-215.21,-246.27,-0.443405,-0.459462,0.563619,95.42,1
36381,0,52377,56698,52543.87,56865.94,-166.87,-167.94,-0.443398,-0.459456,0.563047,95.44,1
36420,0,52372,56710,52543.53,56865.63,-171.53,-155.63,-0.443392,-0.459451,0.562478,95.45,1
36461,0,52405,56948,52543.25,56865.80,-138.25,82.20,-0.443386,-0.459454,0.561914,95.47,1
36501,0,52532,57259,52543.23,56866.59,-11.23,392.41,-0.443386,-0.459468,0.561349,95.48,1
36540,0,52620,57369,52543.39,56867.59,76.61,501.41,-0.443389,-0.459486,0.560784,95.50,1
36581,0,52642,57436,52543.59,56868.73,98.41,567.27,-0.443393,-0.459506,0.560218,95.51,1
36618,0,52680,57557,52543.86,56870.11,136.14,686.89,-0.443398,-0.459530,0.559651,95.53,1
36661,0,52732,57716,52544.24,56871.80,187.76,844.20,-0.443405,-0.459560,0.559081,95.54,1
36698,0,52793,57856,52544.74,56873.77,248.26,982.23,-0.443415,-0.459594,0.558509,95.56,1
36738,0,52845,57963,52545.34,56875.95,299.66,1087.05,-0.443426,-0.459632,0.557935,95.57,1
36779,0,52878,58044,52546.01,56878.29,331.99,1165.71,-0.443439,-0.459674,0.557358,95.59,1
36820,0,52903,58114,52546.73,56880.76,356.27,1233.24,-0.443453,-0.459717,0.556780,95.60,1
36860,0,52929,58169,52547.49,56883.34,381.51,1285.66,-0.443467,-0.459762,0.556199,95.62,1
36901,0,52947,58213,52548.29,56886.00,398.71,1327.00,-0.443482,-0.459809,0.555618,95.63,1
36941,0,52962,58273,52549.12,56888.77,412.88,1384.23,-0.443498,-0.459858,0.555034,95.65,1
36979,0,52989,58320,52550.00,56891.64,439.00,1428.36,-0.443515,-0.459908,0.554450,95.66,1
37018,0,52981,58087,52550.87,56894.03,430.13,1192.97,-0.443531,-0.459950,0.553870,95.68,1
37060,0,52748,57308,52551.26,56894.86,196.74,413.14,-0.443539,-0.459965,0.553293,95.69,1
37097,0,52507,57047,52551.18,56895.16,-44.18,151.84,-0.443537,-0.459970,0.552718,95.71,1
37140,0,52527,57195,52551.13,56895.76,-24.13,299.24,-0.443536,-0.459981,0.552143,95.72,1
37178,0,52573,57250,52551.18,56896.47,21.82,353.53,-0.443537,-0.459993,0.551570,95.73,1
37217,0,52591,57330,52551.26,56897.34,39.74,432.66,-0.443539,-0.460009,0.550996,95.75,1
37261,0,52665,57529,52551.49,56898.61,113.51,630.39,-0.443543,-0.460031,0.550422,95.76,1
37302,0,52725,57601,52551.84,56900.01,173.16,700.99,-0.443550,-0.460055,0.549848,95.78,1
37342,0,52718,57576,52552.17,56901.36,165.83,674.64,-0.443556,-0.460079,0.549273,95.79,1
37383,0,52724,57643,52552.51,56902.85,171.49,740.15,-0.443563,-0.460105,0.548698,95.81,1
37420,0,52766,57783,52552.94,56904.61,213.06,878.39,-0.443571,-0.460136,0.548122,95.82,1
37459,0,52816,57895,52553.47,56906.59,262.53,988.41,-0.443581,-0.460171,0.547544,95.84,1
37500,0,52856,57978,52554.07,56908.73,301.93,1069.27,-0.443592,-0.460209,0.546965,95.85,1
37541,0,52892,58035,52554.75,56910.99,337.25,1124.01,-0.443605,-0.460248,0.546387,95.87,1
37583,0,52912,58086,52555.46,56913.34,356.54,1172.66,-0.443619,-0.460290,0.545809,95.88,1
37621,0,52928,58146,52556.21,56915.80,371.79,1230.20,-0.443633,-0.460333,0.545230,95.90,1
37662,0,52947,58199,52556.99,56918.37,390.01,1280.63,-0.443648,-0.460378,0.544652,95.91,1
37702,0,52966,58243,52557.81,56921.02,408.19,1321.98,-0.443664,-0.460425,0.544074,95.93,1
37743,0,52987,58277,52558.67,56923.74,428.33,1353.26,-0.443680,-0.460472,0.543497,95.94,1
37782,0,52969,57936,52559.49,56925.77,409.51,1010.23,-0.443695,-0.460508,0.542927,95.95,1
37818,0,52671,57025,52559.71,56925.96,111.29,99.04,-0.443700,-0.460511,0.542359,95.97,1
37860,0,52448,56817,52559.49,56925.75,-111.49,-108.75,-0.443695,-0.460508,0.541793,95.98,1
37899,0,52469,56910,52559.31,56925.72,-90.31,-15.72,-0.443692,-0.460507,0.541230,96.00,1
37942,0,52496,56883,52559.19,56925.64,-63.19,-42.64,-0.443690,-0.460506,0.540668,96.01,1
37983,0,52493,56975,52559.05,56925.74,-66.05,49.26,-0.443687,-0.460507,0.540109,96.03,1
38020,0,52563,57216,52559.06,56926.32,3.94,289.68,-0.443687,-0.460518,0.539551,96.04,1
38060,0,52641,57327,52559.23,56927.12,81.77,399.87,-0.443690,-0.460532,0.538993,96.06,1
38098,0,52653,57320,52559.41,56927.91,93.59,392.09,-0.443694,-0.460546,0.538437,96.07,1
38141,0,52658,57400,52559.61,56928.86,98.39,471.14,-0.443698,-0.460562,0.537881,96.09,1
38182,0,52704,57555,52559.90,56930.11,144.10,624.89,-0.443703,-0.460584,0.537326,96.10,1
38224,0,52763,57697,52560.31,56931.65,202.69,765.35,-0.443711,-0.460611,0.536770,96.11,1
38262,0,52808,57812,52560.80,56933.41,247.20,878.59,-0.443720,-0.460642,0.536214,96.13,1
38304,0,52850,57898,52561.38,56935.34,288.62,962.66,-0.443731,-0.460676,0.535659,96.14,1
38342,0,52875,57976,52562.01,56937.42,312.99,1038.58,-0.443743,-0.460713,0.535104,96.16,1
38381,0,52902,58041,52562.69,56939.63,339.31,1101.37,-0.443756,-0.460751,0.534550,96.17,1
38420,0,52928,58122,52563.42,56942.00,364.58,1180.00,-0.443770,-0.460793,0.533997,96.19,1
38464,0,52958,58180,52564.21,56944.47,393.79,1235.53,-0.443785,-0.460836,0.533445,96.20,1
38500,0,52980,58258,52565.04,56947.10,414.96,1310.90,-0.443801,-0.460883,0.532895,96.21,1
38540,0,53016,58257,52565.95,56949.72,450.05,1307.28,-0.443818,-0.460929,0.532347,96.23,1
38579,0,52930,57614,52566.68,56951.05,363.32,662.95,-0.443832,-0.460952,0.531808,96.24,1
38619,0,52570,56860,52566.68,56950.87,3.32,-90.87,-0.443832,-0.460949,0.531271,96.26,1
38663,0,52453,56820,52566.46,56950.61,-113.46,-130.61,-0.443828,-0.460944,0.530735,96.27,1
38704,0,52492,56921,52566.31,56950.55,-74.31,-29.55,-0.443825,-0.460943,0.530202,96.29,1
38744,0,52500,56902,52566.18,56950.46,-66.18,-48.46,-0.443823,-0.460942,0.529671,96.30,1
38784,0,52511,57052,52566.07,56950.66,-55.07,101.34,-0.443821,-0.460945,0.529141,96.31,1
38823,0,52610,57341,52566.16,56951.44,43.84,389.56,-0.443822,-0.460959,0.528612,96.33,1
38861,0,52697,57480,52566.42,56952.50,130.58,527.50,-0.443827,-0.460977,0.528084,96.34,1
38905,0,52723,57533,52566.73,56953.66,156.27,579.34,-0.443833,-0.460998,0.527556,96.36,1
38946,0,52750,57656,52567.10,56955.07,182.90,700.93,-0.443840,-0.461023,0.527029,96.37,1
38984,0,52804,57831,52567.58,56956.82,236.42,874.18,-0.443849,-0.461053,0.526501,96.38,1
39021,0,52871,57968,52568.19,56958.85,302.81,1009.15,-0.443861,-0.461089,0.525973,96.40,1
39061,0,52911,58063,52568.87,56961.06,342.12,1101.94,-0.443874,-0.461128,0.525447,96.41,1
39100,0,52951,58144,52569.64,56963.43,381.36,1180.57,-0.443889,-0.461169,0.524922,96.43,1
39140,0,52981,58210,52570.46,56965.92,410.54,1244.08,-0.443904,-0.461213,0.524399,96.44,1
39180,0,52999,58271,52571.32,56968.54,427.68,1302.46,-0.443920,-0.461259,0.523878,96.45,1
39220,0,53018,58308,52572.22,56971.21,445.78,1336.79,-0.443938,-0.461306,0.523359,96.47,1
39262,0,53038,58346,52573.15,56973.96,464.85,1372.04,-0.443955,-0.461354,0.522843,96.48,1
39302,0,53057,58376,52574.12,56976.77,482.88,1399.23,-0.443974,-0.461404,0.522331,96.50,1
39340,0,53076,58406,52575.12,56979.63,500.87,1426.37,-0.443993,-0.461454,0.521823,96.51,1
39380,0,53059,58124,52576.09,56981.92,482.91,1142.08,-0.444011,-0.461494,0.521324,96.52,1
39423,0,52776,57237,52576.50,56982.43,199.50,254.57,-0.444019,-0.461503,0.520827,96.54,1
39462,0,52517,56997,52576.38,56982.46,-59.38,14.54,-0.444017,-0.461503,0.520333,96.55,1
39504,0,52540,57141,52576.31,56982.78,-36.31,158.22,-0.444015,-0.461509,0.519840,96.56,1
39544,0,52589,57199,52576.34,56983.21,12.66,215.79,-0.444016,-0.461517,0.519348,96.58,1
39581,0,52587,57285,52576.36,56983.82,10.64,301.18,-0.444016,-0.461527,0.518857,96.59,1
39622,0,52662,57583,52576.53,56985.02,85.47,597.98,-0.444020,-0.461548,0.518365,96.60,1
39666,0,52769,57756,52576.92,56986.56,192.08,769.44,-0.444027,-0.461575,0.517873,96.62,1
39706,0,52801,57805,52577.37,56988.20,223.63,816.80,-0.444035,-0.461604,0.517381,96.63,1
39745,0,52817,57895,52577.85,56990.02,239.15,904.98,-0.444045,-0.461636,0.516888,96.65,1
39786,0,52856,58038,52578.41,56992.11,277.59,1045.89,-0.444055,-0.461673,0.516393,96.66,1
39826,0,52918,58158,52579.09,56994.45,338.91,1163.55,-0.444068,-0.461714,0.515898,96.67,1
39866,0,52955,58255,52579.84,56996.97,375.16,1258.03,-0.444082,-0.461758,0.515403,96.69,1
39905,0,52987,58316,52580.66,56999.61,406.34,1316.39,-0.444098,-0.461804,0.514908,96.70,1
39946,0,53005,58357,52581.51,57002.32,423.49,1354.68,-0.444114,-0.461852,0.514414,96.71,1
39985,0,53018,58401,52582.38,57005.12,435.62,1395.88,-0.444131,-0.461901,0.513921,96.72,1
40027,0,53037,58436,52583.29,57007.98,453.71,1428.02,-0.444148,-0.461951,0.513428,96.74,1
40066,0,53057,58482,52584.24,57010.93,472.76,1471.07,-0.444166,-0.462003,0.512937,96.75,1
40102,0,53062,58513,52585.20,57013.94,476.80,1499.06,-0.444184,-0.462056,0.512447,96.76,1
40144,0,53073,58546,52586.18,57017.00,486.82,1529.00,-0.444203,-0.462109,0.511959,96.78,1
40184,0,53069,58388,52587.14,57019.75,481.86,1368.25,-0.444221,-0.462157,0.511474,96.79,1
40224,0,52893,57806,52587.76,57021.32,305.24,784.68,-0.444233,-0.462185,0.510992,96.80,1
40264,0,52719,57638,52588.02,57022.55,130.98,615.45,-0.444238,-0.462207,0.510510,96.82,1
40306,0,52748,57804,52588.34,57024.12,159.66,779.88,-0.444244,-0.462234,0.510028,96.83,1
40347,0,52805,57877,52588.78,57025.82,216.22,851.18,-0.444252,-0.462264,0.509545,96.84,1
40387,0,52820,57959,52589.24,57027.69,230.76,931.31,-0.444261,-0.462297,0.509061,96.86,1
40426,0,52877,58096,52589.82,57029.83,287.18,1066.17,-0.444272,-0.462334,0.508576,96.87,1
40466,0,52914,58144,52590.47,57032.06,323.53,1111.94,-0.444285,-0.462373,0.508092,96.88,1
40507,0,52923,58120,52591.14,57034.23,331.86,1085.77,-0.444297,-0.462412,0.507608,96.89,1
40547,0,52916,58180,52591.79,57036.53,324.21,1143.47,-0.444310,-0.462452,0.507124,96.91,1
40583,0,52954,58284,52592.52,57039.02,361.48,1244.98,-0.444324,-0.462496,0.506640,96.92,1
40627,0,53002,58346,52593.34,57041.64,408.66,1304.36,-0.444339,-0.462541,0.506157,96.93,1
40667,0,53022,58392,52594.20,57044.34,427.80,1347.66,-0.444355,-0.462589,0.505676,96.95,1
40706,0,53047,58436,52595.10,57047.13,451.90,1388.87,-0.444373,-0.462638,0.505196,96.96,1
40747,0,53067,58466,52596.05,57049.97,470.95,1416.03,-0.444391,-0.462687,0.504719,96.97,1
40787,0,53072,58486,52597.00,57052.84,475.00,1433.16,-0.444409,-0.462738,0.504244,96.98,1
40827,0,53076,58514,52597.96,57055.77,478.04,1458.23,-0.444427,-0.462789,0.503772,97.00,1
40866,0,53086,58547,52598.94,57058.75,487.06,1488.25,-0.444446,-0.462841,0.503301,97.01,1
40907,0,53103,58516,52599.95,57061.66,503.05,1454.34,-0.444465,-0.462892,0.502834,97.02,1
40946,0,53028,58016,52600.80,57063.57,427.20,952.43,-0.444481,-0.462926,0.502373,97.03,1
40987,0,52743,57420,52601.09,57064.29,141.91,355.71,-0.444487,-0.462938,0.501915,97.05,1
41024,0,52647,57414,52601.18,57064.99,45.82,349.01,-0.444488,-0.462951,0.501456,97.06,1
41074,0,52689,57500,52601.36,57065.86,87.64,434.14,-0.444492,-0.462966,0.500999,97.07,1
41108,0,52704,57525,52601.57,57066.78,102.43,458.22,-0.444496,-0.462982,0.500543,97.08,1
41148,0,52727,57681,52601.82,57068.01,125.18,612.99,-0.444500,-0.463004,0.500086,97.10,1
41188,0,52802,57846,52602.22,57069.57,199.78,776.43,-0.444508,-0.463031,0.499629,97.11,1
41227,0,52836,57884,52602.69,57071.20,233.31,812.80,-0.444517,-0.463059,0.499174,97.12,1
41266,0,52841,57877,52603.17,57072.81,237.83,804.19,-0.444526,-0.463088,0.498719,97.13,1
41306,0,52854,57969,52603.67,57074.60,250.33,894.40,-0.444536,-0.463119,0.498264,97.15,1
41345,0,52899,58093,52604.27,57076.64,294.73,1016.36,-0.444547,-0.463155,0.497809,97.16,1
41386,0,52952,58186,52604.96,57078.86,347.04,1107.14,-0.444560,-0.463194,0.497356,97.17,1
41426,0,52985,58243,52605.72,57081.19,379.28,1161.81,-0.444575,-0.463235,0.496904,97.18,1
41468,0,53010,58311,52606.53,57083.65,403.47,1227.35,-0.444590,-0.463278,0.496455,97.19,1
41508,0,53032,58344,52607.38,57086.17,424.62,1257.83,-0.444606,-0.463322,0.496007,97.21,1
41547,0,53039,58379,52608.25,57088.76,430.75,1290.24,-0.444623,-0.463367,0.495562,97.22,1
41587,0,53056,58410,52609.14,57091.40,446.86,1318.60,-0.444640,-0.463413,0.495120,97.23,1
41628,0,53070,58456,52610.07,57094.13,459.93,1361.87,-0.444657,-0.463461,0.494680,97.24,1
41668,0,53086,58415,52611.02,57096.78,474.98,1318.22,-0.444675,-0.463508,0.494243,97.26,1
41708,0,52973,57781,52611.75,57098.15,361.25,682.85,-0.444689,-0.463532,0.493813,97.27,1
41748,0,52648,57126,52611.82,57098.21,36.18,27.79,-0.444691,-0.463533,0.493384,97.28,1
41789,0,52557,57113,52611.71,57098.24,-54.71,14.76,-0.444688,-0.463533,0.492957,97.29,1
41829,0,52575,57137,52611.64,57098.32,-36.64,38.68,-0.444687,-0.463535,0.492530,97.30,1
41868,0,52566,57112,52611.55,57098.34,-45.55,13.66,-0.444685,-0.463535,0.492106,97.31,1
41908,0,52574,57239,52611.48,57098.62,-37.48,140.37,-0.444684,-0.463540,0.491682,97.33,1
41947,0,52663,57468,52611.58,57099.36,51.42,368.64,-0.444686,-0.463553,0.491259,97.34,1
41989,0,52720,57540,52611.80,57100.25,108.20,439.75,-0.444690,-0.463568,0.490837,97.35,1
42029,0,52727,57583,52612.03,57101.21,114.97,481.79,-0.444695,-0.463585,0.490416,97.36,1
42069,0,52759,57691,52612.33,57102.39,146.67,588.61,-0.444700,-0.463606,0.489994,97.37,1
42108,0,52812,57831,52612.73,57103.85,199.27,727.15,-0.444708,-0.463631,0.489574,97.38,1
42149,0,52861,57960,52613.23,57105.57,247.77,854.43,-0.444717,-0.463662,0.489153,97.40,1
42189,0,52909,58100,52613.82,57107.56,295.18,992.44,-0.444729,-0.463696,0.488734,97.41,1
42228,0,52970,58254,52614.54,57109.85,355.46,1144.15,-0.444742,-0.463737,0.488314,97.42,1
42268,0,53008,58335,52615.32,57112.30,392.68,1222.70,-0.444757,-0.463779,0.487897,97.43,1
42309,0,53040,58388,52616.18,57114.86,423.82,1273.14,-0.444773,-0.463824,0.487481,97.44,1
42349,0,53055,58427,52617.05,57117.48,437.95,1309.52,-0.444790,-0.463870,0.487067,97.45,1
42390,0,53072,58473,52617.96,57120.20,454.04,1352.80,-0.444807,-0.463918,0.486655,97.47,1
42426,0,53090,58462,52618.91,57122.88,471.09,1339.12,-0.444825,-0.463965,0.486247,97.48,1
42465,0,53026,58026,52619.73,57124.69,406.27,901.31,-0.444841,-0.463996,0.485844,97.49,1
42505,0,52769,57537,52620.03,57125.51,148.97,411.49,-0.444846,-0.464011,0.485443,97.50,1
42545,0,52700,57533,52620.19,57126.33,79.81,406.67,-0.444850,-0.464025,0.485043,97.51,1
42585,0,52741,57626,52620.43,57127.33,120.57,498.67,-0.444854,-0.464043,0.484643,97.52,1
42625,0,52757,57653,52620.70,57128.38,136.30,524.62,-0.444859,-0.464061,0.484244,97.53,1
42665,0,52778,57807,52621.02,57129.74,156.98,677.26,-0.444865,-0.464085,0.483844,97.54,1
42705,0,52860,58004,52621.50,57131.49,238.50,872.51,-0.444875,-0.464115,0.483444,97.56,1
42745,0,52918,58084,52622.09,57133.40,295.91,950.60,-0.444886,-0.464149,0.483046,97.57,1
42785,0,52946,58135,52622.74,57135.40,323.26,999.60,-0.444898,-0.464184,0.482648,97.58,1
42825,0,52979,58248,52623.46,57137.63,355.54,1110.37,-0.444912,-0.464223,0.482252,97.59,1
42866,0,53028,58372,52624.27,57140.10,403.73,1231.90,-0.444927,-0.464266,0.481857,97.60,1
42909,0,53073,58451,52625.16,57142.72,447.84,1308.28,-0.444944,-0.464312,0.481464,97.61,1
42949,0,53096,58503,52626.11,57145.45,469.89,1357.55,-0.444962,-0.464360,0.481075,97.62,1
42990,0,53113,58548,52627.08,57148.25,485.92,1399.75,-0.444981,-0.464409,0.480688,97.63,1
43030,0,53128,58581,52628.09,57151.12,499.91,1429.88,-0.445000,-0.464459,0.480304,97.64,1
43071,0,53133,58608,52629.10,57154.03,503.90,1453.97,-0.445019,-0.464510,0.479923,97.65,1
43107,0,53145,58629,52630.13,57156.98,514.87,1472.02,-0.445038,-0.464561,0.479546,97.66,1
43151,0,53148,58655,52631.16,57159.98,516.84,1495.02,-0.445058,-0.464614,0.479171,97.67,1
43190,0,53163,58676,52632.23,57163.02,530.77,1512.98,-0.445078,-0.464667,0.478799,97.69,1
43227,0,53138,58486,52633.24,57165.66,504.76,1320.34,-0.445098,-0.464713,0.478432,97.70,1
43266,0,52962,57951,52633.90,57167.23,328.10,783.77,-0.445110,-0.464741,0.478068,97.71,1
43306,0,52846,57932,52634.33,57168.77,211.67,763.23,-0.445118,-0.464768,0.477704,97.72,1
43347,0,52898,58064,52634.86,57170.56,263.14,893.44,-0.445128,-0.464799,0.477340,97.73,1
43390,0,52932,58117,52635.45,57172.45,296.55,944.55,-0.445140,-0.464832,0.476977,97.74,1
43428,0,52957,58208,52636.09,57174.53,320.91,1033.47,-0.445152,-0.464868,0.476615,97.75,1
43467,0,53019,58346,52636.86,57176.87,382.14,1169.13,-0.445166,-0.464909,0.476254,97.76,1
43510,0,53058,58382,52637.70,57179.28,420.30,1202.72,-0.445182,-0.464952,0.475895,97.77,1
43549,0,53061,58373,52638.55,57181.67,422.45,1191.33,-0.445198,-0.464993,0.475538,97.78,1
43591,0,53059,58421,52639.39,57184.15,419.61,1236.85,-0.445215,-0.465037,0.475183,97.79,1
43631,0,53091,58490,52640.30,57186.77,450.70,1303.23,-0.445232,-0.465082,0.474830,97.80,1
43670,0,53118,58533,52641.26,57189.46,476.74,1343.54,-0.445250,-0.465130,0.474479,97.81,1
43710,0,53125,58572,52642.23,57192.23,482.77,1379.77,-0.445268,-0.465178,0.474131,97.82,1
43751,0,53137,58596,52643.22,57195.04,493.78,1400.96,-0.445287,-0.465227,0.473786,97.83,1
43790,0,53146,58613,52644.23,57197.87,501.77,1415.13,-0.445306,-0.465277,0.473443,97.84,1
43830,0,53146,58628,52645.23,57200.73,500.77,1427.27,-0.445325,-0.465327,0.473103,97.85,1
43868,0,53146,58658,52646.23,57203.65,499.77,1454.35,-0.445344,-0.465378,0.472764,97.86,1
43911,0,53160,58685,52647.26,57206.61,512.74,1478.39,-0.445364,-0.465429,0.472428,97.87,1
43951,0,53171,58659,52648.31,57209.52,522.69,1449.48,-0.445384,-0.465480,0.472094,97.88,1
43991,0,53108,58236,52649.23,57211.57,458.77,1024.43,-0.445401,-0.465516,0.471766,97.89,1
44030,0,52866,57745,52649.67,57212.64,216.33,532.36,-0.445410,-0.465535,0.471440,97.90,1
44069,0,52797,57763,52649.96,57213.74,147.04,549.26,-0.445415,-0.465554,0.471114,97.91,1
44111,0,52855,57880,52650.37,57215.08,204.62,664.92,-0.445423,-0.465577,0.470789,97.92,1
44150,0,52878,57895,52650.83,57216.44,227.17,678.56,-0.445432,-0.465601,0.470464,97.93,1
44192,0,52902,58031,52651.34,57218.07,250.66,812.93,-0.445441,-0.465630,0.470140,97.94,1
44231,0,52963,58139,52651.96,57219.91,311.04,919.09,-0.445453,-0.465662,0.469818,97.95,1
44269,0,52978,58134,52652.61,57221.74,325.39,912.26,-0.445466,-0.465694,0.469497,97.96,1
44307,0,52977,58158,52653.26,57223.61,323.74,934.39,-0.445478,-0.465727,0.469177,97.97,1
44347,0,53001,58232,52653.96,57225.63,347.04,1006.37,-0.445491,-0.465762,0.468858,97.98,1
44387,0,53038,58324,52654.73,57227.83,383.27,1096.17,-0.445506,-0.465800,0.468542,97.98,1
44427,0,53067,58393,52655.55,57230.16,411.45,1162.84,-0.445521,-0.465841,0.468227,97.99,1
44469,0,53088,58449,52656.42,57232.60,431.58,1216.40,-0.445538,-0.465884,0.467914,98.00,1
44511,0,53106,58482,52657.32,57235.10,448.68,1246.90,-0.445555,-0.465927,0.467603,98.01,1
44553,0,53118,58507,52658.24,57237.65,459.76,1269.35,-0.445572,-0.465972,0.467294,98.02,1
44591,0,53123,58530,52659.17,57240.23,463.83,1289.77,-0.445590,-0.466017,0.466988,98.03,1
44632,0,53131,58555,52660.12,57242.87,470.88,1312.13,-0.445608,-0.466063,0.466684,98.04,1
44671,0,53141,58595,52661.08,57245.57,479.92,1349.43,-0.445626,-0.466110,0.466382,98.05,1
44712,0,53159,58566,52662.08,57248.21,496.92,1317.79,-0.445645,-0.466156,0.466083,98.06,1
44752,0,53078,58023,52662.91,57249.77,415.09,773.23,-0.445661,-0.466183,0.465790,98.07,1
44792,0,52786,57407,52663.16,57250.08,122.84,156.92,-0.445666,-0.466189,0.465498,98.08,1
44833,0,52689,57417,52663.21,57250.42,25.79,166.58,-0.445667,-0.466195,0.465207,98.08,1
44872,0,52745,57536,52663.37,57250.99,81.62,285.01,-0.445670,-0.466205,0.464917,98.09,1
44912,0,52766,57528,52663.58,57251.55,102.42,276.45,-0.445674,-0.466215,0.464628,98.10,1
44953,0,52775,57652,52663.80,57252.35,111.20,399.65,-0.445678,-0.466229,0.464339,98.11,1
44992,0,52857,57873,52664.19,57253.59,192.81,619.41,-0.445685,-0.466250,0.464051,98.12,1
45032,0,52916,57948,52664.70,57254.98,251.30,693.02,-0.445695,-0.466275,0.463764,98.13,1
45072,0,52924,57965,52665.21,57256.40,258.79,708.60,-0.445705,-0.466299,0.463478,98.14,1
45112,0,52941,58038,52665.77,57257.97,275.23,780.03,-0.445715,-0.466327,0.463194,98.15,1
45152,0,52984,58158,52666.41,57259.77,317.59,898.23,-0.445727,-0.466358,0.462911,98.15,1
45192,0,53018,58255,52667.11,57261.76,350.89,993.24,-0.445741,-0.466393,0.462629,98.16,1
45233,0,53047,58333,52667.87,57263.91,379.13,1069.09,-0.445755,-0.466430,0.462348,98.17,1
45274,0,53069,58383,52668.68,57266.14,400.32,1116.86,-0.445771,-0.466469,0.462070,98.18,1
45312,0,53093,58425,52669.53,57268.46,423.47,1156.54,-0.445787,-0.466510,0.461793,98.19,1
45349,0,53100,58463,52670.39,57270.86,429.61,1192.14,-0.445803,-0.466552,0.461518,98.20,1
45389,0,53112,58492,52671.27,57273.30,440.73,1218.70,-0.445820,-0.466594,0.461245,98.20,1
45429,0,53115,58535,52672.16,57275.82,442.84,1259.18,-0.445837,-0.466639,0.460974,98.21,1
45469,0,53136,58569,52673.09,57278.41,462.91,1290.59,-0.445854,-0.466684,0.460704,98.22,1
45509,0,53138,58386,52674.02,57280.62,463.98,1105.38,-0.445872,-0.466722,0.460438,98.23,1
45549,0,52929,57636,52674.54,57281.34,254.46,354.66,-0.445882,-0.466735,0.460176,98.24,1
45589,0,52697,57363,52674.58,57281.50,22.42,81.50,-0.445883,-0.466738,0.459914,98.24,1
45629,0,52719,57491,52674.67,57281.92,44.33,209.08,-0.445884,-0.466745,0.459653,98.25,1
45669,0,52768,57557,52674.86,57282.47,93.14,274.53,-0.445888,-0.466755,0.459393,98.26,1
45709,0,52780,57627,52675.07,57283.16,104.93,343.84,-0.445892,-0.466767,0.459133,98.27,1
45749,0,52835,57845,52675.39,57284.29,159.61,560.71,-0.445898,-0.466786,0.458874,98.28,1
45789,0,52915,58005,52675.87,57285.73,239.13,719.27,-0.445907,-0.466811,0.458615,98.28,1
45832,0,52946,58047,52676.41,57287.25,269.59,759.75,-0.445918,-0.466838,0.458358,98.29,1
45873,0,52964,58116,52676.99,57288.91,287.01,827.09,-0.445928,-0.466867,0.458101,98.30,1
45913,0,52998,58239,52677.64,57290.82,320.36,948.18,-0.445941,-0.466900,0.457845,98.31,1
45953,0,53044,58366,52678.37,57292.97,365.63,1073.03,-0.445955,-0.466938,0.457589,98.31,1
45993,0,53087,58450,52679.19,57295.29,407.81,1154.71,-0.445970,-0.466978,0.457335,98.32,1
46035,0,53110,58506,52680.05,57297.71,429.95,1208.29,-0.445987,-0.467021,0.457082,98.33,1
46074,0,53121,58550,52680.94,57300.21,440.06,1249.79,-0.446003,-0.467064,0.456831,98.34,1
46114,0,53135,58586,52681.85,57302.79,453.15,1283.21,-0.446021,-0.467109,0.456581,98.34,1
46152,0,53147,58625,52682.78,57305.43,464.22,1319.57,-0.446038,-0.467155,0.456332,98.35,1
46194,0,53152,58663,52683.72,57308.15,468.28,1354.85,-0.446056,-0.467203,0.456084,98.36,1
46233,0,53158,58697,52684.67,57310.93,473.33,1386.07,-0.446074,-0.467251,0.455837,98.37,1
46274,0,53179,58730,52685.66,57313.77,493.34,1416.23,-0.446093,-0.467301,0.455591,98.37,1
46314,0,53174,58579,52686.64,57316.30,487.36,1262.70,-0.446112,-0.467345,0.455347,98.38,1
46355,0,53009,58036,52687.28,57317.74,321.72,718.26,-0.446124,-0.467370,0.455107,98.39,1
46392,0,52871,57983,52687.65,57319.07,183.35,663.93,-0.446131,-0.467393,0.454866,98.40,1
46434,0,52928,58127,52688.13,57320.69,239.87,806.31,-0.446140,-0.467422,0.454626,98.40,1
46472,0,52970,58186,52688.70,57322.42,281.30,863.58,-0.446151,-0.467452,0.454385,98.41,1
46514,0,52990,58267,52689.30,57324.31,300.70,942.69,-0.446162,-0.467485,0.454145,98.42,1
46554,0,53035,58392,52689.99,57326.45,345.01,1065.55,-0.446175,-0.467522,0.453904,98.42,1
46594,0,53070,58429,52690.75,57328.65,379.25,1100.35,-0.446190,-0.467560,0.453665,98.43,1
46631,0,53074,58431,52691.52,57330.86,382.48,1100.14,-0.446204,-0.467599,0.453426,98.44,1
46675,0,53082,58455,52692.30,57333.11,389.70,1121.89,-0.446219,-0.467638,0.453188,98.44,1
46713,0,53105,58501,52693.13,57335.45,411.87,1165.55,-0.446235,-0.467679,0.452952,98.45,1
46756,0,53122,58546,52693.99,57337.87,428.01,1208.13,-0.446251,-0.467721,0.452716,98.46,1
46795,0,53129,58583,52694.86,57340.36,434.14,1242.64,-0.446268,-0.467765,0.452482,98.47,1
46835,0,53144,58619,52695.76,57342.92,448.24,1276.08,-0.446285,-0.467809,0.452248,98.47,1
46875,0,53150,58641,52696.67,57345.52,453.33,1295.48,-0.446302,-0.467855,0.452016,98.48,1
46916,0,53160,58661,52697.60,57348.15,462.40,1312.85,-0.446320,-0.467900,0.451785,98.49,1
46952,0,53161,58685,52698.53,57350.82,462.47,1334.18,-0.446337,-0.467947,0.451554,98.49,1
46995,0,53172,58717,52699.48,57353.56,472.52,1363.44,-0.446355,-0.467995,0.451325,98.50,1
47034,0,53178,58663,52700.44,57356.18,477.56,1306.82,-0.446373,-0.468040,0.451097,98.51,1
47074,0,53078,58211,52701.20,57357.89,376.80,853.11,-0.446388,-0.468070,0.450873,98.51,1
47113,0,52881,57902,52701.55,57358.98,179.45,543.02,-0.446395,-0.468089,0.450649,98.52,1
47154,0,52873,57971,52701.90,57360.21,171.10,610.79,-0.446401,-0.468111,0.450425,98.53,1
47194,0,52918,58054,52702.33,57361.60,215.67,692.40,-0.446409,-0.468135,0.450201,98.53,1
47234,0,52929,58102,52702.79,57363.08,226.21,738.92,-0.446418,-0.468161,0.449977,98.54,1
47275,0,52971,58248,52703.32,57364.85,267.68,883.15,-0.446428,-0.468192,0.449753,98.55,1
47315,0,53027,58314,52703.97,57366.75,323.03,947.25,-0.446441,-0.468225,0.449530,98.55,1
47352,0,53029,58311,52704.62,57368.64,324.37,942.36,-0.446453,-0.468258,0.449307,98.56,1
47391,0,53029,58347,52705.27,57370.59,323.73,976.41,-0.446465,-0.468292,0.449085,98.57,1
47436,0,53053,58417,52705.97,57372.69,347.03,1044.31,-0.446478,-0.468328,0.448863,98.57,1
47472,0,53084,58476,52706.73,57374.89,377.27,1101.11,-0.446493,-0.468367,0.448641,98.58,1
47512,0,53101,58530,52707.52,57377.21,393.48,1152.79,-0.446508,-0.468407,0.448421,98.58,1
47553,0,53116,58572,52708.33,57379.60,407.67,1192.40,-0.446523,-0.468449,0.448200,98.59,1
47596,0,53130,58597,52709.18,57382.04,420.82,1214.96,-0.446539,-0.468491,0.447981,98.60,1
47636,0,53140,58622,52710.04,57384.52,429.96,1237.48,-0.446556,-0.468534,0.447762,98.60,1
47676,0,53146,58649,52710.91,57387.05,435.09,1261.95,-0.446572,-0.468579,0.447544,98.61,1
47716,0,53154,58675,52711.80,57389.62,442.20,1285.38,-0.446589,-0.468623,0.447326,98.62,1
47756,0,53167,58698,52712.71,57392.24,454.29,1305.76,-0.446606,-0.468669,0.447110,98.62,1
47796,0,53184,58616,52713.66,57394.69,470.34,1221.31,-0.446624,-0.468712,0.446896,98.63,1
47832,0,53057,57997,52714.34,57395.90,342.66,601.10,-0.446637,-0.468733,0.446686,98.63,1
47876,0,52795,57564,52714.51,57396.23,80.49,167.77,-0.446640,-0.468739,0.446477,98.64,1
47916,0,52762,57657,52714.61,57396.76,47.39,260.24,-0.446642,-0.468748,0.446268,98.65,1
47957,0,52813,57717,52714.80,57397.40,98.20,319.60,-0.446646,-0.468759,0.446060,98.65,1
47996,0,52813,57707,52715.00,57398.02,98.00,308.98,-0.446650,-0.468770,0.445852,98.66,1
48036,0,52836,57893,52715.25,57399.01,120.75,493.99,-0.446654,-0.468787,0.445644,98.66,1
48076,0,52916,58061,52715.65,57400.34,200.35,660.66,-0.446662,-0.468810,0.445436,98.67,1
48117,0,52949,58092,52716.12,57401.72,232.88,690.28,-0.446671,-0.468834,0.445229,98.68,1
48157,0,52956,58126,52716.60,57403.17,239.40,722.83,-0.446680,-0.468859,0.445022,98.68,1
48197,0,52972,58203,52717.11,57404.77,254.89,798.23,-0.446690,-0.468887,0.444816,98.69,1
48235,0,53006,58306,52717.69,57406.58,288.31,899.42,-0.446701,-0.468919,0.444609,98.69,1
48277,0,53038,58369,52718.33,57408.50,319.67,960.50,-0.446713,-0.468952,0.444403,98.70,1
48317,0,53061,58414,52719.02,57410.52,341.98,1003.48,-0.446726,-0.468987,0.444197,98.71,1
48357,0,53083,58443,52719.75,57412.58,363.25,1030.42,-0.446740,-0.469023,0.443992,98.71,1
48396,0,53092,58489,52720.49,57414.74,371.51,1074.26,-0.446754,-0.469061,0.443787,98.72,1
48437,0,53114,58531,52721.28,57416.97,392.72,1114.03,-0.446769,-0.469100,0.443584,98.72,1
48477,0,53124,58567,52722.09,57419.27,401.91,1147.73,-0.446784,-0.469140,0.443382,98.73,1
48515,0,53136,58611,52722.92,57421.66,413.08,1189.34,-0.446800,-0.469182,0.443180,98.73,1
48557,0,53164,58652,52723.80,57424.12,440.20,1227.88,-0.446817,-0.469224,0.442979,98.74,1
48596,0,53168,58525,52724.69,57426.32,443.31,1098.68,-0.446834,-0.469263,0.442782,98.75,1
48637,0,52991,57831,52725.23,57427.14,265.77,403.86,-0.446844,-0.469277,0.442587,98.75,1
48677,0,52754,57519,52725.29,57427.32,28.71,91.68,-0.446845,-0.469280,0.442393,98.76,1
48717,0,52757,57631,52725.35,57427.73,31.65,203.27,-0.446846,-0.469287,0.442200,98.76,1
48757,0,52796,57633,52725.50,57428.14,70.50,204.86,-0.446849,-0.469294,0.442007,98.77,1
48797,0,52778,57624,52725.60,57428.54,52.40,195.46,-0.446851,-0.469301,0.441814,98.77,1
48838,0,52801,57792,52725.75,57429.26,75.25,362.74,-0.446854,-0.469314,0.441622,98.78,1
48878,0,52868,57940,52726.04,57430.29,141.96,509.71,-0.446859,-0.469332,0.441430,98.79,1
48918,0,52896,57993,52726.38,57431.41,169.62,561.59,-0.446866,-0.469351,0.441238,98.79,1
48958,0,52909,58049,52726.75,57432.65,182.25,616.35,-0.446873,-0.469373,0.441045,98.80,1
48996,0,52944,58164,52727.18,57434.11,216.82,729.89,-0.446881,-0.469398,0.440853,98.80,1
49038,0,52986,58289,52727.70,57435.82,258.30,853.18,-0.446891,-0.469428,0.440660,98.81,1
49078,0,53027,58389,52728.30,57437.73,298.70,951.27,-0.446902,-0.469461,0.440467,98.81,1
49118,0,53053,58454,52728.96,57439.77,324.04,1014.23,-0.446914,-0.469497,0.440273,98.82,1
49158,0,53072,58498,52729.64,57441.88,342.36,1056.12,-0.446928,-0.469534,0.440080,98.82,1
49198,0,53088,58537,52730.36,57444.07,357.64,1092.93,-0.446941,-0.469572,0.439886,98.83,1
49237,0,53108,58576,52731.12,57446.34,376.88,1129.66,-0.446956,-0.469611,0.439692,98.83,1
49278,0,53112,58604,52731.88,57448.66,380.12,1155.34,-0.446970,-0.469652,0.439499,98.84,1
49318,0,53115,58630,52732.65,57451.02,382.35,1178.98,-0.446985,-0.469693,0.439305,98.85,1
49358,0,53122,58640,52733.43,57453.40,388.57,1186.60,-0.446999,-0.469734,0.439110,98.85,1
49397,0,53112,58518,52734.19,57455.53,377.81,1062.47,-0.447014,-0.469771,0.438917,98.86,1
49438,0,52962,57948,52734.65,57456.52,227.35,491.48,-0.447022,-0.469788,0.438726,98.86,1
49478,0,52756,57721,52734.69,57457.05,21.31,263.95,-0.447023,-0.469798,0.438534,98.87,1
49515,0,52774,57872,52734.77,57457.88,39.23,414.12,-0.447025,-0.469812,0.438343,98.87,1
49558,0,52820,57951,52734.94,57458.87,85.06,492.13,-0.447028,-0.469829,0.438151,98.88,1
49599,0,52836,58008,52735.14,57459.97,100.86,548.03,-0.447032,-0.469848,0.437958,98.88,1
49639,0,52873,58150,52735.42,57461.35,137.58,688.65,-0.447037,-0.469873,0.437764,98.89,1
49679,0,52932,58262,52735.82,57462.95,196.18,799.05,-0.447045,-0.469900,0.437569,98.89,1
49718,0,52950,58271,52736.25,57464.57,213.75,806.43,-0.447053,-0.469929,0.437372,98.90,1
49758,0,52962,58298,52736.70,57466.24,225.30,831.76,-0.447061,-0.469958,0.437175,98.90,1
49798,0,52976,58370,52737.18,57468.05,238.82,901.95,-0.447070,-0.469989,0.436976,98.91,1
49838,0,53006,58450,52737.72,57470.01,268.28,979.99,-0.447081,-0.470023,0.436776,98.91,1
49876,0,53035,58513,52738.32,57472.10,296.68,1040.90,-0.447092,-0.470060,0.436574,98.92,1
49919,0,53059,58552,52738.96,57474.26,320.04,1077.74,-0.447104,-0.470097,0.436372,98.92,1
49959,0,53078,58592,52739.64,57476.50,338.36,1115.50,-0.447117,-0.470136,0.436169,98.93,1
50000,0,53084,58625,52740.33,57478.79,343.67,1146.21,-0.447130,-0.470176,0.435964,98.93,1
50040,0,53094,58650,52741.04,57481.14,352.96,1168.86,-0.447144,-0.470217,0.435759,98.94,1
50080,0,53100,58679,52741.76,57483.54,358.24,1195.46,-0.447157,-0.470258,0.435552,98.94,1
50120,0,53124,58710,52742.52,57485.99,381.48,1224.01,-0.447172,-0.470301,0.435345,98.95,1
50159,0,53128,58625,52743.30,57488.27,384.70,1136.73,-0.447186,-0.470341,0.435139,98.95,1
50197,0,53020,58179,52743.85,57489.65,276.15,689.35,-0.447197,-0.470365,0.434934,98.96,1
50240,0,52842,57989,52744.05,57490.65,97.95,498.35,-0.447201,-0.470382,0.434729,98.96,1
50279,0,52866,58115,52744.30,57491.90,121.70,623.10,-0.447205,-0.470404,0.434523,98.97,1
50319,0,52915,58186,52744.64,57493.29,170.36,692.71,-0.447212,-0.470428,0.434317,98.98,1
50360,0,52926,58231,52745.00,57494.77,181.00,736.23,-0.447219,-0.470454,0.434110,98.98,1
50399,0,52971,58338,52745.46,57496.46,225.54,841.54,-0.447227,-0.470483,0.433901,98.99,1
50436,0,53009,58387,52745.98,57498.24,263.02,888.76,-0.447237,-0.470514,0.433693,98.99,1
50476,0,53015,58390,52746.52,57500.02,268.48,889.98,-0.447248,-0.470545,0.433484,99.00,1
50516,0,53024,58417,52747.08,57501.86,276.92,915.14,-0.447258,-0.470577,0.433275,99.00,1
50558,0,53039,58485,52747.66,57503.83,291.34,981.17,-0.447269,-0.470611,0.433065,99.01,1
50599,0,53075,58547,52748.32,57505.91,326.68,1041.09,-0.447282,-0.470648,0.432855,99.01,1
50637,0,53101,58584,52749.03,57508.07,351.97,1075.93,-0.447295,-0.470685,0.432646,99.02,1
50680,0,53110,58613,52749.75,57510.28,360.25,1102.72,-0.447309,-0.470724,0.432437,99.02,1
50719,0,53121,58641,52750.49,57512.54,370.51,1128.46,-0.447323,-0.470763,0.432229,99.03,1
50760,0,53137,58657,52751.27,57514.83,385.73,1142.17,-0.447338,-0.470803,0.432021,99.03,1
50797,0,53141,58680,52752.05,57517.16,388.95,1162.84,-0.447352,-0.470843,0.431814,99.04,1
50840,0,53148,58709,52752.84,57519.55,395.16,1189.45,-0.447367,-0.470885,0.431608,99.04,1
50880,0,53152,58732,52753.64,57521.98,398.36,1210.02,-0.447382,-0.470927,0.431402,99.05,1
50921,0,53158,58642,52754.45,57524.22,403.55,1117.78,-0.447398,-0.470966,0.431198,99.05,1
50961,0,53030,58079,52755.00,57525.33,275.00,553.67,-0.447408,-0.470985,0.430997,99.06,1
51001,0,52821,57815,52755.13,57525.91,65.87,289.09,-0.447411,-0.470995,0.430796,99.06,1
51041,0,52812,57904,52755.25,57526.67,56.75,377.33,-0.447413,-0.471009,0.430595,99.07,1
51082,0,52850,57961,52755.44,57527.54,94.56,433.46,-0.447417,-0.471024,0.430394,99.07,1
51120,0,52859,57975,52755.64,57528.43,103.36,446.57,-0.447420,-0.471039,0.430194,99.08,1
51161,0,52889,58107,52755.91,57529.59,133.09,577.41,-0.447426,-0.471059,0.429992,99.08,1
51201,0,52945,58226,52756.29,57530.99,188.71,695.01,-0.447433,-0.471084,0.429791,99.09,1
51237,0,52969,58243,52756.72,57532.41,212.28,710.59,-0.447441,-0.471108,0.429589,99.09,1
51281,0,52978,58268,52757.16,57533.89,220.84,734.11,-0.447449,-0.471134,0.429387,99.10,1
51321,0,53002,58351,52757.66,57535.52,244.34,815.48,-0.447459,-0.471162,0.429186,99.10,1
51361,0,53042,58438,52758.23,57537.33,283.77,900.67,-0.447469,-0.471194,0.428984,99.11,1
51402,0,53069,58487,52758.85,57539.23,310.15,947.77,-0.447481,-0.471227,0.428783,99.11,1
51441,0,53083,58523,52759.50,57541.20,323.50,981.80,-0.447493,-0.471261,0.428582,99.12,1
51478,0,53096,58556,52760.17,57543.23,335.83,1012.77,-0.447506,-0.471296,0.428382,99.12,1
51520,0,53105,58586,52760.86,57545.32,344.14,1040.68,-0.447519,-0.471333,0.428183,99.13,1
51561,0,53111,58615,52761.57,57547.46,349.43,1067.54,-0.447533,-0.471370,0.427984,99.14,1
51599,0,53121,58634,52762.29,57549.63,358.71,1084.37,-0.447546,-0.471408,0.427785,99.14,1
51643,0,53124,58665,52763.01,57551.86,360.99,1113.14,-0.447560,-0.471446,0.427587,99.15,1
51679,0,53137,58679,52763.76,57554.12,373.24,1124.88,-0.447574,-0.471486,0.427390,99.15,1
51719,0,53134,58559,52764.50,57556.13,369.50,1002.87,-0.447588,-0.471521,0.427194,99.16,1
51762,0,52971,57910,52764.92,57556.84,206.08,353.16,-0.447596,-0.471533,0.427001,99.16,1
51802,0,52738,57609,52764.87,57556.95,-26.87,52.05,-0.447595,-0.471535,0.426808,99.17,1
51842,0,52746,57741,52764.83,57557.32,-18.83,183.68,-0.447595,-0.471541,0.426616,99.17,1
51882,0,52790,57790,52764.88,57557.79,25.12,232.21,-0.447596,-0.471549,0.426424,99.18,1
51922,0,52787,57791,52764.93,57558.25,22.07,232.75,-0.447596,-0.471557,0.426233,99.18,1
51962,0,52814,57956,52765.03,57559.05,48.97,396.95,-0.447598,-0.471571,0.426041,99.19,1
52002,0,52888,58089,52765.27,57560.11,122.73,528.89,-0.447603,-0.471590,0.425848,99.19,1
52042,0,52925,58136,52765.59,57561.27,159.41,574.73,-0.447609,-0.471610,0.425656,99.20,1
52080,0,52929,58173,52765.92,57562.49,163.08,610.51,-0.447615,-0.471631,0.425463,99.20,1
52123,0,52959,58278,52766.31,57563.93,192.69,714.07,-0.447623,-0.471656,0.425270,99.21,1
52161,0,52996,58374,52766.77,57565.55,229.23,808.45,-0.447631,-0.471684,0.425076,99.21,1
52202,0,53030,58438,52767.30,57567.29,262.70,870.71,-0.447641,-0.471714,0.424883,99.22,1
52240,0,53046,58476,52767.86,57569.11,278.14,906.89,-0.447652,-0.471746,0.424689,99.22,1
52282,0,53053,58514,52768.43,57571.00,284.57,943.00,-0.447663,-0.471779,0.424494,99.23,1
52323,0,53063,58559,52769.02,57572.98,293.98,986.02,-0.447674,-0.471813,0.424299,99.23,1
52363,0,53077,58600,52769.63,57575.04,307.37,1024.96,-0.447686,-0.471849,0.424104,99.24,1
52400,0,53088,58630,52770.27,57577.15,317.73,1052.85,-0.447698,-0.471886,0.423908,99.24,1
52439,0,53087,58671,52770.91,57579.34,316.09,1091.66,-0.447710,-0.471924,0.423711,99.25,1
52481,0,53103,58714,52771.57,57581.61,331.43,1132.39,-0.447722,-0.471963,0.423513,99.25,1
52519,0,53114,58648,52772.26,57583.74,341.74,1064.26,-0.447735,-0.472000,0.423315,99.26,1
52562,0,53013,58224,52772.74,57585.02,240.26,638.98,-0.447745,-0.472022,0.423118,99.26,1
52599,0,52835,58007,52772.87,57585.86,62.13,421.14,-0.447747,-0.472037,0.422922,99.27,1
52639,0,52851,58142,52773.02,57586.98,77.98,555.02,-0.447750,-0.472056,0.422724,99.27,1
52683,0,52914,58229,52773.31,57588.26,140.69,640.74,-0.447755,-0.472079,0.422526,99.28,1
52723,0,52936,58275,52773.64,57589.64,162.36,685.36,-0.447761,-0.472103,0.422326,99.28,1
52763,0,52969,58408,52774.03,57591.27,194.97,816.73,-0.447769,-0.472131,0.422126,99.29,1
52799,0,53028,58505,52774.54,57593.10,253.46,911.90,-0.447779,-0.472163,0.421924,99.29,1
52840,0,53048,58517,52775.08,57594.95,272.92,922.05,-0.447789,-0.472195,0.421722,99.30,1
52879,0,53050,58530,52775.63,57596.82,274.37,933.18,-0.447799,-0.472227,0.421520,99.30,1
52919,0,53066,58580,52776.21,57598.79,289.79,981.21,-0.447810,-0.472261,0.421317,99.31,1
52961,0,53088,58641,52776.84,57600.87,311.16,1040.13,-0.447822,-0.472298,0.421114,99.31,1
53000,0,53102,58679,52777.49,57603.03,324.51,1075.97,-0.447835,-0.472335,0.420911,99.32,1
53042,0,53118,58694,52778.18,57605.21,339.82,1088.79,-0.447847,-0.472373,0.420707,99.32,1
53084,0,53126,58705,52778.87,57607.41,347.13,1097.59,-0.447861,-0.472411,0.420504,99.33,1
53122,0,53131,58721,52779.58,57609.64,351.42,1111.36,-0.447874,-0.472450,0.420301,99.33,1
53163,0,53137,58744,52780.29,57611.91,356.71,1132.09,-0.447888,-0.472489,0.420099,99.34,1
53200,0,53144,58766,52781.02,57614.22,362.98,1151.78,-0.447901,-0.472529,0.419897,99.34,1
53241,0,53155,58778,52781.77,57616.55,373.23,1161.45,-0.447916,-0.472570,0.419695,99.35,1
