t_ms,phase,red_raw,ir_raw,red_dc,ir_dc,red_ac,ir_ac,OD_red,OD_ir,R,spo2,spo2_valid
467,0,53521,57550,32839.07,35383.75,20681.93,22166.25,0,0,1.000281,84.99,1
477,0,53474,57451,33251.76,35825.09,20222.24,21625.91,0,0,1.000255,84.99,1
487,0,53436,57361,33655.45,36255.81,19780.55,21105.19,0,0,1.000222,84.99,1
497,0,53411,57295,34050.56,36676.59,19360.44,20618.41,0,0,1.000185,85,1
506,0,53385,57248,34437.25,37088.02,18947.75,20159.98,0,0,1.000145,85,1
518,0,53375,57206,34816,37490.38,18559,19715.62,0,0,1.000103,85,1
527,0,53364,57197,35186.96,37884.51,18177.04,19312.49,0,0,1.000062,85,1
537,0,53359,57198,35550.4,38270.78,17808.6,18927.22,0,0,1.000023,85,1
547,0,53358,57209,35906.55,38649.55,17451.45,18559.45,0,0,0.999987,85,1
557,0,53366,57214,36255.75,39020.84,17110.25,18193.16,0,0,0.999952,85,1
567,0,53370,57224,36598.03,39384.9,16771.97,17839.1,0,0,0.999918,85,1
577,0,53374,57239,36933.55,39741.98,16440.45,17497.02,0,0,0.999887,85,1
586,0,53376,57255,37262.4,40092.25,16113.6,17162.75,0,0,0.99986,85,1
598,0,53380,57257,37584.75,40435.54,15795.25,16821.46,0,0,0.999833,85,1
608,0,53388,57270,37900.82,40772.23,15487.18,16497.77,0,0,0.999807,85,1
617,0,53398,57279,38210.76,41102.36,15187.23,16176.64,0,0,0.999781,85.01,1
627,0,53401,57278,38514.57,41425.87,14886.43,15852.12,0,0,0.999756,85.01,1
637,0,53401,57304,38812.3,41743.44,14588.7,15560.56,0,0,0.999735,85.01,1
647,0,53406,57310,39104.17,42054.77,14301.82,15255.23,0,0,0.999715,85.01,1
657,0,53406,57327,39390.21,42360.21,14015.79,14966.79,0,0,0.999699,85.01,1
666,0,53412,57345,39670.65,42659.91,13741.35,14685.09,0,0,0.999685,85.01,1
676,0,53427,57360,39945.77,42953.91,13481.23,14406.09,0,0,0.99967,85.01,1
688,0,53433,57378,40215.52,43242.39,13217.48,14135.61,0,0,0.999659,85.01,1
697,0,53443,57396,40480.07,43525.46,12962.93,13870.54,0,0,0.999648,85.01,1
707,0,53449,57398,40739.45,43802.91,12709.55,13595.09,0,0,0.999637,85.01,1
717,0,53444,57415,40993.54,44075.16,12450.46,13339.84,0,0,0.999631,85.01,1
727,0,53451,57428,41242.69,44342.21,12208.31,13085.79,0,0,0.999625,85.01,1
737,0,53456,57426,41486.96,44603.89,11969.04,12822.11,0,0,0.999618,85.01,1
747,0,53457,57432,41726.36,44860.45,11730.64,12571.55,0,0,0.999612,85.01,1
756,0,53462,57440,41961.07,45112.04,11500.93,12327.96,0,0,0.999607,85.01,1
768,0,53461,57439,42191.07,45358.58,11269.93,12080.41,0,0,0.999602,85.01,1
777,0,53466,57444,42416.57,45600.29,11049.43,11843.71,0,0,0.999597,85.01,1
787,0,53471,57445,42637.66,45837.19,10833.34,11607.81,0,0,0.999591,85.01,1
797,0,53460,57441,42854.1,46069.26,10605.9,11371.73,0,0,0.999587,85.01,1
806,0,53462,57453,43066.26,46296.94,10395.74,11156.06,0,0,0.999585,85.01,1
817,0,53466,57450,43274.25,46520,10191.75,10930,0,0,0.999581,85.01,1
827,0,53468,57462,43478.13,46738.84,9989.87,10723.16,0,0,0.999579,85.01,1
836,0,53475,57464,43678.07,46953.35,9796.93,10510.65,0,0,0.999576,85.01,1
846,0,53476,57471,43874.03,47163.7,9601.97,10307.3,0,0,0.999575,85.01,1
858,0,53470,57493,44065.94,47370.29,9404.05,10122.71,0,0,0.999578,85.01,1
867,0,53477,57504,44254.17,47572.96,9222.83,9931.04,0,0,0.999582,85.01,1
877,0,53485,57514,44438.78,47771.78,9046.21,9742.21,0,0,0.999587,85.01,1
887,0,53494,57533,44619.89,47967.01,8874.11,9565.99,0,0,0.999593,85.01,1
897,0,53498,57548,44797.45,48158.63,8700.55,9389.37,0,0,0.9996,85.01,1
907,0,53508,57563,44971.66,48346.72,8536.34,9216.28,0,0,0.999609,85.01,1
917,0,53504,57575,45142.31,48531.29,8361.69,9043.71,0,0,0.999621,85.01,1
927,0,53517,57592,45309.8,48712.5,8207.2,8879.5,0,0,0.999632,85.01,1
936,0,53524,57619,45474.09,48890.63,8049.91,8728.37,0,0,0.999647,85.01,1
947,0,53530,57628,45635.21,49065.38,7894.79,8562.62,0,0,0.999663,85.01,1
957,0,53543,57646,45793.37,49236.99,7749.63,8409.01,0,0,0.999678,85.01,1
966,0,53546,57668,45948.42,49405.61,7597.58,8262.39,0,0,0.999698,85.01,1
976,0,53550,57682,46100.45,49571.14,7449.55,8110.86,0,0,0.999718,85.01,1
987,0,53560,57709,46249.64,49733.9,7310.36,7975.1,0,0,0.999742,85.01,1
996,0,53564,57725,46395.93,49893.73,7168.07,7831.27,0,0,0.999767,85.01,1
1006,0,53572,57734,46539.46,50050.53,7032.54,7683.47,0,0,0.999792,85.01,1
1017,0,53578,57748,46680.23,50204.48,6897.77,7543.52,0,0,0.999818,85,1
1028,0,53581,57745,46818.24,50355.29,6762.76,7389.71,0,0,0.999842,85,1
1037,0,53588,57739,46953.64,50502.97,6634.36,7236.03,0,0,0.999862,85,1
1047,0,53568,57686,47085.93,50646.63,6482.07,7039.37,0,0,0.999876,85,1
1057,0,53551,57615,47215.23,50786,6335.77,6829,0,0,0.99988,85,1
1067,0,53517,57514,47341.26,50920.56,6175.73,6593.44,0,0,0.999869,85,1
1077,0,53478,57395,47464,51050.05,6014,6344.95,0,0,0.999843,85,1
1087,0,53429,57273,47583.3,51174.51,5845.7,6098.49,0,0,0.999802,85,1
1096,0,53381,57173,47699.26,51294.48,5681.74,5878.52,0,0,0.99975,85.01,1
1106,0,53343,57086,47812.13,51410.31,5530.87,5675.69,0,0,0.999689,85.01,1
1117,0,53318,57025,47922.25,51522.6,5395.75,5502.39,0,0,0.999621,85.01,1
1126,0,53290,56986,48029.6,51631.87,5260.39,5354.12,0,0,0.999552,85.01,1
1136,0,53278,56959,48134.57,51738.42,5143.43,5220.58,0,0,0.999481,85.01,1
1147,0,53274,56946,48237.36,51842.57,5036.64,5103.43,0,0,0.999409,85.01,1
1156,0,53271,56950,48338.04,51944.72,4932.96,5005.28,0,0,0.99934,85.02,1
1167,0,53272,56950,48436.72,52044.82,4835.28,4905.18,0,0,0.999272,85.02,1
1177,0,53280,56959,48533.58,52143.11,4746.41,4815.89,0,0,0.999205,85.02,1
1186,0,53286,56975,48628.63,52239.75,4657.37,4735.25,0,0,0.999143,85.02,1
1197,0,53288,56981,48721.82,52334.58,4566.18,4646.42,0,0,0.999082,85.02,1
1207,0,53289,56986,48813.17,52427.6,4475.83,4558.39,0,0,0.999024,85.02,1
1216,0,53294,56989,48902.78,52518.83,4391.21,4470.16,0,0,0.998965,85.03,1
1226,0,53302,57001,48990.77,52608.48,4311.23,4392.52,0,0,0.998909,85.03,1
1236,0,53303,57007,49077.01,52696.45,4225.99,4310.55,0,0,0.998856,85.03,1
1248,0,53302,57010,49161.51,52782.72,4140.49,4227.28,0,0,0.998804,85.03,1
1256,0,53302,57027,49244.32,52867.61,4057.68,4159.39,0,0,0.998757,85.03,1
1267,0,53311,57030,49325.65,52950.86,3985.35,4079.14,0,0,0.998709,85.03,1
1277,0,53317,57038,49405.48,53032.6,3911.52,4005.39,0,0,0.998663,85.03,1
1287,0,53322,57071,49483.81,53113.37,3838.19,3957.62,0,0,0.998624,85.03,1
1297,0,53323,57070,49560.6,53192.51,3762.4,3877.49,0,0,0.998586,85.04,1
1307,0,53335,57089,49636.08,53270.44,3698.91,3818.56,0,0,0.99855,85.04,1
1316,0,53343,57103,49710.22,53347.09,3632.78,3755.91,0,0,0.998515,85.04,1
1327,0,53345,57108,49782.92,53422.31,3562.08,3685.69,0,0,0.998482,85.04,1
1337,0,53343,57119,49854.12,53496.25,3488.88,3622.75,0,0,0.998453,85.04,1
1346,0,53346,57135,49923.96,53569.02,3422.04,3565.98,0,0,0.998428,85.04,1
1356,0,53354,57126,49992.56,53640.16,3361.44,3485.84,0,0,0.998399,85.04,1
1368,0,53348,57132,50059.67,53710,3288.33,3422,0,0,0.998373,85.04,1
1376,0,53360,57137,50125.68,53778.54,3234.32,3358.46,0,0,0.998346,85.04,1
1387,0,53352,57135,50190.21,53845.67,3161.79,3289.33,0,0,0.998321,85.04,1
1397,0,53354,57144,50253.48,53911.63,3100.52,3232.37,0,0,0.998298,85.04,1
1406,0,53355,57149,50315.51,53976.38,3039.49,3172.62,0,0,0.998276,85.04,1
1417,0,53357,57140,50376.34,54039.66,2980.66,3100.34,0,0,0.998252,85.04,1
1427,0,53357,57150,50435.96,54101.86,2921.04,3048.14,0,0,0.998231,85.04,1
1436,0,53366,57162,50494.56,54163.07,2871.44,2998.93,0,0,0.998211,85.04,1
1446,0,53365,57155,50551.97,54222.91,2813.03,2932.09,0,0,0.99819,85.05,1
1457,0,53368,57174,50608.29,54281.93,2759.71,2892.07,0,0,0.998174,85.05,1
1466,0,53366,57179,50663.44,54339.87,2702.55,2839.13,0,0,0.998159,85.05,1
1476,0,53375,57173,50717.67,54396.53,2657.32,2776.46,0,0,0.998141,85.05,1
1486,0,53379,57193,50770.9,54452.46,2608.1,2740.54,0,0,0.998127,85.05,1
1496,0,53384,57209,50823.16,54507.6,2560.84,2701.4,0,0,0.998116,85.05,1
1507,0,53385,57216,50874.4,54561.76,2510.6,2654.23,0,0,0.998106,85.05,1
1517,0,53397,57236,50924.85,54615.25,2472.14,2620.75,0,0,0.998099,85.05,1
1526,0,53398,57250,50974.32,54667.94,2423.68,2582.05,0,0,0.998095,85.05,1
1537,0,53405,57257,51022.94,54719.73,2382.06,2537.27,0,0,0.998091,85.05,1
1547,0,53416,57289,51070.8,54771.11,2345.2,2517.89,0,0,0.998092,85.05,1
1556,0,53424,57306,51117.87,54821.81,2306.13,2484.19,0,0,0.998095,85.05,1
1566,0,53433,57314,51164.17,54871.66,2268.83,2442.34,0,0,0.998098,85.05,1
1576,0,53436,57340,51209.61,54921.03,2226.39,2418.97,0,0,0.998107,85.05,1
1586,0,53437,57358,51254.16,54969.77,2182.84,2388.23,0,0,0.99812,85.05,1
1596,0,53446,57364,51297.99,55017.66,2148.01,2346.34,0,0,0.998131,85.05,1
1607,0,53458,57386,51341.19,55065.02,2116.8,2320.98,0,0,0.998145,85.05,1
1615,0,53462,57408,51383.61,55111.88,2078.39,2296.12,0,0,0.998163,85.05,1
1627,0,53469,57418,51425.32,55158,2043.68,2260,0,0,0.998181,85.05,1
1637,0,53475,57438,51466.31,55203.6,2008.69,2234.39,0,0,0.998203,85.04,1
1646,0,53477,57459,51506.53,55248.71,1970.47,2210.29,0,0,0.998229,85.04,1
1656,0,53485,57482,51546.1,55293.38,1938.9,2188.62,0,0,0.998257,85.04,1
1667,0,53496,57495,51585.09,55337.41,1910.91,2157.59,0,0,0.998286,85.04,1
1676,0,53500,57487,51623.39,55380.41,1876.61,2106.59,0,0,0.998311,85.04,1
1686,0,53493,57464,51660.78,55422.08,1832.21,2041.92,0,0,0.998332,85.04,1
1696,0,53476,57391,51697.09,55461.46,1778.91,1929.54,0,0,0.998338,85.04,1
1707,0,53443,57308,51732.01,55498.39,1710.99,1809.61,0,0,0.998331,85.04,1
1716,0,53410,57181,51765.57,55532.05,1644.43,1648.95,0,0,0.998299,85.04,1
1727,0,53355,57051,51797.36,55562.42,1557.64,1488.57,0,0,0.998248,85.04,1
1737,0,53311,56942,51827.63,55590.02,1483.37,1351.98,0,0,0.99818,85.05,1
1746,0,53263,56845,51856.34,55615.12,1406.66,1229.88,0,0,0.998098,85.05,1
1757,0,53230,56766,51883.82,55638.14,1346.18,1127.86,0,0,0.998005,85.05,1
1767,0,53205,56713,51910.25,55659.64,1294.75,1053.36,0,0,0.997906,85.05,1
1776,0,53190,56681,51935.84,55680.07,1254.16,1000.93,0,0,0.997803,85.05,1
1786,0,53183,56667,51960.79,55699.8,1222.21,967.2,0,0,0.9977,85.06,1
1797,0,53175,56663,51985.07,55719.07,1189.93,943.93,0,0,0.9976,85.06,1
1806,0,53177,56666,52008.91,55738.01,1168.09,927.99,0,0,0.997502,85.06,1
1816,0,53184,56672,52032.42,55756.69,1151.58,915.3,0,0,0.997406,85.06,1
1826,0,53188,56683,52055.53,55775.22,1132.47,907.78,0,0,0.997313,85.07,1
1836,0,53198,56696,52078.38,55793.64,1119.62,902.36,0,0,0.997224,85.07,1
1846,0,53200,56720,52100.82,55812.17,1099.18,907.83,0,0,0.997142,85.07,1
1856,0,53207,56722,52122.94,55830.37,1084.06,891.63,0,0,0.997061,85.07,1
1866,0,53215,56739,52144.78,55848.54,1070.21,890.46,0,0,0.996984,85.08,1
1875,0,53224,56752,52166.37,55866.61,1057.63,885.39,0,0,0.99691,85.08,1
1886,0,53222,56762,52187.48,55884.52,1034.52,877.48,0,0,0.99684,85.08,1
1896,0,53227,56766,52208.27,55902.15,1018.73,863.85,0,0,0.996772,85.08,1
1907,0,53240,56777,52228.91,55919.65,1011.09,857.35,0,0,0.996704,85.08,1
1915,0,53246,56799,52249.25,55937.24,996.75,861.76,0,0,0.996643,85.08,1
1926,0,53250,56812,52269.26,55954.73,980.73,857.27,0,0,0.996585,85.09,1
1937,0,53262,56836,52289.12,55972.36,972.88,863.64,0,0,0.996532,85.09,1
1945,0,53265,56854,52308.64,55989.99,956.36,864.01,0,0,0.996484,85.09,1
1955,0,53284,56890,52328.15,56008,955.85,882,0,0,0.996442,85.09,1
1966,0,53285,56909,52347.28,56026.01,937.71,882.98,0,0,0.996406,85.09,1
1977,0,53291,56922,52366.16,56043.94,924.84,878.06,0,0,0.996373,85.09,1
1987,0,53292,56938,52384.68,56061.82,907.32,876.18,0,0,0.996345,85.09,1
1995,0,53304,56951,52403.07,56079.6,900.93,871.39,0,0,0.996317,85.09,1
2006,0,53306,56959,52421.13,56097.19,884.87,861.8,0,0,0.996292,85.09,1
2017,0,53314,56973,52438.99,56114.71,875.01,858.29,0,0,0.996269,85.09,1
2027,0,53323,56985,52456.67,56132.12,866.33,852.88,0,0,0.996247,85.09,1
2035,0,53317,56993,52473.88,56149.34,843.12,843.66,0,0,0.99623,85.09,1
2046,0,53322,56994,52490.84,56166.23,831.16,827.77,0,0,0.996211,85.09,1
2057,0,53326,57006,52507.55,56183.03,818.45,822.97,0,0,0.996196,85.1,1
2065,0,53335,57013,52524.1,56199.63,810.9,813.37,0,0,0.99618,85.1,1
2076,0,53336,57022,52540.33,56216.08,795.66,805.92,0,0,0.996166,85.1,1
2086,0,53336,57030,52556.25,56232.36,779.75,797.64,0,0,0.996156,85.1,1
2097,0,53344,57042,52572,56248.56,772,793.44,0,0,0.996146,85.1,1
2106,0,53351,57057,52587.58,56264.73,763.41,792.27,0,0,0.996139,85.1,1
2116,0,53359,57066,52603.01,56280.76,755.98,785.24,0,0,0.996132,85.1,1
2126,0,53363,57082,52618.22,56296.78,744.78,785.21,0,0,0.996129,85.1,1
2137,0,53367,57101,52633.19,56312.87,733.8,788.13,0,0,0.99613,85.1,1
2146,0,53369,57113,52647.91,56328.87,721.09,784.13,0,0,0.996134,85.1,1
2156,0,53381,57137,52662.57,56345.03,718.43,791.96,0,0,0.996141,85.1,1
2166,0,53390,57137,52677.12,56360.87,712.88,776.13,0,0,0.996145,85.1,1
2177,0,53399,57177,52691.56,56377.2,707.44,799.8,0,0,0.996158,85.1,1
2186,0,53400,57190,52705.73,56393.46,694.27,796.54,0,0,0.996174,85.1,1
2196,0,53407,57211,52719.76,56409.81,687.24,801.19,0,0,0.996194,85.1,1
2206,0,53414,57222,52733.64,56426.05,680.36,795.95,0,0,0.996214,85.09,1
2216,0,53429,57248,52747.55,56442.5,681.45,805.5,0,0,0.996237,85.09,1
2226,0,53440,57267,52761.4,56458.99,678.6,808.01,0,0,0.996261,85.09,1
2236,0,53435,57293,52774.87,56475.67,660.13,817.33,0,0,0.996293,85.09,1
2246,0,53444,57303,52788.26,56492.21,655.74,810.79,0,0,0.996326,85.09,1
2256,0,53453,57325,52801.55,56508.87,651.45,816.13,0,0,0.99636,85.09,1
2266,0,53466,57342,52814.84,56525.53,651.16,816.46,0,0,0.996395,85.09,1
2276,0,53478,57369,52828.1,56542.41,649.9,826.59,0,0,0.996433,85.09,1
2286,0,53483,57380,52841.2,56559.16,641.8,820.84,0,0,0.996472,85.09,1
2296,0,53488,57403,52854.14,56576.03,633.86,826.96,0,0,0.996515,85.09,1
2306,0,53494,57419,52866.93,56592.89,627.07,826.11,0,0,0.99656,85.09,1
2316,0,53510,57444,52879.8,56609.92,630.2,834.08,0,0,0.996606,85.08,1
2326,0,53518,57458,52892.56,56626.88,625.44,831.12,0,0,0.996652,85.08,1
2336,0,53519,57478,52905.09,56643.9,613.91,834.1,0,0,0.996703,85.08,1
2345,0,53525,57486,52917.49,56660.74,607.51,825.26,0,0,0.996753,85.08,1
2356,0,53525,57477,52929.64,56677.07,595.36,799.93,0,0,0.9968,85.08,1
2366,0,53518,57430,52941.41,56692.13,576.59,737.87,0,0,0.996835,85.08,1
2376,0,53497,57361,52952.52,56705.51,544.48,655.49,0,0,0.996857,85.08,1
2385,0,53467,57266,52962.81,56716.72,504.19,549.28,0,0,0.99686,85.08,1
2396,0,53414,57147,52971.83,56725.33,442.16,421.67,0,0,0.996844,85.08,1
2406,0,53374,57027,52979.88,56731.36,394.12,295.64,0,0,0.996803,85.08,1
2416,0,53330,56915,52986.88,56735.04,343.12,179.96,0,0,0.996741,85.08,1
2425,0,53294,56830,52993.02,56736.94,300.98,93.06,0,0,0.996665,85.08,1
2436,0,53258,56771,52998.32,56737.62,259.68,33.38,0,0,0.996581,85.09,1
2446,0,53236,56733,53003.08,56737.53,232.92,-4.54,0,0,0.996493,85.09,1
2456,0,53232,56718,53007.66,56737.14,224.34,-19.14,0,0,0.996404,85.09,1
2466,0,53232,56716,53012.14,56736.72,219.86,-20.72,0,0,0.996315,85.09,1
2476,0,53231,56739,53016.52,56736.77,214.48,2.23,0,0,0.996236,85.09,1
2486,0,53250,56746,53021.19,56736.95,228.8,9.05,0,0,0.996156,85.1,1
2496,0,53250,56768,53025.77,56737.57,224.23,30.43,0,0,0.996084,85.1,1
2506,0,53263,56778,53030.52,56738.38,232.48,39.62,0,0,0.996012,85.1,1
2516,0,53275,56799,53035.41,56739.6,239.59,59.4,0,0,0.995945,85.1,1
2527,0,53283,56829,53040.36,56741.39,242.64,87.61,0,0,0.995887,85.1,1
2535,0,53291,56841,53045.38,56743.38,245.62,97.62,0,0,0.995832,85.1,1
2545,0,53294,56865,53050.35,56745.81,243.65,119.19,0,0,0.995784,85.11,1
2555,0,53308,56871,53055.5,56748.32,252.5,122.68,0,0,0.995735,85.11,1
2567,0,53315,56890,53060.69,56751.16,254.3,138.84,0,0,0.995691,85.11,1
2575,0,53319,56908,53065.86,56754.29,253.14,153.71,0,0,0.995652,85.11,1
2586,0,53321,56926,53070.96,56757.73,250.04,168.27,0,0,0.995619,85.11,1
2596,0,53335,56939,53076.24,56761.35,258.76,177.64,0,0,0.995587,85.11,1
2607,0,53339,56971,53081.5,56765.55,257.5,205.45,0,0,0.995564,85.11,1
2616,0,53351,57000,53086.89,56770.24,264.11,229.76,0,0,0.995547,85.11,1
2626,0,53354,57017,53092.23,56775.17,261.77,241.82,0,0,0.995535,85.11,1
2636,0,53366,57041,53097.71,56780.49,268.29,260.51,0,0,0.995526,85.11,1
2647,0,53373,57062,53103.21,56786.12,269.79,275.88,0,0,0.995522,85.11,1
2656,0,53389,57082,53108.93,56792.04,280.07,289.96,0,0,0.995519,85.11,1
2666,0,53396,57091,53114.68,56798.02,281.32,292.98,0,0,0.995517,85.11,1
2676,0,53405,57111,53120.49,56804.28,284.51,306.72,0,0,0.995518,85.11,1
2685,0,53404,57113,53126.16,56810.45,277.84,302.55,0,0,0.995519,85.11,1
2696,0,53403,57133,53131.69,56816.91,271.31,316.09,0,0,0.995528,85.11,1
2706,0,53407,57127,53137.2,56823.11,269.8,303.89,0,0,0.995533,85.11,1
2716,0,53413,57144,53142.72,56829.53,270.28,314.47,0,0,0.995541,85.11,1
2725,0,53408,57148,53148.03,56835.9,259.97,312.1,0,0,0.995551,85.11,1
2736,0,53416,57162,53153.39,56842.42,262.61,319.58,0,0,0.995563,85.11,1
2746,0,53417,57157,53158.66,56848.71,258.34,308.29,0,0,0.995573,85.11,1
2756,0,53420,57164,53163.89,56855.02,256.11,308.98,0,0,0.995585,85.11,1
2765,0,53427,57168,53169.15,56861.28,257.85,306.72,0,0,0.995594,85.11,1
2776,0,53423,57181,53174.23,56867.68,248.77,313.32,0,0,0.99561,85.11,1
2786,0,53432,57189,53179.38,56874.11,252.62,314.89,0,0,0.995624,85.11,1
2796,0,53436,57215,53184.51,56880.93,251.48,334.07,0,0,0.995644,85.11,1
2805,0,53444,57231,53189.71,56887.93,254.29,343.07,0,0,0.995666,85.11,1
2816,0,53458,57252,53195.07,56895.21,262.93,356.79,0,0,0.995689,85.11,1
2826,0,53460,57261,53200.37,56902.53,259.63,358.47,0,0,0.995714,85.11,1
2836,0,53460,57290,53205.56,56910.28,254.44,379.72,0,0,0.995747,85.11,1
2845,0,53471,57311,53210.87,56918.3,260.13,392.7,0,0,0.995781,85.11,1
2855,0,53482,57331,53216.3,56926.55,265.7,404.45,0,0,0.995817,85.1,1
2866,0,53492,57353,53221.82,56935.08,270.18,417.92,0,0,0.995856,85.1,1
2876,0,53498,57365,53227.34,56943.68,270.66,421.32,0,0,0.995895,85.1,1
2885,0,53507,57386,53232.94,56952.53,274.06,433.47,0,0,0.995937,85.1,1
2895,0,53512,57401,53238.52,56961.5,273.48,439.5,0,0,0.99598,85.1,1
2906,0,53513,57406,53244.01,56970.39,268.99,435.61,0,0,0.996023,85.1,1
2916,0,53521,57425,53249.55,56979.48,271.45,445.52,0,0,0.996069,85.1,1
2925,0,53531,57439,53255.19,56988.67,275.81,450.32,0,0,0.996114,85.1,1
2935,0,53536,57440,53260.8,56997.7,275.2,442.3,0,0,0.996157,85.1,1
2946,0,53537,57443,53266.33,57006.61,270.67,436.39,0,0,0.9962,85.1,1
2956,0,53540,57453,53271.8,57015.53,268.2,437.46,0,0,0.996243,85.09,1
2965,0,53541,57457,53277.19,57024.37,263.81,432.63,0,0,0.996287,85.09,1
2975,0,53542,57458,53282.49,57033.04,259.51,424.96,0,0,0.99633,85.09,1
2985,0,53544,57466,53287.72,57041.7,256.28,424.3,0,0,0.996374,85.09,1
2996,0,53549,57470,53292.94,57050.27,256.05,419.73,0,0,0.996416,85.09,1
3005,0,53558,57481,53298.25,57058.89,259.75,422.11,0,0,0.996458,85.09,1
3015,0,53554,57500,53303.36,57067.71,250.64,432.29,0,0,0.996505,85.09,1
3025,0,53553,57482,53308.35,57076,244.65,406,0,0,0.996547,85.09,1
3036,0,53556,57462,53313.31,57083.72,242.69,378.28,0,0,0.996582,85.09,1
3045,0,53531,57395,53317.66,57089.94,213.34,305.05,0,0,0.996605,85.08,1
3055,0,53504,57308,53321.39,57094.31,182.61,213.69,0,0,0.996611,85.08,1
3065,0,53465,57188,53324.26,57096.18,140.73,91.82,0,0,0.996592,85.09,1
3076,0,53411,57071,53326,57095.68,85,-24.68,0,0,0.996551,85.09,1
3086,0,53365,56960,53326.78,57092.96,38.22,-132.96,0,0,0.996488,85.09,1
3095,0,53316,56863,53326.57,57088.37,-10.57,-225.37,0,0,0.996406,85.09,1
3105,0,53288,56797,53325.8,57082.54,-37.8,-285.54,0,0,0.99631,85.09,1
3116,0,53258,56753,53324.44,57075.95,-66.44,-322.95,0,0,0.99621,85.09,1
3126,0,53243,56731,53322.81,57069.05,-79.81,-338.05,0,0,0.996109,85.1,1
3136,0,53240,56723,53321.16,57062.14,-81.16,-339.14,0,0,0.996007,85.1,1
3145,0,53241,56742,53319.55,57055.73,-78.55,-313.73,0,0,0.995915,85.1,1
3155,0,53252,56777,53318.2,57050.16,-66.2,-273.16,0,0,0.995835,85.1,1
3166,0,53260,56807,53317.04,57045.3,-57.04,-238.3,0,0,0.995766,85.11,1
3176,0,53272,56842,53316.14,57041.23,-44.14,-199.23,0,0,0.995708,85.11,1
3186,0,53284,56886,53315.5,57038.12,-31.5,-152.13,0,0,0.995663,85.11,1
3195,0,53293,56926,53315.05,57035.88,-22.05,-109.88,0,0,0.995631,85.11,1
3206,0,53318,56964,53315.11,57034.45,2.89,-70.45,0,0,0.995604,85.11,1
3216,0,53327,56985,53315.35,57033.46,11.65,-48.46,0,0,0.995582,85.11,1
3226,0,53344,57018,53315.92,57033.15,28.08,-15.15,0,0,0.995566,85.11,1
3236,0,53351,57053,53316.62,57033.55,34.38,19.45,0,0,0.99556,85.11,1
3245,0,53361,57075,53317.51,57034.38,43.49,40.62,0,0,0.995558,85.11,1
3255,0,53370,57094,53318.56,57035.57,51.44,58.43,0,0,0.995559,85.11,1
3265,0,53375,57130,53319.69,57037.46,55.31,92.54,0,0,0.99557,85.11,1
3275,0,53378,57147,53320.85,57039.65,57.14,107.35,0,0,0.995586,85.11,1
3286,0,53389,57170,53322.22,57042.26,66.78,127.74,0,0,0.995605,85.11,1
3296,0,53397,57191,53323.72,57045.23,73.28,145.77,0,0,0.995627,85.11,1
3305,0,53406,57213,53325.37,57048.59,80.63,164.41,0,0,0.995652,85.11,1
3315,0,53410,57236,53327.06,57052.34,82.94,183.66,0,0,0.995682,85.11,1
3325,0,53423,57253,53328.98,57056.35,94.02,196.65,0,0,0.995713,85.11,1
3336,0,53425,57263,53330.9,57060.49,94.1,202.51,0,0,0.995745,85.11,1
3346,0,53434,57286,53332.96,57065,101.04,221,0,0,0.99578,85.11,1
3355,0,53439,57296,53335.08,57069.62,103.91,226.38,0,0,0.995816,85.1,1
3365,0,53436,57316,53337.1,57074.55,98.89,241.45,0,0,0.995858,85.1,1
3376,0,53446,57325,53339.28,57079.56,106.72,245.44,0,0,0.995898,85.1,1
3386,0,53446,57339,53341.41,57084.75,104.59,254.25,0,0,0.995941,85.1,1
3395,0,53460,57350,53343.78,57090.05,116.21,259.95,0,0,0.995982,85.1,1
3405,0,53466,57358,53346.23,57095.41,119.77,262.59,0,0,0.996023,85.1,1
3416,0,53477,57373,53348.85,57100.97,128.15,272.03,0,0,0.996063,85.1,1
3426,0,53479,57379,53351.45,57106.53,127.55,272.47,0,0,0.996103,85.1,1
3435,0,53482,57386,53354.06,57112.12,127.94,273.88,0,0,0.996143,85.1,1
3445,0,53495,57405,53356.88,57117.98,138.12,287.02,0,0,0.996184,85.1,1
3456,0,53499,57410,53359.72,57123.82,139.28,286.18,0,0,0.996224,85.09,1
3466,0,53505,57446,53362.63,57130.26,142.37,315.74,0,0,0.99627,85.09,1
3475,0,53508,57456,53365.54,57136.77,142.46,319.23,0,0,0.996317,85.09,1
3485,0,53512,57487,53368.47,57143.78,143.53,343.22,0,0,0.99637,85.09,1
3495,0,53532,57499,53371.74,57150.88,160.26,348.12,0,0,0.996419,85.09,1
3506,0,53540,57526,53375.11,57158.39,164.89,367.61,0,0,0.99647,85.09,1
3515,0,53548,57562,53378.57,57166.46,169.43,395.54,0,0,0.996526,85.09,1
3525,0,53547,57596,53381.94,57175.05,165.06,420.95,0,0,0.99659,85.09,1
3535,0,53555,57623,53385.41,57184.01,169.59,438.99,0,0,0.996655,85.08,1
3546,0,53579,57661,53389.28,57193.55,189.72,467.45,0,0,0.99672,85.08,1
3555,0,53591,57710,53393.31,57203.87,197.69,506.13,0,0,0.996789,85.08,1
3565,0,53611,57759,53397.67,57214.98,213.33,544.02,0,0,0.996861,85.08,1
3575,0,53616,57793,53402.03,57226.54,213.96,566.46,0,0,0.996935,85.08,1
3586,0,53631,57834,53406.62,57238.69,224.38,595.31,0,0,0.99701,85.07,1
3596,0,53653,57870,53411.54,57251.31,241.46,618.69,0,0,0.997084,85.07,1
3605,0,53666,57909,53416.63,57264.47,249.37,644.53,0,0,0.997158,85.07,1
3615,0,53678,57955,53421.86,57278.28,256.14,676.72,0,0,0.997233,85.07,1
3625,0,53695,57998,53427.32,57292.67,267.68,705.32,0,0,0.997307,85.07,1
3636,0,53727,58042,53433.31,57307.66,293.69,734.34,0,0,0.997377,85.07,1
3645,0,53750,58086,53439.65,57323.23,310.35,762.77,0,0,0.997444,85.06,1
3655,0,53772,58100,53446.3,57338.76,325.7,761.23,0,0,0.997506,85.06,1
3665,0,53789,58113,53453.15,57354.25,335.85,758.75,0,0,0.997565,85.06,1
3676,0,53787,58090,53459.83,57368.97,327.17,721.03,0,0,0.997622,85.06,1
3685,0,53770,58027,53466.03,57382.13,303.97,644.87,0,0,0.997677,85.06,1
3695,0,53750,57930,53471.71,57393.09,278.29,536.91,0,0,0.997723,85.06,1
3705,0,53714,57818,53476.56,57401.59,237.44,416.41,0,0,0.99776,85.06,1
3715,0,53675,57710,53480.53,57407.76,194.47,302.24,0,0,0.997784,85.06,1
3725,0,53624,57599,53483.4,57411.59,140.6,187.41,0,0,0.997794,85.06,1
3735,0,53576,57502,53485.25,57413.4,90.75,88.6,0,0,0.997791,85.06,1
3745,0,53547,57431,53486.49,57413.75,60.51,17.25,0,0,0.997775,85.06,1
3756,0,53514,57398,53487.04,57413.44,26.96,-15.44,0,0,0.99776,85.06,1
3765,0,53493,57380,53487.16,57412.77,5.84,-32.77,0,0,0.997746,85.06,1
3775,0,53474,57378,53486.9,57412.08,-12.9,-34.08,0,0,0.997738,85.06,1
3785,0,53470,57393,53486.56,57411.69,-16.56,-18.7,0,0,0.997738,85.06,1
3795,0,53474,57406,53486.31,57411.58,-12.31,-5.58,0,0,0.997741,85.06,1
3806,0,53479,57426,53486.16,57411.87,-7.16,14.13,0,0,0.997748,85.06,1
3816,0,53477,57460,53485.98,57412.83,-8.98,47.16,0,0,0.997768,85.06,1
3824,0,53492,57487,53486.1,57414.32,5.9,72.68,0,0,0.99779,85.06,1
3834,0,53500,57494,53486.37,57415.91,13.63,78.09,0,0,0.997812,85.05,1
3845,0,53513,57515,53486.91,57417.9,26.09,97.1,0,0,0.997834,85.05,1
3855,0,53523,57520,53487.63,57419.94,35.37,100.06,0,0,0.997854,85.05,1
3865,0,53515,57514,53488.18,57421.82,26.82,92.18,0,0,0.997875,85.05,1
3875,0,53514,57515,53488.7,57423.69,25.3,91.31,0,0,0.997896,85.05,1
3886,0,53509,57504,53489.11,57425.3,19.89,78.7,0,0,0.997915,85.05,1
3895,0,53504,57494,53489.41,57426.67,14.59,67.33,0,0,0.997933,85.05,1
3905,0,53505,57496,53489.72,57428.06,15.28,67.94,0,0,0.99795,85.05,1
3915,0,53499,57499,53489.91,57429.48,9.09,69.52,0,0,0.99797,85.05,1
3926,0,53488,57490,53489.87,57430.69,-1.88,59.3,0,0,0.997991,85.05,1
3935,0,53485,57480,53489.78,57431.68,-4.78,48.32,0,0,0.998009,85.05,1
3945,0,53484,57487,53489.66,57432.79,-5.66,54.21,0,0,0.99803,85.05,1
3954,0,53485,57502,53489.57,57434.17,-4.57,67.83,0,0,0.998054,85.05,1
3964,0,53485,57513,53489.48,57435.75,-4.48,77.25,0,0,0.998082,85.05,1
3975,0,53474,57530,53489.17,57437.64,-15.17,92.36,0,0,0.998118,85.05,1
3985,0,53479,57541,53488.97,57439.71,-9.97,101.29,0,0,0.998155,85.05,1
3995,0,53482,57548,53488.83,57441.87,-6.83,106.12,0,0,0.998193,85.05,1
4005,0,53494,57574,53488.93,57444.52,5.07,129.48,0,0,0.998232,85.04,1
4016,0,53493,57607,53489.01,57447.77,3.98,159.23,0,0,0.998281,85.04,1
4025,0,53501,57629,53489.26,57451.39,11.74,177.61,0,0,0.998331,85.04,1
4035,0,53503,57650,53489.53,57455.37,13.47,194.63,0,0,0.998385,85.04,1
4045,0,53517,57661,53490.08,57459.48,26.92,201.52,0,0,0.998435,85.04,1
4056,0,53519,57669,53490.66,57463.67,28.34,205.33,0,0,0.998486,85.04,1
4066,0,53519,57698,53491.23,57468.36,27.77,229.64,0,0,0.998542,85.04,1
4074,0,53519,57714,53491.78,57473.27,27.22,240.73,0,0,0.998601,85.03,1
4084,0,53528,57715,53492.5,57478.11,35.5,236.89,0,0,0.998656,85.03,1
4094,0,53531,57719,53493.28,57482.92,37.72,236.07,0,0,0.99871,85.03,1
4105,0,53528,57728,53493.97,57487.83,34.03,240.17,0,0,0.998766,85.03,1
4115,0,53537,57747,53494.83,57493.01,42.17,253.98,0,0,0.998822,85.03,1
4124,0,53539,57756,53495.72,57498.28,43.28,257.72,0,0,0.998878,85.03,1
4134,0,53536,57768,53496.52,57503.67,39.48,264.33,0,0,0.998936,85.03,1
4145,0,53544,57775,53497.47,57509.1,46.53,265.9,0,0,0.998992,85.03,1
4155,0,53544,57792,53498.4,57514.76,45.6,277.24,0,0,0.99905,85.02,1
4165,0,53554,57815,53499.51,57520.76,54.49,294.23,0,0,0.999108,85.02,1
4174,0,53555,57837,53500.62,57527.09,54.38,309.91,0,0,0.999169,85.02,1
4185,0,53565,57850,53501.91,57533.55,63.09,316.45,0,0,0.999227,85.02,1
4195,0,53565,57849,53503.17,57539.86,61.82,309.14,0,0,0.999284,85.02,1
4205,0,53577,57872,53504.65,57546.51,72.35,325.49,0,0,0.99934,85.02,1
4215,0,53574,57888,53506.04,57553.34,67.96,334.66,0,0,0.999398,85.02,1
4225,0,53579,57907,53507.5,57560.41,71.5,346.59,0,0,0.999457,85.01,1
4235,0,53579,57912,53508.92,57567.44,70.07,344.55,0,0,0.999515,85.01,1
4245,0,53595,57916,53510.65,57574.42,84.35,341.58,0,0,0.999568,85.01,1
4255,0,53595,57936,53512.33,57581.65,82.66,354.35,0,0,0.999622,85.01,1
4265,0,53602,57955,53514.13,57589.12,87.87,365.88,0,0,0.999676,85.01,1
4275,0,53601,57952,53515.87,57596.37,85.13,355.63,0,0,0.999729,85.01,1
4285,0,53597,57927,53517.49,57602.99,79.51,324.01,0,0,0.999779,85.01,1
4295,0,53584,57855,53518.82,57608.03,65.18,246.97,0,0,0.999822,85,1
4305,0,53554,57763,53519.53,57611.13,34.47,151.87,0,0,0.999855,85,1
4316,0,53509,57639,53519.32,57611.69,-10.32,27.31,0,0,0.999869,85,1
4324,0,53448,57504,53517.89,57609.53,-69.89,-105.54,0,0,0.999856,85,1
4334,0,53394,57366,53515.41,57604.66,-121.41,-238.66,0,0,0.999803,85,1
4345,0,53345,57245,53512,57597.47,-167,-352.47,0,0,0.999708,85.01,1
4356,0,53303,57166,53507.82,57588.84,-204.82,-422.84,0,0,0.999588,85.01,1
4364,0,53269,57093,53503.05,57578.92,-234.05,-485.92,0,0,0.99944,85.01,1
4375,0,53235,57052,53497.69,57568.38,-262.69,-516.38,0,0,0.999287,85.02,1
4385,0,53222,57013,53492.17,57557.28,-270.18,-544.28,0,0,0.999116,85.02,1
4396,0,53219,56984,53486.71,57545.81,-267.71,-561.81,0,0,0.998929,85.03,1
4405,0,53214,56993,53481.26,57534.76,-267.26,-541.76,0,0,0.998757,85.03,1
4415,0,53214,57005,53475.91,57524.16,-261.91,-519.16,0,0,0.998598,85.04,1
4425,0,53212,57009,53470.64,57513.86,-258.64,-504.86,0,0,0.998447,85.04,1
4435,0,53220,57031,53465.62,57504.21,-245.63,-473.21,0,0,0.998312,85.04,1
4445,0,53238,57051,53461.07,57495.14,-223.07,-444.14,0,0,0.998183,85.05,1
4455,0,53236,57078,53456.57,57486.8,-220.57,-408.8,0,0,0.998077,85.05,1
4465,0,53248,57087,53452.41,57478.8,-204.41,-391.8,0,0,0.997972,85.05,1
4475,0,53241,57115,53448.18,57471.53,-207.18,-356.53,0,0,0.997893,85.05,1
4485,0,53258,57132,53444.38,57464.74,-186.38,-332.74,0,0,0.997816,85.05,1
4495,0,53266,57164,53440.81,57458.73,-174.81,-294.73,0,0,0.997756,85.06,1
4505,0,53275,57180,53437.5,57453.16,-162.5,-273.16,0,0,0.997703,85.06,1
4515,0,53278,57203,53434.3,57448.16,-156.3,-245.16,0,0,0.997661,85.06,1
4525,0,53282,57230,53431.26,57443.8,-149.26,-213.8,0,0,0.997634,85.06,1
4535,0,53297,57252,53428.58,57439.96,-131.58,-187.96,0,0,0.997611,85.06,1
4545,0,53316,57271,53426.33,57436.58,-110.33,-165.59,0,0,0.997588,85.06,1
4555,0,53313,57299,53424.06,57433.83,-111.06,-134.84,0,0,0.997581,85.06,1
4564,0,53325,57323,53422.08,57431.62,-97.08,-108.62,0,0,0.997579,85.06,1
4575,0,53325,57328,53420.14,57429.55,-95.14,-101.55,0,0,0.997579,85.06,1
4585,0,53334,57334,53418.42,57427.64,-84.42,-93.64,0,0,0.997578,85.06,1
4595,0,53333,57348,53416.71,57426.05,-83.71,-78.05,0,0,0.997583,85.06,1
4604,0,53336,57356,53415.1,57424.65,-79.1,-68.65,0,0,0.99759,85.06,1
4615,0,53331,57370,53413.42,57423.55,-82.42,-53.55,0,0,0.997605,85.06,1
4625,0,53333,57375,53411.81,57422.58,-78.81,-47.59,0,0,0.997621,85.06,1
4635,0,53336,57369,53410.3,57421.51,-74.3,-52.52,0,0,0.997632,85.06,1
4645,0,53337,57369,53408.83,57420.46,-71.83,-51.46,0,0,0.997643,85.06,1
4656,0,53337,57384,53407.39,57419.74,-70.39,-35.74,0,0,0.997659,85.06,1
4664,0,53339,57389,53406.03,57419.12,-67.03,-30.12,0,0,0.997676,85.06,1
4674,0,53336,57404,53404.62,57418.82,-68.62,-14.82,0,0,0.9977,85.06,1
4684,0,53346,57423,53403.45,57418.91,-57.45,4.09,0,0,0.997725,85.06,1
4695,0,53365,57450,53402.69,57419.53,-37.69,30.47,0,0,0.997751,85.06,1
4705,0,53377,57484,53402.17,57420.82,-25.18,63.18,0,0,0.997781,85.06,1
4715,0,53387,57500,53401.87,57422.4,-14.87,77.6,0,0,0.997811,85.05,1
4724,0,53389,57497,53401.62,57423.9,-12.62,73.1,0,0,0.997839,85.05,1
4734,0,53392,57504,53401.42,57425.5,-9.43,78.5,0,0,0.997867,85.05,1
4745,0,53400,57516,53401.4,57427.31,-1.4,88.69,0,0,0.997895,85.05,1
4755,0,53396,57518,53401.29,57429.12,-5.29,88.87,0,0,0.997924,85.05,1
4765,0,53393,57527,53401.12,57431.08,-8.13,95.92,0,0,0.997956,85.05,1
4775,0,53395,57543,53401,57433.32,-6,109.68,0,0,0.997991,85.05,1
4784,0,53415,57569,53401.28,57436.03,13.71,132.96,0,0,0.998023,85.05,1
4794,0,53421,57596,53401.68,57439.23,19.32,156.77,0,0,0.998057,85.05,1
4804,0,53425,57626,53402.15,57442.97,22.85,183.03,0,0,0.998094,85.05,1
4814,0,53425,57637,53402.6,57446.85,22.39,190.15,0,0,0.998132,85.05,1
4825,0,53428,57657,53403.11,57451.05,24.89,205.95,0,0,0.998171,85.05,1
4835,0,53442,57667,53403.89,57455.37,38.11,211.63,0,0,0.998205,85.04,1
4844,0,53445,57685,53404.71,57459.96,40.29,225.04,0,0,0.99824,85.04,1
4854,0,53449,57704,53405.6,57464.84,43.4,239.16,0,0,0.998275,85.04,1
4865,0,53446,57716,53406.41,57469.87,39.59,246.13,0,0,0.998311,85.04,1
4875,0,53456,57743,53407.4,57475.33,48.6,267.67,0,0,0.998344,85.04,1
4884,0,53467,57759,53408.59,57481.01,58.41,277.99,0,0,0.998374,85.04,1
4894,0,53468,57771,53409.78,57486.81,58.22,284.19,0,0,0.998404,85.04,1
4904,0,53469,57774,53410.96,57492.56,58.04,281.44,0,0,0.998433,85.04,1
4915,0,53456,57750,53411.86,57497.71,44.14,252.29,0,0,0.998466,85.04,1
4925,0,53443,57688,53412.49,57501.51,30.51,186.48,0,0,0.998498,85.04,1
4934,0,53426,57600,53412.76,57503.49,13.24,96.51,0,0,0.998521,85.04,1
4944,0,53380,57490,53412.1,57503.22,-32.11,-13.22,0,0,0.99853,85.04,1
4955,0,53332,57367,53410.5,57500.5,-78.5,-133.5,0,0,0.998505,85.04,1
4965,0,53287,57238,53408.03,57495.25,-121.03,-257.25,0,0,0.998427,85.04,1
4975,0,53239,57134,53404.65,57488.03,-165.65,-354.03,0,0,0.9983,85.04,1
4984,0,53208,57053,53400.72,57479.33,-192.72,-426.33,0,0,0.998126,85.05,1
4995,0,53189,57008,53396.49,57469.9,-207.49,-461.9,0,0,0.997927,85.05,1
5005,0,53174,56977,53392.04,57460.04,-218.04,-483.04,0,0,0.997712,85.06,1
5015,0,53170,56973,53387.6,57450.3,-217.6,-477.3,0.000083,0.000169,0.997503,85.06,1
5024,0,53176,56978,53383.37,57440.86,-207.37,-462.86,0.000162,0.000334,0.997299,85.07,1
5036,0,53176,56985,53379.22,57431.74,-203.22,-446.74,0.00024,0.000493,0.997108,85.07,1
5045,0,53189,57002,53375.42,57423.15,-186.42,-421.15,0.000311,0.000642,0.996928,85.08,1
5056,0,53198,57039,53371.87,57415.47,-173.87,-376.47,0.000378,0.000776,0.996782,85.08,1
5065,0,53203,57060,53368.49,57408.36,-165.49,-348.36,0.000441,0.0009,0.996655,85.08,1
5074,0,53213,57094,53365.39,57402.07,-152.39,-308.07,0.000499,0.001009,0.996552,85.09,1
5085,0,53233,57116,53362.74,57396.35,-129.74,-280.35,0.000549,0.001109,0.996457,85.09,1
5095,0,53248,57149,53360.44,57391.41,-112.45,-242.41,0.000592,0.001195,0.99638,85.09,1
5105,0,53257,57181,53358.38,57387.2,-101.38,-206.2,0.000631,0.001269,0.996321,85.09,1
5114,0,53264,57199,53356.49,57383.44,-92.49,-184.44,0.000666,0.001334,0.996272,85.09,1
5126,0,53273,57235,53354.82,57380.47,-81.82,-145.47,0.000697,0.001386,0.996241,85.09,1
5135,0,53283,57241,53353.39,57377.68,-70.39,-136.68,0.000724,0.001434,0.996209,85.09,1
5144,0,53296,57274,53352.24,57375.61,-56.24,-101.61,0.000746,0.001471,0.996189,85.1,1
5155,0,53302,57296,53351.24,57374.01,-49.24,-78.02,0.000764,0.001498,0.996177,85.1,1
5165,0,53309,57320,53350.39,57372.93,-41.39,-52.93,0.00078,0.001517,0.996174,85.1,1
5175,0,53321,57353,53349.8,57372.53,-28.8,-19.54,0.000791,0.001524,0.996178,85.1,1
5184,0,53336,57381,53349.53,57372.71,-13.53,8.29,0.000797,0.001521,0.996187,85.1,1
5195,0,53348,57413,53349.5,57373.51,-1.5,39.48,0.000797,0.001507,0.9962,85.09,1
5204,0,53346,57437,53349.43,57374.78,-3.43,62.21,0.000798,0.001485,0.99622,85.09,1
5215,0,53354,57451,53349.52,57376.31,4.48,74.69,0.000797,0.001458,0.99624,85.09,1
5224,0,53366,57475,53349.85,57378.28,16.15,96.71,0.00079,0.001424,0.99626,85.09,1
5235,0,53372,57493,53350.3,57380.58,21.7,112.42,0.000782,0.001384,0.996281,85.09,1
5245,0,53388,57514,53351.05,57383.25,36.95,130.75,0.000768,0.001337,0.996299,85.09,1
5255,0,53392,57526,53351.87,57386.1,40.13,139.89,0.000753,0.001288,0.996317,85.09,1
5264,0,53391,57546,53352.66,57389.3,38.34,156.7,0.000738,0.001232,0.996337,85.09,1
5275,0,53395,57554,53353.51,57392.6,41.49,161.4,0.000722,0.001174,0.996356,85.09,1
5284,0,53398,57555,53354.4,57395.85,43.6,159.15,0.000705,0.001118,0.996374,85.09,1
5295,0,53402,57566,53355.35,57399.25,46.65,166.75,0.000687,0.001058,0.996392,85.09,1
5305,0,53402,57574,53356.28,57402.75,45.71,171.25,0.00067,0.000998,0.996409,85.09,1
5315,0,53406,57587,53357.28,57406.43,48.72,180.57,0.000651,0.000933,0.996426,85.09,1
5324,0,53410,57584,53358.33,57409.98,51.66,174.02,0.000631,0.000872,0.996441,85.09,1
5336,0,53416,57599,53359.49,57413.76,56.51,185.23,0.00061,0.000806,0.996455,85.09,1
5345,0,53415,57612,53360.6,57417.73,54.39,194.27,0.000589,0.000737,0.996469,85.09,1
5355,0,53418,57637,53361.75,57422.12,56.25,214.88,0.000567,0.00066,0.996481,85.09,1
5364,0,53421,57655,53362.94,57426.78,58.06,228.22,0.000545,0.000579,0.996491,85.09,1
5376,0,53429,57673,53364.26,57431.7,64.74,241.3,0.00052,0.000493,0.996497,85.09,1
5385,0,53442,57685,53365.81,57436.77,76.19,248.23,0.000491,0.000405,0.996499,85.09,1
5395,0,53449,57711,53367.48,57442.25,81.52,268.75,0.00046,0.00031,0.996496,85.09,1
5404,0,53453,57731,53369.19,57448.03,83.81,282.97,0.000428,0.000209,0.996489,85.09,1
5414,0,53456,57749,53370.92,57454.05,85.07,294.95,0.000395,0.000104,0.996477,85.09,1
5425,0,53457,57767,53372.65,57460.31,84.35,306.69,0.000363,-0.000005,0.996461,85.09,1
5434,0,53479,57788,53374.77,57466.87,104.23,321.13,0.000323,-0.000119,0.996437,85.09,1
5445,0,53488,57808,53377.04,57473.69,110.96,334.31,0.000281,-0.000238,0.996406,85.09,1
5454,0,53492,57830,53379.34,57480.82,112.66,349.18,0.000238,-0.000361,0.996368,85.09,1
5465,0,53499,57846,53381.73,57488.12,117.27,357.88,0.000193,-0.000489,0.996324,85.09,1
5475,0,53500,57865,53384.1,57495.66,115.9,369.34,0.000149,-0.00062,0.996274,85.09,1
5485,0,53517,57897,53386.76,57503.69,130.24,393.31,0.000099,-0.000759,0.99621,85.09,1
5494,0,53527,57918,53389.57,57511.98,137.43,406.02,0.000046,-0.000903,0.996137,85.1,1
5506,0,53533,57951,53392.44,57520.76,140.56,430.24,-0.000008,-0.001056,0.996047,85.1,1
5515,0,53547,57977,53395.53,57529.88,151.47,447.12,-0.000065,-0.001215,0.995944,85.1,1
5524,0,53552,57995,53398.66,57539.18,153.34,455.82,-0.000124,-0.001376,0.995833,85.1,1
5535,0,53564,58001,53401.97,57548.42,162.03,452.58,-0.000186,-0.001537,0.995723,85.11,1
5544,0,53562,57999,53405.17,57557.43,156.83,441.57,-0.000246,-0.001693,0.995618,85.11,1
5555,0,53555,57978,53408.17,57565.84,146.83,412.16,-0.000302,-0.00184,0.995531,85.11,1
5565,0,53536,57910,53410.72,57572.73,125.28,337.27,-0.00035,-0.001959,0.995485,85.11,1
5575,0,53497,57809,53412.45,57577.45,84.55,231.55,-0.000382,-0.002041,0.995479,85.11,1
5584,0,53462,57681,53413.44,57579.53,48.56,101.47,-0.000401,-0.002077,0.995487,85.11,1
5594,0,53412,57559,53413.41,57579.12,-1.41,-20.12,-0.0004,-0.00207,0.99548,85.11,1
5605,0,53356,57441,53412.26,57576.35,-56.27,-135.36,-0.000379,-0.002022,0.995435,85.11,1
5614,0,53314,57350,53410.3,57571.83,-96.3,-221.83,-0.000342,-0.001944,0.995343,85.12,1
5624,0,53292,57285,53407.94,57566.09,-115.94,-281.09,-0.000298,-0.001844,0.995206,85.12,1
5635,0,53277,57238,53405.32,57559.53,-128.32,-321.54,-0.000249,-0.00173,0.99503,85.12,1
5645,0,53263,57231,53402.48,57552.96,-139.48,-321.96,-0.000195,-0.001616,0.994862,85.13,1
5654,0,53264,57223,53399.71,57546.37,-135.71,-323.37,-0.000144,-0.001501,0.994688,85.13,1
5665,0,53264,57237,53397,57540.18,-133,-303.18,-0.000093,-0.001394,0.994535,85.14,1
5675,0,53266,57260,53394.38,57534.58,-128.38,-274.58,-0.000044,-0.001296,0.99441,85.14,1
5684,0,53282,57284,53392.14,57529.57,-110.14,-245.57,-0.000002,-0.001209,0.994301,85.14,1
5695,0,53292,57321,53390.14,57525.4,-98.14,-204.4,0.000036,-0.001137,0.994224,85.14,1
5704,0,53302,57351,53388.37,57521.91,-86.37,-170.91,0.000069,-0.001076,0.994167,85.15,1
5715,0,53313,57396,53386.87,57519.39,-73.87,-123.39,0.000097,-0.001032,0.994139,85.15,1
5725,0,53332,57425,53385.77,57517.5,-53.77,-92.5,0.000117,-0.001,0.99412,85.15,1
5735,0,53346,57466,53384.98,57516.48,-38.98,-50.48,0.000132,-0.000982,0.994116,85.15,1
5744,0,53359,57501,53384.46,57516.17,-25.46,-15.17,0.000142,-0.000976,0.994121,85.15,1
5755,0,53369,57526,53384.15,57516.37,-15.15,9.63,0.000148,-0.00098,0.99413,85.15,1
5765,0,53375,57550,53383.96,57517.04,-8.96,32.96,0.000151,-0.000991,0.994144,85.15,1
5775,0,53388,57583,53384.05,57518.36,3.95,64.64,0.00015,-0.001014,0.994159,85.15,1
5784,0,53398,57604,53384.33,57520.07,13.67,83.93,0.000144,-0.001044,0.994173,85.15,1
5795,0,53410,57641,53384.84,57522.49,25.16,118.51,0.000135,-0.001086,0.994184,85.15,1
5805,0,53416,57673,53385.47,57525.5,30.53,147.5,0.000123,-0.001139,0.994192,85.15,1
5815,0,53427,57717,53386.3,57529.33,40.7,187.66,0.000107,-0.001205,0.994191,85.15,1
5825,0,53444,57741,53387.45,57533.57,56.55,207.43,0.000086,-0.001279,0.99418,85.15,1
5834,0,53452,57774,53388.75,57538.38,63.25,235.62,0.000062,-0.001362,0.994157,85.15,1
5844,0,53465,57814,53390.27,57543.89,74.73,270.11,0.000033,-0.001458,0.994116,85.15,1
5854,0,53473,57832,53391.93,57549.66,81.07,282.34,0.000002,-0.001558,0.994067,85.15,1
5865,0,53478,57864,53393.65,57555.95,84.35,308.05,-0.00003,-0.001668,0.994,85.15,1
5874,0,53494,57879,53395.66,57562.41,98.34,316.59,-0.000068,-0.00178,0.993926,85.15,1
5884,0,53498,57897,53397.71,57569.1,100.29,327.89,-0.000106,-0.001896,0.993842,85.15,1
5895,0,53506,57924,53399.87,57576.2,106.12,347.8,-0.000147,-0.00202,0.99374,85.16,1
5905,0,53508,57945,53402.04,57583.58,105.96,361.42,-0.000187,-0.002148,0.993625,85.16,1
5914,0,53514,57950,53404.28,57590.91,109.72,359.09,-0.000229,-0.002275,0.993511,85.16,1
5924,0,53522,57962,53406.64,57598.33,115.36,363.67,-0.000273,-0.002404,0.99339,85.17,1
5935,0,53527,57972,53409.04,57605.8,117.96,366.2,-0.000318,-0.002534,0.993266,85.17,1
5944,0,53528,57979,53411.42,57613.27,116.58,365.73,-0.000363,-0.002663,0.99314,85.17,1
5955,0,53526,57998,53413.71,57620.96,112.29,377.04,-0.000406,-0.002797,0.993001,85.17,1
5964,0,53531,58001,53416.06,57628.57,114.94,372.43,-0.00045,-0.002929,0.992864,85.18,1
5975,0,53537,58025,53418.48,57636.5,118.52,388.5,-0.000495,-0.003066,0.992709,85.18,1
5985,0,53543,58025,53420.97,57644.26,122.03,380.73,-0.000542,-0.003201,0.99256,85.19,1
5995,0,53540,58052,53423.35,57652.42,116.64,399.58,-0.000586,-0.003342,0.992387,85.19,1
6004,0,53546,58064,53425.81,57660.66,120.19,403.34,-0.000632,-0.003485,0.992208,85.19,1
6013,0,53553,58080,53428.35,57669.05,124.64,410.95,-0.00068,-0.003631,0.992018,85.2,1
6025,0,53561,58092,53431.01,57677.51,129.99,414.49,-0.00073,-0.003778,0.991822,85.2,1
6034,0,53571,58110,53433.81,57686.16,137.19,423.84,-0.000782,-0.003927,0.991613,85.21,1
6045,0,53570,58132,53436.53,57695.07,133.46,436.93,-0.000833,-0.004082,0.991382,85.22,1
6054,0,53574,58145,53439.28,57704.07,134.71,440.93,-0.000884,-0.004238,0.991144,85.22,1
6065,0,53579,58179,53442.08,57713.57,136.92,465.43,-0.000937,-0.004403,0.990867,85.23,1
6075,0,53593,58185,53445.1,57723,147.9,462,-0.000993,-0.004566,0.990596,85.24,1
6084,0,53600,58220,53448.19,57732.94,151.8,487.06,-0.001051,-0.004738,0.990282,85.24,1
6094,0,53606,58229,53451.35,57742.86,154.64,486.14,-0.00111,-0.00491,0.989968,85.25,1
6104,0,53607,58252,53454.47,57753.05,152.53,498.95,-0.001169,-0.005086,0.989627,85.26,1
6115,0,53620,58262,53457.78,57763.23,162.22,498.77,-0.00123,-0.005263,0.989287,85.27,1
6124,0,53626,58276,53461.14,57773.48,164.86,502.52,-0.001293,-0.00544,0.988937,85.28,1
6135,0,53634,58309,53464.6,57784.19,169.4,524.8,-0.001358,-0.005625,0.988545,85.29,1
6145,0,53642,58332,53468.15,57795.15,173.85,536.85,-0.001424,-0.005815,0.988127,85.3,1
6155,0,53643,58354,53471.64,57806.33,171.36,547.67,-0.00149,-0.006008,0.987682,85.31,1
6164,0,53655,58367,53475.31,57817.54,179.69,549.46,-0.001558,-0.006202,0.987233,85.32,1
6174,0,53666,58378,53479.13,57828.75,186.87,549.25,-0.00163,-0.006396,0.986784,85.33,1
6184,0,53667,58387,53482.89,57839.91,184.11,547.09,-0.0017,-0.006589,0.986333,85.34,1
6194,0,53670,58385,53486.63,57850.82,183.37,534.18,-0.00177,-0.006778,0.985903,85.35,1
6205,0,53662,58372,53490.14,57861.24,171.86,510.76,-0.001836,-0.006958,0.985509,85.36,1
6214,0,53644,58314,53493.21,57870.3,150.79,443.7,-0.001893,-0.007115,0.985223,85.37,1
6225,0,53630,58233,53495.95,57877.55,134.05,355.45,-0.001944,-0.00724,0.985056,85.37,1
6235,0,53594,58115,53497.91,57882.3,96.09,232.7,-0.001981,-0.007322,0.985001,85.37,1
6244,0,53540,57982,53498.76,57884.3,41.24,97.7,-0.001997,-0.007356,0.985002,85.37,1
6254,0,53480,57851,53498.39,57883.64,-18.39,-32.64,-0.00199,-0.007345,0.984996,85.38,1
6263,0,53433,57716,53497.08,57880.28,-64.08,-164.29,-0.001965,-0.007287,0.984911,85.38,1
6275,0,53382,57606,53494.78,57874.8,-112.78,-268.8,-0.001922,-0.007192,0.984723,85.38,1
6284,0,53348,57532,53491.85,57867.94,-143.85,-335.95,-0.001868,-0.007074,0.984447,85.39,1
6295,0,53315,57484,53488.31,57860.26,-173.31,-376.27,-0.001802,-0.006941,0.984123,85.4,1
6304,0,53301,57459,53484.57,57852.24,-183.57,-393.24,-0.001731,-0.006802,0.983774,85.41,1
6315,0,53291,57441,53480.69,57844.02,-189.7,-403.02,-0.001659,-0.00666,0.983409,85.41,1
6325,0,53288,57439,53476.84,57835.92,-188.84,-396.92,-0.001587,-0.00652,0.983054,85.42,1
6334,0,53297,57443,53473.25,57828.06,-176.25,-385.06,-0.00152,-0.006384,0.982706,85.43,1
6344,0,53290,57463,53469.58,57820.76,-179.59,-357.77,-0.001451,-0.006258,0.982421,85.44,1
6354,0,53294,57487,53466.07,57814.09,-172.07,-327.09,-0.001386,-0.006143,0.982189,85.45,1
6365,0,53305,57511,53462.85,57808.03,-157.86,-297.03,-0.001325,-0.006038,0.981993,85.45,1
6374,0,53316,57530,53459.92,57802.47,-143.92,-272.47,-0.001271,-0.005942,0.981824,85.45,1
6384,0,53330,57557,53457.32,57797.56,-127.32,-240.56,-0.001222,-0.005857,0.981686,85.46,1
6394,0,53334,57583,53454.85,57793.27,-120.86,-210.27,-0.001176,-0.005783,0.981587,85.46,1
6404,0,53344,57606,53452.64,57789.53,-108.64,-183.53,-0.001134,-0.005718,0.981512,85.46,1
6415,0,53344,57631,53450.46,57786.36,-106.46,-155.36,-0.001094,-0.005663,0.98147,85.46,1
6424,0,53359,57666,53448.64,57783.96,-89.64,-117.96,-0.001059,-0.005621,0.981451,85.46,1
6433,0,53375,57693,53447.16,57782.14,-72.16,-89.14,-0.001032,-0.00559,0.981443,85.46,1
6445,0,53383,57727,53445.88,57781.03,-62.88,-54.04,-0.001008,-0.005571,0.981453,85.46,1
6454,0,53396,57759,53444.88,57780.59,-48.88,-21.59,-0.000989,-0.005563,0.981471,85.46,1
6464,0,53399,57779,53443.96,57780.56,-44.96,-1.56,-0.000972,-0.005563,0.981494,85.46,1
6473,0,53415,57818,53443.39,57781.31,-28.39,36.69,-0.000961,-0.005576,0.981516,85.46,1
6484,0,53423,57834,53442.98,57782.37,-19.98,51.63,-0.000954,-0.005594,0.981535,85.46,1
6494,0,53436,57868,53442.84,57784.08,-6.84,83.92,-0.000951,-0.005624,0.981546,85.46,1
6504,0,53429,57884,53442.56,57786.08,-13.56,97.92,-0.000946,-0.005658,0.981557,85.46,1
6513,0,53448,57905,53442.67,57788.46,5.33,116.54,-0.000948,-0.005699,0.981555,85.46,1
6524,0,53450,57919,53442.82,57791.07,7.18,127.93,-0.000951,-0.005744,0.981547,85.46,1
6534,0,53456,57940,53443.08,57794.05,12.91,145.95,-0.000956,-0.005796,0.981527,85.46,1
6544,0,53461,57957,53443.44,57797.32,17.55,159.68,-0.000962,-0.005853,0.981498,85.46,1
6553,0,53468,57974,53443.94,57800.85,24.06,173.15,-0.000972,-0.005914,0.981456,85.46,1
6564,0,53466,57983,53444.38,57804.5,21.62,178.5,-0.00098,-0.005977,0.981411,85.46,1
6574,0,53476,57992,53445.01,57808.25,30.99,183.75,-0.000992,-0.006042,0.981358,85.47,1
6585,0,53479,58009,53445.69,57812.26,33.31,196.74,-0.001004,-0.006111,0.981293,85.47,1
6594,0,53477,58023,53446.32,57816.48,30.68,206.52,-0.001016,-0.006184,0.981217,85.47,1
6604,0,53481,58048,53447.01,57821.11,33.99,226.89,-0.001029,-0.006264,0.981117,85.47,1
6614,0,53484,58057,53447.75,57825.83,36.25,231.17,-0.001043,-0.006346,0.981011,85.47,1
6625,0,53495,58077,53448.7,57830.85,46.3,246.14,-0.001061,-0.006433,0.980883,85.48,1
6634,0,53507,58089,53449.87,57836.02,57.13,252.98,-0.001083,-0.006522,0.980745,85.48,1
6644,0,53511,58121,53451.09,57841.72,59.91,279.28,-0.001105,-0.00662,0.980566,85.49,1
6654,0,53515,58135,53452.37,57847.58,62.63,287.41,-0.001129,-0.006722,0.980372,85.49,1
6664,0,53523,58155,53453.78,57853.74,69.21,301.26,-0.001156,-0.006828,0.980154,85.5,1
6674,0,53525,58164,53455.21,57859.94,69.79,304.05,-0.001182,-0.006936,0.979927,85.5,1
6683,0,53545,58190,53457.01,57866.55,87.99,323.45,-0.001216,-0.00705,0.979667,85.51,1
6694,0,53546,58216,53458.79,57873.54,87.21,342.46,-0.001249,-0.00717,0.979364,85.52,1
6704,0,53550,58226,53460.61,57880.59,89.39,345.41,-0.001284,-0.007292,0.979053,85.52,1
6714,0,53560,58241,53462.6,57887.8,97.4,353.2,-0.001321,-0.007417,0.978725,85.53,1
6724,0,53567,58249,53464.69,57895.03,102.31,353.97,-0.00136,-0.007542,0.978393,85.54,1
6734,0,53569,58284,53466.78,57902.81,102.22,381.19,-0.001399,-0.007676,0.977993,85.55,1
6744,0,53578,58292,53469,57910.59,109,381.41,-0.00144,-0.007811,0.977592,85.56,1
6755,0,53582,58325,53471.26,57918.88,110.74,406.12,-0.001483,-0.007954,0.977123,85.57,1
6764,0,53588,58339,53473.6,57927.29,114.4,411.71,-0.001526,-0.008099,0.976637,85.58,1
6773,0,53593,58357,53475.98,57935.89,117.02,421.11,-0.001571,-0.008247,0.97612,85.6,1
6785,0,53607,58371,53478.6,57944.59,128.39,426.41,-0.00162,-0.008398,0.975592,85.61,1
6794,0,53611,58394,53481.25,57953.58,129.75,440.42,-0.00167,-0.008553,0.975018,85.62,1
6804,0,53621,58417,53484.05,57962.85,136.95,454.15,-0.001722,-0.008712,0.974401,85.64,1
6814,0,53614,58423,53486.65,57972.05,127.35,450.95,-0.00177,-0.008871,0.97378,85.66,1
6824,0,53633,58450,53489.58,57981.61,143.42,468.39,-0.001825,-0.009036,0.973111,85.67,1
6834,0,53644,58467,53492.67,57991.32,151.33,475.68,-0.001883,-0.009204,0.972419,85.69,1
6844,0,53651,58493,53495.83,58001.35,155.16,491.64,-0.001942,-0.009377,0.971669,85.71,1
6854,0,53650,58501,53498.92,58011.35,151.08,489.65,-0.002,-0.009549,0.970916,85.73,1
6863,0,53647,58476,53501.89,58020.64,145.11,455.36,-0.002055,-0.009709,0.970271,85.74,1
6875,0,53638,58442,53504.61,58029.07,133.39,412.93,-0.002106,-0.009854,0.969746,85.76,1
6884,0,53623,58362,53506.98,58035.73,116.02,326.27,-0.00215,-0.009969,0.969438,85.76,1
6893,0,53583,58268,53508.51,58040.37,74.49,227.63,-0.002179,-0.010049,0.969299,85.77,1
6904,0,53541,58155,53509.16,58042.67,31.84,112.33,-0.002191,-0.010089,0.969277,85.77,1
6914,0,53503,58032,53509.03,58042.46,-6.04,-10.46,-0.002189,-0.010085,0.969275,85.77,1
6924,0,53462,57911,53508.09,58039.83,-46.09,-128.83,-0.002171,-0.01004,0.969187,85.77,1
6933,0,53423,57805,53506.39,58035.13,-83.39,-230.13,-0.00214,-0.009959,0.968945,85.78,1
6944,0,53382,57738,53503.91,58029.19,-121.91,-291.19,-0.002093,-0.009856,0.968597,85.79,1
6953,0,53352,57676,53500.87,58022.13,-148.87,-346.13,-0.002036,-0.009735,0.968123,85.8,1
6965,0,53333,57640,53497.51,58014.49,-164.52,-374.49,-0.001974,-0.009603,0.967576,85.81,1
6974,0,53315,57606,53493.87,58006.32,-178.87,-400.32,-0.001905,-0.009462,0.966959,85.83,1
6983,0,53319,57614,53490.37,57998.48,-171.37,-384.48,-0.00184,-0.009327,0.966383,85.84,1
6994,0,53317,57619,53486.91,57990.89,-169.91,-371.89,-0.001775,-0.009196,0.965848,85.85,1
7004,0,53305,57629,53483.27,57983.65,-178.27,-354.65,-0.001707,-0.009071,0.965393,85.87,1
7015,0,53324,57650,53480.08,57976.98,-156.09,-326.98,-0.001648,-0.008956,0.964981,85.88,1
7024,0,53332,57667,53477.12,57970.78,-145.13,-303.78,-0.001592,-0.008849,0.96462,85.88,1
7033,0,53338,57686,53474.34,57965.08,-136.34,-279.08,-0.00154,-0.008751,0.964314,85.89,1
7045,0,53335,57705,53471.56,57959.88,-136.56,-254.88,-0.001488,-0.008661,0.964078,85.9,1
7054,0,53339,57719,53468.91,57955.07,-129.91,-236.07,-0.001439,-0.008578,0.963878,85.9,1
7064,0,53344,57739,53466.41,57950.75,-122.41,-211.75,-0.001392,-0.008504,0.963724,85.91,1
7074,0,53356,57759,53464.2,57946.91,-108.2,-187.91,-0.001351,-0.008437,0.963598,85.91,1
7084,0,53367,57778,53462.26,57943.53,-95.26,-165.53,-0.001314,-0.008379,0.963497,85.91,1
7094,0,53372,57803,53460.46,57940.72,-88.46,-137.72,-0.001281,-0.008331,0.963437,85.91,1
7103,0,53370,57812,53458.65,57938.14,-88.65,-126.14,-0.001247,-0.008286,0.963396,85.92,1
7114,0,53387,57837,53457.21,57936.12,-70.21,-99.12,-0.00122,-0.008251,0.96337,85.92,1
7123,0,53393,57846,53455.93,57934.32,-62.93,-88.32,-0.001196,-0.00822,0.963348,85.92,1
7135,0,53406,57885,53454.93,57933.33,-48.93,-48.34,-0.001177,-0.008203,0.963354,85.92,1
7144,0,53410,57892,53454.03,57932.51,-44.04,-40.51,-0.00116,-0.008189,0.963361,85.92,1
7153,0,53410,57915,53453.16,57932.16,-43.16,-17.16,-0.001144,-0.008183,0.963382,85.92,1
7163,0,53418,57926,53452.45,57932.04,-34.45,-6.04,-0.001131,-0.008181,0.9634,85.91,1
7173,0,53429,57938,53451.98,57932.16,-22.98,5.84,-0.001122,-0.008183,0.963414,85.91,1
7184,0,53432,57953,53451.58,57932.58,-19.59,20.42,-0.001115,-0.00819,0.963429,85.91,1
7193,0,53432,57966,53451.19,57933.25,-19.2,32.75,-0.001107,-0.008202,0.963444,85.91,1
7203,0,53437,57965,53450.91,57933.89,-13.91,31.11,-0.001102,-0.008213,0.963455,85.91,1
7214,0,53435,57980,53450.59,57934.81,-15.59,45.19,-0.001096,-0.008229,0.963466,85.91,1
7224,0,53449,57982,53450.56,57935.76,-1.56,46.24,-0.001096,-0.008245,0.96347,85.91,1
7233,0,53450,57999,53450.55,57937.02,-0.55,61.98,-0.001095,-0.008267,0.963469,85.91,1
7243,0,53449,58014,53450.52,57938.57,-1.52,75.43,-0.001095,-0.008293,0.963462,85.91,1
7254,0,53453,58019,53450.57,57940.17,2.43,78.82,-0.001096,-0.008321,0.963451,85.91,1
7264,0,53453,58021,53450.62,57941.8,2.38,79.2,-0.001096,-0.008349,0.963439,85.91,1
7273,0,53465,58042,53450.91,57943.8,14.09,98.2,-0.001102,-0.008384,0.96341,85.91,1
7283,0,53472,58053,53451.33,57945.98,20.67,107.02,-0.00111,-0.008422,0.963372,85.92,1
7293,0,53470,58073,53451.7,57948.53,18.3,124.47,-0.001117,-0.008465,0.963315,85.92,1
7304,0,53474,58088,53452.15,57951.32,21.85,136.68,-0.001125,-0.008514,0.96324,85.92,1
7313,0,53486,58097,53452.83,57954.24,33.17,142.76,-0.001138,-0.008564,0.963157,85.92,1
7324,0,53494,58112,53453.65,57957.39,40.35,154.61,-0.001153,-0.008618,0.963055,85.92,1
7333,0,53499,58136,53454.56,57960.96,44.44,175.04,-0.00117,-0.00868,0.962917,85.93,1
7344,0,53505,58159,53455.57,57964.92,49.43,194.07,-0.001189,-0.008748,0.96274,85.93,1
7353,0,53510,58172,53456.66,57969.07,53.34,202.93,-0.00121,-0.00882,0.962544,85.94,1
7364,0,53524,58196,53458.01,57973.61,65.99,222.39,-0.001235,-0.008898,0.962304,85.94,1
7373,0,53530,58212,53459.45,57978.37,70.55,233.63,-0.001262,-0.00898,0.962036,85.95,1
7385,0,53536,58236,53460.98,57983.53,75.02,252.47,-0.00129,-0.009069,0.961712,85.96,1
7394,0,53539,58248,53462.55,57988.82,76.45,259.18,-0.00132,-0.00916,0.961367,85.97,1
7403,0,53545,58282,53464.19,57994.69,80.8,287.31,-0.001351,-0.009262,0.960926,85.98,1
7413,0,53553,58290,53465.97,58000.59,87.03,289.41,-0.001384,-0.009363,0.96048,85.99,1
7424,0,53568,58312,53468.01,58006.82,99.99,305.18,-0.001422,-0.009471,0.959987,86,1
7434,0,53570,58342,53470.05,58013.52,99.95,328.48,-0.00146,-0.009586,0.959393,86.02,1
7443,0,53585,58357,53472.35,58020.39,112.65,336.61,-0.001503,-0.009705,0.958779,86.03,1
7454,0,53586,58389,53474.62,58027.77,111.37,361.23,-0.001546,-0.009832,0.958043,86.05,1
7463,0,53594,58393,53477.01,58035.07,116.99,357.93,-0.00159,-0.009958,0.957327,86.07,1
7474,0,53601,58433,53479.49,58043.03,121.51,389.96,-0.001637,-0.010095,0.956451,86.09,1
7484,0,53612,58458,53482.14,58051.33,129.86,406.66,-0.001686,-0.010238,0.955495,86.11,1
7493,0,53621,58475,53484.92,58059.81,136.08,415.19,-0.001738,-0.010384,0.954497,86.14,1
7503,0,53609,58474,53487.4,58068.09,121.6,405.91,-0.001785,-0.010527,0.953515,86.16,1
7514,0,53617,58449,53490,58075.71,127,373.29,-0.001833,-0.010658,0.952714,86.18,1
7524,0,53613,58407,53492.46,58082.34,120.54,324.66,-0.001879,-0.010772,0.952132,86.2,1
7533,0,53584,58328,53494.29,58087.26,89.71,240.74,-0.001913,-0.010856,0.951822,86.2,1
7544,0,53542,58251,53495.25,58090.53,46.75,160.46,-0.001931,-0.010913,0.951684,86.21,1
7554,0,53510,58151,53495.54,58091.75,14.46,59.25,-0.001937,-0.010934,0.951674,86.21,1
7564,0,53485,58071,53495.33,58091.33,-10.33,-20.34,-0.001933,-0.010927,0.951669,86.21,1
7573,0,53449,57974,53494.41,58088.99,-45.41,-114.99,-0.001915,-0.010886,0.951564,86.21,1
7583,0,53413,57921,53492.78,58085.63,-79.78,-164.63,-0.001885,-0.010829,0.951389,86.22,1
7593,0,53392,57857,53490.76,58081.06,-98.77,-224.06,-0.001847,-0.01075,0.951051,86.22,1
7603,0,53367,57822,53488.29,58075.88,-121.29,-253.88,-0.001801,-0.010661,0.950645,86.23,1
7614,0,53359,57795,53485.71,58070.26,-126.71,-275.27,-0.001753,-0.010564,0.950154,86.25,1
7623,0,53354,57788,53483.07,58064.62,-129.07,-276.63,-0.001703,-0.010467,0.949659,86.26,1
7634,0,53352,57799,53480.45,58059.31,-128.45,-260.31,-0.001654,-0.010375,0.949237,86.27,1
7644,0,53348,57807,53477.8,58054.27,-129.8,-247.27,-0.001605,-0.010288,0.948876,86.28,1
7653,0,53352,57818,53475.28,58049.54,-123.29,-231.54,-0.001558,-0.010207,0.94856,86.29,1
7664,0,53361,57833,53473,58045.21,-112,-212.21,-0.001515,-0.010132,0.948287,86.29,1
7673,0,53367,57852,53470.88,58041.35,-103.88,-189.35,-0.001476,-0.010066,0.948076,86.3,1
7684,0,53373,57882,53468.92,58038.17,-95.93,-156.17,-0.001439,-0.010011,0.947952,86.3,1
7694,0,53381,57905,53467.17,58035.51,-86.17,-130.51,-0.001406,-0.009965,0.947876,86.3,1
7704,0,53384,57941,53465.5,58033.62,-81.5,-92.62,-0.001375,-0.009933,0.947876,86.3,1
7713,0,53394,57955,53464.07,58032.05,-70.07,-77.05,-0.001348,-0.009906,0.94788,86.3,1
7723,0,53407,57989,53462.93,58031.19,-55.93,-42.19,-0.001327,-0.009891,0.947907,86.3,1
7734,0,53418,58014,53462.03,58030.85,-44.04,-16.85,-0.00131,-0.009885,0.947938,86.3,1
7743,0,53423,58043,53461.26,58031.09,-38.26,11.91,-0.001296,-0.009889,0.947972,86.3,1
7753,0,53428,58064,53460.59,58031.75,-32.59,32.25,-0.001283,-0.009901,0.947998,86.3,1
7762,0,53448,58102,53460.34,58033.16,-12.34,68.84,-0.001279,-0.009925,0.947983,86.3,1
7774,0,53458,58124,53460.3,58034.98,-2.3,89.02,-0.001278,-0.009956,0.947939,86.3,1
7783,0,53462,58159,53460.33,58037.46,1.67,121.54,-0.001278,-0.009999,0.947838,86.3,1
7793,0,53473,58180,53460.58,58040.31,12.41,139.69,-0.001283,-0.010048,0.947694,86.31,1
7802,0,53476,58195,53460.89,58043.41,15.11,151.59,-0.001289,-0.010101,0.947519,86.31,1
7814,0,53492,58213,53461.51,58046.8,30.48,166.2,-0.0013,-0.01016,0.947304,86.32,1
7823,0,53497,58227,53462.23,58050.41,34.77,176.59,-0.001314,-0.010222,0.947057,86.32,1
7834,0,53502,58259,53463.02,58054.58,38.98,204.42,-0.001329,-0.010294,0.946714,86.33,1
7843,0,53515,58262,53464.07,58058.73,50.93,203.27,-0.001348,-0.010365,0.946381,86.34,1
7854,0,53513,58268,53465.05,58062.91,47.95,205.09,-0.001367,-0.010437,0.946035,86.35,1
7863,0,53523,58276,53466.21,58067.17,56.79,208.82,-0.001388,-0.010511,0.94568,86.36,1
7874,0,53530,58295,53467.48,58071.73,62.52,223.27,-0.001412,-0.010589,0.945269,86.37,1
7883,0,53526,58310,53468.66,58076.5,57.34,233.5,-0.001434,-0.010671,0.944802,86.38,1
7892,0,53532,58320,53469.92,58081.37,62.07,238.63,-0.001458,-0.010755,0.944313,86.39,1
7904,0,53538,58334,53471.29,58086.42,66.71,247.58,-0.001483,-0.010842,0.943784,86.41,1
7913,0,53536,58342,53472.58,58091.53,63.42,250.46,-0.001507,-0.01093,0.94323,86.42,1
7923,0,53549,58354,53474.11,58096.78,74.89,257.21,-0.001536,-0.011021,0.942655,86.43,1
7933,0,53552,58356,53475.67,58101.97,76.33,254.03,-0.001565,-0.01111,0.942095,86.45,1
7944,0,53551,58384,53477.18,58107.61,73.82,276.39,-0.001593,-0.011207,0.941403,86.46,1
7953,0,53563,58395,53478.9,58113.36,84.1,281.64,-0.001626,-0.011306,0.940694,86.48,1
7964,0,53564,58405,53480.6,58119.19,83.4,285.8,-0.001657,-0.011406,0.939954,86.5,1
7973,0,53579,58424,53482.57,58125.29,96.43,298.71,-0.001694,-0.011511,0.939159,86.52,1
7984,0,53584,58460,53484.6,58131.99,99.4,328.01,-0.001732,-0.011626,0.938168,86.55,1
7993,0,53590,58473,53486.71,58138.81,103.29,334.19,-0.001772,-0.011744,0.937137,86.57,1
8003,0,53593,58493,53488.83,58145.9,104.16,347.1,-0.001811,-0.011866,0.936005,86.6,1
8013,0,53606,58508,53491.18,58153.14,114.82,354.86,-0.001855,-0.01199,0.93484,86.63,1
8023,0,53612,58535,53493.59,58160.78,118.41,374.22,-0.0019,-0.012121,0.933523,86.66,1
8034,0,53619,58571,53496.1,58168.98,122.9,402.02,-0.001947,-0.012263,0.931975,86.7,1
8043,0,53630,58590,53498.78,58177.41,131.22,412.59,-0.001997,-0.012407,0.930354,86.74,1
8054,0,53631,58620,53501.43,58186.26,129.57,433.74,-0.002047,-0.012559,0.928519,86.79,1
8064,0,53649,58644,53504.38,58195.41,144.62,448.59,-0.002102,-0.012717,0.926592,86.84,1
8073,0,53667,58664,53507.64,58204.79,159.36,459.21,-0.002163,-0.012878,0.924618,86.88,1
8084,0,53671,58703,53510.91,58214.75,160.09,488.25,-0.002224,-0.013049,0.92233,86.94,1
8093,0,53671,58723,53514.11,58224.92,156.89,498.08,-0.002284,-0.013224,0.919915,87,1
8103,0,53694,58757,53517.71,58235.57,176.29,521.43,-0.002351,-0.013406,0.917326,87.07,1
8114,0,53701,58779,53521.37,58246.43,179.63,532.57,-0.002419,-0.013593,0.914624,87.13,1
8123,0,53710,58801,53525.15,58257.53,184.85,543.47,-0.00249,-0.013784,0.911821,87.2,1
8133,0,53726,58811,53529.17,58268.6,196.83,542.4,-0.002565,-0.013973,0.90911,87.27,1
8143,0,53716,58812,53532.91,58279.46,183.09,532.54,-0.002635,-0.01416,0.906441,87.34,1
8154,0,53712,58805,53536.49,58289.98,175.51,515.02,-0.002702,-0.01434,0.903942,87.4,1
8163,0,53697,58755,53539.7,58299.28,157.3,455.72,-0.002762,-0.0145,0.902005,87.45,1
8173,0,53687,58699,53542.64,58307.28,144.36,391.72,-0.002817,-0.014637,0.900622,87.48,1
8183,0,53659,58637,53544.97,58313.87,114.03,323.13,-0.00286,-0.01475,0.899668,87.51,1
8193,0,53623,58556,53546.53,58318.71,76.46,237.29,-0.002889,-0.014833,0.899144,87.52,1
8204,0,53599,58487,53547.58,58322.08,51.41,164.92,-0.002909,-0.014891,0.898896,87.53,1
8213,0,53576,58405,53548.16,58323.74,27.84,81.26,-0.00292,-0.014919,0.898845,87.53,1
8223,0,53555,58362,53548.3,58324.5,6.7,37.5,-0.002922,-0.014933,0.898838,87.53,1
8232,0,53528,58302,53547.89,58324.05,-19.89,-22.05,-0.002915,-0.014925,0.898839,87.53,1
8244,0,53508,58266,53547.09,58322.89,-39.09,-56.89,-0.0029,-0.014905,0.898822,87.53,1
8253,0,53502,58227,53546.19,58320.98,-44.19,-93.98,-0.002883,-0.014872,0.898732,87.53,1
8263,0,53496,58216,53545.19,58318.88,-49.19,-102.88,-0.002864,-0.014836,0.898627,87.53,1
8273,0,53493,58209,53544.14,58316.68,-51.14,-107.68,-0.002845,-0.014798,0.89851,87.54,1
8283,0,53494,58219,53543.14,58314.73,-49.14,-95.73,-0.002826,-0.014765,0.898423,87.54,1
8293,0,53488,58222,53542.04,58312.88,-54.04,-90.88,-0.002805,-0.014733,0.898361,87.54,1
8302,0,53485,58233,53540.9,58311.28,-55.9,-78.28,-0.002784,-0.014706,0.898335,87.54,1
8313,0,53498,58248,53540.04,58310.02,-42.04,-62.02,-0.002768,-0.014684,0.898313,87.54,1
8323,0,53507,58274,53539.38,58309.3,-32.38,-35.3,-0.002756,-0.014672,0.898317,87.54,1
8333,0,53505,58289,53538.7,58308.9,-33.7,-19.9,-0.002743,-0.014665,0.89834,87.54,1
8343,0,53510,58316,53538.12,58309.04,-28.12,6.96,-0.002732,-0.014667,0.898367,87.54,1
8353,0,53510,58331,53537.56,58309.48,-27.56,21.52,-0.002722,-0.014675,0.898392,87.54,1
8363,0,53531,58353,53537.43,58310.35,-6.43,42.64,-0.002719,-0.01469,0.898383,87.54,1
8373,0,53540,58380,53537.49,58311.75,2.51,68.25,-0.00272,-0.014714,0.898337,87.54,1
8383,0,53545,58412,53537.64,58313.75,7.36,98.25,-0.002723,-0.014748,0.898227,87.54,1
8393,0,53554,58433,53537.96,58316.14,16.04,116.86,-0.002729,-0.014789,0.898065,87.55,1
8402,0,53566,58465,53538.53,58319.12,27.47,145.88,-0.00274,-0.01484,0.897804,87.55,1
8414,0,53575,58493,53539.26,58322.6,35.74,170.4,-0.002754,-0.0149,0.897443,87.56,1
8423,0,53585,58516,53540.17,58326.47,44.83,189.53,-0.002771,-0.014966,0.896993,87.58,1
8433,0,53596,58542,53541.29,58330.78,54.71,211.22,-0.002791,-0.01504,0.896434,87.59,1
8442,0,53596,58556,53542.38,58335.29,53.62,220.71,-0.002812,-0.015117,0.895808,87.6,1
8454,0,53604,58564,53543.61,58339.87,60.39,224.13,-0.002835,-0.015196,0.895171,87.62,1
8463,0,53611,58583,53544.96,58344.73,66.04,238.27,-0.00286,-0.015279,0.894446,87.64,1
8474,0,53623,58597,53546.52,58349.78,76.48,247.22,-0.002889,-0.015366,0.893681,87.66,1
8483,0,53619,58616,53547.97,58355.1,71.03,260.9,-0.002916,-0.015457,0.89279,87.68,1
8493,0,53628,58631,53549.57,58360.62,78.43,270.38,-0.002946,-0.015552,0.891839,87.7,1
8503,0,53628,58631,53551.14,58366.03,76.86,264.97,-0.002975,-0.015644,0.890922,87.73,1
8513,0,53631,58632,53552.74,58371.35,78.26,260.65,-0.003005,-0.015735,0.890038,87.75,1
8523,0,53635,58640,53554.38,58376.73,80.62,263.27,-0.003036,-0.015828,0.889135,87.77,1
8532,0,53638,58656,53556.06,58382.31,81.94,273.69,-0.003067,-0.015923,0.888143,87.8,1
8544,0,53635,58657,53557.64,58387.81,77.36,269.19,-0.003097,-0.016017,0.887168,87.82,1
8553,0,53633,58665,53559.14,58393.35,73.86,271.64,-0.003125,-0.016112,0.886153,87.85,1
8563,0,53644,58683,53560.84,58399.15,83.16,283.85,-0.003157,-0.016211,0.885057,87.87,1
8572,0,53644,58689,53562.5,58404.95,81.5,284.05,-0.003188,-0.016311,0.883947,87.9,1
8584,0,53647,58704,53564.19,58410.93,82.8,293.07,-0.003219,-0.016413,0.882752,87.93,1
8593,0,53648,58712,53565.87,58416.95,82.12,295.05,-0.003251,-0.016516,0.881528,87.96,1
8602,0,53657,58722,53567.7,58423.05,89.3,298.95,-0.003285,-0.016621,0.88029,87.99,1
8613,0,53668,58733,53569.71,58429.25,98.29,303.75,-0.003322,-0.016727,0.879039,88.02,1
8623,0,53668,58747,53571.67,58435.61,96.33,311.39,-0.003359,-0.016836,0.877696,88.06,1
8633,0,53675,58768,53573.74,58442.26,101.26,325.74,-0.003397,-0.016949,0.876218,88.09,1
8643,0,53680,58781,53575.87,58449.04,104.13,331.96,-0.003437,-0.017065,0.874682,88.13,1
8653,0,53685,58795,53578.05,58455.96,106.95,339.04,-0.003478,-0.017184,0.873076,88.17,1
8663,0,53699,58814,53580.47,58463.12,118.53,350.88,-0.003523,-0.017306,0.871394,88.22,1
8673,0,53705,58834,53582.96,58470.54,122.04,363.46,-0.00357,-0.017433,0.869578,88.26,1
8683,0,53710,58850,53585.5,58478.13,124.5,371.87,-0.003617,-0.017563,0.86767,88.31,1
8692,0,53715,58857,53588.09,58485.71,126.91,371.29,-0.003665,-0.017693,0.865783,88.36,1
8704,0,53724,58892,53590.81,58493.83,133.19,398.17,-0.003716,-0.017831,0.863584,88.41,1
8713,0,53726,58894,53593.51,58501.83,132.48,392.16,-0.003766,-0.017968,0.861462,88.46,1
8722,0,53735,58918,53596.34,58510.16,138.66,407.84,-0.003819,-0.018111,0.859169,88.52,1
8733,0,53742,58928,53599.26,58518.51,142.74,409.48,-0.003874,-0.018253,0.856887,88.58,1
8742,0,53740,58920,53602.07,58526.54,137.93,393.46,-0.003926,-0.018391,0.854788,88.63,1
8754,0,53737,58918,53604.77,58534.37,132.23,383.63,-0.003976,-0.018524,0.852779,88.68,1
8763,0,53738,58882,53607.44,58541.32,130.56,340.68,-0.004026,-0.018643,0.851288,88.72,1
8772,0,53715,58828,53609.59,58547.06,105.41,280.94,-0.004066,-0.018741,0.850265,88.74,1
8783,0,53692,58770,53611.24,58551.51,80.76,218.48,-0.004097,-0.018817,0.849646,88.76,1
8793,0,53657,58682,53612.16,58554.13,44.84,127.87,-0.004114,-0.018862,0.849436,88.76,1
8803,0,53631,58613,53612.54,58555.31,18.46,57.69,-0.004121,-0.018882,0.849397,88.77,1
8813,0,53607,58537,53612.43,58554.94,-5.43,-17.94,-0.004119,-0.018876,0.849388,88.77,1
8823,0,53583,58481,53611.84,58553.46,-28.84,-72.46,-0.004108,-0.01885,0.849305,88.77,1
8833,0,53563,58432,53610.87,58551.04,-47.87,-119.04,-0.00409,-0.018809,0.849091,88.77,1
8844,0,53547,58391,53609.6,58547.84,-62.6,-156.84,-0.004066,-0.018754,0.848724,88.78,1
8853,0,53532,58343,53608.05,58543.74,-76.05,-200.74,-0.004038,-0.018684,0.848107,88.8,1
8862,0,53517,58324,53606.23,58539.35,-89.23,-215.35,-0.004004,-0.018609,0.847439,88.81,1
8872,0,53513,58308,53604.36,58534.72,-91.36,-226.72,-0.003969,-0.01853,0.846679,88.83,1
8883,0,53496,58296,53602.19,58529.95,-106.2,-233.95,-0.003928,-0.018449,0.845948,88.85,1
8893,0,53491,58293,53599.97,58525.21,-108.97,-232.21,-0.003887,-0.018368,0.845249,88.87,1
8902,0,53495,58278,53597.87,58520.27,-102.87,-242.27,-0.003848,-0.018283,0.844406,88.89,1
8913,0,53496,58301,53595.83,58515.89,-99.84,-214.89,-0.00381,-0.018208,0.843792,88.91,1
8923,0,53490,58311,53593.72,58511.79,-103.72,-200.79,-0.00377,-0.018138,0.843322,88.92,1
8932,0,53493,58327,53591.71,58508.09,-98.71,-181.09,-0.003733,-0.018075,0.84297,88.93,1
8943,0,53495,58344,53589.77,58504.81,-94.77,-160.81,-0.003697,-0.018019,0.842735,88.93,1
8952,0,53507,58363,53588.12,58501.98,-81.12,-138.98,-0.003666,-0.017971,0.842552,88.94,1
8964,0,53519,58376,53586.74,58499.46,-67.74,-123.46,-0.00364,-0.017928,0.842382,88.94,1
8973,0,53528,58404,53585.56,58497.55,-57.56,-93.55,-0.003618,-0.017895,0.842307,88.94,1
8983,0,53535,58432,53584.55,58496.24,-49.55,-64.24,-0.003599,-0.017873,0.842304,88.94,1
8992,0,53537,58447,53583.6,58495.26,-46.6,-48.26,-0.003581,-0.017856,0.842332,88.94,1
9004,0,53553,58481,53582.98,58494.98,-29.98,-13.98,-0.00357,-0.017851,0.842366,88.94,1
9013,0,53565,58492,53582.62,58494.92,-17.62,-2.92,-0.003563,-0.01785,0.842382,88.94,1
9023,0,53566,58518,53582.29,58495.38,-16.29,22.62,-0.003557,-0.017858,0.842393,88.94,1
9032,0,53567,58526,53581.99,58496,-14.99,30,-0.003551,-0.017868,0.842395,88.94,1
9043,0,53573,58536,53581.81,58496.8,-8.81,39.2,-0.003548,-0.017882,0.842378,88.94,1
9053,0,53570,58539,53581.57,58497.64,-11.57,41.36,-0.003544,-0.017897,0.84236,88.94,1
9063,0,53575,58546,53581.44,58498.61,-6.44,47.39,-0.003541,-0.017913,0.842327,88.94,1
9072,0,53577,58548,53581.35,58499.6,-4.35,48.4,-0.003539,-0.01793,0.842289,88.94,1
9083,0,53565,58555,53581.03,58500.71,-16.03,54.29,-0.003533,-0.017949,0.842252,88.94,1
9093,0,53567,58552,53580.75,58501.73,-13.75,50.27,-0.003528,-0.017967,0.842219,88.94,1
9103,0,53575,58552,53580.63,58502.74,-5.63,49.26,-0.003526,-0.017984,0.842179,88.95,1
9112,0,53580,58548,53580.62,58503.64,-0.62,44.36,-0.003526,-0.017999,0.842146,88.95,1
9123,0,53576,58555,53580.53,58504.67,-4.53,50.32,-0.003524,-0.018017,0.842102,88.95,1
9133,0,53578,58549,53580.48,58505.56,-2.48,43.44,-0.003523,-0.018032,0.84207,88.95,1
9143,0,53572,58554,53580.31,58506.53,-8.31,47.47,-0.00352,-0.018049,0.842034,88.95,1
9152,0,53575,58546,53580.2,58507.32,-5.2,38.68,-0.003518,-0.018062,0.842011,88.95,1
9163,0,53585,58554,53580.3,58508.25,4.7,45.75,-0.00352,-0.018078,0.841971,88.95,1
9172,0,53581,58557,53580.32,58509.23,0.68,47.77,-0.00352,-0.018095,0.841927,88.95,1
9183,0,53581,58569,53580.33,58510.42,0.67,58.57,-0.00352,-0.018115,0.841856,88.95,1
9192,0,53574,58575,53580.21,58511.72,-6.21,63.28,-0.003518,-0.018137,0.841775,88.96,1
9203,0,53580,58574,53580.21,58512.96,-0.21,61.04,-0.003518,-0.018159,0.841695,88.96,1
9212,0,53586,58580,53580.32,58514.31,5.68,65.69,-0.00352,-0.018182,0.841601,88.96,1
9223,0,53588,58596,53580.48,58515.94,7.52,80.05,-0.003523,-0.018209,0.841454,88.96,1
9232,0,53586,58604,53580.59,58517.71,5.41,86.29,-0.003525,-0.01824,0.841279,88.97,1
9243,0,53592,58627,53580.82,58519.89,11.18,107.11,-0.00353,-0.018277,0.841001,88.97,1
9252,0,53598,58632,53581.16,58522.14,16.84,109.86,-0.003536,-0.018315,0.840711,88.98,1
9263,0,53607,58655,53581.68,58524.8,25.32,130.2,-0.003546,-0.018361,0.840303,88.99,1
9272,0,53615,58677,53582.35,58527.84,32.65,149.16,-0.003558,-0.018413,0.839768,89.01,1
9283,0,53620,58691,53583.1,58531.1,36.89,159.89,-0.003572,-0.018469,0.839151,89.02,1
9292,0,53619,58709,53583.82,58534.66,35.18,174.34,-0.003586,-0.018529,0.838392,89.04,1
9304,0,53634,58741,53584.83,58538.79,49.17,202.21,-0.003604,-0.0186,0.83739,89.07,1
9313,0,53641,58746,53585.95,58542.94,55.05,203.06,-0.003625,-0.018671,0.836401,89.09,1
9323,0,53654,58782,53587.31,58547.72,66.69,234.28,-0.003651,-0.018752,0.835088,89.12,1
9332,0,53655,58781,53588.67,58552.39,66.33,228.61,-0.003676,-0.018832,0.833842,89.15,1
9342,0,53644,58765,53589.77,58556.64,54.23,208.36,-0.003697,-0.018905,0.832771,89.18,1
9353,0,53639,58725,53590.76,58560.01,48.24,164.99,-0.003715,-0.018962,0.832125,89.2,1
9362,0,53611,58664,53591.17,58562.09,19.83,101.91,-0.003723,-0.018998,0.831862,89.2,1
9373,0,53595,58599,53591.24,58562.83,3.76,36.17,-0.003724,-0.01901,0.831833,89.2,1
9382,0,53557,58515,53590.56,58561.87,-33.56,-46.88,-0.003711,-0.018994,0.831823,89.2,1
9393,0,53522,58436,53589.19,58559.35,-67.19,-123.36,-0.003686,-0.018951,0.831583,89.21,1
9402,0,53499,58342,53587.39,58555.01,-88.39,-213.01,-0.003652,-0.018877,0.830576,89.24,1
9413,0,53472,58282,53585.08,58549.55,-113.09,-267.55,-0.003609,-0.018784,0.829019,89.27,1
9422,0,53449,58227,53582.37,58543.1,-133.37,-316.1,-0.003558,-0.018673,0.826852,89.33,1
9432,0,53422,58190,53579.16,58536.04,-157.16,-346.04,-0.003499,-0.018553,0.824454,89.39,1
9443,0,53398,58153,53575.54,58528.38,-177.54,-375.38,-0.003431,-0.018422,0.821789,89.46,1
9452,0,53398,58140,53571.99,58520.62,-173.99,-380.62,-0.003365,-0.018289,0.818954,89.53,1
9463,0,53397,58146,53568.5,58513.12,-171.5,-367.13,-0.0033,-0.018161,0.816403,89.59,1
9473,0,53395,58147,53565.03,58505.8,-170.03,-358.8,-0.003235,-0.018036,0.814026,89.65,1
9482,0,53395,58163,53561.62,58498.95,-166.63,-335.95,-0.003171,-0.017919,0.812085,89.7,1
9493,0,53392,58170,53558.23,58492.37,-166.23,-322.38,-0.003108,-0.017807,0.810417,89.74,1
9502,0,53405,58189,53555.17,58486.31,-150.17,-297.31,-0.003051,-0.017703,0.808945,89.78,1
9512,0,53409,58217,53552.25,58480.92,-143.25,-263.92,-0.002996,-0.017611,0.807938,89.8,1
9523,0,53418,58236,53549.57,58476.02,-131.57,-240.02,-0.002946,-0.017527,0.80712,89.82,1
9532,0,53430,58250,53547.17,58471.5,-117.18,-221.5,-0.002901,-0.01745,0.806361,89.84,1
9543,0,53430,58271,53544.83,58467.49,-114.84,-196.49,-0.002858,-0.017381,0.805897,89.85,1
9552,0,53439,58286,53542.72,58463.86,-103.72,-177.86,-0.002818,-0.017319,0.80551,89.86,1
9563,0,53451,58311,53540.89,58460.8,-89.89,-149.8,-0.002784,-0.017267,0.805259,89.87,1
9573,0,53460,58335,53539.27,58458.29,-79.27,-123.29,-0.002754,-0.017224,0.805133,89.87,1
9582,0,53467,58348,53537.83,58456.08,-70.83,-108.09,-0.002727,-0.017186,0.805047,89.87,1
9592,0,53480,58363,53536.67,58454.23,-56.68,-91.23,-0.002705,-0.017154,0.804961,89.88,1
9602,0,53488,58376,53535.7,58452.66,-47.7,-76.66,-0.002687,-0.017127,0.804899,89.88,1
9613,0,53493,58391,53534.85,58451.43,-41.85,-60.43,-0.002671,-0.017106,0.804881,89.88,1
9622,0,53495,58396,53534.05,58450.33,-39.05,-54.33,-0.002656,-0.017087,0.804873,89.88,1
9632,0,53497,58401,53533.31,58449.34,-36.31,-48.34,-0.002642,-0.017071,0.804874,89.88,1
9643,0,53495,58404,53532.55,58448.44,-37.55,-44.44,-0.002628,-0.017055,0.804894,89.88,1
9653,0,53492,58407,53531.74,58447.61,-39.74,-40.61,-0.002613,-0.017041,0.804937,89.88,1
9662,0,53502,58401,53531.14,58446.68,-29.14,-45.68,-0.002602,-0.017025,0.804915,89.88,1
9673,0,53508,58420,53530.68,58446.14,-22.68,-26.14,-0.002593,-0.017016,0.804924,89.88,1
9682,0,53502,58405,53530.11,58445.32,-28.11,-40.32,-0.002583,-0.017002,0.804915,89.88,1
9693,0,53498,58407,53529.47,58444.56,-31.47,-37.56,-0.002571,-0.016989,0.804929,89.88,1
9702,0,53502,58406,53528.92,58443.79,-26.92,-37.79,-0.00256,-0.016976,0.804923,89.88,1
9713,0,53505,58421,53528.44,58443.33,-23.44,-22.34,-0.002552,-0.016968,0.804943,89.88,1
9722,0,53504,58427,53527.95,58443.01,-23.95,-16.01,-0.002542,-0.016962,0.804974,89.88,1
9733,0,53509,58441,53527.57,58442.97,-18.57,-1.97,-0.002535,-0.016962,0.805003,89.87,1
9742,0,53526,58450,53527.54,58443.11,-1.54,6.89,-0.002535,-0.016964,0.805004,89.87,1
9753,0,53530,58468,53527.59,58443.61,2.41,24.39,-0.002536,-0.016973,0.804988,89.88,1
9762,0,53540,58490,53527.84,58444.54,12.16,45.46,-0.00254,-0.016988,0.804929,89.88,1
9773,0,53547,58524,53528.23,58446.13,18.77,77.87,-0.002548,-0.017016,0.804737,89.88,1
9782,0,53554,58539,53528.75,58447.99,25.25,91.01,-0.002557,-0.017047,0.80448,89.89,1
9793,0,53557,58563,53529.31,58450.29,27.69,112.71,-0.002568,-0.017087,0.804063,89.9,1
9802,0,53571,58586,53530.15,58453.01,40.85,132.99,-0.002583,-0.017133,0.803513,89.91,1
9812,0,53578,58622,53531.1,58456.39,46.89,165.61,-0.002601,-0.017191,0.802621,89.93,1
9823,0,53592,58632,53532.32,58459.91,59.68,172.09,-0.002624,-0.017251,0.801734,89.96,1
9832,0,53596,58659,53533.6,58463.89,62.4,195.11,-0.002648,-0.01732,0.800534,89.99,1
9842,0,53604,58673,53535.01,58468.07,68.99,204.93,-0.002674,-0.017391,0.799238,90.02,1
9851,0,53612,58700,53536.55,58472.71,75.45,227.29,-0.002703,-0.01747,0.797623,90.06,1
9863,0,53627,58725,53538.35,58477.76,88.64,247.24,-0.002737,-0.017557,0.795789,90.11,1
9872,0,53627,58744,53540.13,58483.08,86.87,260.91,-0.00277,-0.017648,0.793655,90.16,1
9882,0,53633,58756,53541.99,58488.55,91.01,267.45,-0.002805,-0.017741,0.791441,90.21,1
9892,0,53634,58773,53543.83,58494.24,90.17,278.76,-0.002839,-0.017838,0.788974,90.28,1
9903,0,53643,58788,53545.81,58500.12,97.19,287.88,-0.002876,-0.017939,0.786408,90.34,1
9912,0,53650,58793,53547.9,58505.98,102.1,287.02,-0.002915,-0.018039,0.783945,90.4,1
9923,0,53653,58788,53550,58511.62,103,276.38,-0.002954,-0.018136,0.781743,90.46,1
9932,0,53641,58759,53551.82,58516.57,89.18,242.43,-0.002988,-0.01822,0.78004,90.5,1
9942,0,53625,58696,53553.28,58520.16,71.71,175.84,-0.003015,-0.018281,0.779223,90.52,1
9953,0,53592,58604,53554.06,58521.83,37.94,82.17,-0.00303,-0.01831,0.779074,90.52,1
9962,0,53564,58503,53554.26,58521.46,9.74,-18.46,-0.003034,-0.018304,0.77906,90.52,1
9972,0,53514,58372,53553.45,58518.47,-39.45,-146.47,-0.003019,-0.018253,0.778268,90.54,1
9981,0,53466,58248,53551.71,58513.06,-85.71,-265.06,-0.002986,-0.01816,0.775899,90.6,1
9993,0,53415,58113,53548.98,58505.06,-133.98,-392.06,-0.002935,-0.018024,0.770953,90.73,1
10002,0,53372,57997,53545.44,58494.9,-173.44,-497.9,-0.002869,-0.01785,0.763284,90.92,1
10013,0,53329,57901,53541.11,58483.02,-212.11,-582.02,-0.002788,-0.017647,0.753544,91.16,1
10022,0,53290,57834,53536.09,58470.04,-246.09,-636.04,-0.002694,-0.017425,0.743056,91.42,1
10032,0,53257,57789,53530.51,58456.42,-273.51,-667.43,-0.00259,-0.017192,0.732817,91.68,1
10043,0,53246,57760,53524.82,58442.5,-278.82,-682.5,-0.002484,-0.016954,0.722733,91.93,1
10052,0,53242,57759,53519.16,58428.83,-277.16,-669.83,-0.002378,-0.01672,0.713743,92.16,1
10061,0,53238,57762,53513.54,58415.49,-275.54,-653.49,-0.002273,-0.016491,0.705863,92.35,1
10073,0,53233,57773,53507.93,58402.64,-274.93,-629.64,-0.002168,-0.016271,0.699282,92.52,1
10082,0,53236,57786,53502.5,58390.31,-266.5,-604.31,-0.002067,-0.01606,0.693591,92.66,1
10093,0,53248,57812,53497.41,58378.75,-249.41,-566.75,-0.001972,-0.015862,0.688756,92.78,1
10102,0,53263,57822,53492.72,58367.61,-229.72,-545.61,-0.001884,-0.015671,0.684078,92.9,1
10112,0,53262,57839,53488.11,58357.04,-226.11,-518.04,-0.001798,-0.01549,0.680229,92.99,1
10123,0,53264,57875,53483.63,58347.4,-219.63,-472.4,-0.001714,-0.015325,0.677501,93.06,1
10132,0,53269,57883,53479.33,58338.12,-210.34,-455.12,-0.001634,-0.015166,0.67498,93.13,1
10142,0,53278,57901,53475.31,58329.37,-197.31,-428.38,-0.001558,-0.015016,0.672764,93.18,1
10152,0,53290,57932,53471.6,58321.43,-181.61,-389.43,-0.001489,-0.01488,0.671009,93.22,1
10162,0,53300,57955,53468.17,58314.1,-168.18,-359.11,-0.001425,-0.014754,0.669544,93.26,1
10172,0,53314,57976,53465.09,58307.34,-151.09,-331.34,-0.001367,-0.014638,0.668215,93.29,1
10182,0,53306,58002,53461.91,58301.24,-155.91,-299.24,-0.001308,-0.014533,0.667534,93.31,1
10192,0,53326,58021,53459.19,58295.63,-133.2,-274.63,-0.001257,-0.014437,0.666764,93.33,1
10203,0,53331,58041,53456.63,58290.54,-125.63,-249.54,-0.001209,-0.01435,0.666208,93.34,1
10212,0,53338,58064,53454.26,58286.01,-116.26,-222.02,-0.001165,-0.014272,0.665839,93.35,1
10222,0,53349,58073,53452.16,58281.76,-103.16,-208.76,-0.001125,-0.014199,0.665414,93.36,1
10232,0,53351,58089,53450.13,58277.91,-99.13,-188.91,-0.001087,-0.014133,0.665145,93.37,1
10243,0,53351,58096,53448.15,58274.26,-97.15,-178.27,-0.00105,-0.014071,0.664955,93.38,1
10252,0,53367,58103,53446.53,58270.84,-79.53,-167.84,-0.00102,-0.014012,0.664631,93.38,1
10262,0,53365,58118,53444.9,58267.78,-79.9,-149.79,-0.00099,-0.01396,0.664472,93.39,1
10272,0,53363,58123,53443.26,58264.89,-80.27,-141.89,-0.000959,-0.01391,0.664382,93.39,1
10283,0,53368,58132,53441.76,58262.23,-73.76,-130.23,-0.000931,-0.013864,0.664306,93.39,1
10292,0,53365,58133,53440.23,58259.65,-75.23,-126.65,-0.000902,-0.01382,0.664273,93.39,1
10302,0,53372,58136,53438.86,58257.18,-66.86,-121.18,-0.000877,-0.013778,0.664187,93.4,1
10312,0,53373,58140,53437.55,58254.84,-64.55,-114.84,-0.000852,-0.013737,0.66412,93.4,1
10321,0,53371,58131,53436.22,58252.37,-65.22,-121.37,-0.000827,-0.013695,0.664014,93.4,1
10333,0,53369,58132,53434.87,58249.96,-65.87,-117.96,-0.000802,-0.013654,0.663938,93.4,1
10342,0,53368,58133,53433.54,58247.62,-65.54,-114.62,-0.000777,-0.013613,0.663882,93.4,1
10353,0,53370,58134,53432.27,58245.35,-62.27,-111.35,-0.000753,-0.013574,0.663814,93.4,1
10362,0,53369,58140,53431,58243.24,-62,-103.24,-0.00073,-0.013538,0.663797,93.41,1
10372,0,53370,58139,53429.78,58241.16,-59.79,-102.16,-0.000707,-0.013503,0.663764,93.41,1
10383,0,53365,58138,53428.49,58239.1,-63.49,-101.1,-0.000682,-0.013467,0.663777,93.41,1
10392,0,53366,58126,53427.24,58236.84,-61.24,-110.84,-0.000659,-0.013428,0.6637,93.41,1
10402,0,53366,58139,53426.02,58234.89,-60.02,-95.89,-0.000636,-0.013395,0.663709,93.41,1
10412,0,53368,58140,53424.86,58232.99,-56.86,-92.99,-0.000615,-0.013362,0.663704,93.41,1
10422,0,53373,58145,53423.82,58231.23,-50.82,-86.23,-0.000595,-0.013332,0.663682,93.41,1
10432,0,53372,58156,53422.79,58229.73,-50.79,-73.73,-0.000576,-0.013306,0.663726,93.41,1
10441,0,53369,58149,53421.71,58228.11,-52.71,-79.11,-0.000556,-0.013279,0.663761,93.41,1
10452,0,53377,58163,53420.82,58226.81,-43.82,-63.81,-0.000539,-0.013256,0.663794,93.41,1
10462,0,53380,58175,53420.01,58225.78,-40.01,-50.78,-0.000524,-0.013238,0.663849,93.4,1
10473,0,53381,58188,53419.23,58225.02,-38.23,-37.02,-0.000509,-0.013225,0.663935,93.4,1
10482,0,53385,58197,53418.55,58224.46,-33.55,-27.46,-0.000496,-0.013216,0.664014,93.4,1
10491,0,53390,58207,53417.98,58224.12,-27.98,-17.12,-0.000486,-0.01321,0.664079,93.4,1
10502,0,53393,58199,53417.48,58223.62,-24.48,-24.62,-0.000476,-0.013201,0.664114,93.4,1
10512,0,53385,58183,53416.83,58222.8,-31.83,-39.8,-0.000464,-0.013187,0.664152,93.4,1
10522,0,53366,58136,53415.81,58221.07,-49.81,-85.07,-0.000445,-0.013158,0.664126,93.4,1
10531,0,53341,58059,53414.32,58217.83,-73.32,-158.83,-0.000417,-0.013102,0.663729,93.41,1
10543,0,53307,57952,53412.17,58212.51,-105.17,-260.51,-0.000377,-0.01301,0.662352,93.44,1
10552,0,53270,57834,53409.33,58204.94,-139.33,-370.94,-0.000324,-0.01288,0.659316,93.52,1
10561,0,53219,57712,53405.52,58195.08,-186.52,-483.08,-0.000253,-0.012711,0.654481,93.64,1
10572,0,53163,57607,53400.67,58183.32,-237.68,-576.32,-0.000162,-0.012509,0.648537,93.79,1
10582,0,53129,57509,53395.24,58169.83,-266.24,-660.84,-0.00006,-0.012277,0.640862,93.98,1
10593,0,53093,57450,53389.2,58155.44,-296.2,-705.44,0.000053,-0.01203,0.633328,94.17,1
10602,0,53074,57402,53382.9,58140.37,-308.9,-738.37,0.000171,-0.01177,0.625626,94.36,1
10611,0,53062,57389,53376.48,58125.35,-314.48,-736.35,0.000291,-0.011512,0.618871,94.53,1
10622,0,53059,57394,53370.13,58110.72,-311.13,-716.72,0.00041,-0.01126,0.613169,94.67,1
10632,0,53050,57388,53363.73,58096.27,-313.73,-708.27,0.00053,-0.011012,0.608271,94.79,1
10642,0,53055,57391,53357.56,58082.16,-302.56,-691.16,0.000646,-0.010769,0.603716,94.91,1
10652,0,53069,57424,53351.79,58069,-282.79,-645,0.000754,-0.010542,0.599972,95,1
10662,0,53076,57446,53346.27,58056.55,-270.27,-610.55,0.000858,-0.010328,0.596868,95.08,1
10672,0,53084,57463,53341.03,58044.68,-257.03,-581.68,0.000956,-0.010123,0.594138,95.15,1
10682,0,53092,57489,53336.05,58033.57,-244.05,-544.57,0.001049,-0.009932,0.591943,95.2,1
10692,0,53104,57507,53331.41,58023.04,-227.41,-516.04,0.001136,-0.00975,0.589893,95.25,1
10701,0,53116,57530,53327.1,58013.18,-211.1,-483.18,0.001217,-0.00958,0.588076,95.3,1
10713,0,53119,57557,53322.94,58004.06,-203.94,-447.06,0.001295,-0.009423,0.5868,95.33,1
10722,0,53130,57578,53319.08,57995.54,-189.08,-417.54,0.001367,-0.009276,0.585661,95.36,1
10732,0,53128,57601,53315.26,57987.65,-187.26,-386.65,0.001439,-0.00914,0.585018,95.37,1
10742,0,53148,57618,53311.92,57980.26,-163.92,-362.26,0.001502,-0.009013,0.584167,95.4,1
10752,0,53155,57636,53308.78,57973.37,-153.78,-337.37,0.001561,-0.008894,0.583457,95.41,1
10763,0,53163,57663,53305.87,57967.17,-142.87,-304.17,0.001615,-0.008787,0.582967,95.43,1
10772,0,53167,57684,53303.09,57961.5,-136.09,-277.5,0.001667,-0.008689,0.582673,95.43,1
10781,0,53167,57692,53300.37,57956.11,-133.37,-264.11,0.001718,-0.008596,0.582481,95.44,1
10792,0,53183,57709,53298.02,57951.17,-115.02,-242.17,0.001762,-0.008511,0.582188,95.45,1
10802,0,53185,57719,53295.76,57946.53,-110.76,-227.53,0.001805,-0.008431,0.581971,95.45,1
10811,0,53191,57727,53293.66,57942.14,-102.66,-215.14,0.001844,-0.008355,0.581743,95.46,1
10822,0,53189,57731,53291.57,57937.92,-102.57,-206.92,0.001883,-0.008282,0.581591,95.46,1
10831,0,53190,57733,53289.54,57933.82,-99.54,-200.82,0.001922,-0.008212,0.581446,95.46,1
10843,0,53184,57746,53287.43,57930.06,-103.43,-184.06,0.001961,-0.008147,0.581509,95.46,1
10852,0,53193,57750,53285.55,57926.46,-92.55,-176.46,0.001997,-0.008084,0.581467,95.46,1
10861,0,53193,57749,53283.69,57922.91,-90.7,-173.91,0.002031,-0.008023,0.581418,95.46,1
10872,0,53195,57753,53281.92,57919.51,-86.92,-166.52,0.002065,-0.007965,0.581373,95.47,1
10882,0,53189,57752,53280.07,57916.16,-91.07,-164.16,0.002099,-0.007907,0.581407,95.46,1
10892,0,53197,57771,53278.41,57913.26,-81.41,-142.27,0.002131,-0.007857,0.581463,95.46,1
10902,0,53209,57775,53277.02,57910.5,-68.02,-135.5,0.002157,-0.007809,0.581399,95.47,1
10911,0,53214,57785,53275.76,57907.99,-61.76,-122.99,0.00218,-0.007766,0.581346,95.47,1
10921,0,53206,57800,53274.37,57905.83,-68.37,-105.83,0.002206,-0.007728,0.581461,95.46,1
10932,0,53210,57801,53273.08,57903.73,-63.08,-102.73,0.002231,-0.007692,0.581535,95.46,1
10942,0,53217,57819,53271.96,57902.04,-54.96,-83.04,0.002252,-0.007663,0.581618,95.46,1
10951,0,53234,57830,53271.2,57900.6,-37.2,-70.6,0.002266,-0.007638,0.581608,95.46,1
10962,0,53231,57849,53270.4,57899.57,-39.4,-50.57,0.002281,-0.00762,0.581677,95.46,1
10972,0,53234,57858,53269.67,57898.74,-35.68,-40.74,0.002294,-0.007606,0.581746,95.46,1
10982,0,53237,57879,53269.02,57898.34,-32.02,-19.34,0.002307,-0.007599,0.58183,95.45,1
10991,0,53250,57881,53268.64,57898,-18.64,-17,0.002314,-0.007593,0.581854,95.45,1
11002,0,53260,57903,53268.47,57898.1,-8.47,4.9,0.002317,-0.007595,0.581863,95.45,1
11012,0,53259,57912,53268.28,57898.38,-9.29,13.62,0.002321,-0.0076,0.581871,95.45,1
11022,0,53267,57939,53268.26,57899.19,-1.26,39.8,0.002321,-0.007614,0.581838,95.45,1
11032,0,53269,57945,53268.28,57900.11,0.72,44.89,0.002321,-0.007629,0.581794,95.46,1
11042,0,53281,57969,53268.53,57901.49,12.46,67.51,0.002316,-0.007653,0.581698,95.46,1
11052,0,53286,57983,53268.88,57903.12,17.12,79.88,0.002309,-0.007681,0.581566,95.46,1
11061,0,53296,58015,53269.43,57905.36,26.57,109.64,0.002299,-0.00772,0.581322,95.47,1
11072,0,53300,58025,53270.04,57907.75,29.96,117.25,0.002287,-0.007761,0.581048,95.47,1
11081,0,53312,58039,53270.88,57910.38,41.12,128.62,0.002272,-0.007807,0.580772,95.48,1
11091,0,53317,58034,53271.8,57912.85,45.2,121.14,0.002254,-0.00785,0.580577,95.49,1
11102,0,53315,58015,53272.67,57914.9,42.33,100.1,0.002238,-0.007885,0.580483,95.49,1
11112,0,53302,57974,53273.26,57916.08,28.74,57.92,0.002227,-0.007905,0.580475,95.49,1
11121,0,53273,57882,53273.25,57915.4,-0.25,-33.4,0.002227,-0.007894,0.580436,95.49,1
11132,0,53232,57772,53272.43,57912.53,-40.43,-140.54,0.002243,-0.007844,0.580011,95.5,1
11142,0,53184,57642,53270.66,57907.12,-86.66,-265.13,0.002276,-0.007751,0.578703,95.53,1
11151,0,53134,57515,53267.92,57899.28,-133.93,-384.29,0.002327,-0.007615,0.576222,95.59,1
11162,0,53085,57416,53264.26,57889.62,-179.27,-473.62,0.002396,-0.007448,0.573045,95.67,1
11171,0,53049,57320,53259.96,57878.23,-210.96,-558.23,0.002477,-0.007251,0.568785,95.78,1
11183,0,53011,57261,53254.98,57865.88,-243.98,-604.88,0.00257,-0.007038,0.564737,95.88,1
11192,0,52998,57218,53249.84,57852.92,-251.84,-634.93,0.002667,-0.006814,0.560307,95.99,1
11201,0,52991,57201,53244.67,57839.89,-253.67,-638.89,0.002764,-0.006589,0.55608,96.1,1
11212,0,52982,57198,53239.42,57827.05,-257.42,-629.05,0.002863,-0.006367,0.552557,96.19,1
11222,0,52976,57205,53234.15,57814.61,-258.15,-609.61,0.002962,-0.006152,0.549812,96.25,1
11233,0,52984,57226,53229.14,57802.84,-245.14,-576.84,0.003056,-0.005948,0.547497,96.31,1
11242,0,53000,57250,53224.56,57791.78,-224.56,-541.79,0.003142,-0.005757,0.545296,96.37,1
11251,0,53014,57263,53220.35,57781.21,-206.35,-518.21,0.003221,-0.005574,0.543029,96.42,1
11262,0,53029,57310,53216.52,57771.78,-187.52,-461.79,0.003293,-0.005411,0.541387,96.47,1
11272,0,53042,57329,53213.03,57762.93,-171.04,-433.93,0.003358,-0.005257,0.539805,96.5,1
11281,0,53049,57349,53209.76,57754.65,-160.76,-405.65,0.00342,-0.005114,0.538464,96.54,1
11292,0,53062,57370,53206.8,57746.96,-144.8,-376.96,0.003475,-0.004981,0.537199,96.57,1
11301,0,53064,57387,53203.94,57739.76,-139.95,-352.76,0.003529,-0.004856,0.536206,96.59,1
11313,0,53078,57420,53201.42,57733.36,-123.43,-313.36,0.003576,-0.004745,0.535404,96.61,1
11322,0,53077,57440,53198.94,57727.5,-121.94,-287.5,0.003623,-0.004644,0.534911,96.63,1
11331,0,53083,57451,53196.62,57721.97,-113.62,-270.97,0.003667,-0.004548,0.534446,96.64,1
11342,0,53112,57477,53194.93,57717.07,-82.93,-240.07,0.003699,-0.004463,0.533783,96.66,1
11352,0,53106,57499,53193.15,57712.71,-87.15,-213.71,0.003732,-0.004388,0.53345,96.66,1
11361,0,53115,57524,53191.59,57708.94,-76.59,-184.94,0.003761,-0.004322,0.533213,96.67,1
11372,0,53116,57548,53190.08,57705.72,-74.08,-157.72,0.00379,-0.004267,0.533151,96.67,1
11381,0,53125,57545,53188.78,57702.51,-63.78,-157.51,0.003814,-0.004211,0.532957,96.68,1
11392,0,53131,57554,53187.62,57699.53,-56.63,-145.54,0.003836,-0.004159,0.532764,96.68,1
11402,0,53135,57557,53186.57,57696.69,-51.57,-139.69,0.003856,-0.00411,0.532557,96.69,1
11412,0,53131,57580,53185.46,57694.35,-54.46,-114.36,0.003877,-0.00407,0.532529,96.69,1
11421,0,53129,57571,53184.33,57691.89,-55.34,-120.89,0.003898,-0.004027,0.532473,96.69,1
11430,0,53136,57575,53183.37,57689.55,-47.37,-114.55,0.003916,-0.003986,0.532373,96.69,1
11442,0,53145,57573,53182.6,57687.23,-37.6,-114.23,0.00393,-0.003946,0.532191,96.7,1
11451,0,53134,57570,53181.62,57684.88,-47.63,-114.88,0.003949,-0.003905,0.53209,96.7,1
11462,0,53137,57571,53180.73,57682.61,-43.73,-111.61,0.003966,-0.003866,0.531971,96.7,1
11471,0,53134,57573,53179.8,57680.42,-45.8,-107.42,0.003983,-0.003828,0.531892,96.7,1
11482,0,53137,57579,53178.94,57678.39,-41.94,-99.39,0.003999,-0.003793,0.53182,96.7,1
11492,0,53146,57582,53178.28,57676.46,-32.28,-94.46,0.004012,-0.003759,0.531697,96.71,1
11501,0,53148,57587,53177.67,57674.67,-29.68,-87.68,0.004023,-0.003728,0.531587,96.71,1
11511,0,53149,57591,53177.1,57673,-28.11,-82,0.004034,-0.003699,0.531492,96.71,1
11521,0,53148,57611,53176.52,57671.76,-28.52,-60.77,0.004045,-0.003678,0.531478,96.71,1
11532,0,53151,57604,53176.01,57670.41,-25.01,-66.41,0.004054,-0.003654,0.531425,96.71,1
11541,0,53162,57615,53175.73,57669.3,-13.73,-54.3,0.00406,-0.003635,0.531362,96.72,1
11551,0,53176,57633,53175.74,57668.58,0.26,-35.58,0.004059,-0.003623,0.531323,96.72,1
11560,0,53169,57640,53175.6,57668.01,-6.6,-28.01,0.004062,-0.003613,0.531303,96.72,1
11572,0,53169,57654,53175.47,57667.73,-6.47,-13.73,0.004064,-0.003608,0.531302,96.72,1
11581,0,53181,57673,53175.58,57667.83,5.42,5.16,0.004062,-0.00361,0.531304,96.72,1
11591,0,53186,57690,53175.79,57668.28,10.21,21.72,0.004058,-0.003618,0.531305,96.72,1
11601,0,53195,57695,53176.17,57668.82,18.83,26.18,0.004051,-0.003627,0.531328,96.72,1
11612,0,53201,57711,53176.67,57669.66,24.33,41.34,0.004042,-0.003641,0.531351,96.72,1
11621,0,53200,57734,53177.14,57670.95,22.86,63.05,0.004033,-0.003664,0.531309,96.72,1
11632,0,53210,57749,53177.79,57672.51,32.21,76.49,0.004021,-0.003691,0.531274,96.72,1
11641,0,53227,57755,53178.78,57674.16,48.22,80.84,0.004002,-0.00372,0.531368,96.72,1
11652,0,53229,57788,53179.78,57676.44,49.22,111.55,0.003983,-0.003759,0.531312,96.72,1
11661,0,53239,57806,53180.97,57679.04,58.03,126.96,0.003961,-0.003804,0.531264,96.72,1
11672,0,53244,57825,53182.23,57681.96,61.77,143.04,0.003937,-0.003855,0.531146,96.72,1
11681,0,53248,57840,53183.55,57685.12,64.45,154.88,0.003913,-0.00391,0.530968,96.73,1
11691,0,53260,57853,53185.07,57688.48,74.93,164.52,0.003884,-0.003968,0.530876,96.73,1
11702,0,53255,57846,53186.48,57691.63,68.52,154.37,0.003857,-0.004022,0.530766,96.73,1
11711,0,53252,57807,53187.78,57693.94,64.21,113.06,0.003833,-0.004062,0.530907,96.73,1
11721,0,53225,57736,53188.53,57694.78,36.47,41.22,0.003819,-0.004077,0.531023,96.72,1
11731,0,53196,57626,53188.68,57693.41,7.32,-67.41,0.003816,-0.004053,0.530878,96.73,1
11742,0,53153,57497,53187.96,57689.48,-34.96,-192.48,0.00383,-0.003985,0.52987,96.75,1
11751,0,53102,57382,53186.25,57683.33,-84.25,-301.33,0.003862,-0.003878,0.527962,96.8,1
11762,0,53051,57275,53183.54,57675.17,-132.54,-400.17,0.003913,-0.003737,0.525312,96.87,1
11771,0,52997,57180,53179.82,57665.26,-182.82,-485.27,0.003983,-0.003565,0.522505,96.94,1
11781,0,52972,57112,53175.66,57654.2,-203.66,-542.2,0.004061,-0.003373,0.519124,97.02,1
11792,0,52954,57073,53171.23,57642.58,-217.23,-569.58,0.004144,-0.003172,0.515755,97.11,1
11801,0,52949,57055,53166.79,57630.83,-217.79,-575.83,0.004228,-0.002968,0.512395,97.19,1
11812,0,52945,57067,53162.35,57619.55,-217.35,-552.55,0.004311,-0.002772,0.509873,97.25,1
11822,0,52946,57076,53158.02,57608.68,-212.02,-532.68,0.004393,-0.002584,0.507752,97.31,1
11831,0,52961,57091,53154.08,57598.33,-193.08,-507.33,0.004467,-0.002404,0.505499,97.36,1
11842,0,52976,57125,53150.52,57588.86,-174.52,-463.86,0.004534,-0.002239,0.50359,97.41,1
11851,0,52982,57165,53147.15,57580.39,-165.15,-415.39,0.004597,-0.002092,0.502416,97.44,1
11860,0,53000,57195,53144.21,57572.68,-144.21,-377.68,0.004652,-0.001958,0.50126,97.47,1
11872,0,53008,57233,53141.49,57565.89,-133.49,-332.89,0.004704,-0.00184,0.500559,97.49,1
11881,0,53029,57253,53139.24,57559.63,-110.24,-306.63,0.004746,-0.001732,0.499627,97.51,1
11892,0,53034,57273,53137.13,57553.9,-103.13,-280.9,0.004786,-0.001632,0.498897,97.53,1
11901,0,53048,57297,53135.35,57548.76,-87.35,-251.76,0.004819,-0.001543,0.498204,97.54,1
11911,0,53060,57317,53133.84,57544.13,-73.84,-227.13,0.004848,-0.001462,0.497549,97.56,1
11922,0,53065,57341,53132.47,57540.07,-67.47,-199.07,0.004873,-0.001392,0.497084,97.57,1
11931,0,53068,57354,53131.18,57536.34,-63.18,-182.34,0.004898,-0.001327,0.496712,97.58,1
11941,0,53088,57394,53130.32,57533.5,-42.32,-139.5,0.004914,-0.001277,0.496424,97.59,1
11952,0,53093,57413,53129.57,57531.09,-36.57,-118.09,0.004928,-0.001236,0.496221,97.59,1
11961,0,53109,57430,53129.16,57529.07,-20.16,-99.07,0.004936,-0.001201,0.496009,97.6,1
11971,0,53101,57454,53128.6,57527.57,-27.6,-73.57,0.004946,-0.001174,0.495956,97.6,1
11980,0,53117,57460,53128.37,57526.21,-11.37,-66.21,0.004951,-0.001151,0.495849,97.6,1
11992,0,53121,57471,53128.23,57525.11,-7.23,-54.11,0.004953,-0.001132,0.495772,97.61,1
12001,0,53129,57475,53128.24,57524.11,0.76,-49.11,0.004953,-0.001114,0.4957,97.61,1
12011,0,53129,57488,53128.26,57523.39,0.74,-35.39,0.004953,-0.001102,0.495661,97.61,1
12021,0,53130,57485,53128.3,57522.62,1.7,-37.63,0.004952,-0.001089,0.495616,97.61,1
12032,0,53132,57490,53128.37,57521.97,3.63,-31.97,0.004951,-0.001077,0.495584,97.61,1
12041,0,53134,57485,53128.48,57521.23,5.52,-36.23,0.004948,-0.001064,0.495545,97.61,1
12052,0,53136,57498,53128.63,57520.77,7.37,-22.77,0.004946,-0.001056,0.495532,97.61,1
12061,0,53133,57494,53128.72,57520.24,4.28,-26.24,0.004944,-0.001047,0.49551,97.61,1
12071,0,53129,57502,53128.73,57519.87,0.27,-17.87,0.004944,-0.001041,0.495498,97.61,1
12081,0,53143,57496,53129.01,57519.4,13.99,-23.4,0.004938,-0.001032,0.495502,97.61,1
12092,0,53135,57510,53129.13,57519.21,5.87,-9.21,0.004936,-0.001029,0.495502,97.61,1
12101,0,53143,57521,53129.41,57519.25,13.59,1.75,0.004931,-0.00103,0.495525,97.61,1
12111,0,53151,57540,53129.84,57519.67,21.16,20.33,0.004923,-0.001037,0.495575,97.61,1
12121,0,53148,57547,53130.21,57520.22,17.79,26.78,0.004916,-0.001047,0.4956,97.61,1
12132,0,53158,57566,53130.76,57521.14,27.23,44.86,0.004905,-0.001063,0.495648,97.61,1
12141,0,53162,57585,53131.39,57522.41,30.61,62.59,0.004894,-0.001085,0.49567,97.61,1
12151,0,53178,57609,53132.32,57524.15,45.68,84.85,0.004876,-0.001115,0.495759,97.61,1
12161,0,53178,57616,53133.24,57525.99,44.76,90.01,0.004859,-0.001147,0.495811,97.6,1
12171,0,53180,57639,53134.17,57528.25,45.82,110.75,0.004841,-0.001186,0.495752,97.61,1
12181,0,53192,57651,53135.33,57530.71,56.67,120.29,0.00482,-0.001229,0.495789,97.61,1
12190,0,53199,57665,53136.6,57533.39,62.39,131.61,0.004796,-0.001276,0.49584,97.6,1
12201,0,53205,57695,53137.98,57536.62,67.02,158.38,0.00477,-0.001332,0.495739,97.61,1
12211,0,53213,57710,53139.48,57540.09,73.52,169.91,0.004742,-0.001392,0.495657,97.61,1
12222,0,53221,57735,53141.11,57543.99,79.89,191.01,0.004711,-0.00146,0.495482,97.61,1
12231,0,53225,57745,53142.79,57548.01,82.21,196.99,0.004679,-0.00153,0.495292,97.62,1
12241,0,53240,57774,53144.73,57552.53,95.27,221.47,0.004643,-0.001608,0.49513,97.62,1
12251,0,53250,57792,53146.84,57557.32,103.16,234.68,0.004603,-0.001692,0.495017,97.62,1
12261,0,53253,57805,53148.96,57562.28,104.04,242.72,0.004563,-0.001778,0.494809,97.63,1
12271,0,53253,57825,53151.04,57567.53,101.96,257.47,0.004524,-0.001869,0.4943,97.64,1
12280,0,53269,57845,53153.4,57573.08,115.6,271.92,0.00448,-0.001965,0.494009,97.65,1
12292,0,53284,57866,53156.01,57578.94,127.98,287.06,0.00443,-0.002067,0.493917,97.65,1
12301,0,53286,57890,53158.61,57585.16,127.39,304.84,0.004382,-0.002175,0.493466,97.66,1
12310,0,53293,57914,53161.3,57591.74,131.7,322.26,0.004331,-0.002289,0.492846,97.68,1
12321,0,53295,57923,53163.97,57598.37,131.03,324.63,0.004281,-0.002405,0.49216,97.7,1
12331,0,53305,57904,53166.8,57604.48,138.2,299.52,0.004228,-0.002511,0.492277,97.69,1
12342,0,53292,57883,53169.3,57610.05,122.7,272.95,0.00418,-0.002607,0.492251,97.69,1
12351,0,53280,57822,53171.51,57614.3,108.48,207.7,0.004139,-0.002681,0.492711,97.68,1
12360,0,53247,57718,53173.03,57616.37,73.97,101.63,0.00411,-0.002717,0.493237,97.67,1
12371,0,53202,57616,53173.6,57616.36,28.39,-0.36,0.0041,-0.002717,0.493358,97.67,1
12381,0,53158,57486,53173.29,57613.76,-15.29,-127.76,0.004105,-0.002672,0.492838,97.68,1
12391,0,53121,57394,53172.25,57609.36,-51.25,-215.36,0.004125,-0.002595,0.491695,97.71,1
12401,0,53070,57306,53170.2,57603.3,-100.2,-297.3,0.004164,-0.00249,0.490356,97.74,1
12411,0,53037,57267,53167.54,57596.57,-130.54,-329.57,0.004214,-0.002373,0.489492,97.76,1
12421,0,53017,57234,53164.53,57589.32,-147.53,-355.32,0.00427,-0.002247,0.488821,97.78,1
12431,0,53012,57218,53161.48,57581.89,-149.48,-363.89,0.004328,-0.002118,0.488056,97.8,1
12441,0,53019,57216,53158.62,57574.58,-139.63,-358.58,0.004381,-0.001991,0.486983,97.83,1
12450,0,53023,57237,53155.91,57567.82,-132.91,-330.82,0.004432,-0.001874,0.486252,97.84,1
12461,0,53020,57263,53153.19,57561.73,-133.2,-298.73,0.004483,-0.001768,0.486187,97.85,1
12471,0,53038,57285,53150.89,57556.19,-112.89,-271.2,0.004527,-0.001672,0.485835,97.85,1
12481,0,53054,57312,53148.96,57551.31,-94.96,-239.31,0.004563,-0.001587,0.485417,97.86,1
12491,0,53066,57350,53147.3,57547.29,-81.3,-197.29,0.004594,-0.001517,0.485207,97.87,1
12500,0,53077,57373,53145.89,57543.8,-68.89,-170.8,0.004621,-0.001457,0.485014,97.87,1
12511,0,53085,57405,53144.67,57541.03,-59.68,-136.03,0.004644,-0.001409,0.484977,97.88,1
12521,0,53104,57420,53143.86,57538.61,-39.86,-118.61,0.004659,-0.001366,0.484765,97.88,1
12530,0,53114,57452,53143.27,57536.88,-29.27,-84.88,0.00467,-0.001336,0.48466,97.88,1
12541,0,53125,57468,53142.91,57535.5,-17.91,-67.5,0.004677,-0.001312,0.484554,97.89,1
12551,0,53139,57507,53142.83,57534.93,-3.83,-27.93,0.004678,-0.001302,0.484526,97.89,1
12561,0,53141,57532,53142.8,57534.87,-1.8,-2.88,0.004679,-0.001302,0.484526,97.89,1
12570,0,53155,57557,53143.04,57535.32,11.96,21.68,0.004674,-0.001309,0.484536,97.89,1
12581,0,53165,57578,53143.48,57536.17,21.52,41.83,0.004666,-0.001324,0.484559,97.89,1
12591,0,53176,57602,53144.14,57537.49,31.86,64.51,0.004654,-0.001347,0.484595,97.89,1
12601,0,53186,57637,53144.97,57539.48,41.03,97.52,0.004638,-0.001382,0.484566,97.89,1
12611,0,53193,57658,53145.93,57541.85,47.07,116.15,0.00462,-0.001423,0.484491,97.89,1
12621,0,53197,57673,53146.96,57544.47,50.04,128.53,0.004601,-0.001468,0.484361,97.89,1
12631,0,53209,57675,53148.2,57547.08,60.8,127.91,0.004577,-0.001514,0.484447,97.89,1
12640,0,53217,57696,53149.57,57550.06,67.43,145.94,0.004552,-0.001565,0.484511,97.89,1
12651,0,53215,57695,53150.88,57552.96,64.12,142.04,0.004527,-0.001616,0.484536,97.89,1
12660,0,53213,57701,53152.13,57555.92,60.87,145.08,0.004503,-0.001667,0.484457,97.89,1
12672,0,53215,57708,53153.39,57558.96,61.61,149.04,0.00448,-0.00172,0.484352,97.89,1
12681,0,53221,57696,53154.74,57561.7,66.26,134.3,0.004454,-0.001768,0.484507,97.89,1
12691,0,53218,57715,53156.01,57564.77,61.99,150.23,0.00443,-0.001821,0.484396,97.89,1
12701,0,53227,57720,53157.42,57567.87,69.57,152.13,0.004404,-0.001875,0.484448,97.89,1
12710,0,53229,57727,53158.85,57571.06,70.14,155.94,0.004377,-0.00193,0.484472,97.89,1
12721,0,53225,57724,53160.18,57574.12,64.82,149.88,0.004352,-0.001983,0.48443,97.89,1
12730,0,53235,57740,53161.67,57577.44,73.32,162.56,0.004324,-0.002041,0.484462,97.89,1
12741,0,53237,57751,53163.18,57580.91,73.82,170.09,0.004296,-0.002101,0.484412,97.89,1
12750,0,53242,57765,53164.76,57584.59,77.24,180.41,0.004266,-0.002165,0.484324,97.89,1
12762,0,53242,57794,53166.3,57588.78,75.7,205.22,0.004237,-0.002238,0.483823,97.9,1
12771,0,53248,57801,53167.94,57593.03,80.06,207.97,0.004206,-0.002312,0.483411,97.91,1
12780,0,53263,57817,53169.84,57597.51,93.16,219.49,0.00417,-0.00239,0.483253,97.92,1
12791,0,53273,57837,53171.91,57602.3,101.09,234.7,0.004131,-0.002473,0.483129,97.92,1
12801,0,53273,57849,53173.93,57607.23,99.07,241.77,0.004093,-0.002558,0.482797,97.93,1
12811,0,53283,57874,53176.12,57612.57,106.88,261.43,0.004052,-0.002651,0.482401,97.94,1
12821,0,53285,57882,53178.3,57617.96,106.7,264.04,0.004011,-0.002744,0.48195,97.95,1
12831,0,53295,57904,53180.63,57623.68,114.37,280.32,0.003967,-0.002844,0.481495,97.96,1
12840,0,53309,57928,53183.19,57629.76,125.8,298.23,0.003919,-0.002949,0.481184,97.97,1
12850,0,53312,57946,53185.77,57636.09,126.23,309.91,0.003871,-0.003059,0.480631,97.98,1
12861,0,53315,57959,53188.35,57642.55,126.64,316.45,0.003822,-0.003171,0.479955,98,1
12870,0,53322,57969,53191.03,57649.08,130.97,319.92,0.003772,-0.003284,0.479424,98.01,1
12881,0,53335,57985,53193.91,57655.8,141.09,329.2,0.003718,-0.003401,0.479206,98.02,1
12891,0,53336,58015,53196.75,57662.98,139.25,352.02,0.003664,-0.003526,0.478325,98.04,1
12900,0,53348,58033,53199.78,57670.39,148.22,362.61,0.003607,-0.003654,0.477676,98.06,1
12911,0,53346,58041,53202.7,57677.8,143.3,363.2,0.003552,-0.003783,0.476765,98.08,1
12920,0,53361,58058,53205.87,57685.41,155.13,372.59,0.003493,-0.003914,0.476286,98.09,1
12931,0,53372,58080,53209.19,57693.3,162.81,386.7,0.003431,-0.004051,0.475892,98.1,1
12941,0,53380,58091,53212.61,57701.26,167.39,389.74,0.003366,-0.004189,0.475704,98.11,1
12951,0,53385,58116,53216.06,57709.55,168.94,406.45,0.003301,-0.004333,0.475162,98.12,1
12960,0,53394,58114,53219.62,57717.64,174.38,396.36,0.003235,-0.004473,0.475241,98.12,1
12971,0,53385,58089,53222.92,57725.07,162.07,363.93,0.003172,-0.004602,0.475418,98.11,1
12981,0,53374,58042,53225.95,57731.41,148.05,310.59,0.003116,-0.004712,0.476031,98.1,1
12990,0,53349,57962,53228.41,57736.02,120.59,225.98,0.003069,-0.004791,0.476865,98.08,1
13001,0,53313,57879,53230.1,57738.88,82.89,140.12,0.003038,-0.004841,0.477412,98.06,1
13010,0,53270,57763,53230.9,57739.37,39.1,23.63,0.003023,-0.004849,0.477659,98.06,1
13020,0,53228,57667,53230.84,57737.92,-2.84,-70.92,0.003024,-0.004824,0.477475,98.06,1
13031,0,53190,57575,53230.03,57734.66,-40.03,-159.66,0.003039,-0.004768,0.476857,98.08,1
13040,0,53166,57523,53228.75,57730.43,-62.75,-207.43,0.003063,-0.004695,0.476044,98.1,1
13050,0,53142,57480,53227.01,57725.42,-85.02,-245.43,0.003096,-0.004608,0.475227,98.12,1
13061,0,53125,57461,53224.98,57720.14,-99.98,-259.14,0.003134,-0.004516,0.474676,98.13,1
13071,0,53116,57450,53222.8,57714.73,-106.8,-264.73,0.003175,-0.004423,0.474285,98.14,1
13080,0,53121,57460,53220.76,57709.64,-99.77,-249.64,0.003213,-0.004334,0.473904,98.15,1
13091,0,53130,57485,53218.95,57705.15,-88.95,-220.15,0.003247,-0.004257,0.473638,98.16,1
13101,0,53133,57509,53217.23,57701.23,-84.23,-192.23,0.003279,-0.004189,0.47363,98.16,1
13110,0,53142,57532,53215.73,57697.84,-73.73,-165.84,0.003308,-0.00413,0.47365,98.16,1
13121,0,53145,57551,53214.32,57694.91,-69.32,-143.91,0.003334,-0.004079,0.473796,98.16,1
13130,0,53166,57574,53213.35,57692.49,-47.35,-118.49,0.003352,-0.004037,0.473703,98.16,1
13140,0,53174,57607,53212.57,57690.78,-38.57,-83.78,0.003367,-0.004008,0.473724,98.16,1
13151,0,53184,57624,53212,57689.44,-28,-65.45,0.003378,-0.003984,0.473712,98.16,1
13161,0,53185,57659,53211.46,57688.83,-26.46,-29.84,0.003388,-0.003974,0.473813,98.15,1
13170,0,53198,57663,53211.19,57688.32,-13.19,-25.32,0.003393,-0.003965,0.473821,98.15,1
13181,0,53213,57694,53211.23,57688.43,1.77,5.57,0.003392,-0.003967,0.473821,98.15,1
13191,0,53221,57716,53211.43,57688.99,9.57,27.01,0.003388,-0.003977,0.473815,98.15,1
13201,0,53231,57747,53211.82,57690.15,19.18,56.85,0.003381,-0.003997,0.473771,98.16,1
13210,0,53232,57764,53212.23,57691.63,19.77,72.37,0.003373,-0.004022,0.473657,98.16,1
13219,0,53244,57781,53212.87,57693.42,31.13,87.58,0.003361,-0.004053,0.473565,98.16,1
13231,0,53251,57798,53213.63,57695.51,37.37,102.48,0.003347,-0.00409,0.473451,98.16,1
13240,0,53257,57819,53214.5,57697.98,42.5,121.02,0.003331,-0.004132,0.473259,98.17,1
13250,0,53256,57828,53215.33,57700.58,40.67,127.41,0.003315,-0.004178,0.472973,98.18,1
13260,0,53264,57838,53216.3,57703.33,47.7,134.66,0.003297,-0.004225,0.47274,98.18,1
13271,0,53268,57835,53217.34,57705.97,50.66,129.03,0.003277,-0.004271,0.472625,98.18,1
13280,0,53273,57839,53218.45,57708.63,54.55,130.37,0.003256,-0.004317,0.472583,98.19,1
13291,0,53276,57856,53219.6,57711.58,56.39,144.42,0.003235,-0.004368,0.472429,98.19,1
13300,0,53270,57856,53220.61,57714.47,49.39,141.53,0.003216,-0.004418,0.472149,98.2,1
13312,0,53276,57862,53221.72,57717.42,54.28,144.58,0.003195,-0.004469,0.471942,98.2,1
13321,0,53272,57860,53222.73,57720.27,49.27,139.73,0.003176,-0.004519,0.471678,98.21,1
13330,0,53278,57862,53223.83,57723.1,54.16,138.89,0.003155,-0.004568,0.471533,98.21,1
13340,0,53281,57877,53224.98,57726.18,56.02,150.82,0.003134,-0.004621,0.47129,98.22,1
13350,0,53282,57881,53226.12,57729.28,55.88,151.72,0.003112,-0.004675,0.471031,98.22,1
13361,0,53279,57888,53227.18,57732.46,51.82,155.54,0.003092,-0.00473,0.470624,98.23,1
13370,0,53290,57893,53228.44,57735.67,61.56,157.33,0.003069,-0.004785,0.470442,98.24,1
13381,0,53300,57908,53229.87,57739.12,70.13,168.88,0.003042,-0.004845,0.470355,98.24,1
13390,0,53298,57923,53231.23,57742.8,66.77,180.2,0.003016,-0.004909,0.469996,98.25,1
13400,0,53304,57941,53232.69,57746.76,71.31,194.24,0.002989,-0.004977,0.469556,98.26,1
13411,0,53303,57945,53234.09,57750.73,68.91,194.27,0.002963,-0.005046,0.46904,98.27,1
13420,0,53317,57958,53235.75,57754.87,81.25,203.13,0.002931,-0.005118,0.468801,98.28,1
13430,0,53316,57984,53237.36,57759.46,78.64,224.54,0.002901,-0.005197,0.468075,98.3,1
13441,0,53328,58002,53239.17,57764.31,88.83,237.69,0.002867,-0.005281,0.467488,98.31,1
13451,0,53331,58021,53241.01,57769.44,89.99,251.55,0.002833,-0.00537,0.466666,98.33,1
13460,0,53336,58031,53242.91,57774.68,93.09,256.32,0.002797,-0.005461,0.465882,98.35,1
13469,0,53349,58047,53245.03,57780.13,103.96,266.87,0.002757,-0.005555,0.46537,98.37,1
13480,0,53358,58065,53247.3,57785.83,110.7,279.17,0.002715,-0.005654,0.464915,98.38,1
13490,0,53359,58072,53249.53,57791.55,109.47,280.45,0.002673,-0.005753,0.464377,98.39,1
13501,0,53370,58103,53251.94,57797.78,118.06,305.21,0.002627,-0.005861,0.463692,98.41,1
13510,0,53370,58116,53254.3,57804.15,115.7,311.85,0.002583,-0.005971,0.462728,98.43,1
13519,0,53373,58126,53256.67,57810.59,116.32,315.41,0.002539,-0.006082,0.461729,98.46,1
13531,0,53389,58140,53259.32,57817.18,129.68,322.82,0.002489,-0.006196,0.461299,98.47,1
13540,0,53390,58154,53261.94,57823.91,128.06,330.09,0.00244,-0.006313,0.460599,98.49,1
13551,0,53400,58175,53264.7,57830.94,135.3,344.06,0.002388,-0.006434,0.459967,98.5,1
13560,0,53405,58191,53267.51,57838.14,137.49,352.86,0.002335,-0.006559,0.459245,98.52,1
13570,0,53414,58192,53270.44,57845.22,143.55,346.78,0.00228,-0.006681,0.45908,98.52,1
13581,0,53415,58207,53273.34,57852.46,141.66,354.54,0.002226,-0.006806,0.458597,98.54,1
13590,0,53423,58194,53276.33,57859.29,146.66,334.71,0.002169,-0.006924,0.458951,98.53,1
13601,0,53406,58162,53278.93,57865.34,127.07,296.66,0.002121,-0.007029,0.459068,98.52,1
13611,0,53387,58099,53281.09,57870.02,105.91,228.98,0.00208,-0.00711,0.459479,98.51,1
13620,0,53366,58004,53282.79,57872.7,83.21,131.3,0.002048,-0.007156,0.460305,98.49,1
13631,0,53329,57911,53283.71,57873.46,45.29,37.54,0.002031,-0.007169,0.46069,98.48,1
13640,0,53290,57812,53283.84,57872.23,6.16,-60.23,0.002029,-0.007148,0.460545,98.49,1
13650,0,53242,57722,53283,57869.23,-41,-147.23,0.002044,-0.007096,0.460044,98.5,1
13660,0,53210,57644,53281.54,57864.73,-71.54,-220.73,0.002072,-0.007018,0.459226,98.52,1
13671,0,53195,57596,53279.81,57859.35,-84.81,-263.35,0.002104,-0.006925,0.458055,98.55,1
13680,0,53174,57555,53277.7,57853.26,-103.7,-298.27,0.002144,-0.00682,0.456915,98.58,1
13689,0,53156,57547,53275.26,57847.14,-119.27,-300.14,0.002189,-0.006714,0.456511,98.59,1
13701,0,53154,57542,53272.84,57841.04,-118.84,-299.04,0.002235,-0.006609,0.456118,98.6,1
13710,0,53150,57541,53270.38,57835.04,-120.38,-294.04,0.002281,-0.006505,0.455926,98.6,1
13721,0,53162,57565,53268.21,57829.64,-106.21,-264.64,0.002322,-0.006412,0.455671,98.61,1
13730,0,53164,57584,53266.13,57824.73,-102.13,-240.73,0.002361,-0.006327,0.455698,98.61,1
13740,0,53178,57605,53264.37,57820.34,-86.37,-215.34,0.002394,-0.006251,0.455525,98.61,1
13751,0,53181,57631,53262.71,57816.56,-81.71,-185.56,0.002425,-0.006185,0.455642,98.61,1
13760,0,53177,57642,53260.99,57813.07,-83.99,-171.07,0.002457,-0.006125,0.456044,98.6,1
13770,0,53196,57663,53259.69,57810.07,-63.7,-147.07,0.002482,-0.006073,0.456084,98.6,1
13780,0,53207,57693,53258.64,57807.73,-51.64,-114.73,0.002502,-0.006033,0.456151,98.6,1
13790,0,53216,57713,53257.79,57805.84,-41.79,-92.84,0.002518,-0.006,0.456193,98.6,1
13800,0,53217,57734,53256.98,57804.4,-39.98,-70.4,0.002533,-0.005975,0.456352,98.59,1
13809,0,53225,57750,53256.34,57803.32,-31.34,-53.32,0.002545,-0.005956,0.456457,98.59,1
13820,0,53235,57772,53255.91,57802.69,-20.91,-30.69,0.002553,-0.005945,0.456518,98.59,1
13830,0,53245,57788,53255.69,57802.4,-10.7,-14.4,0.002557,-0.005941,0.456536,98.59,1
13840,0,53252,57807,53255.62,57802.5,-3.62,4.5,0.002558,-0.005942,0.45654,98.59,1
13849,0,53260,57827,53255.71,57802.99,4.29,24.01,0.002557,-0.005951,0.456523,98.59,1
13860,0,53254,57846,53255.67,57803.85,-1.67,42.15,0.002557,-0.005966,0.456456,98.59,1
13870,0,53275,57850,53256.06,57804.78,18.94,45.22,0.00255,-0.005982,0.456459,98.59,1
13880,0,53276,57872,53256.46,57806.12,19.54,65.87,0.002543,-0.006005,0.456372,98.59,1
13890,0,53286,57882,53257.05,57807.64,28.95,74.36,0.002532,-0.006031,0.456345,98.59,1
13900,0,53281,57889,53257.53,57809.27,23.47,79.73,0.002522,-0.006059,0.456212,98.59,1
13910,0,53285,57892,53258.08,57810.93,26.92,81.07,0.002512,-0.006088,0.456111,98.6,1
13921,0,53291,57898,53258.74,57812.67,32.26,85.33,0.0025,-0.006118,0.456057,98.6,1
13930,0,53297,57896,53259.51,57814.33,37.49,81.66,0.002485,-0.006147,0.456122,98.6,1
13940,0,53303,57910,53260.38,57816.25,42.62,93.75,0.002469,-0.00618,0.456198,98.6,1
13949,0,53296,57905,53261.09,57818.03,34.91,86.97,0.002456,-0.006211,0.456175,98.6,1
13961,0,53297,57909,53261.81,57819.85,35.19,89.15,0.002442,-0.006242,0.45614,98.6,1
13970,0,53302,57913,53262.62,57821.71,39.38,91.29,0.002427,-0.006275,0.456169,98.6,1
13980,0,53308,57921,53263.53,57823.7,44.47,97.3,0.00241,-0.006309,0.456258,98.59,1
13989,0,53305,57928,53264.36,57825.79,40.64,102.21,0.002394,-0.006345,0.456216,98.59,1
14001,0,53312,57942,53265.31,57828.11,46.69,113.89,0.002376,-0.006385,0.456196,98.6,1
14010,0,53317,57956,53266.35,57830.67,50.65,125.33,0.002357,-0.006429,0.456151,98.6,1
14019,0,53318,57967,53267.38,57833.4,50.62,133.6,0.002337,-0.006477,0.456003,98.6,1
14030,0,53329,57980,53268.61,57836.33,60.39,143.67,0.002314,-0.006527,0.456017,98.6,1
14040,0,53332,57994,53269.88,57839.48,62.12,154.52,0.002291,-0.006582,0.455933,98.6,1
14050,0,53339,58017,53271.26,57843.03,67.73,173.96,0.002265,-0.006643,0.455742,98.61,1
14060,0,53347,58034,53272.78,57846.85,74.22,187.14,0.002236,-0.006709,0.455575,98.61,1
14070,0,53354,58040,53274.41,57850.72,79.59,189.28,0.002206,-0.006776,0.4556,98.61,1
14080,0,53369,58063,53276.3,57854.97,92.7,208.03,0.00217,-0.006849,0.455889,98.6,1
14090,0,53371,58085,53278.19,57859.57,92.8,225.43,0.002135,-0.006929,0.455814,98.6,1
14100,0,53376,58093,53280.15,57864.24,95.85,228.76,0.002098,-0.00701,0.455825,98.6,1
14109,0,53380,58110,53282.15,57869.15,97.85,240.85,0.00206,-0.007095,0.455667,98.61,1
14120,0,53380,58121,53284.11,57874.19,95.89,246.81,0.002023,-0.007182,0.455267,98.62,1
14130,0,53395,58132,53286.33,57879.34,108.67,252.66,0.001982,-0.007271,0.455452,98.61,1
14141,0,53401,58158,53288.62,57884.92,112.37,273.08,0.001939,-0.007367,0.455344,98.62,1
14150,0,53401,58174,53290.87,57890.7,110.12,283.3,0.001897,-0.007467,0.454831,98.63,1
14159,0,53411,58181,53293.28,57896.51,117.72,284.49,0.001851,-0.007567,0.454767,98.63,1
14171,0,53420,58203,53295.81,57902.64,124.19,300.36,0.001804,-0.007673,0.45469,98.63,1
14180,0,53433,58216,53298.56,57908.91,134.44,307.09,0.001752,-0.007781,0.45513,98.62,1
14189,0,53433,58246,53301.25,57915.66,131.75,330.34,0.001702,-0.007898,0.454689,98.63,1
14200,0,53439,58249,53304.01,57922.32,134.99,326.68,0.00165,-0.008013,0.454597,98.64,1
14210,0,53445,58267,53306.83,57929.22,138.17,337.78,0.001597,-0.008132,0.454402,98.64,1
14221,0,53454,58269,53309.77,57936.01,144.23,332.98,0.001542,-0.008249,0.454789,98.63,1
14230,0,53464,58264,53312.85,57942.58,151.14,321.42,0.001484,-0.008363,0.456007,98.6,1
14239,0,53448,58239,53315.56,57948.51,132.44,290.49,0.001433,-0.008465,0.456699,98.58,1
14251,0,53436,58182,53317.97,57953.18,118.03,228.82,0.001388,-0.008546,0.457879,98.55,1
14260,0,53406,58095,53319.73,57956.01,86.27,138.98,0.001355,-0.008595,0.458887,98.53,1
14270,0,53373,57999,53320.8,57956.87,52.2,42.13,0.001335,-0.008609,0.45949,98.51,1
14280,0,53343,57900,53321.24,57955.74,21.76,-55.74,0.001327,-0.00859,0.459457,98.51,1
14289,0,53305,57813,53320.92,57952.89,-15.92,-139.89,0.001333,-0.008541,0.458609,98.53,1
14300,0,53264,57729,53319.78,57948.41,-55.79,-219.41,0.001354,-0.008463,0.457185,98.57,1
14309,0,53236,57664,53318.11,57942.72,-82.11,-278.72,0.001386,-0.008365,0.455365,98.62,1
14320,0,53222,57612,53316.19,57936.11,-94.19,-324.11,0.001422,-0.008251,0.452898,98.68,1
14329,0,53205,57576,53313.97,57928.91,-108.97,-352.91,0.001463,-0.008127,0.450404,98.74,1
14341,0,53199,57586,53311.67,57922.05,-112.67,-336.05,0.001506,-0.008008,0.448693,98.78,1
14350,0,53186,57579,53309.16,57915.18,-123.16,-336.18,0.001553,-0.00789,0.447643,98.81,1
14359,0,53185,57574,53306.67,57908.36,-121.68,-334.36,0.0016,-0.007772,0.446586,98.84,1
14370,0,53195,57595,53304.44,57902.09,-109.44,-307.09,0.001642,-0.007664,0.445588,98.86,1
14380,0,53204,57615,53302.43,57896.35,-98.43,-281.36,0.00168,-0.007565,0.444676,98.88,1
14389,0,53215,57647,53300.69,57891.37,-85.69,-244.37,0.001712,-0.007479,0.444002,98.9,1
14400,0,53217,57657,53299.01,57886.68,-82.02,-229.68,0.001744,-0.007398,0.44347,98.91,1
14409,0,53221,57659,53297.45,57882.13,-76.45,-223.13,0.001773,-0.007319,0.442847,98.93,1
14420,0,53234,57678,53296.18,57878.05,-62.18,-200.05,0.001797,-0.007248,0.442141,98.95,1
14430,0,53235,57693,53294.96,57874.35,-59.96,-181.35,0.00182,-0.007184,0.441665,98.96,1
14440,0,53247,57711,53294,57871.08,-47,-160.08,0.001838,-0.007128,0.441143,98.97,1
14449,0,53246,57726,53293.05,57868.18,-47.05,-142.18,0.001856,-0.007078,0.440848,98.98,1
14459,0,53247,57752,53292.13,57865.85,-45.13,-113.86,0.001873,-0.007038,0.440812,98.98,1
14470,0,53261,57752,53291.51,57863.58,-30.51,-111.58,0.001885,-0.006998,0.440515,98.99,1
14479,0,53277,57778,53291.22,57861.87,-14.22,-83.87,0.00189,-0.006969,0.440259,98.99,1
14490,0,53273,57799,53290.85,57860.61,-17.86,-61.61,0.001897,-0.006947,0.440173,99,1
14499,0,53277,57813,53290.58,57859.66,-13.58,-46.66,0.001902,-0.006931,0.440123,99,1
14510,0,53285,57824,53290.47,57858.95,-5.47,-34.95,0.001904,-0.006918,0.440073,99,1
14520,0,53296,57832,53290.58,57858.41,5.42,-26.41,0.001902,-0.006909,0.440046,99,1
14530,0,53305,57844,53290.87,57858.12,14.13,-14.13,0.001897,-0.006904,0.440086,99,1
14539,0,53296,57849,53290.98,57857.94,5.02,-8.95,0.001895,-0.006901,0.440087,99,1
14550,0,53299,57849,53291.14,57857.77,7.86,-8.77,0.001892,-0.006898,0.440098,99,1
14559,0,53301,57848,53291.33,57857.58,9.66,-9.58,0.001888,-0.006895,0.440117,99,1
14570,0,53303,57856,53291.57,57857.55,11.43,-1.55,0.001883,-0.006894,0.440151,99,1
14579,0,53303,57863,53291.8,57857.66,11.2,5.34,0.001879,-0.006896,0.440184,99,1
14589,0,53311,57872,53292.18,57857.95,18.82,14.05,0.001872,-0.006901,0.440275,98.99,1
14599,0,53308,57879,53292.5,57858.37,15.5,20.63,0.001866,-0.006908,0.440325,98.99,1
14610,0,53312,57875,53292.89,57858.7,19.11,16.3,0.001859,-0.006914,0.440419,98.99,1
14619,0,53321,57887,53293.45,57859.27,27.55,27.73,0.001848,-0.006924,0.440605,98.98,1
14629,0,53324,57901,53294.07,57860.1,29.93,40.89,0.001837,-0.006938,0.44079,98.98,1
14640,0,53323,57905,53294.65,57861.01,28.35,43.99,0.001826,-0.006954,0.440938,98.98,1
14650,0,53332,57920,53295.4,57862.19,36.6,57.81,0.001812,-0.006974,0.44118,98.97,1
14659,0,53335,57936,53296.19,57863.66,38.81,72.34,0.001797,-0.007,0.441381,98.97,1
14670,0,53345,57951,53297.17,57865.41,47.83,85.59,0.001778,-0.00703,0.441718,98.96,1
14680,0,53347,57960,53298.17,57867.3,48.83,92.7,0.00176,-0.007063,0.442022,98.95,1
14690,0,53357,57983,53299.35,57869.62,57.65,113.38,0.001738,-0.007103,0.442402,98.94,1
14699,0,53359,57988,53300.54,57871.99,58.46,116.01,0.001715,-0.007144,0.442782,98.93,1
14710,0,53361,58009,53301.75,57874.73,59.25,134.27,0.001692,-0.007191,0.442955,98.93,1
14720,0,53375,58027,53303.21,57877.78,71.79,149.22,0.001665,-0.007244,0.443425,98.91,1
14729,0,53383,58046,53304.81,57881.14,78.19,164.86,0.001635,-0.007302,0.443939,98.9,1
14740,0,53383,58060,53306.38,57884.72,76.62,175.28,0.001606,-0.007364,0.444188,98.9,1
14749,0,53383,58078,53307.91,57888.58,75.09,189.41,0.001577,-0.00743,0.444088,98.9,1
14759,0,53390,58086,53309.56,57892.53,80.44,193.46,0.001546,-0.007499,0.444172,98.9,1
14770,0,53400,58106,53311.37,57896.81,88.63,209.19,0.001512,-0.007573,0.444361,98.89,1
14780,0,53412,58120,53313.38,57901.27,98.62,218.73,0.001474,-0.00765,0.444924,98.88,1
14789,0,53423,58138,53315.57,57906.01,107.43,231.99,0.001433,-0.007731,0.445737,98.86,1
14799,0,53415,58145,53317.57,57910.79,97.43,234.21,0.001396,-0.007814,0.445837,98.85,1
14810,0,53419,58162,53319.59,57915.82,99.41,246.18,0.001358,-0.007901,0.445755,98.86,1
14819,0,53435,58169,53321.9,57920.88,113.1,248.12,0.001314,-0.007988,0.446532,98.84,1
14830,0,53442,58194,53324.3,57926.34,117.7,267.66,0.001269,-0.008082,0.447095,98.82,1
14839,0,53447,58209,53326.76,57931.99,120.24,277.01,0.001223,-0.00818,0.447566,98.81,1
14849,0,53448,58231,53329.19,57937.97,118.81,293.03,0.001178,-0.008283,0.447453,98.81,1
14860,0,53456,58236,53331.73,57943.93,124.27,292.07,0.00113,-0.008386,0.447771,98.81,1
14869,0,53468,58242,53334.45,57949.89,133.55,292.11,0.001079,-0.008489,0.448789,98.78,1
14880,0,53468,58264,53337.12,57956.18,130.88,307.82,0.001029,-0.008597,0.449098,98.77,1
14889,0,53474,58260,53339.86,57962.26,134.14,297.74,0.000978,-0.008702,0.449951,98.75,1
14899,0,53458,58217,53342.23,57967.35,115.77,249.64,0.000933,-0.00879,0.450757,98.73,1
14910,0,53438,58156,53344.14,57971.13,93.86,184.87,0.000897,-0.008855,0.451617,98.71,1
14919,0,53423,58069,53345.72,57973.08,77.28,95.91,0.000868,-0.008889,0.452895,98.68,1
14929,0,53389,57987,53346.59,57973.36,42.41,13.64,0.000852,-0.008894,0.453408,98.66,1
14940,0,53350,57878,53346.66,57971.46,3.34,-93.46,0.00085,-0.008861,0.452946,98.68,1
14950,0,53314,57789,53346.01,57967.81,-32.01,-178.81,0.000862,-0.008798,0.451577,98.71,1
14959,0,53276,57712,53344.61,57962.69,-68.61,-250.69,0.000889,-0.00871,0.449725,98.76,1
14968,0,53254,57650,53342.8,57956.44,-88.8,-306.44,0.000923,-0.008602,0.447273,98.82,1
14980,0,53238,57609,53340.7,57949.49,-102.7,-340.49,0.000962,-0.008482,0.44458,98.89,1
14989,0,53215,57589,53338.19,57942.28,-123.19,-353.28,0.001009,-0.008358,0.442896,98.93,1
15000,0,53207,57583,53335.57,57935.1,-128.57,-352.1,0.001058,-0.008234,0.441704,98.96,1
15009,0,53209,57571,53333.04,57927.82,-124.04,-356.82,0.001106,-0.008108,0.44008,99,1
15019,0,53215,57584,53330.68,57920.94,-115.68,-336.95,0.00115,-0.007989,0.438589,99.04,1
15030,0,53212,57603,53328.3,57914.58,-116.3,-311.59,0.001194,-0.007879,0.437925,99.05,1
15039,0,53219,57618,53326.12,57908.66,-107.12,-290.66,0.001235,-0.007777,0.437279,99.07,1
