t_ms,phase,red_raw,ir_raw,red_dc,ir_dc,red_dc_init,ir_dc_init,red_ac,ir_ac,OD_red,OD_ir,OD_red_slide,OD_ir_slide,R,spo2,spo2_valid
36,0,52708,56828,52353.49,55948.90,717.91,1001.25,354.51,879.10,-2.801676,-2.534860,-0.263702,-0.272627,0.542565,96.38,1
75,0,52699,56759,52354.18,55950.52,717.91,1001.25,344.82,808.48,-2.801689,-2.534889,-0.263564,-0.272499,0.542447,96.38,1
115,0,52667,56694,52354.81,55952.01,717.91,1001.25,312.19,741.99,-2.801701,-2.534915,-0.263425,-0.272369,0.542327,96.38,1
155,0,52649,56692,52355.40,55953.49,717.91,1001.25,293.60,738.51,-2.801712,-2.534942,-0.263286,-0.272239,0.542204,96.38,1
195,0,52654,56708,52356.00,55955.00,717.91,1001.25,298.00,753.00,-2.801723,-2.534969,-0.263147,-0.272110,0.542079,96.39,1
235,0,52656,56704,52356.60,55956.50,717.91,1001.25,299.40,747.50,-2.801735,-2.534996,-0.263008,-0.271980,0.541951,96.39,1
276,0,52653,56712,52357.20,55958.01,717.91,1001.25,295.80,753.99,-2.801746,-2.535023,-0.262869,-0.271851,0.541821,96.39,1
315,0,52663,56730,52357.81,55959.56,717.91,1001.25,305.19,770.44,-2.801758,-2.535050,-0.262730,-0.271722,0.541687,96.39,1
355,0,52669,56738,52358.43,55961.12,717.91,1001.25,310.57,776.88,-2.801770,-2.535078,-0.262592,-0.271594,0.541552,96.39,1
394,0,52670,56742,52359.06,55962.68,717.91,1001.25,310.94,779.32,-2.801782,-2.535106,-0.262454,-0.271466,0.541414,96.40,1
435,0,52672,56753,52359.69,55964.26,717.91,1001.25,312.31,788.74,-2.801794,-2.535135,-0.262316,-0.271338,0.541273,96.40,1
475,0,52675,56769,52360.32,55965.87,717.91,1001.25,314.68,803.13,-2.801806,-2.535163,-0.262178,-0.271211,0.541129,96.40,1
515,0,52679,56774,52360.96,55967.49,717.91,1001.25,318.04,806.51,-2.801818,-2.535192,-0.262040,-0.271084,0.540983,96.40,1
555,0,52679,56795,52361.60,55969.14,717.91,1001.25,317.40,825.86,-2.801831,-2.535222,-0.261903,-0.270958,0.540833,96.40,1
594,0,52687,56801,52362.25,55970.81,717.91,1001.25,324.75,830.19,-2.801843,-2.535251,-0.261765,-0.270833,0.540680,96.41,1
635,0,52688,56810,52362.90,55972.49,717.91,1001.25,325.10,837.51,-2.801856,-2.535281,-0.261628,-0.270707,0.540525,96.41,1
675,0,52686,56824,52363.55,55974.19,717.91,1001.25,322.45,849.81,-2.801868,-2.535312,-0.261491,-0.270582,0.540366,96.41,1
715,0,52688,56836,52364.20,55975.92,717.91,1001.25,323.80,860.08,-2.801880,-2.535343,-0.261354,-0.270458,0.540204,96.41,1
755,0,52690,56788,52364.85,55977.54,717.91,1001.25,325.15,810.46,-2.801893,-2.535372,-0.261217,-0.270331,0.540039,96.42,1
796,0,52650,56705,52365.42,55979.00,717.91,1001.25,284.58,726.00,-2.801903,-2.535398,-0.261079,-0.270202,0.539873,96.42,1
837,0,52626,56685,52365.95,55980.41,717.91,1001.25,260.05,704.59,-2.801913,-2.535423,-0.260940,-0.270072,0.539704,96.42,1
876,0,52624,56690,52366.46,55981.84,717.91,1001.25,257.54,708.16,-2.801924,-2.535449,-0.260801,-0.269943,0.539533,96.43,1
916,0,52624,56690,52366.98,55983.25,717.91,1001.25,257.02,706.75,-2.801933,-2.535474,-0.260662,-0.269813,0.539360,96.43,1
957,0,52619,56694,52367.48,55984.68,717.91,1001.25,251.52,709.32,-2.801943,-2.535499,-0.260522,-0.269684,0.539184,96.43,1
996,0,52622,56714,52367.99,55986.14,717.91,1001.25,254.01,727.86,-2.801953,-2.535525,-0.260383,-0.269555,0.539005,96.43,1
1036,0,52629,56729,52368.52,55987.62,717.91,1001.25,260.48,741.37,-2.801963,-2.535552,-0.260245,-0.269427,0.538823,96.44,1
1076,0,52640,56736,52369.06,55989.12,717.91,1001.25,270.94,746.87,-2.801973,-2.535579,-0.260106,-0.269299,0.538638,96.44,1
1116,0,52637,56747,52369.60,55990.64,717.91,1001.25,267.40,756.36,-2.801983,-2.535606,-0.259968,-0.269172,0.538451,96.44,1
1157,0,52644,56763,52370.15,55992.19,717.91,1001.25,273.85,770.81,-2.801994,-2.535633,-0.259830,-0.269045,0.538260,96.45,1
1196,0,52646,56785,52370.70,55993.77,717.91,1001.25,275.30,791.23,-2.802004,-2.535662,-0.259693,-0.268919,0.538067,96.45,1
1235,0,52654,56807,52371.27,55995.40,717.91,1001.25,282.73,811.60,-2.802015,-2.535691,-0.259555,-0.268794,0.537869,96.45,1
1276,0,52660,56826,52371.85,55997.07,717.91,1001.25,288.15,828.93,-2.802026,-2.535721,-0.259418,-0.268669,0.537669,96.45,1
1315,0,52673,56844,52372.45,55998.76,717.91,1001.25,300.55,845.24,-2.802038,-2.535751,-0.259281,-0.268545,0.537464,96.46,1
1356,0,52678,56861,52373.07,56000.49,717.91,1001.25,304.93,860.51,-2.802049,-2.535782,-0.259145,-0.268422,0.537257,96.46,1
1396,0,52685,56870,52373.69,56002.23,717.91,1001.25,311.31,867.77,-2.802062,-2.535813,-0.259009,-0.268300,0.537046,96.46,1
1435,0,52675,56816,52374.30,56003.86,717.91,1001.25,300.70,812.14,-2.802073,-2.535842,-0.258873,-0.268175,0.536834,96.47,1
1477,0,52639,56748,52374.83,56005.35,717.91,1001.25,264.17,742.65,-2.802083,-2.535868,-0.258735,-0.268048,0.536618,96.47,1
1516,0,52621,56727,52375.32,56006.79,717.91,1001.25,245.68,720.21,-2.802093,-2.535894,-0.258597,-0.267920,0.536401,96.48,1
1557,0,52620,56729,52375.81,56008.24,717.91,1001.25,244.19,720.76,-2.802102,-2.535920,-0.258459,-0.267792,0.536181,96.48,1
1596,0,52620,56731,52376.30,56009.68,717.91,1001.25,243.70,721.32,-2.802111,-2.535946,-0.258321,-0.267664,0.535959,96.48,1
1636,0,52619,56737,52376.79,56011.14,717.91,1001.25,242.21,725.86,-2.802121,-2.535972,-0.258183,-0.267537,0.535734,96.49,1
1678,0,52623,56751,52377.28,56012.62,717.91,1001.25,245.72,738.38,-2.802130,-2.535998,-0.258045,-0.267410,0.535507,96.49,1
1716,0,52625,56767,52377.78,56014.13,717.91,1001.25,247.22,752.87,-2.802140,-2.536025,-0.257907,-0.267284,0.535277,96.49,1
1759,0,52625,56771,52378.27,56015.65,717.91,1001.25,246.73,755.35,-2.802149,-2.536052,-0.257770,-0.267157,0.535044,96.50,1
1797,0,52627,56782,52378.77,56017.18,717.91,1001.25,248.23,764.82,-2.802159,-2.536080,-0.257632,-0.267032,0.534808,96.50,1
1837,0,52631,56794,52379.28,56018.74,717.91,1001.25,251.72,775.26,-2.802168,-2.536107,-0.257495,-0.266906,0.534569,96.51,1
1877,0,52640,56808,52379.80,56020.32,717.91,1001.25,260.20,787.68,-2.802178,-2.536136,-0.257358,-0.266782,0.534327,96.51,1
1917,0,52636,56826,52380.32,56021.93,717.91,1001.25,255.68,804.07,-2.802188,-2.536165,-0.257221,-0.266658,0.534081,96.51,1
1958,0,52641,56840,52380.84,56023.57,717.91,1001.25,260.16,816.43,-2.802198,-2.536194,-0.257085,-0.266534,0.533833,96.52,1
1997,0,52652,56864,52381.38,56025.25,717.91,1001.25,270.62,838.75,-2.802208,-2.536224,-0.256949,-0.266411,0.533580,96.52,1
2037,0,52661,56881,52381.95,56026.96,717.91,1001.25,279.05,854.04,-2.802219,-2.536254,-0.256813,-0.266289,0.533325,96.53,1
2077,0,52658,56891,52382.50,56028.70,717.91,1001.25,275.50,862.30,-2.802230,-2.536285,-0.256677,-0.266168,0.533066,96.53,1
2117,0,52667,56932,52383.07,56030.50,717.91,1001.25,283.93,901.50,-2.802241,-2.536317,-0.256542,-0.266047,0.532803,96.54,1
2157,0,52677,56915,52383.66,56032.27,717.91,1001.25,293.34,882.73,-2.802252,-2.536349,-0.256407,-0.265927,0.532537,96.54,1
2198,0,52650,56835,52384.20,56033.88,717.91,1001.25,265.80,801.12,-2.802262,-2.536378,-0.256271,-0.265803,0.532268,96.54,1
2238,0,52628,56808,52384.68,56035.43,717.91,1001.25,243.32,772.57,-2.802271,-2.536405,-0.256134,-0.265678,0.531997,96.55,1
2278,0,52628,56817,52385.17,56037.00,717.91,1001.25,242.83,780.00,-2.802281,-2.536433,-0.255998,-0.265554,0.531723,96.55,1
2317,0,52635,56824,52385.67,56038.57,717.91,1001.25,249.33,785.43,-2.802290,-2.536461,-0.255861,-0.265430,0.531446,96.56,1
2357,0,52639,56824,52386.18,56040.14,717.91,1001.25,252.82,783.86,-2.802300,-2.536489,-0.255725,-0.265306,0.531168,96.56,1
2397,0,52636,56843,52386.68,56041.75,717.91,1001.25,249.32,801.25,-2.802310,-2.536518,-0.255589,-0.265183,0.530886,96.57,1
2437,0,52649,56862,52387.21,56043.39,717.91,1001.25,261.79,818.61,-2.802320,-2.536547,-0.255453,-0.265061,0.530602,96.57,1
2477,0,52648,56880,52387.73,56045.07,717.91,1001.25,260.27,834.93,-2.802329,-2.536577,-0.255318,-0.264939,0.530315,96.58,1
2517,0,52660,56903,52388.28,56046.79,717.91,1001.25,271.72,856.21,-2.802340,-2.536608,-0.255183,-0.264818,0.530025,96.58,1
2557,0,52671,56919,52388.84,56048.53,717.91,1001.25,282.16,870.47,-2.802351,-2.536639,-0.255049,-0.264697,0.529732,96.59,1
2597,0,52679,56946,52389.43,56050.33,717.91,1001.25,289.57,895.67,-2.802362,-2.536671,-0.254914,-0.264578,0.529437,96.59,1
2637,0,52691,56985,52390.03,56052.20,717.91,1001.25,300.97,932.80,-2.802373,-2.536705,-0.254781,-0.264460,0.529138,96.60,1
2677,0,52708,57019,52390.67,56054.13,717.91,1001.25,317.33,964.87,-2.802386,-2.536739,-0.254648,-0.264343,0.528836,96.61,1
2717,0,52717,57049,52391.32,56056.12,717.91,1001.25,325.68,992.87,-2.802398,-2.536775,-0.254515,-0.264227,0.528532,96.61,1
2758,0,52728,57072,52392.00,56058.16,717.91,1001.25,336.00,1013.84,-2.802411,-2.536811,-0.254384,-0.264112,0.528224,96.62,1
2799,0,52744,57115,52392.70,56060.27,717.91,1001.25,351.30,1054.73,-2.802424,-2.536849,-0.254252,-0.263999,0.527913,96.62,1
2838,0,52760,57136,52393.44,56062.42,717.91,1001.25,366.56,1073.58,-2.802438,-2.536887,-0.254122,-0.263886,0.527600,96.63,1
2879,0,52765,57157,52394.18,56064.61,717.91,1001.25,370.82,1092.39,-2.802453,-2.536926,-0.253991,-0.263774,0.527284,96.63,1
2918,0,52776,57155,52394.95,56066.80,717.91,1001.25,381.05,1088.20,-2.802467,-2.536965,-0.253861,-0.263662,0.526966,96.64,1
2958,0,52746,57075,52395.65,56068.82,717.91,1001.25,350.35,1006.18,-2.802481,-2.537001,-0.253730,-0.263548,0.526646,96.64,1
2998,0,52721,57037,52396.30,56070.75,717.91,1001.25,324.70,966.25,-2.802493,-2.537035,-0.253598,-0.263431,0.526325,96.65,1
3039,0,52716,57041,52396.95,56072.70,717.91,1001.25,319.05,968.30,-2.802505,-2.537070,-0.253466,-0.263315,0.526001,96.66,1
3078,0,52731,57048,52397.61,56074.65,717.91,1001.25,333.39,973.35,-2.802518,-2.537105,-0.253335,-0.263200,0.525676,96.66,1
3118,0,52732,57057,52398.29,56076.61,717.91,1001.25,333.71,980.39,-2.802531,-2.537140,-0.253203,-0.263084,0.525350,96.67,1
3157,0,52730,57070,52398.95,56078.60,717.91,1001.25,331.05,991.40,-2.802544,-2.537175,-0.253072,-0.262969,0.525021,96.67,1
3198,0,52738,57097,52399.63,56080.64,717.91,1001.25,338.37,1016.36,-2.802557,-2.537212,-0.252941,-0.262855,0.524691,96.68,1
3238,0,52749,57115,52400.33,56082.71,717.91,1001.25,348.67,1032.29,-2.802570,-2.537249,-0.252811,-0.262742,0.524359,96.69,1
3280,0,52759,57130,52401.05,56084.81,717.91,1001.25,357.95,1045.19,-2.802584,-2.537286,-0.252680,-0.262629,0.524025,96.69,1
3318,0,52767,57146,52401.78,56086.93,717.91,1001.25,365.22,1059.07,-2.802598,-2.537324,-0.252551,-0.262517,0.523690,96.70,1
3360,0,52774,57169,52402.53,56089.10,717.91,1001.25,371.47,1079.90,-2.802612,-2.537363,-0.252421,-0.262405,0.523354,96.71,1
3399,0,52786,57197,52403.30,56091.32,717.91,1001.25,382.70,1105.68,-2.802627,-2.537402,-0.252293,-0.262295,0.523016,96.71,1
3438,0,52797,57224,52404.09,56093.58,717.91,1001.25,392.91,1130.42,-2.802642,-2.537443,-0.252164,-0.262185,0.522677,96.72,1
3478,0,52806,57245,52404.89,56095.89,717.91,1001.25,401.11,1149.11,-2.802657,-2.537484,-0.252036,-0.262076,0.522337,96.73,1
3519,0,52812,57261,52405.71,56098.22,717.91,1001.25,406.29,1162.78,-2.802673,-2.537525,-0.251908,-0.261968,0.521996,96.73,1
3559,0,52822,57277,52406.54,56100.58,717.91,1001.25,415.46,1176.42,-2.802688,-2.537567,-0.251781,-0.261860,0.521654,96.74,1
3598,0,52824,57290,52407.37,56102.96,717.91,1001.25,416.62,1187.04,-2.802704,-2.537610,-0.251654,-0.261753,0.521311,96.75,1
3638,0,52833,57311,52408.23,56105.37,717.91,1001.25,424.77,1205.63,-2.802721,-2.537653,-0.251527,-0.261647,0.520967,96.75,1
3679,0,52836,57329,52409.08,56107.82,717.91,1001.25,426.92,1221.18,-2.802737,-2.537696,-0.251400,-0.261541,0.520621,96.76,1
3718,0,52838,57333,52409.94,56110.28,717.91,1001.25,428.06,1222.72,-2.802753,-2.537740,-0.251274,-0.261435,0.520275,96.77,1
3759,0,52825,57241,52410.77,56112.54,717.91,1001.25,414.23,1128.46,-2.802769,-2.537781,-0.251147,-0.261326,0.519930,96.77,1
3800,0,52782,57167,52411.52,56114.65,717.91,1001.25,370.48,1052.35,-2.802783,-2.537818,-0.251018,-0.261214,0.519584,96.78,1
3840,0,52763,57156,52412.22,56116.73,717.91,1001.25,350.78,1039.27,-2.802797,-2.537855,-0.250889,-0.261102,0.519237,96.79,1
3879,0,52763,57150,52412.92,56118.80,717.91,1001.25,350.08,1031.20,-2.802810,-2.537892,-0.250760,-0.260990,0.518889,96.80,1
3919,0,52757,57138,52413.61,56120.84,717.91,1001.25,343.39,1017.16,-2.802823,-2.537928,-0.250631,-0.260877,0.518541,96.80,1
3959,0,52752,57139,52414.29,56122.88,717.91,1001.25,337.71,1016.12,-2.802836,-2.537965,-0.250501,-0.260764,0.518192,96.81,1
4000,0,52757,57147,52414.98,56124.93,717.91,1001.25,342.02,1022.07,-2.802850,-2.538001,-0.250372,-0.260652,0.517842,96.82,1
4039,0,52760,57148,52415.67,56126.98,717.91,1001.25,344.33,1021.02,-2.802863,-2.538038,-0.250243,-0.260539,0.517491,96.83,1
4079,0,52759,57150,52416.36,56129.02,717.91,1001.25,342.64,1020.98,-2.802876,-2.538074,-0.250114,-0.260427,0.517140,96.83,1
4119,0,52756,57150,52417.04,56131.07,717.91,1001.25,338.96,1018.93,-2.802889,-2.538111,-0.249985,-0.260315,0.516788,96.84,1
4161,0,52758,57161,52417.72,56133.13,717.91,1001.25,340.28,1027.87,-2.802902,-2.538147,-0.249856,-0.260203,0.516435,96.85,1
4200,0,52769,57172,52418.43,56135.21,717.91,1001.25,350.57,1036.79,-2.802915,-2.538184,-0.249728,-0.260091,0.516081,96.85,1
4241,0,52760,57169,52419.11,56137.28,717.91,1001.25,340.89,1031.72,-2.802928,-2.538221,-0.249599,-0.259980,0.515727,96.86,1
4280,0,52769,57184,52419.81,56139.37,717.91,1001.25,349.19,1044.63,-2.802942,-2.538259,-0.249470,-0.259869,0.515372,96.87,1
4320,0,52775,57194,52420.52,56141.48,717.91,1001.25,354.48,1052.52,-2.802955,-2.538296,-0.249342,-0.259758,0.515017,96.88,1
4359,0,52777,57206,52421.23,56143.61,717.91,1001.25,355.77,1062.39,-2.802969,-2.538334,-0.249214,-0.259647,0.514661,96.89,1
4400,0,52779,57229,52421.95,56145.78,717.91,1001.25,357.05,1083.22,-2.802983,-2.538373,-0.249087,-0.259538,0.514304,96.89,1
4440,0,52786,57245,52422.68,56147.98,717.91,1001.25,363.32,1097.02,-2.802996,-2.538412,-0.248959,-0.259429,0.513946,96.90,1
4481,0,52788,57258,52423.41,56150.20,717.91,1001.25,364.59,1107.80,-2.803010,-2.538451,-0.248832,-0.259320,0.513588,96.91,1
4519,0,52790,57221,52424.15,56152.35,717.91,1001.25,365.85,1068.65,-2.803024,-2.538490,-0.248705,-0.259211,0.513229,96.92,1
4560,0,52758,57113,52424.82,56154.27,717.91,1001.25,333.18,958.73,-2.803037,-2.538524,-0.248576,-0.259097,0.512870,96.92,1
4600,0,52716,57059,52425.40,56156.08,717.91,1001.25,290.60,902.92,-2.803048,-2.538556,-0.248446,-0.258981,0.512512,96.93,1
4637,0,52709,57049,52425.97,56157.87,717.91,1001.25,283.03,891.13,-2.803059,-2.538588,-0.248316,-0.258865,0.512152,96.94,1
4675,0,52702,57044,52426.52,56159.64,717.91,1001.25,275.48,884.36,-2.803070,-2.538620,-0.248186,-0.258749,0.511792,96.95,1
4720,0,52702,57031,52427.07,56161.39,717.91,1001.25,274.93,869.61,-2.803080,-2.538651,-0.248055,-0.258633,0.511432,96.96,1
4760,0,52696,57031,52427.61,56163.13,717.91,1001.25,268.39,867.87,-2.803090,-2.538682,-0.247925,-0.258516,0.511071,96.96,1
4801,0,52696,57021,52428.15,56164.85,717.91,1001.25,267.85,856.15,-2.803101,-2.538712,-0.247795,-0.258399,0.510710,96.97,1
4841,0,52689,57013,52428.68,56166.55,717.91,1001.25,260.32,846.45,-2.803111,-2.538743,-0.247664,-0.258282,0.510348,96.98,1
4881,0,52683,57007,52429.19,56168.23,717.91,1001.25,253.81,838.77,-2.803120,-2.538773,-0.247533,-0.258165,0.509986,96.99,1
4921,0,52680,57018,52429.69,56169.93,717.91,1001.25,250.31,848.07,-2.803130,-2.538803,-0.247402,-0.258048,0.509622,97.00,1
4960,0,52688,57027,52430.21,56171.65,717.91,1001.25,257.79,855.35,-2.803140,-2.538833,-0.247272,-0.257931,0.509259,97.00,1
5001,0,52692,57028,52430.73,56173.36,717.91,1001.25,261.27,854.64,-2.803150,-2.538864,-0.247142,-0.257814,0.508894,97.01,1
5043,0,52697,57051,52431.27,56175.12,717.91,1001.25,265.73,875.88,-2.803160,-2.538895,-0.247012,-0.257699,0.508529,97.02,1
5080,0,52704,57065,52431.82,56176.90,717.91,1001.25,272.18,888.10,-2.803171,-2.538927,-0.246882,-0.257583,0.508163,97.03,1
5120,0,52705,57078,52432.36,56178.71,717.91,1001.25,272.64,899.29,-2.803181,-2.538959,-0.246753,-0.257469,0.507797,97.04,1
5160,0,52713,57097,52432.93,56180.55,717.91,1001.25,280.07,916.45,-2.803192,-2.538992,-0.246624,-0.257355,0.507430,97.05,1
5201,0,52720,57111,52433.50,56182.41,717.91,1001.25,286.50,928.59,-2.803203,-2.539025,-0.246495,-0.257241,0.507062,97.05,1
5240,0,52723,57069,52434.08,56184.18,717.91,1001.25,288.92,884.82,-2.803214,-2.539057,-0.246366,-0.257126,0.506694,97.06,1
5281,0,52689,56977,52434.59,56185.77,717.91,1001.25,254.41,791.23,-2.803224,-2.539085,-0.246236,-0.257008,0.506327,97.07,1
5321,0,52663,56938,52435.05,56187.28,717.91,1001.25,227.95,750.72,-2.803232,-2.539112,-0.246105,-0.256888,0.505959,97.08,1
5361,0,52661,56938,52435.50,56188.78,717.91,1001.25,225.50,749.22,-2.803241,-2.539138,-0.245974,-0.256768,0.505591,97.09,1
5400,0,52662,56958,52435.96,56190.32,717.91,1001.25,226.04,767.68,-2.803250,-2.539166,-0.245844,-0.256649,0.505223,97.10,1
5442,0,52673,56963,52436.43,56191.87,717.91,1001.25,236.57,771.13,-2.803259,-2.539193,-0.245713,-0.256531,0.504855,97.10,1
5481,0,52675,56977,52436.91,56193.44,717.91,1001.25,238.09,783.56,-2.803268,-2.539221,-0.245583,-0.256412,0.504487,97.11,1
5521,0,52688,56975,52437.41,56195.00,717.91,1001.25,250.59,780.00,-2.803277,-2.539249,-0.245454,-0.256294,0.504119,97.12,1
5560,0,52683,56973,52437.91,56196.56,717.91,1001.25,245.09,776.44,-2.803287,-2.539277,-0.245324,-0.256176,0.503751,97.13,1
5601,0,52684,56974,52438.40,56198.12,717.91,1001.25,245.60,775.88,-2.803296,-2.539304,-0.245194,-0.256057,0.503383,97.14,1
5641,0,52685,56984,52438.89,56199.69,717.91,1001.25,246.11,784.31,-2.803306,-2.539332,-0.245065,-0.255940,0.503015,97.15,1
5683,0,52690,57003,52439.40,56201.30,717.91,1001.25,250.60,801.70,-2.803315,-2.539361,-0.244936,-0.255822,0.502647,97.16,1
5722,0,52700,57018,52439.92,56202.94,717.91,1001.25,260.08,815.06,-2.803325,-2.539390,-0.244807,-0.255706,0.502279,97.16,1
5762,0,52707,57033,52440.46,56204.60,717.91,1001.25,266.54,828.40,-2.803335,-2.539420,-0.244679,-0.255590,0.501912,97.17,1
5801,0,52713,57043,52441.00,56206.28,717.91,1001.25,272.00,836.72,-2.803346,-2.539450,-0.244550,-0.255474,0.501545,97.18,1
5841,0,52717,57059,52441.56,56207.98,717.91,1001.25,275.44,851.02,-2.803356,-2.539480,-0.244423,-0.255359,0.501178,97.19,1
5881,0,52723,57052,52442.12,56209.68,717.91,1001.25,280.88,842.32,-2.803367,-2.539510,-0.244295,-0.255243,0.500811,97.20,1
5921,0,52700,56939,52442.64,56211.14,717.91,1001.25,257.36,727.86,-2.803377,-2.539536,-0.244166,-0.255124,0.500446,97.21,1
5961,0,52654,56854,52443.06,56212.43,717.91,1001.25,210.94,641.57,-2.803385,-2.539559,-0.244036,-0.255002,0.500081,97.22,1
6001,0,52640,56833,52443.46,56213.67,717.91,1001.25,196.54,619.33,-2.803393,-2.539581,-0.243906,-0.254879,0.499717,97.23,1
6041,0,52647,56843,52443.87,56214.93,717.91,1001.25,203.13,628.07,-2.803401,-2.539603,-0.243775,-0.254756,0.499353,97.23,1
6082,0,52651,56849,52444.28,56216.20,717.91,1001.25,206.72,632.80,-2.803408,-2.539626,-0.243645,-0.254633,0.498990,97.24,1
6124,0,52656,56859,52444.71,56217.48,717.91,1001.25,211.29,641.52,-2.803416,-2.539649,-0.243515,-0.254511,0.498628,97.25,1
6162,0,52670,56872,52445.16,56218.79,717.91,1001.25,224.84,653.21,-2.803425,-2.539672,-0.243386,-0.254390,0.498266,97.26,1
6202,0,52677,56874,52445.62,56220.11,717.91,1001.25,231.37,653.89,-2.803434,-2.539696,-0.243257,-0.254268,0.497906,97.27,1
6243,0,52682,56877,52446.10,56221.42,717.91,1001.25,235.90,655.58,-2.803443,-2.539719,-0.243129,-0.254147,0.497547,97.28,1
6282,0,52689,56884,52446.59,56222.75,717.91,1001.25,242.41,661.25,-2.803452,-2.539743,-0.243000,-0.254026,0.497190,97.29,1
6322,0,52698,56898,52447.09,56224.10,717.91,1001.25,250.91,673.90,-2.803462,-2.539767,-0.242872,-0.253905,0.496834,97.30,1
6362,0,52703,56914,52447.60,56225.48,717.91,1001.25,255.40,688.52,-2.803472,-2.539791,-0.242745,-0.253785,0.496479,97.30,1
6402,0,52718,56937,52448.14,56226.91,717.91,1001.25,269.86,710.09,-2.803482,-2.539817,-0.242618,-0.253666,0.496126,97.31,1
6439,0,52725,56951,52448.70,56228.36,717.91,1001.25,276.30,722.64,-2.803493,-2.539842,-0.242491,-0.253548,0.495775,97.32,1
6481,0,52732,56963,52449.27,56229.83,717.91,1001.25,282.73,733.17,-2.803503,-2.539869,-0.242365,-0.253430,0.495426,97.33,1
6521,0,52743,56981,52449.86,56231.34,717.91,1001.25,293.14,749.66,-2.803515,-2.539895,-0.242239,-0.253312,0.495079,97.34,1
6561,0,52738,56907,52450.43,56232.69,717.91,1001.25,287.57,674.31,-2.803526,-2.539919,-0.242113,-0.253192,0.494734,97.35,1
6601,0,52690,56772,52450.91,56233.77,717.91,1001.25,239.09,538.23,-2.803535,-2.539939,-0.241985,-0.253067,0.494393,97.36,1
6641,0,52649,56708,52451.31,56234.72,717.91,1001.25,197.69,473.28,-2.803542,-2.539956,-0.241856,-0.252940,0.494052,97.37,1
6682,0,52649,56696,52451.71,56235.64,717.91,1001.25,197.29,460.36,-2.803550,-2.539972,-0.241727,-0.252813,0.493714,97.37,1
6723,0,52649,56686,52452.11,56236.55,717.91,1001.25,196.89,449.45,-2.803558,-2.539988,-0.241598,-0.252685,0.493378,97.38,1
6762,0,52648,56675,52452.50,56237.43,717.91,1001.25,195.50,437.57,-2.803565,-2.540004,-0.241468,-0.252557,0.493043,97.39,1
6801,0,52654,56691,52452.91,56238.34,717.91,1001.25,201.09,452.66,-2.803573,-2.540020,-0.241340,-0.252429,0.492711,97.40,1
6843,0,52664,56709,52453.33,56239.28,717.91,1001.25,210.67,469.72,-2.803581,-2.540037,-0.241211,-0.252303,0.492380,97.41,1
6883,0,52672,56714,52453.77,56240.23,717.91,1001.25,218.23,473.77,-2.803589,-2.540054,-0.241083,-0.252176,0.492052,97.42,1
6923,0,52682,56727,52454.22,56241.20,717.91,1001.25,227.78,485.80,-2.803598,-2.540071,-0.240956,-0.252050,0.491727,97.43,1
6963,0,52693,56737,52454.70,56242.20,717.91,1001.25,238.30,494.80,-2.803607,-2.540088,-0.240829,-0.251924,0.491404,97.44,1
7002,0,52706,56762,52455.21,56243.24,717.91,1001.25,250.79,518.76,-2.803617,-2.540107,-0.240702,-0.251800,0.491084,97.44,1
7042,0,52714,56794,52455.73,56244.34,717.91,1001.25,258.27,549.66,-2.803627,-2.540127,-0.240576,-0.251676,0.490767,97.45,1
7083,0,52729,56822,52456.27,56245.50,717.91,1001.25,272.73,576.50,-2.803637,-2.540147,-0.240451,-0.251554,0.490454,97.46,1
7123,0,52743,56853,52456.85,56246.71,717.91,1001.25,286.15,606.29,-2.803648,-2.540169,-0.240326,-0.251432,0.490143,97.47,1
7162,0,52761,56879,52457.46,56247.98,717.91,1001.25,303.54,631.02,-2.803659,-2.540191,-0.240201,-0.251312,0.489837,97.48,1
7202,0,52772,56885,52458.09,56249.25,717.91,1001.25,313.91,635.75,-2.803672,-2.540214,-0.240078,-0.251192,0.489535,97.49,1
7243,0,52758,56766,52458.69,56250.29,717.91,1001.25,299.31,515.71,-2.803683,-2.540232,-0.239953,-0.251067,0.489237,97.50,1
7283,0,52702,56658,52459.18,56251.11,717.91,1001.25,242.82,406.89,-2.803692,-2.540247,-0.239827,-0.250939,0.488943,97.50,1
7324,0,52683,56636,52459.62,56251.87,717.91,1001.25,223.37,384.12,-2.803701,-2.540261,-0.239700,-0.250810,0.488652,97.51,1
7362,0,52685,56638,52460.08,56252.65,717.91,1001.25,224.92,385.35,-2.803710,-2.540274,-0.239573,-0.250682,0.488364,97.52,1
7402,0,52683,56627,52460.52,56253.40,717.91,1001.25,222.48,373.60,-2.803718,-2.540288,-0.239447,-0.250553,0.488079,97.53,1
7442,0,52684,56629,52460.97,56254.15,717.91,1001.25,223.03,374.85,-2.803726,-2.540301,-0.239320,-0.250424,0.487797,97.54,1
7482,0,52686,56630,52461.43,56254.91,717.91,1001.25,224.57,375.09,-2.803735,-2.540314,-0.239193,-0.250295,0.487519,97.55,1
7523,0,52686,56648,52461.87,56255.70,717.91,1001.25,224.12,392.30,-2.803744,-2.540329,-0.239067,-0.250167,0.487243,97.55,1
7563,0,52692,56669,52462.34,56256.52,717.91,1001.25,229.66,412.48,-2.803752,-2.540343,-0.238941,-0.250039,0.486971,97.56,1
7604,0,52705,56684,52462.82,56257.38,717.91,1001.25,242.18,426.62,-2.803762,-2.540359,-0.238815,-0.249912,0.486702,97.57,1
7643,0,52709,56717,52463.32,56258.30,717.91,1001.25,245.68,458.70,-2.803771,-2.540375,-0.238690,-0.249787,0.486436,97.58,1
7684,0,52727,56756,52463.84,56259.30,717.91,1001.25,263.16,496.70,-2.803781,-2.540392,-0.238565,-0.249663,0.486173,97.59,1
7723,0,52739,56783,52464.39,56260.35,717.91,1001.25,274.61,522.65,-2.803792,-2.540411,-0.238441,-0.249540,0.485914,97.59,1
7764,0,52743,56805,52464.95,56261.44,717.91,1001.25,278.05,543.56,-2.803802,-2.540431,-0.238317,-0.249417,0.485659,97.60,1
7804,0,52755,56839,52465.54,56262.59,717.91,1001.25,289.46,576.41,-2.803813,-2.540451,-0.238193,-0.249296,0.485407,97.61,1
7843,0,52769,56874,52466.14,56263.82,717.91,1001.25,302.86,610.18,-2.803825,-2.540473,-0.238071,-0.249176,0.485159,97.62,1
7884,0,52776,56891,52466.77,56265.07,717.91,1001.25,309.23,625.93,-2.803837,-2.540495,-0.237948,-0.249057,0.484915,97.63,1
7923,0,52775,56819,52467.38,56266.18,717.91,1001.25,307.62,552.82,-2.803849,-2.540515,-0.237825,-0.248935,0.484675,97.63,1
7961,0,52722,56715,52467.89,56267.08,717.91,1001.25,254.11,447.92,-2.803859,-2.540531,-0.237701,-0.248810,0.484439,97.64,1
8004,0,52688,56675,52468.34,56267.89,717.91,1001.25,219.66,407.11,-2.803867,-2.540545,-0.237575,-0.248683,0.484206,97.65,1
8044,0,52678,56664,52468.76,56268.69,717.91,1001.25,209.24,395.31,-2.803875,-2.540559,-0.237449,-0.248556,0.483974,97.66,1
8082,0,52675,56663,52469.17,56269.48,717.91,1001.25,205.83,393.52,-2.803883,-2.540573,-0.237323,-0.248429,0.483746,97.66,1
8120,0,52673,56671,52469.58,56270.28,717.91,1001.25,203.42,400.72,-2.803891,-2.540588,-0.237197,-0.248303,0.483519,97.67,1
8164,0,52684,56693,52470.01,56271.13,717.91,1001.25,213.99,421.87,-2.803899,-2.540603,-0.237071,-0.248177,0.483294,97.68,1
8204,0,52689,56715,52470.45,56272.02,717.91,1001.25,218.55,442.98,-2.803907,-2.540619,-0.236946,-0.248052,0.483072,97.69,1
8244,0,52694,56726,52470.90,56272.93,717.91,1001.25,223.10,453.07,-2.803916,-2.540635,-0.236821,-0.247927,0.482852,97.69,1
8282,0,52700,56742,52471.36,56273.87,717.91,1001.25,228.64,468.13,-2.803925,-2.540652,-0.236696,-0.247803,0.482634,97.70,1
8323,0,52702,56769,52471.82,56274.86,717.91,1001.25,230.18,494.14,-2.803933,-2.540669,-0.236571,-0.247680,0.482418,97.71,1
8363,0,52711,56796,52472.30,56275.91,717.91,1001.25,238.70,520.09,-2.803942,-2.540688,-0.236447,-0.247558,0.482204,97.71,1
8403,0,52718,56824,52472.79,56277.00,717.91,1001.25,245.21,547.00,-2.803952,-2.540707,-0.236323,-0.247437,0.481993,97.72,1
8444,0,52732,56849,52473.31,56278.15,717.91,1001.25,258.69,570.85,-2.803962,-2.540728,-0.236200,-0.247317,0.481783,97.73,1
8483,0,52734,56869,52473.84,56279.33,717.91,1001.25,260.16,589.67,-2.803972,-2.540749,-0.236077,-0.247198,0.481575,97.74,1
8521,0,52743,56905,52474.37,56280.59,717.91,1001.25,268.62,624.41,-2.803982,-2.540771,-0.235954,-0.247080,0.481370,97.74,1
8560,0,52752,56927,52474.93,56281.88,717.91,1001.25,277.07,645.12,-2.803993,-2.540794,-0.235831,-0.246963,0.481166,97.75,1
8599,0,52755,56919,52475.49,56283.16,717.91,1001.25,279.51,635.84,-2.804003,-2.540817,-0.235709,-0.246846,0.480964,97.76,1
8640,0,52730,56830,52476.00,56284.25,717.91,1001.25,254.00,545.75,-2.804013,-2.540836,-0.235586,-0.246725,0.480764,97.76,1
8680,0,52695,56783,52476.44,56285.25,717.91,1001.25,218.56,497.75,-2.804021,-2.540854,-0.235462,-0.246603,0.480566,97.77,1
8720,0,52683,56784,52476.86,56286.25,717.91,1001.25,206.14,497.75,-2.804029,-2.540871,-0.235337,-0.246481,0.480369,97.78,1
8760,0,52683,56786,52477.27,56287.25,717.91,1001.25,205.73,498.75,-2.804037,-2.540889,-0.235212,-0.246359,0.480173,97.78,1
8803,0,52679,56789,52477.68,56288.25,717.91,1001.25,201.32,500.75,-2.804045,-2.540907,-0.235087,-0.246237,0.479978,97.79,1
8905,0,52681,56809,52478.08,56289.30,717.91,1001.25,202.92,519.70,-2.804053,-2.540926,-0.234962,-0.246116,0.479783,97.80,1
8912,0,52684,56820,52478.50,56290.36,717.91,1001.25,205.50,529.64,-2.804060,-2.540945,-0.234838,-0.245996,0.479589,97.80,1
8968,0,52692,56835,52478.93,56291.45,717.91,1001.25,213.07,543.55,-2.804069,-2.540964,-0.234714,-0.245875,0.479396,97.81,1
9015,0,52700,56859,52479.37,56292.59,717.91,1001.25,220.63,566.41,-2.804077,-2.540984,-0.234590,-0.245756,0.479203,97.81,1
9056,0,52701,56883,52479.82,56293.77,717.91,1001.25,221.18,589.23,-2.804086,-2.541005,-0.234466,-0.245638,0.479011,97.82,1
9061,0,52712,56915,52480.28,56295.01,717.91,1001.25,231.72,619.99,-2.804095,-2.541027,-0.234343,-0.245521,0.478819,97.83,1
9084,0,52721,56932,52480.77,56296.29,717.91,1001.25,240.23,635.71,-2.804104,-2.541050,-0.234220,-0.245404,0.478628,97.83,1
9124,0,52727,56960,52481.26,56297.62,717.91,1001.25,245.74,662.38,-2.804113,-2.541073,-0.234098,-0.245289,0.478436,97.84,1
9164,0,52732,56983,52481.76,56298.99,717.91,1001.25,250.24,684.01,-2.804123,-2.541098,-0.233975,-0.245174,0.478245,97.85,1
9205,0,52742,57003,52482.29,56300.40,717.91,1001.25,259.71,702.60,-2.804133,-2.541123,-0.233854,-0.245061,0.478053,97.85,1
9241,0,52748,57023,52482.82,56301.84,717.91,1001.25,265.18,721.16,-2.804143,-2.541148,-0.233732,-0.244947,0.477862,97.86,1
9284,0,52746,56985,52483.34,56303.21,717.91,1001.25,262.66,681.79,-2.804153,-2.541173,-0.233610,-0.244833,0.477671,97.86,1
9330,0,52713,56912,52483.80,56304.43,717.91,1001.25,229.20,607.57,-2.804162,-2.541194,-0.233488,-0.244716,0.477480,97.87,1
9364,0,52690,56895,52484.22,56305.61,717.91,1001.25,205.78,589.39,-2.804170,-2.541215,-0.233364,-0.244598,0.477289,97.88,1
9405,0,52688,56903,52484.63,56306.81,717.91,1001.25,203.37,596.19,-2.804178,-2.541237,-0.233241,-0.244481,0.477098,97.88,1
9443,0,52685,56904,52485.03,56308.00,717.91,1001.25,199.97,596.00,-2.804185,-2.541258,-0.233117,-0.244364,0.476907,97.89,1
9484,0,52691,56917,52485.45,56309.22,717.91,1001.25,205.55,607.78,-2.804193,-2.541280,-0.232994,-0.244247,0.476714,97.89,1
9524,0,52694,56937,52485.86,56310.48,717.91,1001.25,208.14,626.52,-2.804201,-2.541302,-0.232870,-0.244131,0.476522,97.90,1
9564,0,52694,56946,52486.28,56311.75,717.91,1001.25,207.72,634.25,-2.804209,-2.541324,-0.232747,-0.244015,0.476328,97.91,1
9605,0,52696,56957,52486.70,56313.05,717.91,1001.25,209.30,643.95,-2.804217,-2.541348,-0.232624,-0.243900,0.476133,97.91,1
9645,0,52698,56970,52487.13,56314.36,717.91,1001.25,210.87,655.64,-2.804225,-2.541371,-0.232502,-0.243785,0.475938,97.92,1
9685,0,52704,56986,52487.56,56315.71,717.91,1001.25,216.44,670.29,-2.804233,-2.541395,-0.232379,-0.243671,0.475741,97.92,1
9725,0,52705,57007,52488.00,56317.09,717.91,1001.25,217.00,689.91,-2.804242,-2.541419,-0.232256,-0.243558,0.475543,97.93,1
9765,0,52710,57028,52488.45,56318.51,717.91,1001.25,221.55,709.49,-2.804250,-2.541445,-0.232134,-0.243445,0.475343,97.93,1
9805,0,52714,57054,52488.90,56319.98,717.91,1001.25,225.10,734.02,-2.804259,-2.541471,-0.232012,-0.243334,0.475142,97.94,1
9845,0,52718,57070,52489.36,56321.48,717.91,1001.25,228.64,748.52,-2.804267,-2.541497,-0.231890,-0.243223,0.474939,97.94,1
9885,0,52730,57097,52489.84,56323.04,717.91,1001.25,240.16,773.96,-2.804277,-2.541525,-0.231769,-0.243112,0.474733,97.95,1
9926,0,52739,57119,52490.34,56324.63,717.91,1001.25,248.66,794.37,-2.804286,-2.541553,-0.231648,-0.243003,0.474526,97.96,1
9965,0,52741,57105,52490.85,56326.19,717.91,1001.25,250.15,778.81,-2.804296,-2.541581,-0.231528,-0.242893,0.474318,97.96,1
10006,0,52719,57040,52491.30,56327.62,717.91,1001.25,227.70,712.38,-2.804305,-2.541606,-0.231406,-0.242781,0.474108,97.97,1
10046,0,52692,57016,52491.71,56329.00,717.91,1001.25,200.29,687.00,-2.804312,-2.541631,-0.231284,-0.242668,0.473897,97.97,1
10085,0,52693,57033,52492.11,56330.41,717.91,1001.25,200.89,702.59,-2.804320,-2.541656,-0.231161,-0.242556,0.473683,97.98,1
10125,0,52701,57043,52492.53,56331.84,717.91,1001.25,208.47,711.16,-2.804328,-2.541681,-0.231039,-0.242444,0.473468,97.98,1
10165,0,52701,57047,52492.95,56333.27,717.91,1001.25,208.05,713.73,-2.804336,-2.541707,-0.230917,-0.242333,0.473251,97.99,1
10205,0,52709,57067,52493.38,56334.74,717.91,1001.25,215.62,732.26,-2.804344,-2.541733,-0.230796,-0.242221,0.473032,98.00,1
10245,0,52717,57084,52493.83,56336.24,717.91,1001.25,223.17,747.76,-2.804353,-2.541759,-0.230674,-0.242111,0.472812,98.00,1
10285,0,52717,57100,52494.28,56337.77,717.91,1001.25,222.72,762.23,-2.804361,-2.541786,-0.230553,-0.242001,0.472589,98.01,1
10325,0,52722,57112,52494.73,56339.32,717.91,1001.25,227.27,772.68,-2.804370,-2.541814,-0.230432,-0.241892,0.472364,98.01,1
10365,0,52723,57122,52495.19,56340.88,717.91,1001.25,227.81,781.12,-2.804379,-2.541842,-0.230311,-0.241783,0.472137,98.02,1
10405,0,52726,57131,52495.66,56342.46,717.91,1001.25,230.34,788.54,-2.804388,-2.541870,-0.230191,-0.241674,0.471908,98.02,1
10445,0,52727,57138,52496.12,56344.06,717.91,1001.25,230.88,793.94,-2.804396,-2.541898,-0.230070,-0.241566,0.471677,98.03,1
10486,0,52728,57154,52496.59,56345.68,717.91,1001.25,231.41,808.32,-2.804405,-2.541927,-0.229950,-0.241458,0.471444,98.03,1
10525,0,52730,57166,52497.05,56347.32,717.91,1001.25,232.95,818.68,-2.804414,-2.541956,-0.229830,-0.241351,0.471208,98.04,1
10565,0,52731,57178,52497.52,56348.98,717.91,1001.25,233.48,829.02,-2.804423,-2.541986,-0.229709,-0.241244,0.470969,98.05,1
10605,0,52732,57185,52497.99,56350.66,717.91,1001.25,234.01,834.34,-2.804432,-2.542015,-0.229589,-0.241137,0.470728,98.05,1
10647,0,52732,57195,52498.46,56352.35,717.91,1001.25,233.54,842.65,-2.804441,-2.542045,-0.229469,-0.241031,0.470484,98.06,1
10686,0,52732,57189,52498.93,56354.02,717.91,1001.25,233.07,834.98,-2.804450,-2.542075,-0.229349,-0.240924,0.470237,98.06,1
10726,0,52708,57111,52499.35,56355.54,717.91,1001.25,208.65,755.46,-2.804458,-2.542102,-0.229228,-0.240815,0.469989,98.07,1
10766,0,52678,57068,52499.71,56356.96,717.91,1001.25,178.29,711.04,-2.804465,-2.542127,-0.229106,-0.240704,0.469738,98.07,1
10806,0,52669,57069,52500.05,56358.39,717.91,1001.25,168.95,710.61,-2.804471,-2.542152,-0.228984,-0.240593,0.469485,98.08,1
10846,0,52667,57074,52500.38,56359.82,717.91,1001.25,166.62,714.18,-2.804477,-2.542178,-0.228862,-0.240483,0.469229,98.08,1
10886,0,52667,57074,52500.72,56361.25,717.91,1001.25,166.28,712.75,-2.804484,-2.542203,-0.228740,-0.240372,0.468971,98.09,1
10925,0,52668,57077,52501.05,56362.69,717.91,1001.25,166.95,714.31,-2.804490,-2.542229,-0.228618,-0.240262,0.468710,98.10,1
10966,0,52671,57087,52501.39,56364.14,717.91,1001.25,169.61,722.86,-2.804497,-2.542254,-0.228496,-0.240152,0.468447,98.10,1
11007,0,52669,57098,52501.73,56365.61,717.91,1001.25,167.27,732.39,-2.804503,-2.542280,-0.228374,-0.240042,0.468180,98.11,1
11047,0,52670,57106,52502.07,56367.09,717.91,1001.25,167.93,738.91,-2.804510,-2.542307,-0.228252,-0.239933,0.467912,98.11,1
11087,0,52674,57114,52502.41,56368.58,717.91,1001.25,171.59,745.42,-2.804516,-2.542333,-0.228130,-0.239823,0.467640,98.12,1
11126,0,52674,57127,52502.76,56370.10,717.91,1001.25,171.24,756.90,-2.804523,-2.542360,-0.228009,-0.239715,0.467365,98.13,1
11166,0,52682,57135,52503.12,56371.63,717.91,1001.25,178.88,763.37,-2.804530,-2.542387,-0.227887,-0.239607,0.467088,98.13,1
11206,0,52687,57151,52503.48,56373.19,717.91,1001.25,183.52,777.81,-2.804537,-2.542415,-0.227767,-0.239499,0.466808,98.14,1
11246,0,52683,57160,52503.84,56374.77,717.91,1001.25,179.16,785.23,-2.804543,-2.542443,-0.227646,-0.239392,0.466525,98.14,1
11286,0,52685,57165,52504.21,56376.35,717.91,1001.25,180.79,788.65,-2.804550,-2.542471,-0.227525,-0.239284,0.466239,98.15,1
11326,0,52688,57180,52504.57,56377.96,717.91,1001.25,183.43,802.04,-2.804557,-2.542500,-0.227404,-0.239178,0.465949,98.16,1
11366,0,52685,57159,52504.94,56379.52,717.91,1001.25,180.06,779.48,-2.804564,-2.542527,-0.227283,-0.239070,0.465658,98.16,1
11406,0,52660,57075,52505.25,56380.91,717.91,1001.25,154.75,694.09,-2.804570,-2.542552,-0.227162,-0.238960,0.465364,98.17,1
11446,0,52628,57027,52505.50,56382.20,717.91,1001.25,122.50,644.80,-2.804575,-2.542575,-0.227039,-0.238848,0.465067,98.17,1
11486,0,52619,57024,52505.72,56383.49,717.91,1001.25,113.28,640.51,-2.804579,-2.542598,-0.226916,-0.238736,0.464769,98.18,1
11526,0,52614,57017,52505.94,56384.76,717.91,1001.25,108.06,632.24,-2.804583,-2.542620,-0.226793,-0.238624,0.464468,98.19,1
11566,0,52610,57016,52506.15,56386.02,717.91,1001.25,103.85,629.98,-2.804587,-2.542643,-0.226669,-0.238511,0.464165,98.19,1
11606,0,52608,57019,52506.36,56387.29,717.91,1001.25,101.64,631.71,-2.804591,-2.542665,-0.226546,-0.238399,0.463859,98.20,1
11647,0,52607,57022,52506.56,56388.56,717.91,1001.25,100.44,633.44,-2.804595,-2.542687,-0.226423,-0.238287,0.463551,98.21,1
11687,0,52601,57024,52506.75,56389.83,717.91,1001.25,94.25,634.17,-2.804599,-2.542710,-0.226299,-0.238175,0.463241,98.21,1
11726,0,52601,57021,52506.94,56391.10,717.91,1001.25,94.06,629.90,-2.804602,-2.542732,-0.226176,-0.238063,0.462928,98.22,1
11768,0,52600,57025,52507.13,56392.37,717.91,1001.25,92.87,632.63,-2.804606,-2.542755,-0.226053,-0.237951,0.462612,98.22,1
11808,0,52605,57040,52507.32,56393.66,717.91,1001.25,97.68,646.34,-2.804610,-2.542778,-0.225930,-0.237840,0.462294,98.23,1
11848,0,52605,57059,52507.52,56395.00,717.91,1001.25,97.48,664.00,-2.804614,-2.542802,-0.225807,-0.237729,0.461974,98.24,1
11888,0,52611,57066,52507.73,56396.34,717.91,1001.25,103.27,669.66,-2.804617,-2.542825,-0.225684,-0.237619,0.461650,98.24,1
11927,0,52612,57083,52507.94,56397.71,717.91,1001.25,104.06,685.29,-2.804621,-2.542850,-0.225561,-0.237509,0.461323,98.25,1
11968,0,52621,57097,52508.16,56399.11,717.91,1001.25,112.84,697.89,-2.804626,-2.542875,-0.225439,-0.237400,0.460994,98.26,1
12008,0,52625,57103,52508.40,56400.52,717.91,1001.25,116.60,702.48,-2.804630,-2.542900,-0.225317,-0.237291,0.460662,98.26,1
12047,0,52614,57043,52508.61,56401.81,717.91,1001.25,105.39,641.19,-2.804634,-2.542922,-0.225195,-0.237180,0.460327,98.27,1
12087,0,52576,56962,52508.75,56402.93,717.91,1001.25,67.25,559.07,-2.804637,-2.542942,-0.225071,-0.237066,0.459991,98.28,1
12127,0,52556,56934,52508.84,56403.99,717.91,1001.25,47.16,530.01,-2.804639,-2.542961,-0.224947,-0.236951,0.459653,98.29,1
12167,0,52555,56921,52508.94,56405.03,717.91,1001.25,46.06,515.97,-2.804641,-2.542979,-0.224823,-0.236836,0.459313,98.29,1
12208,0,52552,56904,52509.02,56406.03,717.91,1001.25,42.98,497.97,-2.804642,-2.542997,-0.224698,-0.236720,0.458972,98.30,1
12247,0,52548,56901,52509.10,56407.02,717.91,1001.25,38.90,493.98,-2.804644,-2.543015,-0.224574,-0.236604,0.458630,98.31,1
12288,0,52547,56906,52509.18,56408.02,717.91,1001.25,37.82,497.98,-2.804645,-2.543032,-0.224450,-0.236489,0.458286,98.31,1
12327,0,52552,56916,52509.27,56409.04,717.91,1001.25,42.73,506.96,-2.804647,-2.543051,-0.224325,-0.236373,0.457941,98.32,1
12368,0,52557,56914,52509.36,56410.05,717.91,1001.25,47.64,503.95,-2.804649,-2.543068,-0.224202,-0.236258,0.457594,98.33,1
12408,0,52558,56915,52509.46,56411.06,717.91,1001.25,48.54,503.94,-2.804650,-2.543087,-0.224078,-0.236143,0.457246,98.33,1
12447,0,52560,56923,52509.56,56412.08,717.91,1001.25,50.44,510.92,-2.804652,-2.543105,-0.223954,-0.236027,0.456896,98.34,1
12487,0,52562,56932,52509.67,56413.12,717.91,1001.25,52.33,518.87,-2.804654,-2.543123,-0.223831,-0.235913,0.456545,98.35,1
12527,0,52568,56949,52509.79,56414.20,717.91,1001.25,58.21,534.80,-2.804657,-2.543142,-0.223707,-0.235799,0.456192,98.36,1
12568,0,52575,56959,52509.92,56415.29,717.91,1001.25,65.08,543.71,-2.804659,-2.543161,-0.223585,-0.235685,0.455837,98.36,1
12608,0,52577,56971,52510.05,56416.40,717.91,1001.25,66.95,554.60,-2.804662,-2.543181,-0.223462,-0.235572,0.455481,98.37,1
12648,0,52580,56979,52510.20,56417.53,717.91,1001.25,69.80,561.47,-2.804664,-2.543201,-0.223340,-0.235459,0.455123,98.38,1
12688,0,52587,57000,52510.35,56418.70,717.91,1001.25,76.65,581.30,-2.804667,-2.543222,-0.223217,-0.235347,0.454763,98.39,1
12727,0,52589,56985,52510.51,56419.83,717.91,1001.25,78.49,565.17,-2.804670,-2.543242,-0.223096,-0.235235,0.454402,98.39,1
12768,0,52563,56888,52510.62,56420.77,717.91,1001.25,52.38,467.23,-2.804672,-2.543258,-0.222973,-0.235119,0.454039,98.40,1
12808,0,52525,56819,52510.65,56421.56,717.91,1001.25,14.35,397.44,-2.804673,-2.543272,-0.222848,-0.235000,0.453676,98.41,1
12848,0,52514,56798,52510.66,56422.32,717.91,1001.25,3.34,375.68,-2.804673,-2.543286,-0.222724,-0.234881,0.453312,98.42,1
12888,0,52521,56791,52510.68,56423.05,717.91,1001.25,10.32,367.95,-2.804674,-2.543299,-0.222599,-0.234762,0.452948,98.43,1
12928,0,52516,56776,52510.69,56423.76,717.91,1001.25,5.31,352.24,-2.804674,-2.543312,-0.222475,-0.234642,0.452584,98.43,1
12970,0,52513,56781,52510.70,56424.48,717.91,1001.25,2.30,356.52,-2.804674,-2.543324,-0.222351,-0.234523,0.452219,98.44,1
13008,0,52523,56798,52510.73,56425.23,717.91,1001.25,12.27,372.77,-2.804675,-2.543338,-0.222227,-0.234404,0.451854,98.45,1
13048,0,52538,56807,52510.78,56425.99,717.91,1001.25,27.22,381.01,-2.804676,-2.543351,-0.222103,-0.234285,0.451489,98.46,1
13088,0,52544,56811,52510.85,56426.76,717.91,1001.25,33.15,384.24,-2.804677,-2.543365,-0.221980,-0.234167,0.451123,98.46,1
13129,0,52552,56828,52510.93,56427.57,717.91,1001.25,41.07,400.43,-2.804678,-2.543379,-0.221858,-0.234049,0.450757,98.47,1
13167,0,52560,56836,52511.03,56428.38,717.91,1001.25,48.97,407.62,-2.804680,-2.543393,-0.221735,-0.233932,0.450390,98.48,1
13208,0,52568,56857,52511.14,56429.24,717.91,1001.25,56.86,427.76,-2.804682,-2.543409,-0.221614,-0.233816,0.450022,98.49,1
13247,0,52579,56877,52511.28,56430.14,717.91,1001.25,67.72,446.86,-2.804685,-2.543425,-0.221492,-0.233700,0.449654,98.50,1
13288,0,52587,56892,52511.43,56431.07,717.91,1001.25,75.57,460.93,-2.804688,-2.543441,-0.221371,-0.233585,0.449285,98.50,1
13328,0,52598,56911,52511.61,56432.03,717.91,1001.25,86.39,478.97,-2.804691,-2.543458,-0.221251,-0.233470,0.448916,98.51,1
13368,0,52609,56928,52511.80,56433.02,717.91,1001.25,97.20,494.98,-2.804695,-2.543476,-0.221130,-0.233356,0.448546,98.52,1
13408,0,52609,56876,52512.00,56433.91,717.91,1001.25,97.00,442.09,-2.804699,-2.543491,-0.221010,-0.233241,0.448176,98.53,1
13448,0,52568,56765,52512.11,56434.57,717.91,1001.25,55.89,330.43,-2.804701,-2.543503,-0.220889,-0.233121,0.447807,98.54,1
13488,0,52542,56724,52512.18,56435.15,717.91,1001.25,29.82,288.85,-2.804702,-2.543514,-0.220767,-0.233000,0.447438,98.55,1
13530,0,52539,56717,52512.23,56435.72,717.91,1001.25,26.77,281.28,-2.804703,-2.543524,-0.220644,-0.232879,0.447069,98.55,1
13569,0,52545,56710,52512.30,56436.27,717.91,1001.25,32.70,273.73,-2.804704,-2.543533,-0.220522,-0.232758,0.446700,98.56,1
13609,0,52548,56700,52512.37,56436.80,717.91,1001.25,35.63,263.20,-2.804706,-2.543543,-0.220400,-0.232636,0.446332,98.57,1
13648,0,52555,56719,52512.46,56437.36,717.91,1001.25,42.54,281.64,-2.804708,-2.543553,-0.220278,-0.232515,0.445964,98.58,1
13689,0,52569,56739,52512.57,56437.97,717.91,1001.25,56.43,301.03,-2.804710,-2.543563,-0.220157,-0.232395,0.445596,98.59,1
13729,0,52582,56762,52512.71,56438.62,717.91,1001.25,69.29,323.38,-2.804712,-2.543575,-0.220037,-0.232275,0.445229,98.60,1
13770,0,52594,56773,52512.87,56439.29,717.91,1001.25,81.12,333.71,-2.804715,-2.543587,-0.219917,-0.232157,0.444863,98.60,1
13809,0,52608,56796,52513.07,56440.00,717.91,1001.25,94.93,356.00,-2.804719,-2.543599,-0.219798,-0.232039,0.444498,98.61,1
13849,0,52621,56822,52513.29,56440.77,717.91,1001.25,107.71,381.23,-2.804723,-2.543613,-0.219679,-0.231922,0.444133,98.62,1
13890,0,52636,56846,52513.53,56441.58,717.91,1001.25,122.47,404.42,-2.804728,-2.543627,-0.219561,-0.231806,0.443769,98.63,1
13929,0,52649,56868,52513.80,56442.44,717.91,1001.25,135.20,425.56,-2.804733,-2.543643,-0.219443,-0.231690,0.443407,98.64,1
13969,0,52664,56902,52514.11,56443.36,717.91,1001.25,149.89,458.64,-2.804739,-2.543659,-0.219327,-0.231576,0.443047,98.65,1
14008,0,52675,56922,52514.43,56444.32,717.91,1001.25,160.57,477.68,-2.804745,-2.543676,-0.219210,-0.231463,0.442688,98.66,1
14049,0,52692,56946,52514.79,56445.32,717.91,1001.25,177.21,500.68,-2.804752,-2.543694,-0.219094,-0.231351,0.442332,98.66,1
14090,0,52704,56895,52515.16,56446.22,717.91,1001.25,188.84,448.78,-2.804759,-2.543710,-0.218979,-0.231236,0.441979,98.67,1
14129,0,52665,56782,52515.46,56446.89,717.91,1001.25,149.54,335.11,-2.804765,-2.543721,-0.218862,-0.231118,0.441629,98.68,1
14169,0,52637,56736,52515.71,56447.47,717.91,1001.25,121.29,288.53,-2.804770,-2.543732,-0.218745,-0.230999,0.441281,98.69,1
14208,0,52633,56735,52515.95,56448.05,717.91,1001.25,117.05,286.95,-2.804774,-2.543742,-0.218627,-0.230879,0.440935,98.70,1
14250,0,52641,56734,52516.20,56448.62,717.91,1001.25,124.80,285.37,-2.804779,-2.543752,-0.218510,-0.230759,0.440591,98.71,1
14290,0,52642,56727,52516.45,56449.18,717.91,1001.25,125.55,277.82,-2.804784,-2.543762,-0.218392,-0.230639,0.440249,98.72,1
14329,0,52653,56747,52516.72,56449.78,717.91,1001.25,136.28,297.22,-2.804789,-2.543773,-0.218276,-0.230520,0.439910,98.72,1
14370,0,52669,56763,52517.03,56450.41,717.91,1001.25,151.97,312.59,-2.804795,-2.543784,-0.218159,-0.230402,0.439575,98.73,1
14409,0,52674,56765,52517.34,56451.04,717.91,1001.25,156.66,313.96,-2.804801,-2.543795,-0.218044,-0.230283,0.439242,98.74,1
14448,0,52674,56774,52517.66,56451.69,717.91,1001.25,156.34,322.31,-2.804807,-2.543806,-0.217928,-0.230166,0.438913,98.75,1
14491,0,52687,56787,52518.00,56452.36,717.91,1001.25,169.00,334.64,-2.804813,-2.543818,-0.217813,-0.230048,0.438587,98.76,1
14530,0,52691,56803,52518.35,56453.06,717.91,1001.25,172.65,349.94,-2.804820,-2.543831,-0.217698,-0.229931,0.438265,98.77,1
14571,0,52698,56825,52518.71,56453.81,717.91,1001.25,179.29,371.19,-2.804826,-2.543844,-0.217583,-0.229815,0.437947,98.78,1
14606,0,52707,56845,52519.09,56454.59,717.91,1001.25,187.91,390.41,-2.804834,-2.543858,-0.217469,-0.229700,0.437633,98.78,1
14648,0,52715,56861,52519.48,56455.41,717.91,1001.25,195.52,405.59,-2.804841,-2.543872,-0.217355,-0.229585,0.437324,98.79,1
14691,0,52724,56879,52519.89,56456.25,717.91,1001.25,204.11,422.75,-2.804849,-2.543887,-0.217241,-0.229471,0.437019,98.80,1
14731,0,52733,56899,52520.32,56457.14,717.91,1001.25,212.68,441.86,-2.804857,-2.543903,-0.217128,-0.229358,0.436719,98.81,1
14771,0,52743,56913,52520.76,56458.05,717.91,1001.25,222.24,454.95,-2.804866,-2.543919,-0.217015,-0.229245,0.436424,98.82,1
14811,0,52738,56837,52521.20,56458.81,717.91,1001.25,216.80,378.19,-2.804874,-2.543933,-0.216902,-0.229130,0.436136,98.83,1
14850,0,52693,56732,52521.54,56459.36,717.91,1001.25,171.46,272.64,-2.804880,-2.543942,-0.216788,-0.229011,0.435851,98.83,1
14889,0,52668,56704,52521.84,56459.85,717.91,1001.25,146.16,244.15,-2.804886,-2.543951,-0.216672,-0.228891,0.435570,98.84,1
14931,0,52668,56712,52522.13,56460.36,717.91,1001.25,145.87,251.64,-2.804892,-2.543960,-0.216557,-0.228771,0.435292,98.85,1
14971,0,52676,56710,52522.44,56460.86,717.91,1001.25,153.56,249.14,-2.804898,-2.543969,-0.216442,-0.228652,0.435017,98.86,1
15006,0,52676,56714,52522.75,56461.36,717.91,1001.25,153.25,252.64,-2.804903,-2.543978,-0.216327,-0.228532,0.434746,98.87,1
15048,0,52686,56730,52523.07,56461.90,717.91,1001.25,162.93,268.10,-2.804910,-2.543987,-0.216213,-0.228413,0.434479,98.88,1
15089,0,52695,56739,52523.42,56462.46,717.91,1001.25,171.58,276.54,-2.804916,-2.543997,-0.216099,-0.228295,0.434216,98.88,1
15133,0,52698,56740,52523.77,56463.01,717.91,1001.25,174.23,276.99,-2.804923,-2.544007,-0.215985,-0.228177,0.433957,98.89,1
15170,0,52700,56752,52524.12,56463.59,717.91,1001.25,175.87,288.41,-2.804930,-2.544017,-0.215871,-0.228059,0.433703,98.90,1
15210,0,52709,56770,52524.50,56464.20,717.91,1001.25,184.50,305.80,-2.804937,-2.544028,-0.215758,-0.227941,0.433453,98.91,1
15250,0,52714,56782,52524.87,56464.84,717.91,1001.25,189.12,317.16,-2.804944,-2.544039,-0.215644,-0.227825,0.433208,98.92,1
15291,0,52719,56804,52525.27,56465.52,717.91,1001.25,193.73,338.48,-2.804951,-2.544051,-0.215531,-0.227709,0.432968,98.92,1
15331,0,52731,56828,52525.68,56466.25,717.91,1001.25,205.32,361.75,-2.804959,-2.544064,-0.215419,-0.227594,0.432733,98.93,1
15370,0,52734,56839,52526.10,56466.99,717.91,1001.25,207.90,372.01,-2.804967,-2.544077,-0.215307,-0.227479,0.432504,98.94,1
15411,0,52741,56854,52526.53,56467.77,717.91,1001.25,214.47,386.23,-2.804975,-2.544091,-0.215195,-0.227366,0.432280,98.95,1
15451,0,52743,56843,52526.96,56468.52,717.91,1001.25,216.04,374.48,-2.804984,-2.544105,-0.215083,-0.227251,0.432061,98.95,1
15491,0,52720,56746,52527.35,56469.07,717.91,1001.25,192.65,276.93,-2.804991,-2.544114,-0.214971,-0.227133,0.431848,98.96,1
15532,0,52678,56676,52527.65,56469.49,717.91,1001.25,150.35,206.51,-2.804997,-2.544122,-0.214856,-0.227013,0.431639,98.97,1
15572,0,52662,56660,52527.92,56469.87,717.91,1001.25,134.08,190.13,-2.805002,-2.544128,-0.214742,-0.226893,0.431432,98.98,1
15611,0,52657,56662,52528.18,56470.26,717.91,1001.25,128.82,191.74,-2.805007,-2.544135,-0.214627,-0.226772,0.431228,98.98,1
15651,0,52660,56661,52528.44,56470.64,717.91,1001.25,131.56,190.36,-2.805012,-2.544142,-0.214512,-0.226652,0.431027,98.99,1
15692,0,52661,56679,52528.71,56471.06,717.91,1001.25,132.29,207.94,-2.805017,-2.544149,-0.214398,-0.226532,0.430828,99.00,1
15732,0,52669,56700,52528.99,56471.52,717.91,1001.25,140.01,228.48,-2.805022,-2.544158,-0.214284,-0.226413,0.430633,99.01,1
15771,0,52673,56708,52529.28,56471.99,717.91,1001.25,143.72,236.01,-2.805028,-2.544166,-0.214170,-0.226294,0.430440,99.01,1
15811,0,52677,56722,52529.57,56472.49,717.91,1001.25,147.43,249.51,-2.805033,-2.544175,-0.214056,-0.226176,0.430251,99.02,1
15851,0,52683,56739,52529.88,56473.03,717.91,1001.25,153.12,265.97,-2.805039,-2.544184,-0.213942,-0.226059,0.430064,99.03,1
15891,0,52691,56751,52530.21,56473.59,717.91,1001.25,160.79,277.41,-2.805045,-2.544194,-0.213829,-0.225942,0.429881,99.03,1
15932,0,52694,56781,52530.54,56474.20,717.91,1001.25,163.46,306.80,-2.805052,-2.544205,-0.213716,-0.225826,0.429702,99.04,1
15971,0,52707,56809,52530.89,56474.87,717.91,1001.25,176.11,334.12,-2.805058,-2.544217,-0.213604,-0.225711,0.429526,99.05,1
16011,0,52713,56834,52531.26,56475.59,717.91,1001.25,181.74,358.41,-2.805065,-2.544230,-0.213492,-0.225598,0.429353,99.05,1
16052,0,52722,56853,52531.64,56476.35,717.91,1001.25,190.36,376.65,-2.805073,-2.544243,-0.213380,-0.225485,0.429185,99.06,1
16091,0,52730,56869,52532.04,56477.14,717.91,1001.25,197.96,391.86,-2.805080,-2.544257,-0.213269,-0.225372,0.429020,99.07,1
16133,0,52736,56892,52532.45,56477.97,717.91,1001.25,203.55,414.03,-2.805088,-2.544272,-0.213158,-0.225260,0.428860,99.07,1
16171,0,52742,56871,52532.87,56478.76,717.91,1001.25,209.13,392.24,-2.805096,-2.544286,-0.213047,-0.225148,0.428705,99.08,1
16211,0,52713,56772,52533.23,56479.35,717.91,1001.25,179.77,292.65,-2.805103,-2.544296,-0.212936,-0.225032,0.428554,99.08,1
16251,0,52670,56712,52533.51,56479.81,717.91,1001.25,136.49,232.19,-2.805108,-2.544304,-0.212822,-0.224914,0.428405,99.09,1
16292,0,52662,56703,52533.77,56480.26,717.91,1001.25,128.23,222.74,-2.805113,-2.544312,-0.212708,-0.224796,0.428259,99.10,1
16330,0,52660,56699,52534.02,56480.70,717.91,1001.25,125.98,218.30,-2.805118,-2.544320,-0.212595,-0.224678,0.428115,99.10,1
16370,0,52658,56681,52534.27,56481.10,717.91,1001.25,123.73,199.90,-2.805123,-2.544327,-0.212481,-0.224559,0.427973,99.11,1
16412,0,52652,56687,52534.51,56481.52,717.91,1001.25,117.49,205.48,-2.805127,-2.544335,-0.212367,-0.224440,0.427833,99.11,1
16451,0,52654,56703,52534.75,56481.96,717.91,1001.25,119.25,221.04,-2.805132,-2.544343,-0.212254,-0.224323,0.427695,99.12,1
16491,0,52658,56710,52535.00,56482.42,717.91,1001.25,123.00,227.58,-2.805137,-2.544351,-0.212140,-0.224205,0.427559,99.13,1
16531,0,52658,56723,52535.24,56482.90,717.91,1001.25,122.76,240.10,-2.805141,-2.544359,-0.212027,-0.224088,0.427425,99.13,1
16572,0,52662,56732,52535.50,56483.40,717.91,1001.25,126.50,248.60,-2.805146,-2.544368,-0.211913,-0.223971,0.427293,99.14,1
16612,0,52665,56744,52535.76,56483.93,717.91,1001.25,129.24,260.07,-2.805151,-2.544377,-0.211800,-0.223855,0.427162,99.14,1
16652,0,52666,56764,52536.02,56484.49,717.91,1001.25,129.98,279.51,-2.805156,-2.544387,-0.211688,-0.223739,0.427034,99.15,1
16692,0,52674,56789,52536.30,56485.10,717.91,1001.25,137.70,303.90,-2.805161,-2.544398,-0.211575,-0.223625,0.426907,99.15,1
16732,0,52685,56817,52536.59,56485.76,717.91,1001.25,148.41,331.24,-2.805167,-2.544410,-0.211463,-0.223511,0.426782,99.16,1
16772,0,52691,56835,52536.90,56486.46,717.91,1001.25,154.10,348.54,-2.805173,-2.544422,-0.211351,-0.223399,0.426659,99.16,1
16811,0,52697,56850,52537.22,56487.19,717.91,1001.25,159.78,362.81,-2.805179,-2.544435,-0.211239,-0.223286,0.426538,99.17,1
16854,0,52705,56873,52537.56,56487.96,717.91,1001.25,167.44,385.04,-2.805185,-2.544449,-0.211128,-0.223175,0.426419,99.17,1
16891,0,52714,56898,52537.91,56488.79,717.91,1001.25,176.09,409.21,-2.805192,-2.544463,-0.211018,-0.223064,0.426302,99.18,1
16933,0,52716,56884,52538.27,56489.58,717.91,1001.25,177.73,394.42,-2.805199,-2.544477,-0.210907,-0.222954,0.426188,99.18,1
16972,0,52690,56797,52538.58,56490.20,717.91,1001.25,151.42,306.80,-2.805205,-2.544488,-0.210795,-0.222840,0.426076,99.19,1
17012,0,52652,56736,52538.80,56490.69,717.91,1001.25,113.20,245.31,-2.805209,-2.544497,-0.210682,-0.222724,0.425966,99.19,1
17053,0,52640,56727,52539.01,56491.16,717.91,1001.25,100.99,235.84,-2.805213,-2.544505,-0.210569,-0.222607,0.425856,99.20,1
17093,0,52639,56716,52539.21,56491.61,717.91,1001.25,99.79,224.39,-2.805217,-2.544513,-0.210456,-0.222491,0.425747,99.20,1
17131,0,52634,56701,52539.40,56492.03,717.91,1001.25,94.60,208.97,-2.805220,-2.544521,-0.210342,-0.222373,0.425640,99.21,1
17173,0,52630,56701,52539.59,56492.45,717.91,1001.25,90.41,208.55,-2.805224,-2.544528,-0.210229,-0.222256,0.425533,99.21,1
17211,0,52630,56717,52539.77,56492.90,717.91,1001.25,90.23,224.10,-2.805228,-2.544536,-0.210115,-0.222140,0.425427,99.22,1
17252,0,52636,56726,52539.96,56493.37,717.91,1001.25,96.04,232.63,-2.805231,-2.544544,-0.210002,-0.222024,0.425321,99.22,1
17291,0,52635,56729,52540.16,56493.84,717.91,1001.25,94.84,235.16,-2.805235,-2.544553,-0.209889,-0.221908,0.425217,99.23,1
17332,0,52640,56735,52540.36,56494.32,717.91,1001.25,99.64,240.68,-2.805238,-2.544561,-0.209776,-0.221792,0.425113,99.23,1
17372,0,52641,56746,52540.56,56494.83,717.91,1001.25,100.44,251.17,-2.805243,-2.544570,-0.209663,-0.221677,0.425009,99.24,1
17411,0,52638,56759,52540.75,56495.36,717.91,1001.25,97.25,263.64,-2.805246,-2.544580,-0.209550,-0.221562,0.424906,99.24,1
17451,0,52644,56770,52540.96,56495.91,717.91,1001.25,103.04,274.09,-2.805250,-2.544590,-0.209438,-0.221448,0.424804,99.24,1
17493,0,52641,56777,52541.16,56496.47,717.91,1001.25,99.84,280.53,-2.805254,-2.544599,-0.209325,-0.221334,0.424702,99.25,1
17533,0,52642,56784,52541.37,56497.05,717.91,1001.25,100.63,286.95,-2.805258,-2.544610,-0.209212,-0.221221,0.424599,99.25,1
17574,0,52644,56791,52541.57,56497.64,717.91,1001.25,102.43,293.36,-2.805262,-2.544620,-0.209100,-0.221107,0.424497,99.26,1
17613,0,52643,56803,52541.78,56498.25,717.91,1001.25,101.22,304.75,-2.805266,-2.544631,-0.208988,-0.220994,0.424395,99.26,1
17653,0,52645,56808,52541.98,56498.87,717.91,1001.25,103.02,309.12,-2.805270,-2.544642,-0.208876,-0.220882,0.424293,99.26,1
17694,0,52631,56742,52542.16,56499.36,717.91,1001.25,88.84,242.64,-2.805273,-2.544651,-0.208763,-0.220767,0.424191,99.27,1
17733,0,52592,56664,52542.27,56499.70,717.91,1001.25,49.73,164.30,-2.805275,-2.544657,-0.208649,-0.220649,0.424090,99.27,1
17776,0,52573,56644,52542.33,56499.98,717.91,1001.25,30.67,144.02,-2.805276,-2.544662,-0.208534,-0.220531,0.423988,99.28,1
17814,0,52571,56642,52542.39,56500.27,717.91,1001.25,28.61,141.73,-2.805277,-2.544667,-0.208419,-0.220413,0.423886,99.28,1
17856,0,52573,56642,52542.45,56500.55,717.91,1001.25,30.55,141.45,-2.805279,-2.544672,-0.208304,-0.220294,0.423784,99.28,1
17893,0,52571,56647,52542.51,56500.85,717.91,1001.25,28.49,146.15,-2.805279,-2.544677,-0.208190,-0.220176,0.423681,99.29,1
17933,0,52574,56661,52542.57,56501.17,717.91,1001.25,31.43,159.83,-2.805281,-2.544683,-0.208075,-0.220059,0.423579,99.29,1
17973,0,52577,56675,52542.64,56501.52,717.91,1001.25,34.36,173.48,-2.805282,-2.544689,-0.207961,-0.219942,0.423476,99.29,1
18013,0,52579,56680,52542.71,56501.87,717.91,1001.25,36.29,178.12,-2.805284,-2.544695,-0.207847,-0.219825,0.423373,99.30,1
18051,0,52584,56693,52542.80,56502.26,717.91,1001.25,41.20,190.74,-2.805285,-2.544702,-0.207733,-0.219709,0.423270,99.30,1
18093,0,52589,56705,52542.89,56502.66,717.91,1001.25,46.11,202.34,-2.805287,-2.544709,-0.207619,-0.219594,0.423166,99.31,1
18134,0,52594,56716,52543.00,56503.09,717.91,1001.25,51.00,212.91,-2.805289,-2.544717,-0.207506,-0.219478,0.423061,99.31,1
18169,0,52601,56733,52543.11,56503.55,717.91,1001.25,57.89,229.45,-2.805291,-2.544725,-0.207393,-0.219364,0.422956,99.31,1
18211,0,52602,56750,52543.23,56504.05,717.91,1001.25,58.77,245.95,-2.805293,-2.544734,-0.207280,-0.219250,0.422851,99.32,1
18253,0,52611,56774,52543.37,56504.59,717.91,1001.25,67.63,269.41,-2.805296,-2.544743,-0.207167,-0.219137,0.422744,99.32,1
18293,0,52612,56774,52543.50,56505.13,717.91,1001.25,68.50,268.87,-2.805299,-2.544753,-0.207055,-0.219024,0.422637,99.32,1
18333,0,52613,56790,52543.64,56505.70,717.91,1001.25,69.36,284.30,-2.805301,-2.544763,-0.206943,-0.218912,0.422528,99.33,1
18371,0,52621,56778,52543.80,56506.25,717.91,1001.25,77.20,271.75,-2.805304,-2.544772,-0.206831,-0.218799,0.422419,99.33,1
18413,0,52597,56687,52543.91,56506.61,717.91,1001.25,53.09,180.39,-2.805306,-2.544779,-0.206718,-0.218683,0.422310,99.33,1
18453,0,52553,56624,52543.93,56506.85,717.91,1001.25,9.07,117.15,-2.805307,-2.544783,-0.206603,-0.218565,0.422201,99.34,1
18494,0,52538,56609,52543.92,56507.05,717.91,1001.25,-5.92,101.95,-2.805306,-2.544787,-0.206489,-0.218447,0.422092,99.34,1
18535,0,52538,56610,52543.91,56507.26,717.91,1001.25,-5.91,102.74,-2.805306,-2.544790,-0.206374,-0.218329,0.421982,99.34,1
18573,0,52536,56598,52543.89,56507.45,717.91,1001.25,-7.89,90.55,-2.805306,-2.544794,-0.206259,-0.218210,0.421873,99.35,1
18615,0,52533,56602,52543.87,56507.64,717.91,1001.25,-10.87,94.36,-2.805305,-2.544797,-0.206144,-0.218091,0.421764,99.35,1
18654,0,52538,56617,52543.86,56507.86,717.91,1001.25,-5.86,109.14,-2.805305,-2.544801,-0.206029,-0.217974,0.421655,99.35,1
18695,0,52542,56631,52543.86,56508.10,717.91,1001.25,-1.86,122.90,-2.805305,-2.544805,-0.205915,-0.217856,0.421546,99.36,1
18735,0,52548,56644,52543.86,56508.37,717.91,1001.25,4.14,135.62,-2.805305,-2.544810,-0.205801,-0.217739,0.421436,99.36,1
18771,0,52554,56655,52543.89,56508.67,717.91,1001.25,10.11,146.33,-2.805306,-2.544815,-0.205687,-0.217623,0.421326,99.36,1
18814,0,52559,56669,52543.92,56508.99,717.91,1001.25,15.08,160.01,-2.805306,-2.544821,-0.205573,-0.217507,0.421215,99.37,1
18855,0,52567,56689,52543.96,56509.35,717.91,1001.25,23.04,179.65,-2.805307,-2.544827,-0.205460,-0.217392,0.421104,99.37,1
18895,0,52572,56711,52544.02,56509.76,717.91,1001.25,27.98,201.24,-2.805308,-2.544835,-0.205347,-0.217278,0.420992,99.37,1
18933,0,52580,56734,52544.10,56510.21,717.91,1001.25,35.90,223.79,-2.805310,-2.544842,-0.205235,-0.217164,0.420879,99.38,1
18972,0,52586,56749,52544.18,56510.69,717.91,1001.25,41.82,238.31,-2.805311,-2.544851,-0.205122,-0.217052,0.420764,99.38,1
19010,0,52595,56773,52544.29,56511.21,717.91,1001.25,50.71,261.79,-2.805313,-2.544860,-0.205010,-0.216940,0.420649,99.38,1
19052,0,52604,56786,52544.41,56511.77,717.91,1001.25,59.59,274.23,-2.805316,-2.544870,-0.204899,-0.216828,0.420531,99.38,1
19092,0,52611,56802,52544.54,56512.35,717.91,1001.25,66.46,289.65,-2.805318,-2.544880,-0.204788,-0.216718,0.420413,99.39,1
19131,0,52615,56809,52544.68,56512.94,717.91,1001.25,70.32,296.06,-2.805321,-2.544891,-0.204677,-0.216607,0.420292,99.39,1
19170,0,52610,56751,52544.81,56513.42,717.91,1001.25,65.19,237.58,-2.805324,-2.544899,-0.204566,-0.216495,0.420172,99.39,1
19214,0,52569,56657,52544.86,56513.71,717.91,1001.25,24.14,143.29,-2.805324,-2.544904,-0.204453,-0.216379,0.420051,99.40,1
19261,0,52541,56625,52544.86,56513.93,717.91,1001.25,-3.86,111.07,-2.805324,-2.544908,-0.204340,-0.216262,0.419930,99.40,1
19295,0,52536,56610,52544.84,56514.12,717.91,1001.25,-8.84,95.87,-2.805324,-2.544912,-0.204226,-0.216145,0.419809,99.40,1
19334,0,52534,56601,52544.82,56514.30,717.91,1001.25,-10.82,86.70,-2.805324,-2.544915,-0.204113,-0.216027,0.419689,99.41,1
19371,0,52533,56591,52544.80,56514.46,717.91,1001.25,-11.80,76.54,-2.805323,-2.544918,-0.203999,-0.215910,0.419568,99.41,1
19412,0,52531,56600,52544.77,56514.63,717.91,1001.25,-13.77,85.37,-2.805323,-2.544921,-0.203885,-0.215792,0.419448,99.41,1
19452,0,52537,56604,52544.75,56514.81,717.91,1001.25,-7.75,89.19,-2.805322,-2.544924,-0.203772,-0.215675,0.419327,99.42,1
19491,0,52537,56609,52544.74,56515.00,717.91,1001.25,-7.74,94.00,-2.805322,-2.544927,-0.203659,-0.215558,0.419207,99.42,1
19534,0,52535,56612,52544.72,56515.20,717.91,1001.25,-9.72,96.80,-2.805322,-2.544931,-0.203545,-0.215441,0.419087,99.42,1
19575,0,52541,56619,52544.71,56515.41,717.91,1001.25,-3.71,103.59,-2.805321,-2.544935,-0.203432,-0.215325,0.418966,99.43,1
19616,0,52542,56630,52544.71,56515.64,717.91,1001.25,-2.71,114.36,-2.805321,-2.544939,-0.203320,-0.215209,0.418846,99.43,1
19655,0,52548,56647,52544.71,56515.90,717.91,1001.25,3.29,131.10,-2.805321,-2.544943,-0.203207,-0.215094,0.418725,99.43,1
19695,0,52560,56665,52544.75,56516.20,717.91,1001.25,15.25,148.80,-2.805322,-2.544949,-0.203095,-0.214979,0.418603,99.43,1
19736,0,52561,56671,52544.78,56516.52,717.91,1001.25,16.22,154.48,-2.805323,-2.544954,-0.202983,-0.214865,0.418481,99.44,1
19774,0,52573,56691,52544.84,56516.87,717.91,1001.25,28.16,174.13,-2.805324,-2.544960,-0.202872,-0.214751,0.418359,99.44,1
19815,0,52577,56701,52544.91,56517.24,717.91,1001.25,32.09,183.76,-2.805325,-2.544967,-0.202761,-0.214638,0.418236,99.44,1
19855,0,52579,56724,52544.98,56517.65,717.91,1001.25,34.02,206.35,-2.805327,-2.544974,-0.202650,-0.214525,0.418111,99.45,1
19895,0,52588,56722,52545.06,56518.06,717.91,1001.25,42.94,203.94,-2.805328,-2.544981,-0.202539,-0.214413,0.417986,99.45,1
19935,0,52569,56635,52545.11,56518.30,717.91,1001.25,23.89,116.70,-2.805329,-2.544986,-0.202428,-0.214298,0.417861,99.45,1
19975,0,52532,56556,52545.09,56518.37,717.91,1001.25,-13.09,37.63,-2.805329,-2.544987,-0.202315,-0.214180,0.417736,99.46,1
20015,0,52519,56534,52545.04,56518.41,717.91,1001.25,-26.04,15.59,-2.805328,-2.544988,-0.202202,-0.214061,0.417612,99.46,1
20056,0,52524,56530,52545.00,56518.43,717.91,1001.25,-21.00,11.57,-2.805327,-2.544988,-0.202089,-0.213942,0.417489,99.46,1
20094,0,52521,56521,52544.95,56518.44,717.91,1001.25,-23.95,2.56,-2.805326,-2.544988,-0.201976,-0.213823,0.417366,99.47,1
20135,0,52521,56527,52544.91,56518.46,717.91,1001.25,-23.91,8.54,-2.805325,-2.544988,-0.201864,-0.213704,0.417243,99.47,1
20175,0,52527,56543,52544.87,56518.51,717.91,1001.25,-17.87,24.49,-2.805325,-2.544989,-0.201751,-0.213586,0.417121,99.47,1
20215,0,52532,56538,52544.85,56518.55,717.91,1001.25,-12.85,19.45,-2.805324,-2.544990,-0.201639,-0.213467,0.417000,99.48,1
20255,0,52531,56539,52544.82,56518.59,717.91,1001.25,-13.82,20.41,-2.805324,-2.544991,-0.201527,-0.213349,0.416879,99.48,1
20295,0,52532,56540,52544.80,56518.63,717.91,1001.25,-12.80,21.37,-2.805323,-2.544991,-0.201415,-0.213231,0.416758,99.48,1
20335,0,52539,56552,52544.79,56518.70,717.91,1001.25,-5.79,33.30,-2.805323,-2.544993,-0.201303,-0.213114,0.416638,99.48,1
20373,0,52548,56572,52544.79,56518.81,717.91,1001.25,3.21,53.19,-2.805323,-2.544995,-0.201192,-0.212997,0.416517,99.49,1
20412,0,52551,56589,52544.81,56518.95,717.91,1001.25,6.19,70.05,-2.805323,-2.544997,-0.201081,-0.212881,0.416397,99.49,1
20455,0,52559,56602,52544.84,56519.12,717.91,1001.25,14.16,82.88,-2.805324,-2.545000,-0.200970,-0.212765,0.416277,99.49,1
20496,0,52567,56616,52544.89,56519.31,717.91,1001.25,22.11,96.69,-2.805325,-2.545004,-0.200860,-0.212650,0.416158,99.50,1
20536,0,52575,56628,52544.95,56519.53,717.91,1001.25,30.05,108.47,-2.805326,-2.545007,-0.200749,-0.212535,0.416038,99.50,1
20576,0,52582,56641,52545.02,56519.78,717.91,1001.25,36.98,121.22,-2.805327,-2.545012,-0.200640,-0.212421,0.415918,99.50,1
20616,0,52579,56590,52545.09,56519.92,717.91,1001.25,33.91,70.08,-2.805329,-2.545014,-0.200530,-0.212305,0.415799,99.51,1
20656,0,52543,56489,52545.09,56519.86,717.91,1001.25,-2.09,-30.86,-2.805329,-2.545013,-0.200419,-0.212186,0.415681,99.51,1
20697,0,52520,56452,52545.04,56519.73,717.91,1001.25,-25.04,-67.73,-2.805328,-2.545011,-0.200307,-0.212066,0.415563,99.51,1
20736,0,52519,56448,52544.99,56519.59,717.91,1001.25,-25.99,-71.59,-2.805327,-2.545008,-0.200195,-0.211945,0.415445,99.52,1
20776,0,52528,56452,52544.96,56519.45,717.91,1001.25,-16.96,-67.45,-2.805326,-2.545006,-0.200084,-0.211825,0.415327,99.52,1
20815,0,52531,56453,52544.93,56519.32,717.91,1001.25,-13.93,-66.32,-2.805326,-2.545004,-0.199973,-0.211704,0.415210,99.52,1
20856,0,52538,56469,52544.92,56519.22,717.91,1001.25,-6.92,-50.22,-2.805326,-2.545002,-0.199862,-0.211585,0.415093,99.52,1
20901,0,52550,56493,52544.93,56519.17,717.91,1001.25,5.07,-26.17,-2.805326,-2.545001,-0.199751,-0.211466,0.414976,99.53,1
20937,0,52562,56501,52544.97,56519.14,717.91,1001.25,17.03,-18.14,-2.805326,-2.545001,-0.199642,-0.211348,0.414859,99.53,1
20976,0,52571,56511,52545.02,56519.12,717.91,1001.25,25.98,-8.12,-2.805327,-2.545000,-0.199532,-0.211230,0.414744,99.53,1
21015,0,52583,56524,52545.10,56519.13,717.91,1001.25,37.90,4.87,-2.805329,-2.545001,-0.199423,-0.211112,0.414629,99.54,1
21055,0,52596,56546,52545.20,56519.19,717.91,1001.25,50.80,26.81,-2.805331,-2.545001,-0.199315,-0.210996,0.414516,99.54,1
21096,0,52605,56565,52545.32,56519.28,717.91,1001.25,59.68,45.72,-2.805333,-2.545003,-0.199207,-0.210880,0.414404,99.54,1
21135,0,52619,56589,52545.47,56519.42,717.91,1001.25,73.53,69.58,-2.805336,-2.545006,-0.199100,-0.210765,0.414296,99.55,1
21176,0,52629,56612,52545.64,56519.61,717.91,1001.25,83.36,92.39,-2.805339,-2.545009,-0.198993,-0.210651,0.414190,99.55,1
21215,0,52639,56629,52545.83,56519.83,717.91,1001.25,93.17,109.17,-2.805343,-2.545013,-0.198886,-0.210538,0.414088,99.55,1
21257,0,52648,56638,52546.04,56520.07,717.91,1001.25,101.96,117.93,-2.805347,-2.545017,-0.198780,-0.210425,0.413991,99.55,1
21295,0,52659,56656,52546.26,56520.34,717.91,1001.25,112.74,135.66,-2.805351,-2.545022,-0.198674,-0.210313,0.413899,99.56,1
21336,0,52664,56635,52546.50,56520.57,717.91,1001.25,117.50,114.43,-2.805356,-2.545026,-0.198569,-0.210200,0.413813,99.56,1
21374,0,52635,56512,52546.68,56520.55,717.91,1001.25,88.32,-8.55,-2.805359,-2.545026,-0.198463,-0.210083,0.413731,99.56,1
21413,0,52594,56433,52546.78,56520.38,717.91,1001.25,47.22,-87.38,-2.805361,-2.545022,-0.198355,-0.209963,0.413651,99.57,1
21458,0,52580,56419,52546.84,56520.18,717.91,1001.25,33.16,-101.18,-2.805362,-2.545019,-0.198246,-0.209842,0.413570,99.57,1
21497,0,52584,56402,52546.92,56519.95,717.91,1001.25,37.08,-117.95,-2.805363,-2.545015,-0.198138,-0.209722,0.413489,99.57,1
21537,0,52582,56392,52546.99,56519.69,717.91,1001.25,35.01,-127.69,-2.805365,-2.545010,-0.198030,-0.209600,0.413408,99.57,1
21575,0,52590,56398,52547.07,56519.45,717.91,1001.25,42.93,-121.45,-2.805367,-2.545006,-0.197922,-0.209480,0.413327,99.58,1
21618,0,52600,56417,52547.18,56519.25,717.91,1001.25,52.82,-102.25,-2.805368,-2.545002,-0.197815,-0.209359,0.413248,99.58,1
21657,0,52611,56434,52547.31,56519.08,717.91,1001.25,63.69,-85.08,-2.805371,-2.544999,-0.197708,-0.209240,0.413170,99.58,1
21696,0,52623,56444,52547.46,56518.93,717.91,1001.25,75.54,-74.93,-2.805374,-2.544997,-0.197602,-0.209121,0.413095,99.59,1
21737,0,52635,56456,52547.64,56518.80,717.91,1001.25,87.36,-62.80,-2.805377,-2.544995,-0.197496,-0.209003,0.413024,99.59,1
21777,0,52645,56482,52547.83,56518.73,717.91,1001.25,97.17,-36.73,-2.805381,-2.544993,-0.197390,-0.208885,0.412958,99.59,1
21817,0,52653,56502,52548.04,56518.70,717.91,1001.25,104.96,-16.70,-2.805385,-2.544993,-0.197285,-0.208769,0.412898,99.59,1
21856,0,52669,56534,52548.29,56518.73,717.91,1001.25,120.71,15.27,-2.805389,-2.544993,-0.197181,-0.208653,0.412846,99.60,1
21896,0,52686,56558,52548.56,56518.81,717.91,1001.25,137.44,39.19,-2.805395,-2.544995,-0.197077,-0.208539,0.412804,99.60,1
21937,0,52697,56574,52548.86,56518.93,717.91,1001.25,148.14,55.07,-2.805400,-2.544997,-0.196974,-0.208425,0.412774,99.60,1
21977,0,52706,56592,52549.18,56519.07,717.91,1001.25,156.82,72.93,-2.805406,-2.544999,-0.196871,-0.208311,0.412757,99.60,1
22017,0,52718,56608,52549.52,56519.25,717.91,1001.25,168.48,88.75,-2.805413,-2.545002,-0.196769,-0.208199,0.412754,99.61,1
22058,0,52726,56626,52549.87,56519.47,717.91,1001.25,176.13,106.53,-2.805420,-2.545006,-0.196667,-0.208087,0.412767,99.61,1
22097,0,52734,56625,52550.24,56519.68,717.91,1001.25,183.76,105.32,-2.805427,-2.545010,-0.196565,-0.207975,0.412797,99.61,1
22138,0,52714,56507,52550.57,56519.66,717.91,1001.25,163.43,-12.66,-2.805433,-2.545010,-0.196463,-0.207859,0.412841,99.61,1
22177,0,52663,56407,52550.80,56519.43,717.91,1001.25,112.20,-112.43,-2.805437,-2.545006,-0.196359,-0.207740,0.412891,99.61,1
22217,0,52648,56390,52550.99,56519.18,717.91,1001.25,97.01,-129.18,-2.805441,-2.545001,-0.196254,-0.207620,0.412944,99.62,1
22257,0,52648,56390,52551.19,56518.92,717.91,1001.25,96.81,-128.92,-2.805445,-2.544997,-0.196149,-0.207500,0.413000,99.62,1
22297,0,52653,56385,52551.39,56518.65,717.91,1001.25,101.61,-133.65,-2.805449,-2.544992,-0.196045,-0.207380,0.413060,99.62,1
22337,0,52651,56383,52551.59,56518.38,717.91,1001.25,99.41,-135.38,-2.805452,-2.544987,-0.195940,-0.207260,0.413124,99.62,1
22377,0,52653,56402,52551.79,56518.15,717.91,1001.25,101.21,-116.15,-2.805456,-2.544983,-0.195836,-0.207141,0.413192,99.62,1
22415,0,52663,56412,52552.02,56517.94,717.91,1001.25,110.98,-105.94,-2.805460,-2.544979,-0.195732,-0.207022,0.413265,99.62,1
22458,0,52667,56425,52552.25,56517.76,717.91,1001.25,114.75,-92.76,-2.805465,-2.544976,-0.195628,-0.206904,0.413345,99.63,1
22498,0,52671,56439,52552.48,56517.60,717.91,1001.25,118.52,-78.60,-2.805470,-2.544973,-0.195525,-0.206786,0.413432,99.63,1
22540,0,52679,56454,52552.74,56517.48,717.91,1001.25,126.26,-63.48,-2.805474,-2.544971,-0.195422,-0.206669,0.413526,99.63,1
22579,0,52687,56480,52553.01,56517.40,717.91,1001.25,133.99,-37.40,-2.805479,-2.544970,-0.195319,-0.206553,0.413631,99.63,1
22617,0,52701,56505,52553.30,56517.38,717.91,1001.25,147.70,-12.38,-2.805485,-2.544969,-0.195217,-0.206438,0.413747,99.63,1
22659,0,52711,56529,52553.62,56517.40,717.91,1001.25,157.38,11.60,-2.805491,-2.544970,-0.195115,-0.206324,0.413876,99.63,1
22699,0,52725,56551,52553.96,56517.47,717.91,1001.25,171.04,33.53,-2.805498,-2.544971,-0.195014,-0.206210,0.414021,99.63,1
22738,0,52735,56573,52554.33,56517.59,717.91,1001.25,180.67,55.41,-2.805505,-2.544973,-0.194913,-0.206098,0.414183,99.63,1
22778,0,52740,56604,52554.70,56517.76,717.91,1001.25,185.30,86.24,-2.805511,-2.544976,-0.194813,-0.205986,0.414363,99.63,1
22818,0,52745,56583,52555.08,56517.89,717.91,1001.25,189.92,65.11,-2.805519,-2.544979,-0.194713,-0.205874,0.414562,99.63,1
22858,0,52718,56477,52555.41,56517.81,717.91,1001.25,162.59,-40.81,-2.805525,-2.544977,-0.194611,-0.205759,0.414775,99.63,1
22899,0,52686,56429,52555.67,56517.64,717.91,1001.25,130.33,-88.64,-2.805530,-2.544974,-0.194509,-0.205641,0.414995,99.63,1
22939,0,52681,56432,52555.93,56517.47,717.91,1001.25,125.07,-85.47,-2.805535,-2.544971,-0.194406,-0.205524,0.415222,99.63,1
22977,0,52689,56443,52556.19,56517.32,717.91,1001.25,132.81,-74.32,-2.805540,-2.544968,-0.194304,-0.205408,0.415458,99.63,1
23018,0,52688,56444,52556.46,56517.18,717.91,1001.25,131.54,-73.18,-2.805545,-2.544966,-0.194202,-0.205291,0.415702,99.63,1
23058,0,52694,56467,52556.73,56517.08,717.91,1001.25,137.27,-50.08,-2.805550,-2.544964,-0.194100,-0.205176,0.415955,99.63,1
23098,0,52706,56488,52557.04,56517.02,717.91,1001.25,148.96,-29.02,-2.805556,-2.544963,-0.193999,-0.205061,0.416220,99.63,1
23138,0,52711,56496,52557.34,56516.98,717.91,1001.25,153.66,-20.98,-2.805562,-2.544962,-0.193898,-0.204946,0.416497,99.63,1
23178,0,52718,56507,52557.67,56516.96,717.91,1001.25,160.33,-9.96,-2.805568,-2.544962,-0.193797,-0.204832,0.416788,99.63,1
23218,0,52722,56522,52558.00,56516.97,717.91,1001.25,164.00,5.03,-2.805574,-2.544962,-0.193696,-0.204719,0.417093,99.62,1
23257,0,52728,56539,52558.34,56517.02,717.91,1001.25,169.66,21.98,-2.805581,-2.544963,-0.193596,-0.204606,0.417413,99.62,1
23298,0,52735,56564,52558.69,56517.11,717.91,1001.25,176.31,46.89,-2.805588,-2.544965,-0.193496,-0.204494,0.417749,99.62,1
23339,0,52745,56588,52559.07,56517.26,717.91,1001.25,185.93,70.74,-2.805595,-2.544967,-0.193396,-0.204383,0.418103,99.62,1
23380,0,52749,56612,52559.45,56517.45,717.91,1001.25,189.55,94.55,-2.805602,-2.544971,-0.193297,-0.204273,0.418474,99.62,1
23418,0,52759,56626,52559.85,56517.67,717.91,1001.25,199.15,108.33,-2.805609,-2.544975,-0.193198,-0.204164,0.418864,99.61,1
23459,0,52761,56639,52560.25,56517.91,717.91,1001.25,200.75,121.09,-2.805617,-2.544979,-0.193099,-0.204055,0.419274,99.61,1
23499,0,52768,56664,52560.67,56518.20,717.91,1001.25,207.33,145.80,-2.805625,-2.544984,-0.193000,-0.203947,0.419702,99.61,1
23540,0,52770,56620,52561.09,56518.41,717.91,1001.25,208.91,101.59,-2.805633,-2.544988,-0.192902,-0.203837,0.420152,99.60,1
23578,0,52730,56516,52561.43,56518.40,717.91,1001.25,168.57,-2.40,-2.805640,-2.544987,-0.192802,-0.203724,0.420615,99.60,1
23619,0,52699,56464,52561.71,56518.30,717.91,1001.25,137.29,-54.30,-2.805645,-2.544986,-0.192701,-0.203610,0.421087,99.60,1
23658,0,52697,56468,52561.98,56518.20,717.91,1001.25,135.02,-50.20,-2.805650,-2.544984,-0.192600,-0.203495,0.421567,99.59,1
23699,0,52698,56470,52562.26,56518.11,717.91,1001.25,135.74,-48.11,-2.805655,-2.544982,-0.192499,-0.203381,0.422056,99.59,1
23740,0,52703,56478,52562.54,56518.03,717.91,1001.25,140.46,-40.03,-2.805661,-2.544981,-0.192398,-0.203266,0.422553,99.58,1
23779,0,52703,56497,52562.82,56517.99,717.91,1001.25,140.18,-20.99,-2.805666,-2.544980,-0.192298,-0.203153,0.423060,99.58,1
23820,0,52720,56523,52563.14,56518.00,717.91,1001.25,156.86,5.00,-2.805672,-2.544980,-0.192198,-0.203041,0.423579,99.57,1
23860,0,52727,56538,52563.46,56518.04,717.91,1001.25,163.54,19.96,-2.805678,-2.544981,-0.192098,-0.202929,0.424111,99.57,1
23899,0,52735,56549,52563.81,56518.11,717.91,1001.25,171.19,30.89,-2.805685,-2.544982,-0.191999,-0.202818,0.424658,99.56,1
23939,0,52746,56570,52564.18,56518.21,717.91,1001.25,181.82,51.79,-2.805692,-2.544984,-0.191900,-0.202707,0.425222,99.56,1
23980,0,52755,56589,52564.56,56518.36,717.91,1001.25,190.44,70.64,-2.805699,-2.544987,-0.191801,-0.202597,0.425802,99.55,1
24020,0,52765,56615,52564.96,56518.55,717.91,1001.25,200.04,96.45,-2.805707,-2.544990,-0.191703,-0.202488,0.426402,99.54,1
24060,0,52777,56640,52565.39,56518.80,717.91,1001.25,211.61,121.20,-2.805715,-2.544994,-0.191606,-0.202381,0.427022,99.54,1
24099,0,52781,56659,52565.82,56519.08,717.91,1001.25,215.18,139.92,-2.805723,-2.544999,-0.191508,-0.202273,0.427661,99.53,1
24139,0,52792,56672,52566.27,56519.39,717.91,1001.25,225.73,152.61,-2.805732,-2.545005,-0.191412,-0.202167,0.428322,99.52,1
24180,0,52800,56686,52566.74,56519.72,717.91,1001.25,233.26,166.28,-2.805741,-2.545011,-0.191315,-0.202061,0.429006,99.52,1
24219,0,52802,56696,52567.21,56520.08,717.91,1001.25,234.79,175.92,-2.805750,-2.545017,-0.191219,-0.201955,0.429710,99.51,1
24259,0,52809,56719,52567.70,56520.48,717.91,1001.25,241.30,198.52,-2.805759,-2.545024,-0.191123,-0.201850,0.430436,99.50,1
24299,0,52811,56701,52568.19,56520.84,717.91,1001.25,242.81,180.16,-2.805768,-2.545031,-0.191027,-0.201745,0.431183,99.49,1
24341,0,52777,56580,52568.61,56520.96,717.91,1001.25,208.39,59.04,-2.805776,-2.545033,-0.190929,-0.201635,0.431951,99.48,1
24381,0,52732,56499,52568.93,56520.92,717.91,1001.25,163.07,-21.92,-2.805782,-2.545032,-0.190830,-0.201523,0.432730,99.47,1
24417,0,52719,56481,52569.23,56520.84,717.91,1001.25,149.77,-39.84,-2.805788,-2.545031,-0.190731,-0.201410,0.433519,99.46,1
24458,0,52716,56476,52569.53,56520.75,717.91,1001.25,146.47,-44.75,-2.805794,-2.545029,-0.190632,-0.201297,0.434316,99.46,1
24500,0,52713,56474,52569.82,56520.66,717.91,1001.25,143.18,-46.66,-2.805799,-2.545027,-0.190532,-0.201184,0.435121,99.45,1
24541,0,52714,56478,52570.11,56520.57,717.91,1001.25,143.89,-42.57,-2.805805,-2.545026,-0.190433,-0.201071,0.435934,99.43,1
24580,0,52724,56495,52570.41,56520.52,717.91,1001.25,153.59,-25.52,-2.805811,-2.545025,-0.190334,-0.200959,0.436758,99.42,1
24620,0,52735,56507,52570.75,56520.50,717.91,1001.25,164.25,-13.50,-2.805817,-2.545025,-0.190235,-0.200847,0.437593,99.41,1
24660,0,52740,56519,52571.09,56520.50,717.91,1001.25,168.91,-1.50,-2.805823,-2.545025,-0.190137,-0.200736,0.438442,99.40,1
24700,0,52744,56535,52571.43,56520.53,717.91,1001.25,172.57,14.47,-2.805830,-2.545025,-0.190039,-0.200625,0.439304,99.39,1
24740,0,52749,56554,52571.79,56520.60,717.91,1001.25,177.21,33.40,-2.805837,-2.545026,-0.189941,-0.200515,0.440180,99.38,1
24780,0,52764,56569,52572.18,56520.70,717.91,1001.25,191.82,48.30,-2.805844,-2.545028,-0.189844,-0.200406,0.441074,99.37,1
24820,0,52776,56596,52572.59,56520.85,717.91,1001.25,203.41,75.15,-2.805852,-2.545031,-0.189747,-0.200298,0.441985,99.35,1
24860,0,52786,56606,52573.02,56521.02,717.91,1001.25,212.98,84.98,-2.805860,-2.545034,-0.189651,-0.200190,0.442917,99.34,1
24903,0,52791,56622,52573.45,56521.22,717.91,1001.25,217.55,100.78,-2.805868,-2.545038,-0.189555,-0.200083,0.443869,99.33,1
24941,0,52800,56634,52573.91,56521.45,717.91,1001.25,226.09,112.55,-2.805877,-2.545041,-0.189459,-0.199976,0.444842,99.31,1
24980,0,52806,56655,52574.37,56521.72,717.91,1001.25,231.63,133.28,-2.805886,-2.545046,-0.189364,-0.199870,0.445837,99.30,1
25021,0,52813,56666,52574.85,56522.01,717.91,1001.25,238.15,143.99,-2.805895,-2.545051,-0.189269,-0.199765,0.446853,99.29,1
25061,0,52810,56601,52575.32,56522.17,717.91,1001.25,234.68,78.83,-2.805904,-2.545054,-0.189173,-0.199657,0.447894,99.27,1
25100,0,52768,56485,52575.71,56522.09,717.91,1001.25,192.29,-37.09,-2.805911,-2.545053,-0.189077,-0.199545,0.448951,99.26,1
25142,0,52731,56432,52576.02,56521.91,717.91,1001.25,154.98,-89.91,-2.805917,-2.545050,-0.188979,-0.199432,0.450015,99.24,1
25180,0,52730,56433,52576.33,56521.74,717.91,1001.25,153.67,-88.74,-2.805923,-2.545047,-0.188880,-0.199318,0.451087,99.23,1
25222,0,52731,56428,52576.64,56521.55,717.91,1001.25,154.36,-93.55,-2.805929,-2.545043,-0.188782,-0.199205,0.452165,99.21,1
25260,0,52731,56426,52576.95,56521.36,717.91,1001.25,154.05,-95.36,-2.805935,-2.545040,-0.188684,-0.199091,0.453250,99.19,1
25301,0,52730,56442,52577.26,56521.20,717.91,1001.25,152.74,-79.20,-2.805941,-2.545037,-0.188586,-0.198978,0.454343,99.18,1
25340,0,52743,56456,52577.59,56521.07,717.91,1001.25,165.41,-65.07,-2.805947,-2.545035,-0.188489,-0.198866,0.455446,99.16,1
25382,0,52747,56462,52577.93,56520.96,717.91,1001.25,169.07,-58.96,-2.805954,-2.545033,-0.188392,-0.198754,0.456560,99.14,1
25422,0,52751,56472,52578.28,56520.86,717.91,1001.25,172.72,-48.86,-2.805960,-2.545031,-0.188295,-0.198642,0.457686,99.13,1
25460,0,52759,56483,52578.64,56520.79,717.91,1001.25,180.36,-37.79,-2.805967,-2.545030,-0.188198,-0.198531,0.458827,99.11,1
25502,0,52771,56510,52579.03,56520.77,717.91,1001.25,191.97,-10.77,-2.805974,-2.545029,-0.188102,-0.198421,0.459984,99.09,1
25542,0,52775,56531,52579.43,56520.79,717.91,1001.25,195.57,10.21,-2.805982,-2.545030,-0.188006,-0.198312,0.461159,99.07,1
25581,0,52789,56555,52579.85,56520.86,717.91,1001.25,209.15,34.14,-2.805990,-2.545031,-0.187911,-0.198204,0.462355,99.05,1
25621,0,52801,56577,52580.29,56520.97,717.91,1001.25,220.71,56.03,-2.805998,-2.545033,-0.187816,-0.198096,0.463572,99.03,1
25659,0,52810,56600,52580.75,56521.13,717.91,1001.25,229.25,78.87,-2.806007,-2.545036,-0.187721,-0.197989,0.464813,99.01,1
25701,0,52818,56615,52581.23,56521.32,717.91,1001.25,236.77,93.68,-2.806016,-2.545039,-0.187627,-0.197883,0.466078,98.99,1
25742,0,52819,56550,52581.71,56521.38,717.91,1001.25,237.29,28.62,-2.806025,-2.545040,-0.187533,-0.197775,0.467370,98.97,1
25781,0,52768,56430,52582.08,56521.20,717.91,1001.25,185.92,-91.20,-2.806032,-2.545037,-0.187437,-0.197662,0.468673,98.95,1
25819,0,52744,56390,52582.41,56520.94,717.91,1001.25,161.59,-130.94,-2.806039,-2.545032,-0.187340,-0.197548,0.469981,98.93,1
25857,0,52745,56394,52582.73,56520.68,717.91,1001.25,162.27,-126.68,-2.806045,-2.545028,-0.187243,-0.197435,0.471293,98.91,1
25897,0,52748,56389,52583.07,56520.42,717.91,1001.25,164.93,-131.42,-2.806051,-2.545023,-0.187147,-0.197321,0.472609,98.89,1
25938,0,52746,56389,52583.39,56520.16,717.91,1001.25,162.61,-131.16,-2.806057,-2.545019,-0.187050,-0.197207,0.473929,98.87,1
25978,0,52755,56413,52583.74,56519.95,717.91,1001.25,171.26,-106.95,-2.806064,-2.545015,-0.186954,-0.197095,0.475256,98.84,1
26020,0,52761,56429,52584.09,56519.77,717.91,1001.25,176.91,-90.77,-2.806071,-2.545012,-0.186858,-0.196982,0.476594,98.82,1
26061,0,52770,56434,52584.47,56519.60,717.91,1001.25,185.53,-85.60,-2.806078,-2.545009,-0.186762,-0.196871,0.477944,98.80,1
26100,0,52779,56450,52584.86,56519.46,717.91,1001.25,194.14,-69.46,-2.806085,-2.545006,-0.186667,-0.196759,0.479309,98.77,1
26141,0,52783,56466,52585.26,56519.36,717.91,1001.25,197.74,-53.36,-2.806093,-2.545004,-0.186572,-0.196649,0.480690,98.75,1
26177,0,52791,56484,52585.67,56519.29,717.91,1001.25,205.33,-35.29,-2.806101,-2.545003,-0.186478,-0.196539,0.482091,98.73,1
26217,0,52802,56513,52586.11,56519.27,717.91,1001.25,215.89,-6.27,-2.806109,-2.545003,-0.186383,-0.196430,0.483514,98.70,1
26258,0,52812,56532,52586.56,56519.30,717.91,1001.25,225.44,12.70,-2.806118,-2.545003,-0.186289,-0.196322,0.484961,98.68,1
26298,0,52819,56553,52587.02,56519.37,717.91,1001.25,231.98,33.63,-2.806127,-2.545005,-0.186196,-0.196215,0.486433,98.65,1
26338,0,52827,56564,52587.50,56519.46,717.91,1001.25,239.50,44.54,-2.806136,-2.545006,-0.186103,-0.196108,0.487932,98.63,1
26378,0,52835,56586,52588.00,56519.59,717.91,1001.25,247.00,66.41,-2.806145,-2.545009,-0.186010,-0.196002,0.489459,98.60,1
26419,0,52842,56602,52588.51,56519.76,717.91,1001.25,253.49,82.24,-2.806155,-2.545012,-0.185917,-0.195897,0.491014,98.57,1
26458,0,52830,56497,52588.99,56519.72,717.91,1001.25,241.01,-22.72,-2.806164,-2.545011,-0.185824,-0.195788,0.492597,98.55,1
26498,0,52774,56375,52589.36,56519.43,717.91,1001.25,184.64,-144.43,-2.806171,-2.545006,-0.185730,-0.195675,0.494183,98.52,1
26538,0,52748,56336,52589.68,56519.06,717.91,1001.25,158.32,-183.06,-2.806177,-2.544999,-0.185634,-0.195560,0.495762,98.49,1
26578,0,52748,56334,52590.00,56518.70,717.91,1001.25,158.00,-184.70,-2.806183,-2.544993,-0.185538,-0.195446,0.497333,98.47,1
26618,0,52742,56328,52590.30,56518.32,717.91,1001.25,151.70,-190.32,-2.806189,-2.544986,-0.185441,-0.195331,0.498893,98.44,1
26658,0,52745,56328,52590.62,56517.94,717.91,1001.25,154.38,-189.94,-2.806195,-2.544979,-0.185346,-0.195217,0.500444,98.41,1
26698,0,52753,56353,52590.94,56517.61,717.91,1001.25,162.06,-164.61,-2.806201,-2.544973,-0.185250,-0.195103,0.501992,98.38,1
26738,0,52765,56373,52591.29,56517.32,717.91,1001.25,173.71,-144.32,-2.806207,-2.544968,-0.185155,-0.194990,0.503542,98.35,1
26778,0,52774,56384,52591.66,56517.05,717.91,1001.25,182.34,-133.05,-2.806215,-2.544964,-0.185060,-0.194878,0.505096,98.32,1
26818,0,52785,56402,52592.04,56516.82,717.91,1001.25,192.96,-114.82,-2.806222,-2.544960,-0.184966,-0.194766,0.506660,98.29,1
26858,0,52789,56422,52592.44,56516.64,717.91,1001.25,196.56,-94.64,-2.806229,-2.544956,-0.184872,-0.194656,0.508236,98.26,1
26898,0,52804,56446,52592.86,56516.50,717.91,1001.25,211.14,-70.50,-2.806237,-2.544954,-0.184778,-0.194546,0.509830,98.23,1
26938,0,52813,56467,52593.30,56516.40,717.91,1001.25,219.70,-49.40,-2.806246,-2.544952,-0.184685,-0.194437,0.511445,98.20,1
26978,0,52819,56489,52593.76,56516.34,717.91,1001.25,225.24,-27.34,-2.806255,-2.544951,-0.184592,-0.194328,0.513083,98.17,1
27018,0,52835,56515,52594.24,56516.34,717.91,1001.25,240.76,-1.34,-2.806264,-2.544951,-0.184500,-0.194221,0.514750,98.14,1
27058,0,52846,56533,52594.75,56516.38,717.91,1001.25,251.25,16.62,-2.806273,-2.544952,-0.184409,-0.194115,0.516446,98.11,1
27098,0,52856,56549,52595.27,56516.45,717.91,1001.25,260.73,32.55,-2.806283,-2.544953,-0.184317,-0.194009,0.518175,98.08,1
27139,0,52860,56569,52595.80,56516.55,717.91,1001.25,264.20,52.45,-2.806293,-2.544955,-0.184226,-0.193904,0.519936,98.04,1
27183,0,52867,56589,52596.34,56516.70,717.91,1001.25,270.66,72.30,-2.806304,-2.544957,-0.184135,-0.193799,0.521730,98.01,1
27220,0,52869,56533,52596.89,56516.73,717.91,1001.25,272.11,16.27,-2.806314,-2.544958,-0.184045,-0.193693,0.523560,97.98,1
27260,0,52816,56376,52597.33,56516.45,717.91,1001.25,218.67,-140.45,-2.806322,-2.544953,-0.183952,-0.193581,0.525399,97.94,1
27300,0,52762,56295,52597.66,56516.01,717.91,1001.25,164.34,-221.01,-2.806329,-2.544945,-0.183857,-0.193466,0.527216,97.91,1
27342,0,52750,56285,52597.97,56515.55,717.91,1001.25,152.03,-230.55,-2.806334,-2.544937,-0.183762,-0.193352,0.529009,97.88,1
27382,0,52755,56281,52598.29,56515.08,717.91,1001.25,156.71,-234.08,-2.806340,-2.544929,-0.183667,-0.193237,0.530777,97.84,1
27434,0,52756,56283,52598.60,56514.62,717.91,1001.25,157.40,-231.62,-2.806347,-2.544920,-0.183573,-0.193122,0.532521,97.81,1
27489,0,52762,56290,52598.93,56514.17,717.91,1001.25,163.07,-224.17,-2.806353,-2.544913,-0.183478,-0.193008,0.534245,97.77,1
27542,0,52774,56321,52599.28,56513.78,717.91,1001.25,174.72,-192.78,-2.806360,-2.544906,-0.183384,-0.192894,0.535959,97.74,1
27549,0,52784,56342,52599.65,56513.44,717.91,1001.25,184.35,-171.44,-2.806367,-2.544900,-0.183291,-0.192782,0.537670,97.70,1
27583,0,52793,56361,52600.04,56513.13,717.91,1001.25,192.96,-152.13,-2.806374,-2.544894,-0.183198,-0.192670,0.539382,97.67,1
27622,0,52802,56377,52600.45,56512.86,717.91,1001.25,201.55,-135.86,-2.806382,-2.544889,-0.183105,-0.192559,0.541101,97.63,1
27663,0,52816,56394,52600.88,56512.63,717.91,1001.25,215.12,-118.63,-2.806390,-2.544885,-0.183013,-0.192449,0.542831,97.60,1
27699,0,52827,56428,52601.33,56512.46,717.91,1001.25,225.67,-84.46,-2.806398,-2.544882,-0.182921,-0.192340,0.544579,97.56,1
27739,0,52842,56450,52601.82,56512.34,717.91,1001.25,240.18,-62.34,-2.806408,-2.544880,-0.182830,-0.192232,0.546352,97.52,1
27779,0,52854,56474,52602.32,56512.26,717.91,1001.25,251.68,-38.26,-2.806417,-2.544879,-0.182739,-0.192124,0.548153,97.49,1
27822,0,52861,56497,52602.84,56512.23,717.91,1001.25,258.16,-15.23,-2.806427,-2.544878,-0.182649,-0.192018,0.549985,97.45,1
27862,0,52870,56508,52603.37,56512.23,717.91,1001.25,266.62,-4.23,-2.806437,-2.544878,-0.182559,-0.191912,0.551850,97.41,1
27902,0,52879,56534,52603.93,56512.27,717.91,1001.25,275.07,21.73,-2.806448,-2.544879,-0.182469,-0.191807,0.553750,97.37,1
27943,0,52890,56536,52604.50,56512.32,717.91,1001.25,285.50,23.68,-2.806459,-2.544880,-0.182380,-0.191703,0.555688,97.34,1
27979,0,52877,56416,52605.05,56512.13,717.91,1001.25,271.95,-96.13,-2.806469,-2.544877,-0.182290,-0.191593,0.557655,97.30,1
28019,0,52807,56279,52605.45,56511.67,717.91,1001.25,201.55,-232.67,-2.806477,-2.544868,-0.182198,-0.191480,0.559600,97.26,1
28059,0,52776,56246,52605.80,56511.14,717.91,1001.25,170.20,-265.14,-2.806483,-2.544859,-0.182105,-0.191365,0.561508,97.22,1
28100,0,52771,56238,52606.13,56510.59,717.91,1001.25,164.87,-272.59,-2.806490,-2.544849,-0.182011,-0.191250,0.563376,97.18,1
28140,0,52771,56233,52606.46,56510.04,717.91,1001.25,164.54,-277.04,-2.806496,-2.544840,-0.181918,-0.191135,0.565204,97.14,1
28180,0,52769,56228,52606.79,56509.48,717.91,1001.25,162.21,-281.48,-2.806502,-2.544830,-0.181824,-0.191019,0.566991,97.10,1
28220,0,52778,56258,52607.13,56508.98,717.91,1001.25,170.87,-250.98,-2.806509,-2.544821,-0.181731,-0.190905,0.568750,97.06,1
28260,0,52787,56277,52607.49,56508.52,717.91,1001.25,179.51,-231.52,-2.806516,-2.544812,-0.181638,-0.190792,0.570489,97.02,1
28300,0,52793,56290,52607.86,56508.08,717.91,1001.25,185.14,-218.08,-2.806523,-2.544805,-0.181546,-0.190679,0.572212,96.98,1
28340,0,52803,56305,52608.25,56507.67,717.91,1001.25,194.75,-202.67,-2.806530,-2.544798,-0.181454,-0.190567,0.573925,96.94,1
28380,0,52812,56317,52608.66,56507.29,717.91,1001.25,203.34,-190.29,-2.806538,-2.544791,-0.181362,-0.190455,0.575633,96.90,1
28420,0,52820,56338,52609.09,56506.96,717.91,1001.25,210.91,-168.96,-2.806546,-2.544785,-0.181271,-0.190345,0.577342,96.86,1
28460,0,52830,56372,52609.53,56506.69,717.91,1001.25,220.47,-134.69,-2.806554,-2.544780,-0.181180,-0.190235,0.579060,96.82,1
28500,0,52843,56399,52610.00,56506.47,717.91,1001.25,233.00,-107.47,-2.806563,-2.544776,-0.181089,-0.190126,0.580795,96.78,1
28540,0,52852,56423,52610.48,56506.31,717.91,1001.25,241.52,-83.31,-2.806572,-2.544774,-0.180999,-0.190019,0.582549,96.74,1
28580,0,52868,56439,52611.00,56506.18,717.91,1001.25,257.00,-67.18,-2.806582,-2.544771,-0.180910,-0.189912,0.584329,96.70,1
28621,0,52876,56452,52611.53,56506.07,717.91,1001.25,264.47,-54.07,-2.806592,-2.544769,-0.180821,-0.189806,0.586138,96.66,1
28660,0,52886,56466,52612.08,56505.99,717.91,1001.25,273.92,-39.99,-2.806603,-2.544768,-0.180732,-0.189700,0.587979,96.62,1
28700,0,52876,56376,52612.61,56505.73,717.91,1001.25,263.39,-129.73,-2.806613,-2.544763,-0.180643,-0.189591,0.589839,96.58,1
28740,0,52814,56226,52613.01,56505.18,717.91,1001.25,200.99,-279.18,-2.806621,-2.544754,-0.180552,-0.189477,0.591664,96.54,1
28780,0,52774,56174,52613.34,56504.52,717.91,1001.25,160.66,-330.52,-2.806627,-2.544742,-0.180459,-0.189361,0.593430,96.50,1
28820,0,52768,56177,52613.65,56503.86,717.91,1001.25,154.35,-326.86,-2.806633,-2.544730,-0.180366,-0.189245,0.595138,96.46,1
28860,0,52773,56181,52613.97,56503.22,717.91,1001.25,159.03,-322.22,-2.806639,-2.544719,-0.180274,-0.189129,0.596795,96.41,1
28901,0,52774,56187,52614.29,56502.59,717.91,1001.25,159.71,-315.59,-2.806645,-2.544708,-0.180181,-0.189014,0.598405,96.37,1
28944,0,52781,56209,52614.62,56502.00,717.91,1001.25,166.37,-293.00,-2.806651,-2.544697,-0.180089,-0.188900,0.599977,96.33,1
28984,0,52787,56222,52614.97,56501.44,717.91,1001.25,172.03,-279.44,-2.806658,-2.544687,-0.179997,-0.188786,0.601519,96.29,1
29025,0,52795,56224,52615.34,56500.89,717.91,1001.25,179.66,-276.89,-2.806665,-2.544677,-0.179905,-0.188672,0.603032,96.25,1
29065,0,52797,56231,52615.70,56500.35,717.91,1001.25,181.30,-269.35,-2.806672,-2.544668,-0.179813,-0.188559,0.604520,96.21,1
29104,0,52800,56250,52616.07,56499.85,717.91,1001.25,183.93,-249.85,-2.806679,-2.544659,-0.179722,-0.188446,0.605989,96.17,1
29146,0,52814,56279,52616.47,56499.41,717.91,1001.25,197.53,-220.41,-2.806686,-2.544651,-0.179631,-0.188335,0.607448,96.13,1
29186,0,52822,56312,52616.88,56499.03,717.91,1001.25,205.12,-187.03,-2.806694,-2.544645,-0.179540,-0.188225,0.608905,96.09,1
29226,0,52836,56338,52617.32,56498.71,717.91,1001.25,218.68,-160.71,-2.806702,-2.544639,-0.179450,-0.188115,0.610368,96.05,1
29265,0,52849,56360,52617.79,56498.43,717.91,1001.25,231.21,-138.43,-2.806711,-2.544634,-0.179361,-0.188007,0.611842,96.01,1
29306,0,52863,56383,52618.28,56498.20,717.91,1001.25,244.72,-115.20,-2.806721,-2.544630,-0.179272,-0.187900,0.613333,95.97,1
29342,0,52871,56407,52618.79,56498.02,717.91,1001.25,252.21,-91.02,-2.806730,-2.544627,-0.179184,-0.187793,0.614844,95.93,1
29384,0,52867,56325,52619.29,56497.68,717.91,1001.25,247.71,-172.68,-2.806740,-2.544621,-0.179095,-0.187684,0.616365,95.89,1
29423,0,52806,56180,52619.66,56497.05,717.91,1001.25,186.34,-317.05,-2.806747,-2.544610,-0.179004,-0.187569,0.617847,95.85,1
29465,0,52768,56131,52619.96,56496.32,717.91,1001.25,148.04,-365.32,-2.806752,-2.544597,-0.178912,-0.187453,0.619270,95.81,1
29503,0,52767,56141,52620.25,56495.61,717.91,1001.25,146.75,-354.61,-2.806758,-2.544584,-0.178819,-0.187338,0.620641,95.77,1
29546,0,52776,56144,52620.57,56494.90,717.91,1001.25,155.43,-350.90,-2.806764,-2.544572,-0.178728,-0.187222,0.621963,95.73,1
29586,0,52781,56144,52620.89,56494.20,717.91,1001.25,160.11,-350.20,-2.806770,-2.544559,-0.178636,-0.187107,0.623240,95.69,1
29625,0,52783,56172,52621.21,56493.56,717.91,1001.25,161.79,-321.56,-2.806776,-2.544548,-0.178544,-0.186993,0.624483,95.65,1
29664,0,52796,56198,52621.56,56492.97,717.91,1001.25,174.44,-294.97,-2.806783,-2.544537,-0.178453,-0.186879,0.625699,95.61,1
29705,0,52806,56202,52621.93,56492.39,717.91,1001.25,184.07,-290.39,-2.806790,-2.544527,-0.178362,-0.186766,0.626893,95.57,1
29743,0,52809,56215,52622.31,56491.83,717.91,1001.25,186.69,-276.83,-2.806797,-2.544517,-0.178272,-0.186654,0.628068,95.53,1
29785,0,52820,56237,52622.71,56491.32,717.91,1001.25,197.29,-254.32,-2.806805,-2.544508,-0.178182,-0.186542,0.629232,95.50,1
29825,0,52831,56260,52623.12,56490.86,717.91,1001.25,207.87,-230.86,-2.806813,-2.544500,-0.178092,-0.186432,0.630390,95.46,1
29862,0,52840,56287,52623.56,56490.46,717.91,1001.25,216.44,-203.46,-2.806821,-2.544493,-0.178003,-0.186322,0.631548,95.42,1
29904,0,52846,56316,52624.00,56490.11,717.91,1001.25,222.00,-174.11,-2.806829,-2.544487,-0.177914,-0.186214,0.632713,95.38,1
29946,0,52857,56337,52624.47,56489.80,717.91,1001.25,232.53,-152.80,-2.806838,-2.544481,-0.177826,-0.186106,0.633888,95.35,1
29986,0,52863,56357,52624.95,56489.54,717.91,1001.25,238.05,-132.54,-2.806847,-2.544477,-0.177738,-0.185999,0.635077,95.31,1
30026,0,52875,56378,52625.45,56489.32,717.91,1001.25,249.55,-111.32,-2.806857,-2.544473,-0.177650,-0.185893,0.636284,95.27,1
30062,0,52879,56355,52625.96,56489.05,717.91,1001.25,253.04,-134.05,-2.806866,-2.544468,-0.177562,-0.185786,0.637507,95.24,1
30107,0,52840,56183,52626.39,56488.44,717.91,1001.25,213.61,-305.44,-2.806875,-2.544457,-0.177473,-0.185673,0.638709,95.20,1
30146,0,52772,56074,52626.68,56487.61,717.91,1001.25,145.32,-413.61,-2.806880,-2.544443,-0.177382,-0.185556,0.639850,95.16,1
30186,0,52748,56053,52626.92,56486.75,717.91,1001.25,121.08,-433.75,-2.806885,-2.544427,-0.177289,-0.185439,0.640925,95.13,1
30226,0,52747,56048,52627.16,56485.87,717.91,1001.25,119.84,-437.87,-2.806890,-2.544412,-0.177197,-0.185322,0.641936,95.09,1
30266,0,52749,56041,52627.41,56484.98,717.91,1001.25,121.59,-443.98,-2.806894,-2.544396,-0.177105,-0.185204,0.642886,95.06,1
30306,0,52747,56054,52627.65,56484.12,717.91,1001.25,119.35,-430.12,-2.806899,-2.544381,-0.177013,-0.185088,0.643780,95.02,1
30346,0,52759,56090,52627.92,56483.34,717.91,1001.25,131.08,-393.34,-2.806904,-2.544367,-0.176921,-0.184972,0.644633,94.99,1
30387,0,52776,56114,52628.21,56482.60,717.91,1001.25,147.79,-368.60,-2.806910,-2.544354,-0.176830,-0.184857,0.645452,94.96,1
30426,0,52783,56126,52628.53,56481.89,717.91,1001.25,154.47,-355.89,-2.806915,-2.544341,-0.176739,-0.184743,0.646243,94.92,1
30466,0,52795,56142,52628.86,56481.21,717.91,1001.25,166.14,-339.21,-2.806922,-2.544329,-0.176649,-0.184630,0.647010,94.89,1
30503,0,52808,56164,52629.22,56480.58,717.91,1001.25,178.78,-316.58,-2.806929,-2.544318,-0.176559,-0.184517,0.647760,94.86,1
30546,0,52815,56194,52629.59,56480.01,717.91,1001.25,185.41,-286.01,-2.806936,-2.544308,-0.176469,-0.184406,0.648499,94.83,1
30586,0,52825,56224,52629.98,56479.50,717.91,1001.25,195.02,-255.50,-2.806943,-2.544299,-0.176380,-0.184296,0.649233,94.79,1
30625,0,52837,56254,52630.40,56479.05,717.91,1001.25,206.60,-225.05,-2.806951,-2.544291,-0.176292,-0.184187,0.649968,94.76,1
30664,0,52848,56278,52630.84,56478.64,717.91,1001.25,217.16,-200.64,-2.806959,-2.544284,-0.176204,-0.184078,0.650708,94.73,1
30706,0,52862,56298,52631.30,56478.29,717.91,1001.25,230.70,-180.29,-2.806968,-2.544277,-0.176116,-0.183971,0.651457,94.70,1
30746,0,52868,56323,52631.78,56477.98,717.91,1001.25,236.22,-154.98,-2.806977,-2.544272,-0.176029,-0.183865,0.652219,94.67,1
30787,0,52874,56305,52632.26,56477.63,717.91,1001.25,241.74,-172.63,-2.806986,-2.544266,-0.175942,-0.183758,0.652992,94.64,1
30826,0,52832,56130,52632.66,56476.94,717.91,1001.25,199.34,-346.94,-2.806994,-2.544254,-0.175853,-0.183644,0.653746,94.61,1
30866,0,52757,56003,52632.91,56475.99,717.91,1001.25,124.09,-472.99,-2.806999,-2.544237,-0.175762,-0.183527,0.654444,94.58,1
30907,0,52726,55968,52633.10,56474.98,717.91,1001.25,92.90,-506.98,-2.807002,-2.544219,-0.175670,-0.183408,0.655081,94.55,1
30947,0,52727,55963,52633.29,56473.95,717.91,1001.25,93.71,-510.95,-2.807006,-2.544201,-0.175577,-0.183290,0.655658,94.53,1
30987,0,52718,55951,52633.46,56472.91,717.91,1001.25,84.54,-521.91,-2.807009,-2.544182,-0.175484,-0.183171,0.656177,94.50,1
31027,0,52715,55960,52633.62,56471.89,717.91,1001.25,81.37,-511.89,-2.807012,-2.544164,-0.175392,-0.183052,0.656643,94.47,1
31067,0,52729,55994,52633.82,56470.93,717.91,1001.25,95.18,-476.93,-2.807016,-2.544147,-0.175299,-0.182935,0.657065,94.44,1
31104,0,52741,56021,52634.03,56470.04,717.91,1001.25,106.97,-449.04,-2.807020,-2.544131,-0.175208,-0.182818,0.657453,94.42,1
31144,0,52752,56041,52634.27,56469.18,717.91,1001.25,117.73,-428.18,-2.807024,-2.544116,-0.175117,-0.182703,0.657810,94.39,1
31186,0,52763,56063,52634.53,56468.37,717.91,1001.25,128.47,-405.37,-2.807029,-2.544102,-0.175026,-0.182588,0.658143,94.37,1
31227,0,52774,56089,52634.81,56467.61,717.91,1001.25,139.19,-378.61,-2.807035,-2.544088,-0.174935,-0.182475,0.658457,94.34,1
31267,0,52786,56127,52635.11,56466.93,717.91,1001.25,150.89,-339.93,-2.807040,-2.544076,-0.174846,-0.182363,0.658757,94.32,1
31305,0,52800,56163,52635.45,56466.32,717.91,1001.25,164.55,-303.32,-2.807047,-2.544066,-0.174756,-0.182252,0.659051,94.29,1
31344,0,52815,56196,52635.80,56465.79,717.91,1001.25,179.20,-269.79,-2.807054,-2.544056,-0.174668,-0.182143,0.659342,94.27,1
31383,0,52826,56223,52636.19,56465.30,717.91,1001.25,189.81,-242.30,-2.807061,-2.544048,-0.174580,-0.182034,0.659634,94.25,1
31426,0,52838,56246,52636.59,56464.86,717.91,1001.25,201.41,-218.86,-2.807069,-2.544040,-0.174492,-0.181927,0.659931,94.22,1
31467,0,52851,56269,52637.02,56464.47,717.91,1001.25,213.98,-195.47,-2.807077,-2.544033,-0.174405,-0.181820,0.660237,94.20,1
31507,0,52857,56285,52637.46,56464.11,717.91,1001.25,219.54,-179.11,-2.807085,-2.544026,-0.174318,-0.181714,0.660552,94.18,1
31547,0,52842,56158,52637.87,56463.50,717.91,1001.25,204.12,-305.50,-2.807093,-2.544016,-0.174231,-0.181604,0.660864,94.16,1
31587,0,52768,56012,52638.14,56462.60,717.91,1001.25,129.86,-450.60,-2.807098,-2.544000,-0.174140,-0.181488,0.661147,94.14,1
31625,0,52731,55973,52638.32,56461.62,717.91,1001.25,92.68,-488.62,-2.807101,-2.543983,-0.174049,-0.181371,0.661393,94.12,1
31667,0,52729,55967,52638.51,56460.64,717.91,1001.25,90.49,-493.64,-2.807105,-2.543965,-0.173957,-0.181254,0.661602,94.10,1
31708,0,52724,55961,52638.68,56459.64,717.91,1001.25,85.32,-498.64,-2.807108,-2.543947,-0.173866,-0.181137,0.661776,94.08,1
31747,0,52719,55959,52638.84,56458.64,717.91,1001.25,80.16,-499.64,-2.807111,-2.543930,-0.173774,-0.181020,0.661916,94.06,1
31787,0,52727,55993,52639.02,56457.71,717.91,1001.25,87.98,-464.71,-2.807115,-2.543913,-0.173682,-0.180905,0.662027,94.04,1
31828,0,52732,56018,52639.20,56456.83,717.91,1001.25,92.80,-438.83,-2.807118,-2.543897,-0.173591,-0.180790,0.662115,94.02,1
31867,0,52743,56027,52639.41,56455.97,717.91,1001.25,103.59,-428.97,-2.807122,-2.543882,-0.173500,-0.180676,0.662181,94.01,1
31906,0,52744,56047,52639.62,56455.16,717.91,1001.25,104.38,-408.16,-2.807126,-2.543868,-0.173409,-0.180562,0.662230,93.99,1
31948,0,52758,56066,52639.86,56454.38,717.91,1001.25,118.14,-388.38,-2.807131,-2.543854,-0.173319,-0.180450,0.662263,93.97,1
31989,0,52762,56093,52640.11,56453.66,717.91,1001.25,121.89,-360.66,-2.807135,-2.543841,-0.173229,-0.180338,0.662285,93.96,1
32028,0,52771,56129,52640.37,56453.01,717.91,1001.25,130.63,-324.01,-2.807140,-2.543830,-0.173140,-0.180228,0.662299,93.94,1
32068,0,52791,56155,52640.67,56452.41,717.91,1001.25,150.33,-297.41,-2.807146,-2.543819,-0.173051,-0.180119,0.662310,93.93,1
32105,0,52801,56177,52640.99,56451.86,717.91,1001.25,160.01,-274.86,-2.807152,-2.543809,-0.172963,-0.180010,0.662319,93.91,1
32149,0,52809,56205,52641.32,56451.37,717.91,1001.25,167.68,-246.37,-2.807158,-2.543801,-0.172875,-0.179903,0.662330,93.90,1
32189,0,52811,56230,52641.66,56450.93,717.91,1001.25,169.34,-220.93,-2.807165,-2.543793,-0.172787,-0.179797,0.662344,93.89,1
32228,0,52823,56234,52642.03,56450.50,717.91,1001.25,180.97,-216.50,-2.807172,-2.543785,-0.172700,-0.179690,0.662362,93.87,1
32266,0,52799,56107,52642.34,56449.81,717.91,1001.25,156.66,-342.81,-2.807178,-2.543773,-0.172611,-0.179580,0.662374,93.86,1
32306,0,52737,55987,52642.54,56448.89,717.91,1001.25,94.46,-461.89,-2.807182,-2.543757,-0.172521,-0.179465,0.662362,93.85,1
32348,0,52708,55953,52642.67,56447.89,717.91,1001.25,65.33,-494.89,-2.807184,-2.543739,-0.172429,-0.179349,0.662322,93.83,1
32387,0,52706,55957,52642.80,56446.91,717.91,1001.25,63.20,-489.91,-2.807186,-2.543722,-0.172338,-0.179234,0.662257,93.82,1
32426,0,52705,55962,52642.92,56445.95,717.91,1001.25,62.08,-483.95,-2.807189,-2.543705,-0.172246,-0.179119,0.662166,93.81,1
32468,0,52709,55972,52643.05,56445.00,717.91,1001.25,65.95,-473.00,-2.807191,-2.543688,-0.172154,-0.179004,0.662053,93.80,1
32509,0,52716,56002,52643.20,56444.12,717.91,1001.25,72.80,-442.12,-2.807194,-2.543672,-0.172063,-0.178890,0.661922,93.79,1
32548,0,52723,56015,52643.36,56443.26,717.91,1001.25,79.64,-428.26,-2.807197,-2.543657,-0.171973,-0.178777,0.661774,93.78,1
32588,0,52726,56019,52643.53,56442.41,717.91,1001.25,82.47,-423.41,-2.807200,-2.543642,-0.171882,-0.178664,0.661610,93.77,1
32626,0,52732,56034,52643.71,56441.60,717.91,1001.25,88.29,-407.60,-2.807204,-2.543628,-0.171792,-0.178552,0.661433,93.76,1
32670,0,52737,56054,52643.90,56440.82,717.91,1001.25,93.10,-386.82,-2.807207,-2.543614,-0.171702,-0.178441,0.661244,93.75,1
32708,0,52742,56082,52644.10,56440.11,717.91,1001.25,97.90,-358.11,-2.807211,-2.543601,-0.171612,-0.178330,0.661046,93.74,1
32745,0,52751,56107,52644.31,56439.45,717.91,1001.25,106.69,-332.45,-2.807215,-2.543590,-0.171522,-0.178221,0.660841,93.74,1
32787,0,52762,56133,52644.55,56438.83,717.91,1001.25,117.45,-305.83,-2.807220,-2.543579,-0.171433,-0.178113,0.660633,93.73,1
32829,0,52769,56157,52644.80,56438.27,717.91,1001.25,124.20,-281.27,-2.807225,-2.543569,-0.171345,-0.178005,0.660423,93.72,1
32869,0,52778,56178,52645.07,56437.75,717.91,1001.25,132.93,-259.75,-2.807230,-2.543560,-0.171256,-0.177899,0.660212,93.71,1
32908,0,52790,56174,52645.36,56437.22,717.91,1001.25,144.64,-263.22,-2.807235,-2.543550,-0.171169,-0.177792,0.660002,93.71,1
32947,0,52757,56045,52645.59,56436.44,717.91,1001.25,111.41,-391.44,-2.807240,-2.543536,-0.171079,-0.177681,0.659781,93.70,1
32988,0,52698,55942,52645.70,56435.45,717.91,1001.25,52.30,-493.45,-2.807241,-2.543519,-0.170988,-0.177566,0.659540,93.70,1
33029,0,52672,55930,52645.75,56434.45,717.91,1001.25,26.25,-504.45,-2.807243,-2.543501,-0.170896,-0.177451,0.659276,93.69,1
33068,0,52682,55936,52645.82,56433.45,717.91,1001.25,36.18,-497.45,-2.807244,-2.543483,-0.170804,-0.177336,0.658991,93.69,1
33109,0,52684,55948,52645.90,56432.48,717.91,1001.25,38.10,-484.48,-2.807245,-2.543466,-0.170713,-0.177222,0.658688,93.68,1
33148,0,52685,55970,52645.98,56431.56,717.91,1001.25,39.02,-461.56,-2.807247,-2.543450,-0.170621,-0.177109,0.658368,93.68,1
33187,0,52698,56004,52646.09,56430.70,717.91,1001.25,51.91,-426.70,-2.807249,-2.543435,-0.170530,-0.176997,0.658035,93.67,1
33228,0,52705,56022,52646.21,56429.89,717.91,1001.25,58.79,-407.89,-2.807251,-2.543420,-0.170440,-0.176886,0.657690,93.67,1
33270,0,52713,56033,52646.34,56429.09,717.91,1001.25,66.66,-396.09,-2.807254,-2.543406,-0.170349,-0.176775,0.657335,93.67,1
33309,0,52724,56059,52646.50,56428.36,717.91,1001.25,77.50,-369.36,-2.807257,-2.543393,-0.170259,-0.176665,0.656972,93.66,1
33350,0,52737,56083,52646.68,56427.67,717.91,1001.25,90.32,-344.67,-2.807260,-2.543381,-0.170170,-0.176557,0.656604,93.66,1
33390,0,52746,56113,52646.88,56427.04,717.91,1001.25,99.12,-314.04,-2.807264,-2.543370,-0.170081,-0.176449,0.656232,93.66,1
33429,0,52757,56140,52647.11,56426.46,717.91,1001.25,109.89,-286.46,-2.807268,-2.543360,-0.169993,-0.176342,0.655859,93.66,1
33468,0,52764,56172,52647.34,56425.96,717.91,1001.25,116.66,-253.96,-2.807273,-2.543350,-0.169904,-0.176237,0.655486,93.66,1
33508,0,52774,56194,52647.59,56425.50,717.91,1001.25,126.41,-231.50,-2.807278,-2.543342,-0.169817,-0.176132,0.655115,93.66,1
33548,0,52786,56218,52647.87,56425.08,717.91,1001.25,138.13,-207.08,-2.807283,-2.543335,-0.169730,-0.176029,0.654747,93.65,1
33586,0,52799,56202,52648.18,56424.64,717.91,1001.25,150.82,-222.64,-2.807289,-2.543327,-0.169643,-0.175925,0.654385,93.65,1
33627,0,52755,56053,52648.39,56423.89,717.91,1001.25,106.61,-370.89,-2.807293,-2.543314,-0.169554,-0.175815,0.654016,93.65,1
33669,0,52689,55953,52648.47,56422.95,717.91,1001.25,40.53,-469.95,-2.807294,-2.543297,-0.169464,-0.175703,0.653631,93.65,1
33705,0,52667,55936,52648.51,56421.98,717.91,1001.25,18.49,-485.98,-2.807295,-2.543280,-0.169372,-0.175589,0.653229,93.65,1
33747,0,52667,55936,52648.55,56421.01,717.91,1001.25,18.45,-485.01,-2.807296,-2.543263,-0.169281,-0.175476,0.652811,93.66,1
33787,0,52665,55931,52648.59,56420.03,717.91,1001.25,16.41,-489.03,-2.807297,-2.543246,-0.169189,-0.175363,0.652377,93.66,1
33827,0,52663,55939,52648.62,56419.07,717.91,1001.25,14.38,-480.07,-2.807297,-2.543228,-0.169097,-0.175250,0.651928,93.66,1
33867,0,52680,55980,52648.68,56418.20,717.91,1001.25,31.32,-438.20,-2.807298,-2.543213,-0.169007,-0.175139,0.651467,93.66,1
33907,0,52687,56002,52648.76,56417.36,717.91,1001.25,38.24,-415.36,-2.807300,-2.543198,-0.168916,-0.175028,0.650996,93.66,1
33949,0,52694,56020,52648.85,56416.57,717.91,1001.25,45.15,-396.57,-2.807302,-2.543184,-0.168826,-0.174919,0.650516,93.66,1
33990,0,52703,56042,52648.96,56415.82,717.91,1001.25,54.04,-373.82,-2.807304,-2.543171,-0.168736,-0.174810,0.650029,93.67,1
34030,0,52713,56067,52649.09,56415.13,717.91,1001.25,63.91,-348.13,-2.807306,-2.543159,-0.168646,-0.174702,0.649537,93.67,1
34070,0,52731,56111,52649.25,56414.52,717.91,1001.25,81.75,-303.52,-2.807309,-2.543148,-0.168558,-0.174596,0.649042,93.67,1
34110,0,52741,56148,52649.44,56413.99,717.91,1001.25,91.56,-265.99,-2.807312,-2.543139,-0.168470,-0.174491,0.648547,93.68,1
34147,0,52758,56184,52649.66,56413.54,717.91,1001.25,108.34,-229.54,-2.807317,-2.543130,-0.168382,-0.174388,0.648053,93.68,1
34188,0,52769,56203,52649.89,56413.12,717.91,1001.25,119.11,-210.12,-2.807321,-2.543123,-0.168295,-0.174285,0.647563,93.68,1
34228,0,52782,56229,52650.16,56412.75,717.91,1001.25,131.84,-183.75,-2.807326,-2.543116,-0.168208,-0.174184,0.647078,93.69,1
34269,0,52797,56251,52650.46,56412.43,717.91,1001.25,146.54,-161.43,-2.807332,-2.543111,-0.168122,-0.174083,0.646599,93.69,1
34310,0,52790,56167,52650.74,56411.94,717.91,1001.25,139.26,-244.94,-2.807337,-2.543102,-0.168036,-0.173979,0.646124,93.70,1
34351,0,52726,56016,52650.89,56411.15,717.91,1001.25,75.11,-395.15,-2.807340,-2.543088,-0.167948,-0.173870,0.645642,93.70,1
34391,0,52675,55949,52650.94,56410.23,717.91,1001.25,24.06,-461.23,-2.807341,-2.543072,-0.167857,-0.173759,0.645147,93.71,1
34430,0,52664,55935,52650.97,56409.28,717.91,1001.25,13.03,-474.28,-2.807342,-2.543055,-0.167766,-0.173647,0.644638,93.71,1
34470,0,52661,55926,52650.99,56408.32,717.91,1001.25,10.01,-482.32,-2.807342,-2.543038,-0.167675,-0.173535,0.644116,93.72,1
34510,0,52658,55912,52651.00,56407.32,717.91,1001.25,7.00,-495.32,-2.807342,-2.543020,-0.167584,-0.173423,0.643579,93.72,1
34547,0,52657,55934,52651.02,56406.38,717.91,1001.25,5.98,-472.38,-2.807343,-2.543003,-0.167493,-0.173312,0.643031,93.73,1
34591,0,52668,55964,52651.05,56405.50,717.91,1001.25,16.95,-441.50,-2.807343,-2.542988,-0.167403,-0.173202,0.642472,93.74,1
34630,0,52679,55987,52651.11,56404.66,717.91,1001.25,27.89,-417.66,-2.807344,-2.542973,-0.167313,-0.173092,0.641904,93.74,1
34672,0,52683,55998,52651.18,56403.85,717.91,1001.25,31.82,-405.85,-2.807346,-2.542958,-0.167223,-0.172983,0.641329,93.75,1
34711,0,52692,56018,52651.26,56403.08,717.91,1001.25,40.74,-385.08,-2.807347,-2.542945,-0.167134,-0.172875,0.640747,93.76,1
34751,0,52701,56042,52651.36,56402.36,717.91,1001.25,49.64,-360.36,-2.807349,-2.542932,-0.167045,-0.172768,0.640160,93.76,1
34790,0,52711,56071,52651.48,56401.70,717.91,1001.25,59.52,-330.70,-2.807351,-2.542921,-0.166956,-0.172662,0.639569,93.77,1
34830,0,52720,56100,52651.62,56401.10,717.91,1001.25,68.38,-301.10,-2.807354,-2.542910,-0.166868,-0.172558,0.638977,93.78,1
34871,0,52732,56128,52651.78,56400.55,717.91,1001.25,80.22,-272.55,-2.807357,-2.542900,-0.166780,-0.172454,0.638384,93.79,1
34911,0,52743,56151,52651.96,56400.06,717.91,1001.25,91.04,-249.06,-2.807361,-2.542892,-0.166693,-0.172351,0.637792,93.79,1
34949,0,52751,56173,52652.16,56399.61,717.91,1001.25,98.84,-226.61,-2.807364,-2.542883,-0.166606,-0.172249,0.637203,93.80,1
34990,0,52759,56199,52652.38,56399.21,717.91,1001.25,106.62,-200.21,-2.807369,-2.542876,-0.166519,-0.172148,0.636617,93.81,1
35028,0,52764,56151,52652.60,56398.71,717.91,1001.25,111.40,-247.71,-2.807373,-2.542867,-0.166433,-0.172045,0.636033,93.82,1
35067,0,52708,55978,52652.71,56397.87,717.91,1001.25,55.29,-419.87,-2.807375,-2.542853,-0.166345,-0.171936,0.635441,93.83,1
35108,0,52644,55884,52652.70,56396.84,717.91,1001.25,-8.70,-512.84,-2.807374,-2.542834,-0.166254,-0.171824,0.634836,93.84,1
35147,0,52628,55868,52652.65,56395.79,717.91,1001.25,-24.65,-527.79,-2.807374,-2.542816,-0.166162,-0.171712,0.634218,93.85,1
35189,0,52626,55860,52652.60,56394.72,717.91,1001.25,-26.60,-534.72,-2.807373,-2.542797,-0.166071,-0.171599,0.633585,93.86,1
35232,0,52624,55848,52652.55,56393.62,717.91,1001.25,-28.55,-545.62,-2.807372,-2.542777,-0.165980,-0.171486,0.632939,93.87,1
35271,0,52621,55863,52652.48,56392.57,717.91,1001.25,-31.48,-529.57,-2.807370,-2.542758,-0.165889,-0.171374,0.632280,93.88,1
35311,0,52635,55894,52652.45,56391.57,717.91,1001.25,-17.45,-497.57,-2.807370,-2.542741,-0.165798,-0.171263,0.631611,93.89,1
35350,0,52639,55910,52652.42,56390.61,717.91,1001.25,-13.42,-480.61,-2.807369,-2.542724,-0.165707,-0.171153,0.630932,93.90,1
35389,0,52648,55921,52652.41,56389.67,717.91,1001.25,-4.41,-468.67,-2.807369,-2.542707,-0.165617,-0.171043,0.630244,93.91,1
35429,0,52658,55933,52652.43,56388.76,717.91,1001.25,5.57,-455.76,-2.807369,-2.542691,-0.165527,-0.170933,0.629549,93.92,1
35469,0,52662,55951,52652.45,56387.89,717.91,1001.25,9.55,-436.89,-2.807370,-2.542675,-0.165437,-0.170825,0.628846,93.93,1
35508,0,52672,55978,52652.48,56387.07,717.91,1001.25,19.52,-409.07,-2.807370,-2.542661,-0.165348,-0.170717,0.628138,93.94,1
35549,0,52677,56004,52652.54,56386.30,717.91,1001.25,24.46,-382.30,-2.807371,-2.542647,-0.165259,-0.170611,0.627425,93.95,1
35589,0,52688,56025,52652.61,56385.58,717.91,1001.25,35.39,-360.58,-2.807373,-2.542635,-0.165171,-0.170505,0.626708,93.96,1
35631,0,52692,56048,52652.69,56384.91,717.91,1001.25,39.31,-336.91,-2.807374,-2.542623,-0.165083,-0.170400,0.625989,93.97,1
35670,0,52702,56068,52652.79,56384.28,717.91,1001.25,49.21,-316.28,-2.807376,-2.542612,-0.164995,-0.170296,0.625269,93.99,1
35710,0,52708,56042,52652.91,56383.59,717.91,1001.25,55.09,-341.59,-2.807379,-2.542599,-0.164907,-0.170191,0.624546,94.00,1
35751,0,52668,55888,52652.94,56382.61,717.91,1001.25,15.06,-494.61,-2.807379,-2.542582,-0.164818,-0.170081,0.623814,94.01,1
35791,0,52596,55776,52652.82,56381.39,717.91,1001.25,-56.82,-605.39,-2.807377,-2.542560,-0.164727,-0.169966,0.623070,94.02,1
35830,0,52575,55755,52652.67,56380.14,717.91,1001.25,-77.67,-625.14,-2.807374,-2.542538,-0.164634,-0.169852,0.622312,94.03,1
35872,0,52576,55752,52652.52,56378.89,717.91,1001.25,-76.52,-626.89,-2.807371,-2.542516,-0.164542,-0.169737,0.621543,94.05,1
35911,0,52572,55752,52652.36,56377.64,717.91,1001.25,-80.36,-625.64,-2.807368,-2.542494,-0.164450,-0.169622,0.620763,94.06,1
35952,0,52572,55773,52652.20,56376.43,717.91,1001.25,-80.20,-603.43,-2.807365,-2.542472,-0.164357,-0.169508,0.619972,94.07,1
35993,0,52589,55806,52652.07,56375.29,717.91,1001.25,-63.07,-569.29,-2.807363,-2.542452,-0.164265,-0.169396,0.619174,94.09,1
36031,0,52598,55820,52651.97,56374.18,717.91,1001.25,-53.97,-554.18,-2.807361,-2.542433,-0.164174,-0.169284,0.618367,94.10,1
36073,0,52605,55829,52651.87,56373.09,717.91,1001.25,-46.88,-544.09,-2.807359,-2.542413,-0.164083,-0.169172,0.617552,94.11,1
36112,0,52615,55848,52651.80,56372.04,717.91,1001.25,-36.80,-524.04,-2.807358,-2.542395,-0.163993,-0.169062,0.616730,94.13,1
36150,0,52622,55872,52651.74,56371.04,717.91,1001.25,-29.74,-499.04,-2.807356,-2.542377,-0.163902,-0.168952,0.615903,94.14,1
36190,0,52636,55903,52651.71,56370.11,717.91,1001.25,-15.71,-467.11,-2.807356,-2.542360,-0.163813,-0.168843,0.615070,94.16,1
36233,0,52649,55933,52651.71,56369.24,717.91,1001.25,-2.71,-436.24,-2.807356,-2.542345,-0.163724,-0.168736,0.614233,94.17,1
36272,0,52661,55962,52651.73,56368.43,717.91,1001.25,9.27,-406.43,-2.807356,-2.542330,-0.163635,-0.168630,0.613393,94.19,1
36312,0,52670,55984,52651.77,56367.66,717.91,1001.25,18.23,-383.66,-2.807357,-2.542317,-0.163547,-0.168524,0.612551,94.20,1
36353,0,52683,56004,52651.83,56366.93,717.91,1001.25,31.17,-362.93,-2.807358,-2.542304,-0.163459,-0.168420,0.611707,94.22,1
36392,0,52689,56022,52651.90,56366.25,717.91,1001.25,37.10,-344.25,-2.807359,-2.542292,-0.163372,-0.168316,0.610862,94.23,1
36433,0,52674,55903,52651.95,56365.32,717.91,1001.25,22.05,-462.32,-2.807360,-2.542275,-0.163284,-0.168208,0.610013,94.25,1
36469,0,52596,55732,52651.84,56364.05,717.91,1001.25,-55.84,-632.05,-2.807358,-2.542253,-0.163193,-0.168094,0.609154,94.26,1
36512,0,52549,55670,52651.64,56362.67,717.91,1001.25,-102.64,-692.67,-2.807354,-2.542228,-0.163101,-0.167978,0.608287,94.28,1
36553,0,52535,55664,52651.41,56361.27,717.91,1001.25,-116.41,-697.27,-2.807350,-2.542203,-0.163008,-0.167861,0.607411,94.30,1
36590,0,52536,55654,52651.18,56359.86,717.91,1001.25,-115.18,-705.86,-2.807346,-2.542178,-0.162915,-0.167745,0.606528,94.31,1
36632,0,52533,55648,52650.94,56358.44,717.91,1001.25,-117.94,-710.44,-2.807341,-2.542153,-0.162822,-0.167629,0.605638,94.33,1
36670,0,52538,55675,52650.72,56357.07,717.91,1001.25,-112.72,-682.07,-2.807337,-2.542129,-0.162730,-0.167513,0.604741,94.34,1
36713,0,52555,55708,52650.53,56355.77,717.91,1001.25,-95.53,-647.77,-2.807333,-2.542106,-0.162638,-0.167399,0.603839,94.36,1
36753,0,52562,55725,52650.35,56354.51,717.91,1001.25,-88.35,-629.51,-2.807330,-2.542084,-0.162546,-0.167286,0.602931,94.38,1
36793,0,52573,55739,52650.20,56353.28,717.91,1001.25,-77.20,-614.28,-2.807327,-2.542062,-0.162455,-0.167173,0.602019,94.40,1
36833,0,52585,55758,52650.07,56352.09,717.91,1001.25,-65.07,-594.09,-2.807325,-2.542041,-0.162364,-0.167061,0.601101,94.41,1
36872,0,52596,55788,52649.96,56350.97,717.91,1001.25,-53.96,-562.97,-2.807323,-2.542021,-0.162274,-0.166950,0.600179,94.43,1
36913,0,52606,55826,52649.88,56349.92,717.91,1001.25,-43.88,-523.92,-2.807321,-2.542002,-0.162185,-0.166840,0.599254,94.45,1
36953,0,52622,55854,52649.82,56348.93,717.91,1001.25,-27.82,-494.93,-2.807320,-2.541984,-0.162096,-0.166732,0.598326,94.47,1
36993,0,52637,55883,52649.80,56348.00,717.91,1001.25,-12.80,-465.00,-2.807319,-2.541968,-0.162007,-0.166625,0.597395,94.48,1
37033,0,52647,55898,52649.80,56347.10,717.91,1001.25,-2.80,-449.10,-2.807319,-2.541952,-0.161919,-0.166518,0.596462,94.50,1
37070,0,52656,55927,52649.81,56346.26,717.91,1001.25,6.19,-419.26,-2.807320,-2.541937,-0.161832,-0.166413,0.595528,94.52,1
37114,0,52671,55937,52649.86,56345.45,717.91,1001.25,21.14,-408.45,-2.807321,-2.541923,-0.161745,-0.166308,0.594593,94.54,1
37149,0,52653,55812,52649.86,56344.38,717.91,1001.25,3.14,-532.38,-2.807321,-2.541904,-0.161657,-0.166198,0.593653,94.56,1
37189,0,52580,55646,52649.73,56342.98,717.91,1001.25,-69.73,-696.98,-2.807318,-2.541879,-0.161567,-0.166083,0.592707,94.58,1
37231,0,52525,55582,52649.48,56341.46,717.91,1001.25,-124.48,-759.46,-2.807313,-2.541852,-0.161474,-0.165966,0.591756,94.59,1
37269,0,52521,55572,52649.22,56339.93,717.91,1001.25,-128.22,-767.93,-2.807308,-2.541825,-0.161382,-0.165849,0.590801,94.61,1
37313,0,52523,55562,52648.97,56338.37,717.91,1001.25,-125.97,-776.37,-2.807304,-2.541797,-0.161290,-0.165731,0.589840,94.63,1
37353,0,52520,55557,52648.71,56336.81,717.91,1001.25,-128.71,-779.81,-2.807299,-2.541769,-0.161197,-0.165613,0.588876,94.65,1
37391,0,52530,55583,52648.48,56335.30,717.91,1001.25,-118.48,-752.30,-2.807294,-2.541743,-0.161105,-0.165496,0.587907,94.67,1
37431,0,52542,55611,52648.27,56333.86,717.91,1001.25,-106.27,-722.86,-2.807291,-2.541717,-0.161014,-0.165381,0.586935,94.69,1
37471,0,52551,55634,52648.08,56332.46,717.91,1001.25,-97.08,-698.46,-2.807287,-2.541692,-0.160923,-0.165266,0.585959,94.71,1
37511,0,52561,55643,52647.91,56331.08,717.91,1001.25,-86.91,-688.08,-2.807284,-2.541668,-0.160832,-0.165152,0.584980,94.73,1
37553,0,52566,55663,52647.74,56329.74,717.91,1001.25,-81.74,-666.74,-2.807281,-2.541644,-0.160742,-0.165038,0.583998,94.75,1
37594,0,52576,55692,52647.60,56328.47,717.91,1001.25,-71.60,-636.47,-2.807278,-2.541621,-0.160652,-0.164926,0.583013,94.77,1
37635,0,52592,55729,52647.49,56327.27,717.91,1001.25,-55.49,-598.27,-2.807276,-2.541600,-0.160563,-0.164815,0.582025,94.79,1
37673,0,52604,55765,52647.41,56326.14,717.91,1001.25,-43.41,-561.14,-2.807274,-2.541580,-0.160475,-0.164705,0.581036,94.81,1
37714,0,52624,55799,52647.36,56325.09,717.91,1001.25,-23.36,-526.09,-2.807273,-2.541561,-0.160387,-0.164597,0.580045,94.83,1
37753,0,52636,55818,52647.34,56324.08,717.91,1001.25,-11.34,-506.08,-2.807273,-2.541543,-0.160299,-0.164490,0.579052,94.85,1
37791,0,52650,55844,52647.35,56323.12,717.91,1001.25,2.65,-479.12,-2.807273,-2.541526,-0.160213,-0.164383,0.578059,94.87,1
37833,0,52663,55873,52647.38,56322.22,717.91,1001.25,15.62,-449.22,-2.807274,-2.541510,-0.160126,-0.164278,0.577065,94.90,1
37875,0,52660,55773,52647.41,56321.12,717.91,1001.25,12.59,-548.12,-2.807274,-2.541491,-0.160040,-0.164169,0.576069,94.92,1
37914,0,52587,55593,52647.29,56319.67,717.91,1001.25,-60.29,-726.67,-2.807272,-2.541465,-0.159951,-0.164055,0.575068,94.94,1
37950,0,52531,55518,52647.05,56318.07,717.91,1001.25,-116.05,-800.07,-2.807267,-2.541437,-0.159860,-0.163937,0.574065,94.96,1
37994,0,52520,55514,52646.80,56316.46,717.91,1001.25,-126.80,-802.46,-2.807262,-2.541408,-0.159768,-0.163819,0.573059,94.98,1
38034,0,52529,55511,52646.57,56314.86,717.91,1001.25,-117.57,-803.86,-2.807258,-2.541379,-0.159677,-0.163702,0.572051,95.00,1
38070,0,52525,55505,52646.32,56313.24,717.91,1001.25,-121.32,-808.24,-2.807254,-2.541351,-0.159586,-0.163584,0.571040,95.02,1
38115,0,52533,55539,52646.10,56311.69,717.91,1001.25,-113.10,-772.69,-2.807249,-2.541323,-0.159495,-0.163468,0.570028,95.05,1
38154,0,52547,55566,52645.90,56310.20,717.91,1001.25,-98.90,-744.20,-2.807245,-2.541297,-0.159405,-0.163353,0.569013,95.07,1
38193,0,52560,55578,52645.73,56308.74,717.91,1001.25,-85.73,-730.74,-2.807242,-2.541271,-0.159316,-0.163238,0.567997,95.09,1
38233,0,52565,55597,52645.57,56307.32,717.91,1001.25,-80.57,-710.32,-2.807239,-2.541246,-0.159226,-0.163124,0.566978,95.11,1
38291,0,52578,55615,52645.44,56305.93,717.91,1001.25,-67.44,-690.93,-2.807237,-2.541221,-0.159137,-0.163011,0.565957,95.13,1
38314,0,52588,55643,52645.32,56304.61,717.91,1001.25,-57.32,-661.61,-2.807235,-2.541198,-0.159049,-0.162899,0.564935,95.16,1
38351,0,52597,55677,52645.23,56303.36,717.91,1001.25,-48.23,-626.36,-2.807233,-2.541175,-0.158961,-0.162788,0.563911,95.18,1
38391,0,52610,55713,52645.16,56302.18,717.91,1001.25,-35.16,-589.18,-2.807231,-2.541154,-0.158874,-0.162679,0.562886,95.20,1
38431,0,52623,55745,52645.12,56301.06,717.91,1001.25,-22.12,-556.06,-2.807230,-2.541135,-0.158787,-0.162571,0.561860,95.22,1
38473,0,52636,55768,52645.10,56300.00,717.91,1001.25,-9.10,-532.00,-2.807230,-2.541116,-0.158700,-0.162464,0.560834,95.25,1
38512,0,52647,55797,52645.11,56298.99,717.91,1001.25,1.89,-501.99,-2.807230,-2.541098,-0.158614,-0.162358,0.559807,95.27,1
38556,0,52657,55766,52645.13,56297.93,717.91,1001.25,11.87,-531.93,-2.807231,-2.541079,-0.158529,-0.162251,0.558781,95.29,1
38594,0,52604,55601,52645.05,56296.54,717.91,1001.25,-41.05,-695.54,-2.807229,-2.541054,-0.158442,-0.162138,0.557751,95.31,1
38635,0,52537,55492,52644.83,56294.93,717.91,1001.25,-107.83,-802.93,-2.807225,-2.541026,-0.158352,-0.162022,0.556720,95.34,1
38675,0,52514,55476,52644.57,56293.29,717.91,1001.25,-130.57,-817.29,-2.807220,-2.540997,-0.158261,-0.161905,0.555690,95.36,1
38715,0,52519,55487,52644.32,56291.68,717.91,1001.25,-125.32,-804.68,-2.807215,-2.540968,-0.158170,-0.161788,0.554659,95.38,1
38755,0,52522,55496,52644.08,56290.09,717.91,1001.25,-122.08,-794.09,-2.807211,-2.540940,-0.158080,-0.161672,0.553629,95.41,1
