t_ms,trial_id,t_trial_ms,phase,red_raw,ir_raw,red_dc,ir_dc,red_ac,ir_ac,R,spo2,spo2_valid
2386458,1,0,0,46770,47489,46609.45,47248.07,160.55,240.93,0.523219,96.82,1
2386498,1,40,0,46789,47539,46609.80,47248.65,179.20,290.35,0.523186,96.82,1
2386538,1,80,0,46814,47594,46610.21,47249.34,203.79,344.66,0.523157,96.83,1
2386578,1,120,0,46839,47651,46610.67,47250.15,228.33,400.85,0.523133,96.83,1
2386618,1,160,0,46870,47702,46611.19,47251.05,258.81,450.95,0.523116,96.83,1
2386658,1,200,0,46876,47582,46611.72,47251.72,264.28,330.28,0.523115,96.83,1
2386698,1,240,0,46761,47243,46612.02,47251.70,148.98,-8.70,0.523122,96.84,1
2386738,1,280,0,46619,47022,46612.04,47251.25,6.96,-229.25,0.523125,96.84,1
2386778,1,320,0,46569,47006,46611.95,47250.76,-42.95,-244.76,0.523121,96.84,1
2386818,1,360,0,46590,47072,46611.91,47250.40,-21.91,-178.40,0.523114,96.84,1
2386858,1,400,0,46620,47143,46611.93,47250.19,8.07,-107.19,0.523106,96.85,1
2386898,1,440,0,46657,47234,46612.02,47250.16,44.98,-16.16,0.523099,96.85,1
2386938,1,480,0,46689,47287,46612.17,47250.23,76.83,36.77,0.523094,96.85,1
2386978,1,520,0,46700,47290,46612.35,47250.31,87.65,39.69,0.523092,96.85,1
2387019,1,561,0,46700,47287,46612.52,47250.39,87.48,36.61,0.523093,96.85,1
2387059,1,601,0,46697,47311,46612.70,47250.51,84.30,60.49,0.523097,96.86,1
2387099,1,641,0,46711,47363,46612.89,47250.73,98.11,112.27,0.523104,96.86,1
2387139,1,681,0,46743,47425,46613.16,47251.09,129.84,173.91,0.523114,96.86,1
2387179,1,721,0,46765,47474,46613.46,47251.53,151.54,222.47,0.523129,96.86,1
2387219,1,761,0,46792,47528,46613.82,47252.09,178.18,275.91,0.523148,96.86,1
2387259,1,801,0,46810,47588,46614.21,47252.76,195.79,335.24,0.523171,96.87,1
2387299,1,841,0,46833,47591,46614.65,47253.43,218.35,337.57,0.523200,96.87,1
2387339,1,881,0,46790,47335,46615.00,47253.60,175.00,81.40,0.523242,96.87,1
2387379,1,921,0,46646,47018,46615.07,47253.13,30.93,-235.13,0.523278,96.87,1
2387419,1,961,0,46544,46900,46614.93,47252.43,-70.93,-352.43,0.523300,96.87,1
2387459,1,1001,0,46533,46937,46614.76,47251.80,-81.76,-314.80,0.523314,96.87,1
2387499,1,1041,0,46555,46995,46614.64,47251.29,-59.64,-256.29,0.523322,96.87,1
2387539,1,1081,0,46581,47066,46614.58,47250.91,-33.58,-184.91,0.523326,96.88,1
2387579,1,1121,0,46621,47148,46614.59,47250.71,6.41,-102.71,0.523329,96.88,1
2387619,1,1161,0,46651,47203,46614.67,47250.62,36.33,-47.62,0.523332,96.88,1
2387659,1,1201,0,46660,47212,46614.76,47250.54,45.24,-38.54,0.523336,96.88,1
2387699,1,1241,0,46662,47213,46614.86,47250.47,47.14,-37.47,0.523341,96.88,1
2387740,1,1282,0,46667,47247,46614.96,47250.46,52.04,-3.46,0.523347,96.88,1
2387780,1,1322,0,46691,47316,46615.11,47250.60,75.89,65.40,0.523355,96.88,1
2387820,1,1362,0,46720,47382,46615.32,47250.86,104.68,131.14,0.523366,96.88,1
2387860,1,1402,0,46746,47447,46615.59,47251.26,130.41,195.74,0.523380,96.88,1
2387900,1,1442,0,46776,47501,46615.91,47251.76,160.09,249.24,0.523398,96.89,1
2387940,1,1482,0,46803,47561,46616.28,47252.38,186.72,308.62,0.523420,96.89,1
2387980,1,1522,0,46827,47588,46616.70,47253.05,210.30,334.95,0.523448,96.89,1
2388020,1,1562,0,46791,47364,46617.05,47253.27,173.95,110.73,0.523488,96.89,1
2388060,1,1602,0,46651,47040,46617.12,47252.85,33.88,-212.85,0.523523,96.89,1
2388100,1,1642,0,46545,46903,46616.98,47252.15,-71.98,-349.15,0.523544,96.89,1
2388140,1,1682,0,46530,46928,46616.81,47251.50,-86.81,-323.50,0.523556,96.89,1
2388180,1,1722,0,46549,46975,46616.68,47250.95,-67.68,-275.95,0.523561,96.89,1
2388220,1,1762,0,46571,47113,46616.59,47250.68,-45.59,-137.68,0.523564,96.89,1
2388260,1,1802,0,46599,47311,46616.55,47250.80,-17.55,60.20,0.523567,96.89,1
2388300,1,1842,0,46642,47177,46616.60,47250.65,25.40,-73.65,0.523570,96.89,1
2388340,1,1882,0,46657,47194,46616.68,47250.54,40.32,-56.54,0.523573,96.89,1
2388380,1,1922,0,46654,47197,46616.76,47250.43,37.24,-53.43,0.523576,96.89,1
2388420,1,1962,0,46659,47713,46616.84,47251.36,42.16,461.64,0.523553,96.89,1
2388461,1,2003,0,46677,47259,46616.96,47251.37,60.04,7.62,0.523532,96.89,1
2388501,1,2043,0,46704,47341,46617.14,47251.55,86.86,89.45,0.523514,96.90,1
2388541,1,2083,0,46730,47408,46617.37,47251.87,112.63,156.13,0.523498,96.90,1
2388581,1,2123,0,46752,47462,46617.64,47252.29,134.36,209.71,0.523486,96.90,1
2388621,1,2163,0,46773,47093,46617.95,47251.97,155.05,-158.97,0.523483,96.90,1
2388661,1,2203,0,46795,46959,46618.30,47251.39,176.70,-292.39,0.523484,96.90,1
2388701,1,2243,0,46819,47612,46618.71,47252.11,200.29,359.89,0.523487,96.90,1
2388741,1,2283,0,46832,47565,46619.14,47252.74,212.86,312.26,0.523499,96.90,1
2388781,1,2323,0,46750,47256,46619.40,47252.75,130.60,3.25,0.523519,96.90,1
2388821,1,2363,0,46610,47005,46619.38,47252.25,-9.38,-247.25,0.523531,96.90,1
2388861,1,2403,0,46544,46963,46619.23,47251.67,-75.23,-288.67,0.523536,96.90,1
2388901,1,2443,0,46552,47014,46619.10,47251.20,-67.10,-237.20,0.523535,96.90,1
2388941,1,2483,0,46579,47074,46619.02,47250.85,-40.02,-176.85,0.523531,96.90,1
2388981,1,2523,0,46690,47153,46619.16,47250.65,70.84,-97.65,0.523528,96.90,1
2389021,1,2563,0,46649,47236,46619.23,47250.62,29.77,-14.63,0.523525,96.90,1
2389061,1,2603,0,46678,47277,46619.34,47250.68,58.66,26.32,0.523525,96.90,1
2389101,1,2643,0,46686,47293,46619.48,47250.77,66.52,42.23,0.523526,96.90,1
2389141,1,2683,0,47105,47313,46620.45,47250.89,484.55,62.11,0.523640,96.90,1
2389182,1,2724,0,47202,47362,46621.61,47251.11,580.39,110.89,0.523904,96.90,1
2389222,1,2764,0,46726,47422,46621.82,47251.46,104.18,170.54,0.524167,96.90,1
2389262,1,2804,0,46759,47495,46622.10,47251.95,136.90,243.05,0.524428,96.90,1
2389302,1,2844,0,46782,47556,46622.42,47252.55,159.58,303.45,0.524685,96.90,1
2389342,1,2884,0,46494,47608,46622.17,47253.27,-128.17,354.73,0.524929,96.90,1
2389382,1,2924,0,46416,47662,46621.76,47254.09,-205.76,407.91,0.525164,96.90,1
2389422,1,2964,0,46855,47718,46622.23,47255.02,232.77,462.98,0.525390,96.90,1
2389462,1,3004,0,46873,47772,46622.73,47256.05,250.27,515.95,0.525603,96.90,1
2389502,1,3044,0,46901,47825,46623.29,47257.19,277.71,567.81,0.525802,96.90,1
2389542,1,3084,0,46930,47865,46623.90,47258.41,306.10,606.59,0.525988,96.89,1
2389582,1,3124,0,46943,47905,46624.54,47259.70,318.46,645.30,0.526160,96.89,1
2389622,1,3164,0,46961,47951,46625.22,47261.09,335.78,689.91,0.526316,96.89,1
2389662,1,3204,0,46982,47989,46625.93,47262.54,356.07,726.46,0.526456,96.89,1
2389702,1,3244,0,46991,47955,46626.66,47263.93,364.34,691.07,0.526590,96.89,1
2389742,1,3284,0,46917,47657,46627.25,47264.72,289.75,392.28,0.526734,96.89,1
2389782,1,3324,0,46764,47356,46627.52,47264.90,136.48,91.10,0.526883,96.88,1
2389822,1,3364,0,46674,47279,46627.61,47264.93,46.39,14.07,0.527032,96.88,1
2389862,1,3404,0,46673,47320,46627.71,47265.05,45.29,54.95,0.527181,96.88,1
2389902,1,3444,0,46694,47374,46627.84,47265.27,66.16,108.73,0.527330,96.88,1
2389943,1,3485,0,46723,47434,46628.03,47265.61,94.97,168.39,0.527478,96.88,1
2389983,1,3525,0,46752,47509,46628.28,47266.09,123.72,242.91,0.527625,96.88,1
2390023,1,3565,0,46772,47546,46628.57,47266.66,143.43,279.34,0.527770,96.87,1
2390063,1,3605,0,46778,47555,46628.87,47267.23,149.13,287.77,0.527912,96.87,1
2390103,1,3645,0,46782,47564,46629.18,47267.83,152.82,296.17,0.528053,96.87,1
2390143,1,3685,0,46794,47610,46629.51,47268.52,164.49,341.48,0.528190,96.87,1
2390183,1,3725,0,46819,47671,46629.89,47269.32,189.11,401.68,0.528322,96.86,1
2390223,1,3765,0,46846,47737,46630.32,47270.26,215.68,466.74,0.528445,96.86,1
2390263,1,3805,0,46878,47794,46630.82,47271.30,247.18,522.70,0.528561,96.86,1
2390303,1,3845,0,46903,47844,46631.37,47272.45,271.63,571.55,0.528667,96.86,1
2390343,1,3885,0,46926,47890,46631.96,47273.69,294.04,616.31,0.528764,96.86,1
2390383,1,3925,0,46946,47930,46632.59,47275.00,313.41,655.00,0.528851,96.85,1
2390423,1,3965,0,46958,47970,46633.24,47276.39,324.76,693.61,0.528927,96.85,1
2390463,1,4005,0,46972,48006,46633.92,47277.85,338.08,728.15,0.528990,96.85,1
2390503,1,4045,0,46992,48045,46634.64,47279.39,357.36,765.61,0.529042,96.85,1
2390543,1,4085,0,47004,48029,46635.37,47280.89,368.62,748.11,0.529086,96.84,1
2390583,1,4125,0,46949,47777,46636.00,47281.88,313.00,495.12,0.529138,96.84,1
2390623,1,4165,0,46805,47493,46636.34,47282.30,168.66,210.70,0.529193,96.84,1
2390664,1,4206,0,46723,47405,46636.52,47282.55,86.48,122.45,0.529249,96.84,1
2390704,1,4246,0,46714,47441,46636.68,47282.86,77.32,158.14,0.529304,96.84,1
2390744,1,4286,0,46741,47512,46636.89,47283.32,104.11,228.68,0.529358,96.83,1
2390784,1,4326,0,46769,47583,46637.15,47283.93,131.85,299.07,0.529410,96.83,1
2390824,1,4366,0,46802,47644,46637.48,47284.65,164.52,359.35,0.529458,96.83,1
2390864,1,4406,0,46821,47663,46637.85,47285.41,183.15,377.59,0.529505,96.83,1
2390904,1,4446,0,46820,47656,46638.22,47286.15,181.78,369.85,0.529550,96.83,1
2390944,1,4486,0,46817,47670,46638.58,47286.92,178.42,383.08,0.529592,96.82,1
2390984,1,4526,0,46830,47704,46638.96,47287.75,191.04,416.25,0.529631,96.82,1
2391024,1,4566,0,46854,47752,46639.39,47288.68,214.61,463.32,0.529666,96.82,1
2391064,1,4606,0,46876,47804,46639.86,47289.71,236.14,514.29,0.529695,96.82,1
2391104,1,4646,0,46902,47850,46640.39,47290.84,261.61,559.16,0.529720,96.82,1
2391144,1,4686,0,46919,47900,46640.95,47292.05,278.05,607.95,0.529738,96.81,1
2391184,1,4726,0,46931,47938,46641.53,47293.35,289.47,644.65,0.529749,96.81,1
2391224,1,4766,0,46953,47976,46642.16,47294.71,310.84,681.29,0.529752,96.81,1
2391264,1,4806,0,46970,48014,46642.81,47296.16,327.19,717.84,0.529748,96.81,1
2391304,1,4846,0,46986,48050,46643.50,47297.66,342.50,752.34,0.529736,96.81,1
2391344,1,4886,0,46977,47938,46644.17,47298.95,332.83,639.05,0.529724,96.81,1
2391384,1,4926,0,46874,47618,46644.63,47299.59,229.37,318.41,0.529717,96.80,1
2391425,1,4967,0,46736,47391,46644.81,47299.77,91.19,91.23,0.529712,96.80,1
2391465,1,5007,0,46682,47363,46644.89,47299.90,37.11,63.10,0.529707,96.80,1
2391505,1,5047,0,46693,47430,46644.98,47300.16,48.02,129.84,0.529702,96.80,1
2391545,1,5087,0,46720,47500,46645.14,47300.56,74.86,199.44,0.529695,96.80,1
2391585,1,5127,0,46756,47578,46645.36,47301.12,110.64,276.88,0.529686,96.80,1
2391625,1,5167,0,46789,47625,46645.65,47301.77,143.35,323.23,0.529676,96.80,1
2391665,1,5207,0,46801,47704,46645.96,47302.57,155.04,401.43,0.529662,96.80,1
2391705,1,5247,0,46792,47809,46646.25,47303.59,145.75,505.41,0.529637,96.79,1
2391745,1,5287,0,46801,47645,46646.57,47304.27,154.43,340.73,0.529610,96.79,1
2391785,1,5327,0,46817,47692,46646.91,47305.05,170.09,386.95,0.529582,96.79,1
2391825,1,5367,0,46844,47742,46647.30,47305.92,196.70,436.08,0.529551,96.79,1
2391865,1,5407,0,46867,48287,46647.75,47307.89,219.25,979.11,0.529476,96.79,1
2391905,1,5447,0,46884,47834,46648.22,47308.94,235.78,525.06,0.529400,96.79,1
2391945,1,5487,0,46900,47869,46648.72,47310.06,251.28,558.94,0.529320,96.79,1
2391985,1,5527,0,46916,47903,46649.26,47311.25,266.74,591.75,0.529238,96.79,1
2392025,1,5567,0,46931,47944,46649.82,47312.52,281.18,631.48,0.529152,96.79,1
2392065,1,5607,0,46943,47587,46650.41,47313.07,292.59,273.93,0.529080,96.79,1
2392105,1,5647,0,46963,47451,46651.04,47313.34,311.96,137.66,0.529028,96.79,1
2392145,1,5687,0,46904,47719,46651.54,47314.16,252.46,404.84,0.528980,96.79,1
2392186,1,5728,0,46757,47408,46651.75,47314.34,105.25,93.66,0.528934,96.79,1
2392226,1,5768,0,46657,47298,46651.77,47314.31,5.23,-16.31,0.528888,96.79,1
2392266,1,5808,0,46644,47326,46651.75,47314.34,-7.75,11.66,0.528843,96.79,1
2392306,1,5848,0,46665,47391,46651.78,47314.49,13.22,76.51,0.528797,96.79,1
2392346,1,5888,0,46691,47453,46651.86,47314.77,39.14,138.23,0.528751,96.79,1
2392386,1,5928,0,46727,47515,46652.01,47315.17,74.99,199.83,0.528704,96.79,1
2392426,1,5968,0,46751,47556,46652.21,47315.66,98.79,240.34,0.528656,96.79,1
2392466,1,6008,0,46757,47558,46652.42,47316.14,104.58,241.86,0.528607,96.79,1
2392506,1,6048,0,46754,47568,46652.62,47316.64,101.38,251.36,0.528557,96.79,1
2392546,1,6088,0,46769,47604,46652.86,47317.22,116.14,286.78,0.528506,96.79,1
2392586,1,6128,0,47099,47658,46653.75,47317.90,445.25,340.10,0.528492,96.79,1
2392626,1,6168,0,47220,47714,46654.88,47318.70,565.12,395.30,0.528537,96.79,1
2392666,1,6208,0,46846,47771,46655.27,47319.60,190.73,451.40,0.528577,96.79,1
2392706,1,6248,0,46867,47812,46655.69,47320.59,211.31,491.41,0.528612,96.79,1
2392746,1,6288,0,46880,47833,46656.14,47321.61,223.86,511.39,0.528641,96.79,1
2392786,1,6328,0,46732,47861,46656.29,47322.69,75.71,538.31,0.528656,96.79,1
2392826,1,6368,0,46621,47903,46656.22,47323.85,-35.22,579.15,0.528651,96.79,1
2392866,1,6408,0,46919,47950,46656.75,47325.11,262.25,624.89,0.528640,96.79,1
2392906,1,6448,0,46930,47934,46657.30,47326.32,272.70,607.68,0.528623,96.79,1
2392947,1,6489,0,46878,47676,46657.74,47327.02,220.26,348.98,0.528610,96.79,1
2392987,1,6529,0,46081,47384,46656.59,47327.14,-575.59,56.86,0.528662,96.79,1
2393027,1,6569,0,46637,47289,46656.55,47327.06,-19.55,-38.06,0.528714,96.79,1
2393067,1,6609,0,46625,47328,46656.48,47327.07,-31.48,0.93,0.528766,96.79,1
2393107,1,6649,0,46648,47374,46656.47,47327.16,-8.47,46.84,0.528818,96.79,1
2393147,1,6689,0,46670,47421,46656.50,47327.35,13.50,93.65,0.528869,96.78,1
2393187,1,6729,0,46697,47494,46656.58,47327.68,40.42,166.32,0.528919,96.78,1
2393227,1,6769,0,46724,47550,46656.71,47328.13,67.29,221.87,0.528966,96.78,1
2393267,1,6809,0,46743,47565,46656.89,47328.61,86.11,236.39,0.529012,96.78,1
2393307,1,6849,0,46753,47569,46657.08,47329.09,95.92,239.91,0.529056,96.78,1
2393347,1,6889,0,46755,47597,46657.28,47329.62,97.72,267.38,0.529098,96.78,1
2393387,1,6929,0,46781,47657,46657.53,47330.28,123.47,326.72,0.529136,96.78,1
2393427,1,6969,0,46806,47720,46657.82,47331.06,148.18,388.94,0.529170,96.78,1
2393467,1,7009,0,46830,47771,46658.17,47331.94,171.83,439.06,0.529198,96.78,1
2393507,1,7049,0,46852,47816,46658.56,47332.91,193.44,483.09,0.529220,96.78,1
2393547,1,7089,0,46874,47860,46658.99,47333.96,215.01,526.04,0.529236,96.78,1
2393587,1,7129,0,46888,47897,46659.45,47335.09,228.55,561.91,0.529245,96.78,1
2393627,1,7169,0,46900,47929,46659.93,47336.28,240.07,592.72,0.529245,96.78,1
2393668,1,7210,0,46910,47963,46660.43,47337.54,249.57,625.46,0.529237,96.78,1
2393708,1,7250,0,46928,48002,46660.97,47338.87,267.03,663.13,0.529219,96.78,1
2393748,1,7290,0,46946,48034,46661.54,47340.26,284.46,693.74,0.529192,96.78,1
2393788,1,7330,0,46914,47836,46662.05,47341.25,251.95,494.75,0.529165,96.78,1
2393828,1,7370,0,46785,47519,46662.29,47341.61,122.71,177.39,0.529140,96.78,1
2393868,1,7410,0,46669,47363,46662.31,47341.65,6.69,21.35,0.529114,96.78,1
2393908,1,7450,0,46643,47381,46662.27,47341.73,-19.27,39.27,0.529089,96.78,1
2393948,1,7490,0,46660,47424,46662.27,47341.89,-2.27,82.11,0.529063,96.78,1
2393988,1,7530,0,46678,47469,46662.30,47342.14,15.70,126.86,0.529037,96.78,1
2394028,1,7570,0,46708,47533,46662.39,47342.53,45.61,190.47,0.529009,96.78,1
2394068,1,7610,0,46743,47588,46662.55,47343.02,80.45,244.98,0.528979,96.78,1
2394108,1,7650,0,46760,47609,46662.75,47343.55,97.25,265.45,0.528948,96.78,1
2394148,1,7690,0,46765,47631,46662.96,47344.12,102.04,286.87,0.528914,96.78,1
2394188,1,7730,0,46769,47660,46663.17,47344.76,105.83,315.24,0.528877,96.78,1
2394228,1,7770,0,46793,47700,46663.43,47345.47,129.57,354.53,0.528838,96.78,1
2394268,1,7810,0,46815,47760,46663.74,47346.30,151.26,413.70,0.528793,96.78,1
2394308,1,7850,0,46843,47827,46664.10,47347.26,178.90,479.74,0.528743,96.78,1
2394348,1,7890,0,46865,47878,46664.50,47348.32,200.50,529.68,0.528687,96.78,1
2394388,1,7930,0,46886,47927,46664.95,47349.48,221.05,577.52,0.528624,96.78,1
2394429,1,7971,0,46907,47965,46665.43,47350.71,241.57,614.29,0.528553,96.78,1
2394469,1,8011,0,46920,48006,46665.94,47352.03,254.06,653.97,0.528475,96.78,1
2394509,1,8051,0,46938,48046,46666.49,47353.42,271.51,692.58,0.528387,96.78,1
2394549,1,8091,0,46954,48092,46667.07,47354.89,286.93,737.11,0.528291,96.78,1
2394589,1,8131,0,46974,48134,46667.68,47356.45,306.32,777.55,0.528185,96.78,1
2394629,1,8171,0,46993,48131,46668.33,47358.00,324.67,773.00,0.528072,96.78,1
2394669,1,8211,0,46943,47898,46668.88,47359.09,274.12,538.91,0.527962,96.78,1
2394709,1,8251,0,46803,47593,46669.15,47359.55,133.85,233.45,0.527852,96.78,1
2394749,1,8291,0,46698,47468,46669.21,47359.77,28.79,108.23,0.527743,96.78,1
2394789,1,8331,0,46687,47480,46669.25,47360.02,17.75,119.98,0.527633,96.78,1
2394829,1,8371,0,46710,47528,46669.33,47360.35,40.67,167.65,0.527523,96.78,1
2394869,1,8411,0,46726,47584,46669.44,47360.80,56.56,223.20,0.527411,96.79,1
2394909,1,8451,0,46750,47649,46669.61,47361.38,80.39,287.62,0.527297,96.79,1
2394949,1,8491,0,46775,47673,46669.82,47362.00,105.18,311.00,0.527182,96.79,1
2394989,1,8531,0,46779,47661,46670.04,47362.60,108.96,298.40,0.527065,96.79,1
2395029,1,8571,0,46767,47653,46670.23,47363.18,96.77,289.82,0.526946,96.79,1
2395069,1,8611,0,46773,47687,46670.44,47363.83,102.56,323.17,0.526825,96.79,1
2395109,1,8651,0,46791,47779,46670.68,47364.66,120.32,414.34,0.526699,96.79,1
2395150,1,8692,0,46816,47795,46670.97,47365.53,145.03,429.47,0.526570,96.79,1
2395190,1,8732,0,46840,47848,46671.31,47366.49,168.69,481.51,0.526436,96.79,1
2395230,1,8772,0,46861,47895,46671.69,47367.55,189.31,527.45,0.526297,96.80,1
2395270,1,8812,0,46876,48296,46672.10,47369.41,203.90,926.59,0.526129,96.80,1
2395310,1,8852,0,46889,48433,46672.54,47371.54,216.46,1061.46,0.525925,96.80,1
2395350,1,8892,0,46904,47991,46673.00,47372.78,231.00,618.22,0.525717,96.80,1
2395390,1,8932,0,46913,48027,46673.48,47374.09,239.52,652.91,0.525504,96.80,1
2395430,1,8972,0,46935,48039,46674.00,47375.42,261.00,663.58,0.525289,96.80,1
2395470,1,9012,0,46907,47515,46674.47,47375.70,232.53,139.30,0.525083,96.81,1
2395510,1,9052,0,46778,47083,46674.68,47375.11,103.32,-292.11,0.524877,96.81,1
2395550,1,9092,0,46674,47420,46674.68,47375.20,-0.68,44.80,0.524671,96.81,1
2395590,1,9132,0,46659,47441,46674.65,47375.34,-15.65,65.66,0.524465,96.81,1
2395630,1,9172,0,46678,47493,46674.66,47375.57,3.34,117.43,0.524260,96.82,1
2395670,1,9212,0,46700,47541,46674.71,47375.91,25.29,165.09,0.524055,96.82,1
2395710,1,9252,0,46726,47599,46674.81,47376.36,51.19,222.64,0.523848,96.82,1
2395750,1,9292,0,46744,47631,46674.95,47376.87,69.05,254.13,0.523641,96.82,1
2395790,1,9332,0,46748,47619,46675.10,47377.35,72.90,241.65,0.523433,96.83,1
2395831,1,9373,0,46761,47621,46675.27,47377.84,85.73,243.16,0.523225,96.83,1
2395871,1,9413,0,46750,47657,46675.43,47378.40,74.57,278.60,0.523015,96.83,1
2395911,1,9453,0,46769,47717,46675.61,47379.08,93.39,337.92,0.522803,96.84,1
2395951,1,9493,0,46793,47776,46675.85,47379.87,117.15,396.12,0.522588,96.84,1
2395991,1,9533,0,47196,47831,46676.89,47380.78,519.11,450.22,0.522420,96.84,1
2396031,1,9573,0,47330,47877,46678.20,47381.77,651.80,495.23,0.522323,96.84,1
2396071,1,9613,0,46866,47918,46678.57,47382.84,187.43,535.16,0.522221,96.85,1
2396111,1,9653,0,46882,47958,46678.98,47384.00,203.02,574.00,0.522112,96.85,1
2396151,1,9693,0,46905,47988,46679.43,47385.21,225.57,602.79,0.521998,96.85,1
2396191,1,9733,0,46643,48022,46679.36,47386.48,-36.36,635.52,0.521868,96.86,1
2396231,1,9773,0,46519,47953,46679.04,47387.61,-160.04,565.39,0.521730,96.86,1
2396271,1,9813,0,46835,47660,46679.36,47388.16,155.64,271.84,0.521594,96.86,1
2396311,1,9853,0,46698,47423,46679.39,47388.23,18.61,34.77,0.521458,96.87,1
2396351,1,9893,0,46632,47363,46679.30,47388.18,-47.30,-25.18,0.521324,96.87,1
2396391,1,9933,0,46640,47402,46679.22,47388.21,-39.22,13.79,0.521189,96.87,1
2396431,1,9973,0,46653,47444,46679.17,47388.32,-26.17,55.68,0.521056,96.87,1
2396471,1,10013,0,46674,47498,46679.16,47388.54,-5.16,109.46,0.520922,96.88,1
2396511,1,10053,0,46705,47556,46679.22,47388.87,25.78,167.12,0.520787,96.88,1
2396552,1,10094,0,46720,47574,46679.30,47389.25,40.70,184.75,0.520652,96.88,1
2396592,1,10134,0,46723,47569,46679.39,47389.61,43.61,179.39,0.520516,96.89,1
2396632,1,10174,0,46716,47580,46679.46,47389.99,36.54,190.01,0.520379,96.89,1
2396672,1,10214,0,46725,47615,46679.56,47390.44,45.44,224.56,0.520241,96.89,1
2396712,1,10254,0,46750,47676,46679.70,47391.02,70.30,284.98,0.520101,96.90,1
2396752,1,10294,0,46777,47733,46679.89,47391.70,97.11,341.30,0.519958,96.90,1
2396792,1,10334,0,46804,47784,46680.14,47392.48,123.86,391.52,0.519812,96.90,1
2396832,1,10374,0,46827,47832,46680.44,47393.36,146.56,438.64,0.519662,96.91,1
2396872,1,10414,0,46849,47866,46680.78,47394.31,168.22,471.69,0.519508,96.91,1
2396912,1,10454,0,46866,47889,46681.15,47395.30,184.85,493.70,0.519352,96.91,1
2396952,1,10494,0,46871,47919,46681.53,47396.35,189.47,522.65,0.519192,96.92,1
2396992,1,10534,0,46884,47949,46681.94,47397.45,202.06,551.55,0.519027,96.92,1
2397032,1,10574,0,46903,47965,46682.38,47398.59,220.62,566.41,0.518859,96.92,1
2397072,1,10614,0,46878,47796,46682.77,47399.39,195.23,396.61,0.518693,96.93,1
2397112,1,10654,0,46753,47484,46682.91,47399.56,70.09,84.44,0.518528,96.93,1
2397152,1,10694,0,46635,47317,46682.82,47399.39,-47.82,-82.39,0.518363,96.93,1
2397193,1,10735,0,46603,47312,46682.66,47399.22,-79.66,-87.22,0.518201,96.94,1
2397233,1,10775,0,46619,47353,46682.53,47399.13,-63.53,-46.13,0.518039,96.94,1
2397273,1,10815,0,46630,47391,46682.43,47399.12,-52.43,-8.12,0.517878,96.94,1
2397313,1,10855,0,46654,47451,46682.37,47399.22,-28.37,51.78,0.517718,96.95,1
2397353,1,10895,0,46678,47506,46682.36,47399.44,-4.36,106.56,0.517558,96.95,1
2397393,1,10935,0,46699,47526,46682.40,47399.69,16.60,126.31,0.517398,96.95,1
2397433,1,10975,0,46705,47533,46682.45,47399.96,22.55,133.04,0.517238,96.96,1
2397473,1,11015,0,46714,47558,46682.51,47400.28,31.49,157.72,0.517077,96.96,1
2397513,1,11055,0,46734,47599,46682.61,47400.68,51.39,198.32,0.516915,96.96,1
2397553,1,11095,0,46757,47658,46682.76,47401.19,74.24,256.81,0.516752,96.97,1
2397593,1,11135,0,46785,47716,46682.97,47401.82,102.03,314.18,0.516587,96.97,1
2397633,1,11175,0,46806,47765,46683.21,47402.55,122.79,362.45,0.516420,96.97,1
2397673,1,11215,0,46829,47804,46683.51,47403.35,145.49,400.65,0.516251,96.98,1
2397713,1,11255,0,46844,47831,46683.83,47404.21,160.17,426.79,0.516080,96.98,1
2397753,1,11295,0,46855,47866,46684.17,47405.13,170.83,460.87,0.515906,96.98,1
2397793,1,11335,0,46869,47901,46684.54,47406.12,184.46,494.87,0.515729,96.99,1
2397833,1,11375,0,46887,47936,46684.95,47407.19,202.05,528.81,0.515549,96.99,1
2397874,1,11416,0,46897,47950,46685.37,47408.27,211.62,541.73,0.515367,97.00,1
2397914,1,11456,0,46872,47782,46685.75,47409.02,186.25,372.98,0.515186,97.00,1
2397954,1,11496,0,46750,47474,46685.88,47409.16,64.12,64.84,0.515007,97.00,1
2397994,1,11536,0,46633,47321,46685.77,47408.98,-52.77,-87.98,0.514829,97.01,1
2398034,1,11576,0,46611,47326,46685.62,47408.82,-74.62,-82.82,0.514652,97.01,1
2398074,1,11616,0,46634,47382,46685.52,47408.77,-51.52,-26.77,0.514476,97.01,1
2398114,1,11656,0,46652,47432,46685.46,47408.81,-33.46,23.19,0.514301,97.02,1
2398154,1,11696,0,46683,47498,46685.45,47408.99,-2.45,89.01,0.514126,97.02,1
2398194,1,11736,0,46715,47543,46685.51,47409.26,29.49,133.74,0.513952,97.03,1
2398234,1,11776,0,46731,47543,46685.61,47409.53,45.39,133.47,0.513777,97.03,1
2398274,1,11816,0,46722,47543,46685.68,47409.80,36.32,133.20,0.513602,97.03,1
2398314,1,11856,0,46722,47591,46685.75,47410.16,36.25,180.84,0.513426,97.04,1
2398354,1,11896,0,46748,47740,46685.88,47410.82,62.12,329.18,0.513247,97.04,1
2398394,1,11936,0,46769,47663,46686.05,47411.33,82.95,251.67,0.513067,97.05,1
2398434,1,11976,0,46795,47712,46686.27,47411.93,108.73,300.07,0.512886,97.05,1
2398474,1,12016,0,46807,47747,46686.51,47412.60,120.49,334.40,0.512703,97.05,1
2398514,1,12056,0,46820,48260,46686.78,47414.30,133.22,845.70,0.512491,97.06,1
2398555,1,12097,0,46836,47806,46687.08,47415.08,148.92,390.92,0.512278,97.06,1
2398595,1,12137,0,46845,47846,46687.39,47415.95,157.61,430.05,0.512064,97.07,1
2398635,1,12177,0,46858,47880,46687.74,47416.87,170.26,463.12,0.511847,97.07,1
2398675,1,12217,0,46877,47912,46688.12,47417.87,188.88,494.13,0.511629,97.07,1
2398715,1,12257,0,46869,47328,46688.48,47417.69,180.52,-89.69,0.511418,97.08,1
2398755,1,12297,0,46766,46936,46688.64,47416.73,77.36,-480.73,0.511200,97.08,1
2398795,1,12337,0,46649,47330,46688.56,47416.55,-39.56,-86.55,0.510982,97.09,1
2398835,1,12377,0,46620,47332,46688.42,47416.39,-68.42,-84.39,0.510765,97.09,1
2398875,1,12417,0,46644,47392,46688.34,47416.34,-44.34,-24.34,0.510549,97.10,1
2398915,1,12457,0,46674,47448,46688.31,47416.41,-14.31,31.59,0.510335,97.10,1
2398955,1,12497,0,46704,47516,46688.34,47416.61,15.66,99.39,0.510120,97.10,1
2398995,1,12537,0,46722,47549,46688.41,47416.87,33.59,132.13,0.509906,97.11,1
2399035,1,12577,0,46785,47542,46688.61,47417.12,96.39,124.88,0.509693,97.11,1
2399075,1,12617,0,46895,47526,46689.02,47417.34,205.98,108.66,0.509492,97.12,1
2399115,1,12657,0,46720,47549,46689.08,47417.61,30.92,131.39,0.509291,97.12,1
2399155,1,12697,0,46735,47594,46689.18,47417.96,45.82,176.04,0.509090,97.13,1
2399195,1,12737,0,46756,47643,46689.31,47418.41,66.69,224.59,0.508887,97.13,1
2399236,1,12778,0,47260,47686,46690.46,47418.95,569.54,267.05,0.508766,97.14,1
2399276,1,12818,0,46776,47720,46690.63,47419.55,85.37,300.45,0.508642,97.14,1
2399316,1,12858,0,46803,47752,46690.86,47420.22,112.14,331.78,0.508516,97.14,1
2399356,1,12898,0,46819,47788,46691.11,47420.96,127.89,367.04,0.508388,97.15,1
2399396,1,12938,0,46840,47824,46691.41,47421.77,148.59,402.23,0.508256,97.15,1
2399436,1,12978,0,46410,47852,46690.85,47422.63,-280.85,429.37,0.508135,97.16,1
2399476,1,13018,0,46199,47739,46689.87,47423.26,-490.87,315.74,0.508069,97.16,1
2399516,1,13058,0,46742,47438,46689.97,47423.29,52.03,14.71,0.508004,97.17,1
2399556,1,13098,0,46626,47257,46689.85,47422.96,-63.85,-165.96,0.507938,97.17,1
2399596,1,13138,0,46584,47255,46689.64,47422.62,-105.64,-167.62,0.507874,97.17,1
2399636,1,13178,0,46603,47312,46689.46,47422.41,-86.46,-110.41,0.507811,97.18,1
2399676,1,13218,0,46631,47362,46689.35,47422.29,-58.35,-60.29,0.507749,97.18,1
2399716,1,13258,0,46656,47424,46689.28,47422.29,-33.28,1.71,0.507688,97.19,1
2399756,1,13298,0,46683,47470,46689.27,47422.39,-6.27,47.61,0.507626,97.19,1
2399796,1,13338,0,46691,47471,46689.27,47422.48,1.73,48.52,0.507565,97.19,1
2399836,1,13378,0,46685,47467,46689.27,47422.57,-4.27,44.43,0.507503,97.20,1
2399876,1,13418,0,46686,47481,46689.26,47422.69,-3.26,58.31,0.507442,97.20,1
2399917,1,13459,0,46697,47522,46689.28,47422.89,7.72,99.11,0.507380,97.20,1
2399957,1,13499,0,46722,47577,46689.34,47423.20,32.66,153.80,0.507317,97.21,1
2399997,1,13539,0,46744,47636,46689.45,47423.62,54.55,212.37,0.507253,97.21,1
2400037,1,13579,0,46768,47680,46689.61,47424.14,78.39,255.86,0.507186,97.21,1
2400077,1,13619,0,46788,47716,46689.81,47424.73,98.19,291.27,0.507116,97.22,1
2400117,1,13659,0,46799,47748,46690.03,47425.37,108.97,322.62,0.507044,97.22,1
2400157,1,13699,0,46815,47793,46690.28,47426.11,124.72,366.89,0.506968,97.22,1
2400197,1,13739,0,46832,47828,46690.57,47426.92,141.43,401.08,0.506888,97.23,1
2400237,1,13779,0,46846,47759,46690.88,47427.58,155.12,331.42,0.506807,97.23,1
2400277,1,13819,0,46759,47471,46691.02,47427.67,67.98,43.33,0.506728,97.23,1
2400317,1,13859,0,46617,47224,46690.87,47427.27,-73.87,-203.27,0.506649,97.24,1
2400357,1,13899,0,46546,47168,46690.58,47426.75,-144.58,-258.75,0.506571,97.24,1
2400397,1,13939,0,46553,47205,46690.30,47426.31,-137.30,-221.31,0.506495,97.24,1
2400437,1,13979,0,46575,47249,46690.07,47425.96,-115.07,-176.96,0.506422,97.24,1
2400477,1,14019,0,46593,47301,46689.88,47425.71,-96.88,-124.71,0.506351,97.25,1
2400517,1,14059,0,46622,47365,46689.75,47425.59,-67.75,-60.59,0.506280,97.25,1
2400557,1,14099,0,46642,47394,46689.66,47425.52,-47.66,-31.52,0.506211,97.25,1
2400598,1,14140,0,46645,47390,46689.57,47425.45,-44.57,-35.45,0.506143,97.26,1
2400638,1,14180,0,46643,47400,46689.47,47425.40,-46.47,-25.40,0.506075,97.26,1
2400678,1,14220,0,46649,47443,46689.39,47425.44,-40.39,17.56,0.506008,97.26,1
2400718,1,14260,0,46675,47499,46689.37,47425.59,-14.37,73.41,0.505940,97.26,1
2400758,1,14300,0,46704,47562,46689.40,47425.86,14.60,136.14,0.505872,97.27,1
2400798,1,14340,0,46732,47611,46689.48,47426.23,42.52,184.77,0.505802,97.27,1
2400838,1,14380,0,46751,47654,46689.61,47426.69,61.39,227.31,0.505730,97.27,1
2400878,1,14420,0,46764,47685,46689.76,47427.21,74.24,257.79,0.505655,97.27,1
2400918,1,14460,0,46782,47714,46689.95,47427.78,92.05,286.22,0.505578,97.28,1
2400958,1,14500,0,46799,47745,46690.16,47428.42,108.84,316.58,0.505497,97.28,1
2400998,1,14540,0,46813,47767,46690.41,47429.10,122.59,337.90,0.505413,97.28,1
2401038,1,14580,0,46791,47609,46690.61,47429.46,100.39,179.54,0.505330,97.28,1
2401078,1,14620,0,46670,47293,46690.57,47429.18,-20.57,-136.18,0.505247,97.29,1
2401118,1,14660,0,46551,47119,46690.30,47428.57,-139.30,-309.57,0.505163,97.29,1
2401158,1,14700,0,46516,47123,46689.95,47427.96,-173.95,-304.96,0.505083,97.29,1
2401198,1,14740,0,46525,47171,46689.62,47427.45,-164.62,-256.45,0.505006,97.29,1
2401238,1,14780,0,46550,47212,46689.34,47427.02,-139.34,-215.02,0.504933,97.30,1
2401279,1,14821,0,46572,47279,46689.11,47426.72,-117.11,-147.72,0.504863,97.30,1
2401319,1,14861,0,46604,47336,46688.94,47426.54,-84.94,-90.54,0.504795,97.30,1
2401359,1,14901,0,46616,47348,46688.80,47426.39,-72.80,-78.39,0.504729,97.30,1
2401399,1,14941,0,46610,47353,46688.64,47426.24,-78.64,-73.24,0.504664,97.31,1
2401439,1,14981,0,46620,47381,46688.50,47426.15,-68.50,-45.15,0.504601,97.31,1
2401479,1,15021,0,46643,47437,46688.41,47426.18,-45.41,10.82,0.504539,97.31,1
2401519,1,15061,0,46669,47504,46688.37,47426.33,-19.37,77.67,0.504476,97.31,1
2401559,1,15101,0,46699,47670,46688.40,47426.82,10.60,243.18,0.504410,97.32,1
2401599,1,15141,0,46727,47620,46688.48,47427.21,38.52,192.79,0.504341,97.32,1
2401639,1,15181,0,46753,47656,46688.61,47427.66,64.39,228.34,0.504270,97.32,1
2401679,1,15221,0,46768,47688,46688.77,47428.19,79.23,259.81,0.504196,97.32,1
2401719,1,15261,0,46783,48162,46688.96,47429.66,94.04,732.34,0.504084,97.33,1
2401759,1,15301,0,46799,48281,46689.18,47431.36,109.82,849.64,0.503927,97.33,1
2401799,1,15341,0,46819,47794,46689.44,47432.09,129.56,361.91,0.503767,97.33,1
2401839,1,15381,0,46805,47641,46689.67,47432.50,115.33,208.50,0.503610,97.33,1
2401879,1,15421,0,46682,47327,46689.66,47432.29,-7.66,-105.29,0.503452,97.33,1
2401919,1,15461,0,46556,46840,46689.39,47431.11,-133.39,-591.11,0.503278,97.34,1
2401959,1,15501,0,46531,46747,46689.07,47429.74,-158.07,-682.74,0.503083,97.34,1
2402000,1,15542,0,46554,47238,46688.80,47429.36,-134.80,-191.36,0.502892,97.34,1
2402040,1,15582,0,46577,47297,46688.58,47429.10,-111.58,-132.10,0.502706,97.35,1
2402080,1,15622,0,46605,47591,46688.42,47429.42,-83.42,161.58,0.502520,97.35,1
2402120,1,15662,0,46631,47629,46688.30,47429.82,-57.30,199.18,0.502334,97.35,1
2402160,1,15702,0,46640,47630,46688.21,47430.22,-48.21,199.78,0.502146,97.35,1
2402200,1,15742,0,46640,47625,46688.12,47430.61,-48.12,194.39,0.501957,97.36,1
2402240,1,15782,0,46641,47662,46688.02,47431.08,-47.02,230.92,0.501766,97.36,1
2402280,1,15822,0,46668,47720,46687.98,47431.66,-19.98,288.34,0.501571,97.36,1
2402320,1,15862,0,46694,47774,46688.00,47432.34,6.00,341.66,0.501369,97.37,1
2402360,1,15902,0,46721,47819,46688.06,47433.12,32.94,385.88,0.501158,97.37,1
2402400,1,15942,0,46741,47855,46688.17,47433.96,52.83,421.04,0.500938,97.37,1
2402440,1,15982,0,47068,47890,46688.93,47434.87,379.07,455.12,0.500755,97.38,1
2402480,1,16022,0,47213,47925,46689.98,47435.86,523.02,489.14,0.500646,97.38,1
2402520,1,16062,0,46788,47960,46690.18,47436.91,97.82,523.09,0.500523,97.38,1
2402560,1,16102,0,46802,47977,46690.40,47437.99,111.60,539.01,0.500385,97.39,1
2402600,1,16142,0,46780,47809,46690.58,47438.73,89.42,370.27,0.500242,97.39,1
2402640,1,16182,0,46425,47509,46690.05,47438.87,-265.05,70.13,0.500121,97.39,1
2402680,1,16222,0,46127,47371,46688.93,47438.74,-561.93,-67.74,0.500096,97.39,1
2402721,1,16263,0,46521,47393,46688.59,47438.65,-167.59,-45.65,0.500078,97.40,1
2402761,1,16303,0,46548,47466,46688.31,47438.70,-140.31,27.30,0.500066,97.40,1
2402801,1,16343,0,46575,47544,46688.08,47438.91,-113.08,105.09,0.500058,97.40,1
2402841,1,16383,0,46609,47615,46687.93,47439.27,-78.93,175.73,0.500049,97.41,1
2402881,1,16423,0,46641,47640,46687.83,47439.67,-46.83,200.33,0.500038,97.41,1
2402921,1,16463,0,46638,47624,46687.73,47440.04,-49.73,183.96,0.500025,97.41,1
2402961,1,16503,0,46629,47627,46687.62,47440.41,-58.62,186.59,0.500011,97.41,1
2403001,1,16543,0,46640,47658,46687.52,47440.85,-47.52,217.15,0.499994,97.42,1
2403041,1,16583,0,46660,47711,46687.47,47441.39,-27.47,269.61,0.499972,97.42,1
2403081,1,16623,0,46691,47763,46687.48,47442.04,3.52,320.96,0.499942,97.42,1
2403121,1,16663,0,46713,47805,46687.53,47442.77,25.47,362.23,0.499904,97.42,1
2403161,1,16703,0,46730,47841,46687.61,47443.56,42.39,397.44,0.499854,97.43,1
2403201,1,16743,0,46741,47872,46687.72,47444.42,53.28,427.58,0.499793,97.43,1
2403241,1,16783,0,46758,47903,46687.86,47445.34,70.14,457.66,0.499719,97.43,1
2403281,1,16823,0,46775,47935,46688.04,47446.32,86.96,488.68,0.499632,97.43,1
2403321,1,16863,0,46770,47839,46688.20,47447.11,81.80,391.89,0.499537,97.44,1
2403361,1,16903,0,46666,47535,46688.16,47447.28,-22.16,87.72,0.499441,97.44,1
2403401,1,16943,0,46530,47319,46687.84,47447.03,-157.84,-128.03,0.499353,97.44,1
2403442,1,16984,0,46476,47302,46687.42,47446.74,-211.42,-144.74,0.499277,97.44,1
2403482,1,17024,0,46487,47359,46687.02,47446.56,-200.02,-87.56,0.499214,97.45,1
2403522,1,17064,0,46519,47419,46686.69,47446.51,-167.69,-27.51,0.499161,97.45,1
2403562,1,17104,0,46543,47488,46686.40,47446.59,-143.40,41.41,0.499113,97.45,1
2403602,1,17144,0,46575,47538,46686.18,47446.78,-111.18,91.22,0.499070,97.45,1
2403642,1,17184,0,46595,47554,46686.00,47446.99,-91.00,107.01,0.499028,97.45,1
2403682,1,17224,0,46591,47552,46685.81,47447.20,-94.81,104.80,0.498989,97.46,1
2403722,1,17264,0,46593,47579,46685.63,47447.47,-92.63,131.53,0.498951,97.46,1
2403762,1,17304,0,46615,47628,46685.49,47447.83,-70.49,180.17,0.498913,97.46,1
2403802,1,17344,0,46643,47696,46685.41,47448.33,-42.41,247.67,0.498870,97.46,1
2403842,1,17384,0,46678,47748,46685.39,47448.93,-7.39,299.07,0.498821,97.46,1
2403882,1,17424,0,46696,47798,46685.42,47449.63,10.58,348.37,0.498763,97.47,1
2403922,1,17464,0,46714,47831,46685.48,47450.39,28.52,380.61,0.498695,97.47,1
2403962,1,17504,0,46728,47857,46685.56,47451.21,42.44,405.79,0.498615,97.47,1
2404002,1,17544,0,46741,47898,46685.68,47452.10,55.32,445.90,0.498522,97.47,1
2404042,1,17584,0,46755,47925,46685.82,47453.05,69.18,471.95,0.498416,97.47,1
2404082,1,17624,0,46742,47768,46685.93,47453.68,56.07,314.32,0.498304,97.48,1
2404123,1,17665,0,46611,47443,46685.78,47453.66,-74.78,-10.66,0.498194,97.48,1
2404163,1,17705,0,46481,47262,46685.37,47453.28,-204.37,-191.28,0.498096,97.48,1
2404203,1,17745,0,46439,47266,46684.88,47452.90,-245.88,-186.90,0.498016,97.48,1
2404243,1,17785,0,46459,47316,46684.43,47452.63,-225.43,-136.63,0.497953,97.49,1
2404283,1,17825,0,46481,47362,46684.02,47452.45,-203.02,-90.45,0.497903,97.49,1
2404323,1,17865,0,46506,47434,46683.67,47452.41,-177.67,-18.41,0.497864,97.49,1
2404363,1,17905,0,46536,47495,46683.37,47452.50,-147.37,42.50,0.497832,97.49,1
2404403,1,17945,0,46559,47508,46683.13,47452.61,-124.13,55.39,0.497806,97.49,1
2404443,1,17985,0,46566,47505,46682.89,47452.72,-116.89,52.28,0.497784,97.49,1
2404483,1,18025,0,46565,47526,46682.66,47452.87,-117.66,73.13,0.497766,97.50,1
2404523,1,18065,0,46586,47580,46682.47,47453.12,-96.47,126.88,0.497751,97.50,1
2404563,1,18105,0,46608,47641,46682.32,47453.50,-74.32,187.50,0.497734,97.50,1
2404603,1,18145,0,46642,47698,46682.24,47453.99,-40.24,244.01,0.497714,97.50,1
2404643,1,18185,0,46659,47742,46682.20,47454.57,-23.20,287.43,0.497686,97.50,1
2404683,1,18225,0,46675,47771,46682.18,47455.20,-7.18,315.80,0.497651,97.51,1
2404723,1,18265,0,46687,47805,46682.20,47455.90,4.80,349.10,0.497606,97.51,1
2404764,1,18306,0,46700,47839,46682.23,47456.66,17.77,382.34,0.497549,97.51,1
2404804,1,18346,0,46716,47910,46682.30,47457.57,33.70,452.43,0.497477,97.51,1
2404844,1,18386,0,46728,47840,46682.39,47458.34,45.61,381.66,0.497395,97.51,1
2404884,1,18426,0,46647,47558,46682.32,47458.54,-35.32,99.46,0.497312,97.51,1
2404924,1,18466,0,46499,47298,46681.96,47458.21,-182.96,-160.21,0.497240,97.52,1
2404964,1,18506,0,46432,47550,46681.46,47458.40,-249.46,91.60,0.497190,97.52,1
2405004,1,18546,0,46433,47679,46680.96,47458.84,-247.96,220.16,0.497158,97.52,1
2405044,1,18586,0,46463,47364,46680.53,47458.65,-217.53,-94.65,0.497143,97.52,1
2405084,1,18626,0,46495,47430,46680.16,47458.60,-185.16,-28.60,0.497140,97.52,1
2405124,1,18666,0,46536,47501,46679.87,47458.68,-143.87,42.32,0.497144,97.52,1
2405164,1,18706,0,46563,47229,46679.64,47458.23,-116.64,-229.23,0.497149,97.52,1
2405204,1,18746,0,46563,47068,46679.41,47457.45,-116.41,-389.45,0.497145,97.53,1
2405244,1,18786,0,46562,47531,46679.17,47457.60,-117.17,73.40,0.497146,97.53,1
2405284,1,18826,0,46573,47574,46678.96,47457.83,-105.96,116.17,0.497150,97.53,1
2405324,1,18866,0,46599,47640,46678.80,47458.20,-79.80,181.80,0.497153,97.53,1
2405364,1,18906,0,46625,47699,46678.70,47458.68,-53.70,240.32,0.497152,97.53,1
2405404,1,18946,0,46654,47743,46678.65,47459.25,-24.65,283.75,0.497144,97.53,1
2405444,1,18986,0,46669,47781,46678.63,47459.90,-9.63,321.10,0.497128,97.53,1
2405485,1,19027,0,46682,47809,46678.64,47460.60,3.36,348.40,0.497101,97.53,1
2405525,1,19067,0,46749,47849,46678.78,47461.37,70.22,387.62,0.497063,97.54,1
2405565,1,19107,0,46710,47882,46678.84,47462.22,31.16,419.78,0.497010,97.54,1
2405605,1,19147,0,46724,47921,46678.93,47463.14,45.07,457.86,0.496942,97.54,1
2405645,1,19187,0,46722,47800,46679.02,47463.81,42.98,336.19,0.496865,97.54,1
2405685,1,19227,0,47042,47499,46679.74,47463.88,362.26,35.12,0.496837,97.54,1
2405725,1,19267,0,47028,47322,46680.44,47463.60,347.56,-141.60,0.496850,97.54,1
2405765,1,19307,0,46451,47325,46679.98,47463.32,-228.98,-138.32,0.496881,97.54,1
2405805,1,19347,0,46479,47395,46679.58,47463.19,-200.58,-68.19,0.496926,97.54,1
2405845,1,19387,0,46513,47455,46679.25,47463.17,-166.25,-8.17,0.496981,97.54,1
2405885,1,19427,0,46191,47531,46678.27,47463.31,-487.27,67.69,0.497118,97.55,1
2405925,1,19467,0,46082,47567,46677.08,47463.52,-595.08,103.48,0.497372,97.55,1
2405965,1,19507,0,46573,47559,46676.87,47463.71,-103.87,95.29,0.497628,97.55,1
2406005,1,19547,0,46567,47551,46676.66,47463.88,-109.66,87.12,0.497886,97.55,1
2406045,1,19587,0,46575,47581,46676.45,47464.12,-101.45,116.88,0.498145,97.55,1
2406085,1,19627,0,46587,47628,46676.28,47464.45,-89.28,163.55,0.498403,97.55,1
2406125,1,19667,0,46616,47691,46676.16,47464.90,-60.16,226.10,0.498656,97.55,1
2406166,1,19708,0,46638,47737,46676.08,47465.45,-38.08,271.55,0.498901,97.55,1
2406206,1,19748,0,46661,47780,46676.05,47466.07,-15.05,313.93,0.499134,97.54,1
2406246,1,19788,0,46680,47825,46676.06,47466.79,3.94,358.21,0.499353,97.54,1
2406286,1,19828,0,46692,47859,46676.09,47467.58,15.91,391.42,0.499555,97.54,1
2406326,1,19868,0,46708,47897,46676.16,47468.44,31.84,428.56,0.499738,97.54,1
2406366,1,19908,0,46728,47924,46676.27,47469.35,51.73,454.65,0.499900,97.54,1
2406406,1,19948,0,46703,47748,46676.32,47469.91,26.68,278.09,0.500054,97.54,1
2406446,1,19988,0,46577,47449,46676.12,47469.87,-99.12,-20.87,0.500211,97.54,1
2406486,1,20028,0,46472,47320,46675.71,47469.57,-203.71,-149.57,0.500379,97.54,1
2406526,1,20068,0,46460,47353,46675.29,47469.34,-215.29,-116.34,0.500561,97.54,1
2406566,1,20108,0,46490,47426,46674.91,47469.26,-184.91,-43.26,0.500755,97.53,1
2406606,1,20148,0,46518,47497,46674.60,47469.32,-156.60,27.68,0.500956,97.53,1
2406646,1,20188,0,46557,47559,46674.37,47469.50,-117.37,89.50,0.501160,97.53,1
2406686,1,20228,0,46575,47574,46674.17,47469.71,-99.17,104.29,0.501366,97.53,1
2406726,1,20268,0,46566,47551,46673.95,47469.87,-107.95,81.13,0.501575,97.53,1
2406766,1,20308,0,46557,47547,46673.72,47470.03,-116.72,76.97,0.501787,97.52,1
2406806,1,20348,0,46564,47582,46673.50,47470.25,-109.50,111.75,0.502002,97.52,1
2406847,1,20389,0,46585,47630,46673.32,47470.57,-88.32,159.43,0.502216,97.52,1
2406887,1,20429,0,46606,47684,46673.19,47471.00,-67.19,213.00,0.502426,97.52,1
2406927,1,20469,0,46630,47733,46673.11,47471.53,-43.11,261.47,0.502627,97.51,1
2406967,1,20509,0,46649,47778,46673.06,47472.14,-24.06,305.86,0.502818,97.51,1
2407007,1,20549,0,46667,47822,46673.05,47472.84,-6.05,349.16,0.502995,97.51,1
2407047,1,20589,0,46686,47863,46673.07,47473.62,12.93,389.38,0.503155,97.51,1
2407087,1,20629,0,46706,47911,46673.14,47474.50,32.86,436.50,0.503294,97.50,1
2407127,1,20669,0,46713,47826,46673.22,47475.20,39.78,350.80,0.503420,97.50,1
2407167,1,20709,0,46615,47523,46673.11,47475.30,-58.11,47.70,0.503546,97.50,1
2407207,1,20749,0,46483,47298,46672.73,47474.95,-189.73,-176.95,0.503683,97.50,1
2407247,1,20789,0,46429,47274,46672.24,47474.54,-243.24,-200.54,0.503836,97.49,1
2407287,1,20829,0,46442,47330,46671.78,47474.25,-229.78,-144.25,0.504006,97.49,1
2407327,1,20869,0,46468,47384,46671.37,47474.07,-203.37,-90.07,0.504190,97.49,1
2407367,1,20909,0,46493,47447,46671.02,47474.02,-178.02,-27.02,0.504384,97.48,1
2407407,1,20949,0,46526,47505,46670.73,47474.08,-144.73,30.92,0.504586,97.48,1
2407447,1,20989,0,46542,47513,46670.47,47474.16,-128.47,38.84,0.504793,97.48,1
2407487,1,21029,0,46535,47507,46670.20,47474.23,-135.20,32.77,0.505006,97.48,1
2407527,1,21069,0,46539,47527,46669.94,47474.33,-130.94,52.67,0.505224,97.47,1
2407568,1,21110,0,46550,47564,46669.70,47474.51,-119.70,89.49,0.505446,97.47,1
2407608,1,21150,0,46575,47624,46669.52,47474.81,-94.52,149.19,0.505668,97.47,1
2407648,1,21190,0,46601,47685,46669.38,47475.23,-68.38,209.77,0.505886,97.46,1
2407688,1,21230,0,46620,47736,46669.28,47475.76,-49.28,260.24,0.506096,97.46,1
2407728,1,21270,0,46646,47775,46669.23,47476.36,-23.23,298.64,0.506295,97.46,1
2407768,1,21310,0,46662,47806,46669.22,47477.02,-7.22,328.98,0.506480,97.45,1
2407808,1,21350,0,46678,47848,46669.24,47477.76,8.76,370.24,0.506648,97.45,1
2407848,1,21390,0,46694,47890,46669.29,47478.59,24.71,411.41,0.506795,97.44,1
2407888,1,21430,0,46703,47829,46669.36,47479.29,33.64,349.71,0.506929,97.44,1
2407928,1,21470,0,46621,47533,46669.27,47479.40,-48.27,53.60,0.507064,97.44,1
2407968,1,21510,0,46472,47277,46668.87,47479.00,-196.87,-202.00,0.507208,97.43,1
2408008,1,21550,0,46409,47223,46668.36,47478.48,-259.36,-255.48,0.507370,97.43,1
2408048,1,21590,0,46413,47271,46667.85,47478.07,-254.85,-207.07,0.507551,97.43,1
2408088,1,21630,0,46436,47321,46667.39,47477.76,-231.39,-156.76,0.507750,97.42,1
2408128,1,21670,0,46458,47375,46666.97,47477.55,-208.97,-102.55,0.507963,97.42,1
2408168,1,21710,0,46490,47517,46666.62,47477.64,-176.62,39.36,0.508188,97.42,1
2408208,1,21750,0,46509,47622,46666.30,47477.93,-157.30,144.07,0.508418,97.41,1
2408248,1,21790,0,46509,47457,46665.99,47477.89,-156.99,-20.89,0.508658,97.41,1
2408288,1,21830,0,46510,47463,46665.68,47477.86,-155.68,-14.86,0.508906,97.40,1
2408329,1,21871,0,46518,47504,46665.39,47477.91,-147.39,26.09,0.509161,97.40,1
2408369,1,21911,0,46542,47796,46665.14,47478.55,-123.14,317.45,0.509409,97.40,1
2408409,1,21951,0,46570,47354,46664.95,47478.30,-94.95,-124.30,0.509657,97.39,1
2408449,1,21991,0,46595,47454,46664.81,47478.26,-69.81,-24.26,0.509906,97.39,1
2408489,1,22031,0,46615,47498,46664.71,47478.30,-49.71,19.70,0.510156,97.38,1
2408529,1,22071,0,46633,47524,46664.65,47478.39,-31.65,45.61,0.510405,97.38,1
2408569,1,22111,0,46648,47159,46664.62,47477.75,-16.62,-318.75,0.510639,97.38,1
2408609,1,22151,0,46667,47075,46664.63,47476.95,2.37,-401.95,0.510851,97.37,1
2408649,1,22191,0,46686,47658,46664.67,47477.31,21.33,180.69,0.511059,97.37,1
2408689,1,22231,0,46697,47560,46664.74,47477.48,32.26,82.52,0.511265,97.36,1
2408729,1,22271,0,46593,47245,46664.60,47477.02,-71.60,-232.02,0.511466,97.36,1
2408769,1,22311,0,46458,47028,46664.19,47476.12,-206.19,-448.12,0.511657,97.35,1
2408809,1,22351,0,46407,47017,46663.68,47475.20,-256.68,-458.20,0.511846,97.35,1
2408849,1,22391,0,46420,47073,46663.19,47474.39,-243.19,-401.39,0.512039,97.34,1
2408889,1,22431,0,46453,47130,46662.77,47473.71,-209.77,-343.71,0.512233,97.34,1
2408929,1,22471,0,46563,47198,46662.57,47473.16,-99.57,-275.16,0.512421,97.34,1
2408969,1,22511,0,46512,47249,46662.27,47472.71,-150.27,-223.71,0.512611,97.33,1
2409009,1,22551,0,46521,47256,46661.99,47472.28,-140.99,-216.28,0.512802,97.33,1
2409049,1,22591,0,46517,47246,46661.70,47471.82,-144.70,-225.82,0.512995,97.32,1
2409090,1,22632,0,46917,47266,46662.21,47471.41,254.79,-205.41,0.513206,97.32,1
2409130,1,22672,0,47032,47311,46662.96,47471.09,369.04,-160.09,0.513466,97.31,1
2409170,1,22712,0,46554,47369,46662.74,47470.89,-108.74,-101.89,0.513729,97.31,1
2409210,1,22752,0,46580,47426,46662.58,47470.80,-82.58,-44.80,0.513993,97.30,1
2409250,1,22792,0,46604,47467,46662.46,47470.79,-58.46,-3.79,0.514257,97.30,1
2409290,1,22832,0,46344,47498,46661.82,47470.85,-317.82,27.15,0.514560,97.29,1
2409330,1,22872,0,46227,47526,46660.96,47470.96,-433.96,55.04,0.514933,97.29,1
2409370,1,22912,0,46644,47569,46660.93,47471.16,-16.93,97.84,0.515303,97.28,1
2409410,1,22952,0,46666,47611,46660.94,47471.44,5.06,139.56,0.515670,97.28,1
2409450,1,22992,0,46688,47632,46660.99,47471.77,27.01,160.23,0.516032,97.27,1
2409490,1,23032,0,46674,47471,46661.02,47471.77,12.98,-0.77,0.516392,97.27,1
2409530,1,23072,0,46553,47166,46660.80,47471.16,-107.80,-305.16,0.516742,97.26,1
2409570,1,23112,0,46440,47030,46660.36,47470.27,-220.36,-440.27,0.517081,97.26,1
2409610,1,23152,0,46422,47056,46659.89,47469.45,-237.89,-413.45,0.517416,97.25,1
2409650,1,23192,0,46452,47121,46659.47,47468.75,-207.47,-347.75,0.517748,97.24,1
2409690,1,23232,0,46477,47192,46659.11,47468.20,-182.11,-276.20,0.518081,97.24,1
2409730,1,23272,0,46512,47273,46658.82,47467.81,-146.82,-194.81,0.518416,97.23,1
2409770,1,23312,0,46540,47299,46658.58,47467.47,-118.58,-168.47,0.518751,97.23,1
2409810,1,23352,0,46539,47283,46658.34,47467.11,-119.34,-184.11,0.519085,97.22,1
2409851,1,23393,0,46532,47279,46658.09,47466.73,-126.09,-187.73,0.519419,97.21,1
2409891,1,23433,0,46537,47309,46657.85,47466.42,-120.85,-157.42,0.519754,97.21,1
2409931,1,23473,0,46556,47373,46657.64,47466.23,-101.64,-93.23,0.520091,97.20,1
2409971,1,23513,0,46580,47432,46657.49,47466.16,-77.49,-34.16,0.520429,97.20,1
2410011,1,23553,0,46613,47489,46657.41,47466.21,-44.41,22.79,0.520766,97.19,1
2410051,1,23593,0,46635,47525,46657.36,47466.33,-22.36,58.67,0.521102,97.18,1
2410091,1,23633,0,46648,47563,46657.35,47466.52,-9.35,96.48,0.521436,97.18,1
2410131,1,23673,0,46665,47604,46657.36,47466.80,7.64,137.20,0.521766,97.17,1
2410171,1,23713,0,46689,47645,46657.43,47467.16,31.57,177.84,0.522091,97.16,1
2410211,1,23753,0,46708,47636,46657.53,47467.50,50.47,168.50,0.522411,97.16,1
2410251,1,23793,0,46663,47411,46657.54,47467.39,5.46,-56.39,0.522729,97.15,1
2410291,1,23833,0,46524,47119,46657.28,47466.69,-133.28,-347.69,0.523035,97.14,1
2410331,1,23873,0,46426,47024,46656.82,47465.81,-230.82,-441.81,0.523332,97.14,1
2410371,1,23913,0,46423,47073,46656.35,47465.02,-233.35,-392.02,0.523627,97.13,1
2410411,1,23953,0,46456,47141,46655.95,47464.37,-199.95,-323.37,0.523922,97.12,1
2410451,1,23993,0,46486,47212,46655.61,47463.87,-169.61,-251.87,0.524217,97.12,1
2410491,1,24033,0,46515,47269,46655.33,47463.48,-140.33,-194.48,0.524514,97.11,1
2410531,1,24073,0,46529,47276,46655.08,47463.11,-126.08,-187.11,0.524811,97.10,1
2410572,1,24114,0,46521,47259,46654.82,47462.70,-133.82,-203.70,0.525108,97.09,1
2410612,1,24154,0,46520,47263,46654.55,47462.30,-134.55,-199.30,0.525406,97.09,1
2410652,1,24194,0,46526,47304,46654.29,47461.99,-128.29,-157.99,0.525705,97.08,1
2410692,1,24234,0,46544,47365,46654.07,47461.80,-110.07,-96.80,0.526007,97.07,1
2410732,1,24274,0,46576,47417,46653.91,47461.71,-77.91,-44.71,0.526310,97.07,1
2410772,1,24314,0,46604,47470,46653.82,47461.73,-49.82,8.27,0.526613,97.06,1
2410812,1,24354,0,46626,47515,46653.76,47461.84,-27.76,53.16,0.526916,97.05,1
2410852,1,24394,0,46643,47556,46653.74,47462.03,-10.74,93.97,0.527215,97.05,1
2410892,1,24434,0,46660,47601,46653.76,47462.30,6.24,138.70,0.527511,97.04,1
2410932,1,24474,0,46685,47631,46653.82,47462.64,31.18,168.36,0.527802,97.03,1
2410972,1,24514,0,46688,47523,46653.89,47462.77,34.11,60.23,0.528093,97.02,1
2411012,1,24554,0,46574,47207,46653.73,47462.25,-79.73,-255.25,0.528374,97.02,1
2411052,1,24594,0,46433,46992,46653.29,47461.32,-220.29,-469.32,0.528640,97.01,1
2411092,1,24634,0,46381,46968,46652.75,47460.33,-271.75,-492.33,0.528900,97.00,1
2411132,1,24674,0,46399,47021,46652.24,47459.45,-253.24,-438.45,0.529156,97.00,1
2411172,1,24714,0,46425,47079,46651.79,47458.70,-226.79,-379.70,0.529410,96.99,1
2411212,1,24754,0,46448,47146,46651.38,47458.07,-203.38,-312.07,0.529667,96.98,1
2411252,1,24794,0,46480,47202,46651.04,47457.56,-171.04,-255.56,0.529924,96.98,1
2411293,1,24835,0,46494,47204,46650.73,47457.05,-156.73,-253.05,0.530182,96.97,1
2411333,1,24875,0,46489,47198,46650.41,47456.54,-161.41,-258.54,0.530439,96.96,1
2411373,1,24915,0,46488,47220,46650.08,47456.06,-162.08,-236.06,0.530698,96.96,1
2411413,1,24955,0,46503,47273,46649.79,47455.70,-146.79,-182.70,0.530959,96.95,1
2411453,1,24995,0,46530,47342,46649.55,47455.47,-119.55,-113.47,0.531224,96.94,1
2411493,1,25035,0,46566,47406,46649.39,47455.37,-83.39,-49.38,0.531490,96.93,1
2411533,1,25075,0,46595,47459,46649.28,47455.38,-54.28,3.62,0.531757,96.93,1
2411573,1,25115,0,46615,47504,46649.21,47455.48,-34.21,48.52,0.532023,96.92,1
2411613,1,25155,0,46635,47660,46649.18,47455.89,-14.18,204.11,0.532281,96.91,1
2411653,1,25195,0,46656,47811,46649.20,47456.60,6.80,354.40,0.532521,96.91,1
2411693,1,25235,0,46673,47619,46649.25,47456.93,23.75,162.07,0.532755,96.90,1
2411733,1,25275,0,46687,47578,46649.32,47457.17,37.68,120.83,0.532988,96.89,1
2411773,1,25315,0,46609,47295,46649.25,47456.84,-40.25,-161.84,0.533217,96.89,1
2411813,1,25355,0,46462,47543,46648.87,47457.02,-186.87,85.98,0.533458,96.88,1
2411853,1,25395,0,46382,46870,46648.34,47455.84,-266.34,-585.84,0.533677,96.87,1
2411893,1,25435,0,46378,46983,46647.80,47454.90,-269.80,-471.90,0.533893,96.87,1
2411933,1,25475,0,46400,47030,46647.30,47454.05,-247.30,-424.05,0.534107,96.86,1
2411973,1,25515,0,46421,47088,46646.85,47453.32,-225.85,-365.32,0.534322,96.85,1
2412014,1,25556,0,46454,46693,46646.47,47451.80,-192.47,-758.80,0.534475,96.85,1
2412054,1,25596,0,46477,46541,46646.13,47449.98,-169.13,-908.98,0.534544,96.84,1
2412094,1,25636,0,46483,47194,46645.81,47449.47,-162.81,-255.47,0.534614,96.83,1
2412134,1,25676,0,46478,47205,46645.47,47448.98,-167.47,-243.98,0.534689,96.83,1
2412174,1,25716,0,46491,47245,46645.16,47448.57,-154.16,-203.57,0.534766,96.82,1
2412214,1,25756,0,46518,47309,46644.91,47448.30,-126.91,-139.30,0.534848,96.82,1
2412254,1,25796,0,46554,47379,46644.73,47448.16,-90.73,-69.16,0.534931,96.81,1
2412294,1,25836,0,46577,47443,46644.60,47448.15,-67.60,-5.15,0.535016,96.81,1
2412334,1,25876,0,46641,47496,46644.59,47448.25,-3.59,47.75,0.535101,96.80,1
2412374,1,25916,0,46773,47531,46644.85,47448.42,128.15,82.58,0.535190,96.79,1
2412414,1,25956,0,46650,47562,46644.86,47448.64,5.14,113.36,0.535278,96.79,1
2412454,1,25996,0,46666,47604,46644.90,47448.96,21.10,155.04,0.535362,96.78,1
2412494,1,26036,0,46688,47649,46644.99,47449.36,43.01,199.64,0.535443,96.78,1
2412534,1,26076,0,47184,47652,46646.07,47449.77,537.93,202.23,0.535625,96.77,1
2412574,1,26116,0,46660,47416,46646.09,47449.70,13.91,-33.70,0.535807,96.77,1
2412614,1,26156,0,46513,47115,46645.83,47449.03,-132.83,-334.03,0.535980,96.76,1
2412654,1,26196,0,46417,47008,46645.37,47448.15,-228.37,-440.15,0.536148,96.76,1
2412694,1,26236,0,46401,47036,46644.88,47447.33,-243.88,-411.33,0.536316,96.75,1
2412735,1,26277,0,46005,47089,46643.61,47446.61,-638.61,-357.61,0.536606,96.75,1
2412775,1,26317,0,45934,47147,46642.19,47446.02,-708.19,-299.02,0.537042,96.74,1
2412815,1,26357,0,46479,47228,46641.86,47445.58,-162.86,-217.58,0.537477,96.74,1
2412855,1,26397,0,46507,47266,46641.59,47445.22,-134.59,-179.22,0.537913,96.73,1
2412895,1,26437,0,46514,47268,46641.34,47444.87,-127.34,-176.87,0.538347,96.73,1
2412935,1,26477,0,46515,47274,46641.09,47444.53,-126.09,-170.53,0.538782,96.72,1
2412975,1,26517,0,46528,47315,46640.86,47444.27,-112.86,-129.27,0.539216,96.72,1
2413015,1,26557,0,46549,47374,46640.68,47444.13,-91.68,-70.13,0.539651,96.71,1
2413055,1,26597,0,46581,47443,46640.56,47444.13,-59.56,-1.13,0.540086,96.70,1
2413095,1,26637,0,46614,47501,46640.51,47444.25,-26.51,56.75,0.540520,96.70,1
2413135,1,26677,0,46641,47551,46640.52,47444.46,0.48,106.54,0.540950,96.69,1
2413175,1,26717,0,46665,47604,46640.57,47444.78,24.43,159.22,0.541376,96.68,1
2413215,1,26757,0,46683,47641,46640.65,47445.18,42.35,195.82,0.541795,96.68,1
2413255,1,26797,0,46703,47689,46640.78,47445.66,62.22,243.34,0.542206,96.67,1
2413295,1,26837,0,46722,47727,46640.94,47446.23,81.06,280.77,0.542606,96.66,1
2413335,1,26877,0,46741,47748,46641.14,47446.83,99.86,301.17,0.542996,96.65,1
2413375,1,26917,0,46712,47548,46641.29,47447.04,70.71,100.96,0.543384,96.65,1
2413415,1,26957,0,46574,47250,46641.16,47446.64,-67.16,-196.64,0.543767,96.64,1
2413456,1,26998,0,46471,47119,46640.82,47445.99,-169.82,-326.99,0.544142,96.63,1
2413496,1,27038,0,46454,47145,46640.45,47445.39,-186.45,-300.39,0.544516,96.63,1
2413536,1,27078,0,46481,47218,46640.13,47444.93,-159.13,-226.93,0.544889,96.62,1
2413576,1,27118,0,46511,47289,46639.87,47444.62,-128.87,-155.62,0.545263,96.61,1
2413616,1,27158,0,46545,47362,46639.68,47444.46,-94.68,-82.46,0.545638,96.60,1
2413656,1,27198,0,46569,47387,46639.54,47444.34,-70.54,-57.34,0.546013,96.60,1
2413696,1,27238,0,46572,47378,46639.41,47444.21,-67.41,-66.21,0.546388,96.59,1
2413736,1,27278,0,46565,47383,46639.26,47444.09,-74.26,-61.09,0.546763,96.58,1
2413776,1,27318,0,46576,47416,46639.14,47444.04,-63.14,-28.04,0.547138,96.57,1
2413816,1,27358,0,46603,47478,46639.07,47444.11,-36.07,33.89,0.547513,96.56,1
2413856,1,27398,0,46634,47534,46639.06,47444.29,-5.06,89.71,0.547885,96.56,1
2413896,1,27438,0,46658,47594,46639.10,47444.59,18.90,149.41,0.548252,96.55,1
2413936,1,27478,0,46681,47636,46639.18,47444.97,41.82,191.03,0.548614,96.54,1
2413976,1,27518,0,46698,47667,46639.30,47445.41,58.70,221.59,0.548967,96.53,1
2414016,1,27558,0,46716,47700,46639.46,47445.93,76.54,254.07,0.549312,96.53,1
2414056,1,27598,0,46725,47732,46639.63,47446.50,85.37,285.50,0.549646,96.52,1
2414096,1,27638,0,46738,47759,46639.83,47447.12,98.17,311.87,0.549967,96.51,1
2414136,1,27678,0,46729,47637,46640.01,47447.51,88.99,189.49,0.550285,96.50,1
2414177,1,27719,0,46618,47328,46639.96,47447.27,-21.96,-119.27,0.550600,96.49,1
2414217,1,27759,0,46487,47144,46639.66,47446.66,-152.66,-302.66,0.550908,96.49,1
2414257,1,27799,0,46451,47145,46639.29,47446.06,-188.29,-301.06,0.551215,96.48,1
2414297,1,27839,0,46472,47215,46638.95,47445.60,-166.95,-230.60,0.551523,96.47,1
2414337,1,27879,0,46506,47285,46638.69,47445.28,-132.69,-160.28,0.551832,96.46,1
2414377,1,27919,0,46542,47356,46638.50,47445.11,-96.50,-89.11,0.552143,96.45,1
2414417,1,27959,0,46565,47397,46638.35,47445.01,-73.35,-48.01,0.552455,96.45,1
2414457,1,27999,0,46573,47392,46638.22,47444.91,-65.22,-52.91,0.552767,96.44,1
2414497,1,28039,0,46572,47387,46638.09,47444.79,-66.09,-57.79,0.553079,96.43,1
2414537,1,28079,0,46576,47409,46637.97,47444.72,-61.97,-35.72,0.553392,96.42,1
2414577,1,28119,0,46592,47459,46637.88,47444.75,-45.88,14.25,0.553704,96.41,1
2414617,1,28159,0,46623,47523,46637.85,47444.91,-14.85,78.09,0.554015,96.41,1
2414657,1,28199,0,46648,47575,46637.87,47445.17,10.13,129.83,0.554321,96.40,1
2414697,1,28239,0,46672,47620,46637.95,47445.52,34.05,174.48,0.554623,96.39,1
2414737,1,28279,0,46689,47659,46638.05,47445.95,50.95,213.05,0.554917,96.38,1
2414777,1,28319,0,46701,47696,46638.18,47446.45,62.82,249.55,0.555201,96.37,1
2414817,1,28359,0,46720,47738,46638.34,47447.04,81.66,290.96,0.555473,96.37,1
2414858,1,28400,0,46741,47768,46638.55,47447.68,102.45,320.32,0.555732,96.36,1
2414898,1,28440,0,46733,47648,46638.74,47448.09,94.26,199.91,0.555987,96.35,1
2414938,1,28480,0,46619,47344,46638.70,47447.88,-19.70,-103.88,0.556239,96.34,1
2414978,1,28520,0,46485,47156,46638.39,47447.30,-153.39,-291.30,0.556487,96.34,1
2415018,1,28560,0,46445,47384,46638.01,47447.17,-193.01,-63.17,0.556749,96.33,1
2415058,1,28600,0,46461,47557,46637.66,47447.39,-176.66,109.61,0.557021,96.32,1
2415098,1,28640,0,46489,47249,46637.36,47447.00,-148.36,-198.00,0.557295,96.31,1
2415138,1,28680,0,46515,47326,46637.12,47446.76,-122.12,-120.76,0.557571,96.31,1
2415178,1,28720,0,46555,47382,46636.95,47446.63,-81.95,-64.63,0.557849,96.30,1
2415218,1,28760,0,46572,47277,46636.82,47446.29,-64.82,-169.29,0.558123,96.29,1
2415258,1,28800,0,46576,47126,46636.70,47445.65,-60.70,-319.65,0.558380,96.28,1
2415298,1,28840,0,46583,47432,46636.60,47445.62,-53.60,-13.62,0.558638,96.28,1
2415338,1,28880,0,46600,47488,46636.53,47445.71,-36.53,42.29,0.558895,96.27,1
2415378,1,28920,0,46626,47552,46636.51,47445.92,-10.51,106.08,0.559150,96.26,1
2415418,1,28960,0,46655,46933,46636.55,47444.90,18.45,-511.90,0.559359,96.25,1
2415458,1,29000,0,46679,47660,46636.63,47445.33,42.37,214.67,0.559561,96.25,1
2415498,1,29040,0,46697,47691,46636.75,47445.82,60.25,245.18,0.559753,96.24,1
2415538,1,29080,0,46712,47721,46636.91,47446.37,75.09,274.63,0.559936,96.23,1
2415579,1,29121,0,46725,47754,46637.08,47446.99,87.92,307.01,0.560106,96.22,1
2415619,1,29161,0,46740,47805,46637.29,47447.71,102.71,357.29,0.560260,96.22,1
2415659,1,29201,0,46753,47793,46637.52,47448.40,115.48,344.60,0.560401,96.21,1
2415699,1,29241,0,46701,47550,46637.65,47448.60,63.35,101.40,0.560542,96.20,1
2415739,1,29281,0,46874,47275,46638.12,47448.25,235.87,-173.25,0.560701,96.20,1
2415779,1,29321,0,46899,47185,46638.65,47447.73,260.35,-262.73,0.560879,96.19,1
2415819,1,29361,0,46471,47215,46638.31,47447.27,-167.31,-232.27,0.561059,96.18,1
2415859,1,29401,0,46500,47259,46638.04,47446.89,-138.04,-187.89,0.561241,96.18,1
2415899,1,29441,0,46523,47315,46637.80,47446.63,-114.80,-131.63,0.561426,96.17,1
2415939,1,29481,0,46273,47385,46637.08,47446.51,-364.08,-61.51,0.561666,96.17,1
2415979,1,29521,0,46185,47420,46636.18,47446.46,-451.18,-26.46,0.561991,96.16,1
2416019,1,29561,0,46581,47422,46636.07,47446.41,-55.07,-24.41,0.562315,96.15,1
2416059,1,29601,0,46580,47427,46635.96,47446.37,-55.96,-19.37,0.562640,96.15,1
2416099,1,29641,0,46587,47467,46635.86,47446.41,-48.86,20.59,0.562964,96.14,1
2416139,1,29681,0,46609,47519,46635.81,47446.56,-26.81,72.44,0.563288,96.13,1
2416179,1,29721,0,46636,47588,46635.81,47446.84,0.19,141.16,0.563606,96.13,1
2416220,1,29762,0,46667,47642,46635.87,47447.23,31.13,194.77,0.563917,96.12,1
2416260,1,29802,0,46687,47683,46635.97,47447.71,51.03,235.29,0.564218,96.11,1
2416300,1,29842,0,46702,47730,46636.11,47448.27,65.89,281.73,0.564505,96.11,1
2416340,1,29882,0,46721,47770,46636.28,47448.92,84.72,321.08,0.564776,96.10,1
2416380,1,29922,0,46743,47816,46636.49,47449.65,106.51,366.35,0.565027,96.09,1
2416420,1,29962,0,46765,47868,46636.75,47450.49,128.25,417.51,0.565254,96.09,1
2416460,1,30002,0,46773,47792,46637.02,47451.18,135.98,340.82,0.565469,96.08,1
2416500,1,30042,1,46690,47527,46637.13,47451.33,52.87,75.67,0.565683,96.07,1
2416540,1,30082,1,46568,47313,46636.99,47451.05,-68.99,-138.05,0.565896,96.07,1
2416580,1,30122,1,46513,47269,46636.75,47450.69,-123.75,-181.69,0.566109,96.06,1
2416620,1,30162,1,46519,47314,46636.51,47450.41,-117.51,-136.41,0.566324,96.05,1
2416660,1,30202,1,46543,47361,46636.32,47450.24,-93.32,-89.24,0.566541,96.05,1
2416700,1,30242,1,46569,47423,46636.19,47450.18,-67.19,-27.18,0.566760,96.04,1
2416740,1,30282,1,46593,47475,46636.11,47450.23,-43.11,24.77,0.566978,96.03,1
2416780,1,30322,1,46607,47482,46636.05,47450.30,-29.05,31.70,0.567196,96.03,1
2416820,1,30362,1,46599,47471,46635.97,47450.34,-36.97,20.66,0.567414,96.02,1
2416861,1,30403,1,46599,47481,46635.90,47450.41,-36.90,30.59,0.567632,96.01,1
2416901,1,30443,1,46610,47516,46635.85,47450.54,-25.85,65.46,0.567848,96.01,1
2416941,1,30483,1,46624,47567,46635.82,47450.77,-11.82,116.23,0.568062,96.00,1
2416981,1,30523,1,46646,47607,46635.85,47451.09,10.15,155.91,0.568270,96.00,1
2417021,1,30563,1,46667,47650,46635.91,47451.48,31.09,198.52,0.568471,95.99,1
2417061,1,30603,1,46686,47695,46636.01,47451.97,49.99,243.03,0.568662,95.98,1
2417101,1,30643,1,46704,47740,46636.15,47452.55,67.85,287.45,0.568839,95.98,1
2417141,1,30683,1,46726,47784,46636.33,47453.21,89.67,330.79,0.568999,95.97,1
2417181,1,30723,1,46753,47829,46636.56,47453.97,116.44,375.03,0.569141,95.96,1
2417221,1,30763,1,46762,47766,46636.82,47454.59,125.18,311.41,0.569273,95.96,1
2417261,1,30803,1,46683,47507,46636.91,47454.70,46.09,52.30,0.569405,95.95,1
2417301,1,30843,1,46554,47288,46636.75,47454.37,-82.75,-166.37,0.569535,95.95,1
2417341,1,30883,1,46502,47245,46636.48,47453.95,-134.48,-208.95,0.569666,95.94,1
2417381,1,30923,1,46509,47297,46636.22,47453.64,-127.22,-156.64,0.569800,95.94,1
2417421,1,30963,1,46538,47358,46636.03,47453.45,-98.03,-95.45,0.569937,95.93,1
2417461,1,31003,1,46565,47429,46635.89,47453.40,-70.89,-24.40,0.570076,95.92,1
2417501,1,31043,1,46589,47466,46635.79,47453.43,-46.79,12.57,0.570215,95.92,1
2417542,1,31084,1,46599,47470,46635.72,47453.46,-36.72,16.54,0.570354,95.91,1
2417582,1,31124,1,46593,47461,46635.63,47453.48,-42.63,7.52,0.570494,95.91,1
2417622,1,31164,1,46592,47485,46635.55,47453.54,-43.55,31.46,0.570635,95.90,1
2417662,1,31204,1,46610,47537,46635.50,47453.71,-25.50,83.29,0.570774,95.90,1
2417702,1,31244,1,46637,47600,46635.50,47454.00,1.50,146.00,0.570908,95.89,1
2417742,1,31284,1,46663,47650,46635.55,47454.39,27.45,195.61,0.571035,95.89,1
2417782,1,31324,1,46681,47667,46635.65,47454.82,45.35,212.18,0.571155,95.88,1
2417822,1,31364,1,46688,47670,46635.75,47455.25,52.25,214.75,0.571267,95.88,1
2417862,1,31404,1,46693,47683,46635.87,47455.71,57.13,227.29,0.571370,95.87,1
2417902,1,31444,1,46703,47723,46636.01,47456.24,66.99,266.76,0.571462,95.87,1
2417942,1,31484,1,46719,47714,46636.18,47456.76,82.82,257.24,0.571546,95.86,1
2417982,1,31524,1,46665,47493,46636.23,47456.83,28.77,36.17,0.571630,95.86,1
2418022,1,31564,1,46550,47263,46636.06,47456.45,-86.06,-193.45,0.571710,95.85,1
2418062,1,31604,1,46484,47395,46635.76,47456.32,-151.76,-61.32,0.571801,95.85,1
2418102,1,31644,1,46490,47581,46635.47,47456.57,-145.47,124.43,0.571901,95.85,1
2418143,1,31685,1,46525,47337,46635.25,47456.34,-110.25,-119.34,0.572005,95.84,1
2418183,1,31725,1,46541,47370,46635.06,47456.16,-94.06,-86.16,0.572111,95.84,1
2418223,1,31765,1,46553,47397,46634.90,47456.05,-81.90,-59.05,0.572220,95.83,1
2418263,1,31805,1,46563,47300,46634.75,47455.73,-71.75,-155.73,0.572327,95.83,1
2418303,1,31845,1,46566,47161,46634.62,47455.14,-68.62,-294.14,0.572420,95.82,1
2418343,1,31885,1,46567,47429,46634.48,47455.09,-67.48,-26.09,0.572514,95.82,1
2418383,1,31925,1,46578,47476,46634.37,47455.14,-56.37,20.86,0.572610,95.82,1
2418423,1,31965,1,46607,47555,46634.32,47455.34,-27.32,99.66,0.572704,95.81,1
2418463,1,32005,1,46648,46950,46634.34,47454.33,13.66,-504.33,0.572748,95.81,1
2418503,1,32045,1,46690,47711,46634.46,47454.84,55.54,256.16,0.572783,95.80,1
2418543,1,32085,1,46722,47769,46634.63,47455.47,87.37,313.53,0.572803,95.80,1
2418583,1,32125,1,46742,47805,46634.85,47456.17,107.15,348.83,0.572808,95.80,1
2418623,1,32165,1,46750,47811,46635.08,47456.88,114.92,354.12,0.572799,95.79,1
2418663,1,32205,1,46751,47796,46635.31,47457.56,115.69,338.44,0.572777,95.79,1
2418703,1,32245,1,46718,47629,46635.48,47457.91,82.52,171.09,0.572754,95.79,1
2418743,1,32285,1,46597,47362,46635.41,47457.71,-38.41,-95.71,0.572730,95.78,1
2418783,1,32325,1,46681,47237,46635.50,47457.27,45.50,-220.27,0.572700,95.78,1
2418823,1,32365,1,46762,47243,46635.75,47456.85,126.25,-213.85,0.572670,95.78,1
2418864,1,32406,1,46496,47302,46635.48,47456.54,-139.48,-154.54,0.572648,95.78,1
2418904,1,32446,1,46524,47377,46635.25,47456.38,-111.25,-79.38,0.572631,95.77,1
2418944,1,32486,1,46564,47481,46635.11,47456.43,-71.11,24.57,0.572617,95.77,1
2418984,1,32526,1,46570,47547,46634.98,47456.62,-64.98,90.38,0.572604,95.77,1
2419024,1,32566,1,46458,47562,46634.63,47456.83,-176.63,105.17,0.572607,95.76,1
2419064,1,32606,1,46631,47562,46634.62,47457.04,-3.62,104.96,0.572608,95.76,1
2419104,1,32646,1,46623,47571,46634.60,47457.27,-11.60,113.73,0.572607,95.76,1
2419144,1,32686,1,46641,47621,46634.62,47457.60,6.38,163.40,0.572601,95.76,1
2419184,1,32726,1,46103,47700,46633.55,47458.08,-530.55,241.92,0.572741,95.76,1
2419224,1,32766,1,46711,47760,46633.71,47458.69,77.29,301.31,0.572865,95.75,1
2419264,1,32806,1,46732,47803,46633.91,47459.38,98.09,343.62,0.572972,95.75,1
2419304,1,32846,1,46746,47849,46634.14,47460.16,111.86,388.84,0.573057,95.75,1
2419344,1,32886,1,46775,47919,46634.42,47461.08,140.58,457.92,0.573115,95.75,1
2419384,1,32926,1,46806,47996,46634.76,47462.15,171.24,533.85,0.573138,95.74,1
2419424,1,32966,1,46835,48024,46635.16,47463.27,199.84,560.73,0.573132,95.74,1
2419464,1,33006,1,46797,47819,46635.49,47463.98,161.51,355.02,0.573119,95.74,1
2419505,1,33047,1,46664,47525,46635.55,47464.11,28.45,60.89,0.573105,95.74,1
2419545,1,33087,1,46562,47416,46635.40,47464.02,-73.40,-48.02,0.573094,95.74,1
2419585,1,33127,1,46549,47457,46635.23,47464.00,-86.23,-7.00,0.573087,95.73,1
2419625,1,33167,1,46581,47518,46635.12,47464.11,-54.13,53.89,0.573081,95.73,1
2419665,1,33207,1,46604,47570,46635.06,47464.33,-31.06,105.67,0.573074,95.73,1
2419705,1,33247,1,46640,47671,46635.07,47464.74,4.93,206.26,0.573060,95.73,1
2419745,1,33287,1,46678,47741,46635.16,47465.30,42.84,275.70,0.573034,95.73,1
2419785,1,33327,1,46705,47770,46635.30,47465.91,69.70,304.09,0.572997,95.73,1
2419825,1,33367,1,46708,47780,46635.45,47466.54,72.55,313.46,0.572948,95.72,1
2419865,1,33407,1,46720,47791,46635.62,47467.18,84.38,323.82,0.572887,95.72,1
2419905,1,33447,1,46724,47818,46635.80,47467.89,88.20,350.11,0.572811,95.72,1
2419945,1,33487,1,46741,47867,46636.01,47468.69,104.99,398.31,0.572718,95.72,1
2419985,1,33527,1,46765,47921,46636.27,47469.59,128.73,451.41,0.572605,95.72,1
2420025,1,33567,1,46784,47956,46636.57,47470.57,147.43,485.43,0.572472,95.72,1
2420065,1,33607,1,46795,47996,46636.88,47471.62,158.12,524.38,0.572316,95.72,1
2420105,1,33647,1,46813,48056,46637.23,47472.79,175.77,583.21,0.572133,95.72,1
2420146,1,33688,1,46844,48129,46637.65,47474.10,206.35,654.90,0.571922,95.72,1
2420186,1,33728,1,46858,48081,46638.09,47475.32,219.91,605.68,0.571693,95.72,1
2420226,1,33768,1,46784,47853,46638.38,47476.07,145.62,376.93,0.571460,95.72,1
2420266,1,33808,1,46675,47692,46638.46,47476.51,36.54,215.49,0.571224,95.72,1
2420306,1,33848,1,46638,47662,46638.46,47476.88,-0.46,185.12,0.570984,95.72,1
2420346,1,33888,1,46638,47687,46638.46,47477.30,-0.46,209.70,0.570741,95.72,1
2420386,1,33928,1,46651,47706,46638.48,47477.76,12.52,228.24,0.570494,95.72,1
2420426,1,33968,1,46667,47760,46638.54,47478.32,28.46,281.68,0.570239,95.72,1
2420466,1,34008,1,46696,47809,46638.66,47478.99,57.34,330.01,0.569975,95.72,1
2420506,1,34048,1,46709,47815,46638.80,47479.66,70.20,335.34,0.569703,95.72,1
2420546,1,34088,1,46701,47802,46638.93,47480.30,62.07,321.70,0.569424,95.72,1
2420586,1,34128,1,46697,47827,46639.04,47481.00,57.96,346.00,0.569135,95.72,1
2420626,1,34168,1,46719,47890,46639.20,47481.82,79.80,408.18,0.568834,95.72,1
2420666,1,34208,1,46755,47960,46639.44,47482.78,115.56,477.22,0.568518,95.73,1
2420706,1,34248,1,46784,48035,46639.73,47483.88,144.27,551.12,0.568185,95.73,1
2420746,1,34288,1,46810,48086,46640.07,47485.09,169.93,600.91,0.567834,95.73,1
2420787,1,34329,1,46826,48116,46640.44,47486.35,185.56,629.65,0.567466,95.73,1
2420827,1,34369,1,46831,48120,46640.82,47487.62,190.18,632.38,0.567084,95.74,1
2420867,1,34409,1,46827,48120,46641.20,47488.89,185.80,631.11,0.566686,95.74,1
2420907,1,34449,1,46824,48107,46641.57,47490.12,182.43,616.87,0.566276,95.74,1
2420947,1,34489,1,46785,47931,46641.86,47491.01,143.14,439.99,0.565862,95.75,1
2420987,1,34529,1,46691,47769,46641.95,47491.57,49.05,277.43,0.565444,95.75,1
2421027,1,34569,1,46642,47724,46641.95,47492.03,0.05,231.97,0.565025,95.75,1
2421067,1,34609,1,46640,47749,46641.95,47492.55,-1.95,256.45,0.564602,95.76,1
2421107,1,34649,1,46665,47847,46642.00,47493.26,23.00,353.74,0.564172,95.76,1
2421147,1,34689,1,46690,47847,46642.09,47493.96,47.91,353.04,0.563735,95.77,1
2421187,1,34729,1,46718,47900,46642.25,47494.78,75.75,405.22,0.563292,95.77,1
2421227,1,34769,1,46726,47903,46642.41,47495.59,83.59,407.41,0.562841,95.77,1
2421267,1,34809,1,46719,48283,46642.57,47497.17,76.43,785.83,0.562356,95.78,1
2421307,1,34849,1,46701,48339,46642.69,47498.85,58.31,840.15,0.561832,95.78,1
2421347,1,34889,1,46674,47766,46642.75,47499.39,31.25,266.61,0.561307,95.79,1
2421387,1,34929,1,46652,47752,46642.77,47499.89,9.23,252.11,0.560780,95.80,1
2421427,1,34969,1,46651,47760,46642.79,47500.41,8.21,259.59,0.560251,95.80,1
2421468,1,35010,1,46657,47442,46642.82,47500.30,14.18,-58.30,0.559723,95.81,1
2421508,1,35050,1,46655,47305,46642.85,47499.91,12.15,-194.91,0.559195,95.81,1
2421548,1,35090,1,46658,47795,46642.88,47500.50,15.12,294.50,0.558663,95.82,1
2421588,1,35130,1,46664,47827,46642.92,47501.15,21.08,325.85,0.558128,95.83,1
2421628,1,35170,1,46685,47862,46643.01,47501.87,41.99,360.13,0.557587,95.83,1
2421668,1,35210,1,46678,47793,46643.08,47502.45,34.92,290.55,0.557045,95.84,1
2421708,1,35250,1,46632,47702,46643.06,47502.85,-11.06,199.15,0.556501,95.85,1
2421748,1,35290,1,46599,47662,46642.97,47503.17,-43.97,158.83,0.555959,95.86,1
2421788,1,35330,1,46594,47653,46642.87,47503.47,-48.88,149.53,0.555418,95.86,1
2421828,1,35370,1,46612,47615,46642.82,47503.70,-30.82,111.30,0.554878,95.87,1
2421868,1,35410,1,46565,47549,46642.66,47503.79,-77.66,45.21,0.554343,95.88,1
2421908,1,35450,1,46536,47495,46642.45,47503.77,-106.45,-8.77,0.553814,95.89,1
2421948,1,35490,1,46517,47474,46642.20,47503.71,-125.20,-29.71,0.553293,95.90,1
2421988,1,35530,1,46850,47471,46642.62,47503.65,207.38,-32.65,0.552791,95.91,1
2422028,1,35570,1,46955,47462,46643.24,47503.57,311.76,-41.57,0.552331,95.91,1
2422068,1,35610,1,46511,47472,46642.98,47503.51,-131.98,-31.51,0.551880,95.92,1
2422108,1,35650,1,46520,47517,46642.73,47503.54,-122.73,13.46,0.551436,95.93,1
2422148,1,35690,1,46540,47567,46642.53,47503.66,-102.53,63.34,0.550998,95.94,1
2422189,1,35731,1,46338,47615,46641.92,47503.89,-303.92,111.11,0.550598,95.95,1
2422229,1,35771,1,46230,47659,46641.10,47504.20,-411.10,154.80,0.550265,95.96,1
2422269,1,35811,1,46593,47680,46641.00,47504.55,-48.00,175.45,0.549931,95.97,1
2422309,1,35851,1,46589,47666,46640.90,47504.87,-51.90,161.12,0.549598,95.98,1
2422349,1,35891,1,46588,47662,46640.80,47505.19,-52.80,156.81,0.549265,95.98,1
2422389,1,35931,1,46590,47683,46640.70,47505.55,-50.70,177.45,0.548932,95.99,1
2422429,1,35971,1,46603,47715,46640.62,47505.97,-37.62,209.03,0.548597,96.00,1
2422469,1,36011,1,46615,47748,46640.57,47506.45,-25.57,241.55,0.548259,96.01,1
2422509,1,36051,1,46633,47779,46640.55,47507.00,-7.55,272.00,0.547916,96.02,1
2422549,1,36091,1,46652,47824,46640.58,47507.64,11.42,316.36,0.547568,96.03,1
2422589,1,36131,1,46672,47868,46640.64,47508.36,31.36,359.64,0.547211,96.04,1
2422629,1,36171,1,46692,47913,46640.75,47509.17,51.25,403.83,0.546845,96.05,1
2422669,1,36211,1,46701,47927,46640.87,47510.00,60.13,417.00,0.546468,96.05,1
2422709,1,36251,1,46706,47920,46641.00,47510.82,65.00,409.18,0.546083,96.06,1
2422749,1,36291,1,46702,47913,46641.12,47511.63,60.88,401.37,0.545690,96.07,1
2422789,1,36331,1,46694,47936,46641.23,47512.48,52.77,423.52,0.545287,96.08,1
2422829,1,36371,1,46703,47964,46641.36,47513.38,61.64,450.62,0.544873,96.09,1
2422869,1,36411,1,46717,47990,46641.51,47514.34,75.49,475.66,0.544448,96.10,1
2422910,1,36452,1,46721,48019,46641.67,47515.35,79.33,503.65,0.544011,96.11,1
2422950,1,36492,1,46742,48080,46641.87,47516.48,100.13,563.52,0.543560,96.12,1
2422990,1,36532,1,46766,48131,46642.12,47517.71,123.88,613.29,0.543094,96.13,1
2423030,1,36572,1,46781,48158,46642.40,47518.99,138.60,639.01,0.542614,96.14,1
2423070,1,36612,1,46790,48174,46642.70,47520.30,147.30,653.70,0.542121,96.14,1
2423110,1,36652,1,46798,48185,46643.01,47521.63,154.99,663.37,0.541615,96.15,1
2423150,1,36692,1,46788,48171,46643.30,47522.93,144.70,648.07,0.541099,96.16,1
2423190,1,36732,1,46783,48157,46643.58,47524.20,139.42,632.80,0.540571,96.17,1
2423230,1,36772,1,46781,48150,46643.86,47525.46,137.14,624.54,0.540034,96.18,1
2423270,1,36812,1,46779,48142,46644.13,47526.69,134.87,615.31,0.539489,96.19,1
2423310,1,36852,1,46775,48148,46644.39,47527.93,130.61,620.07,0.538934,96.20,1
2423350,1,36892,1,46775,48158,46644.66,47529.20,130.34,628.80,0.538370,96.21,1
2423390,1,36932,1,46779,48175,46644.93,47530.49,134.07,644.51,0.537798,96.22,1
2423430,1,36972,1,46786,48196,46645.21,47531.82,140.79,664.18,0.537216,96.23,1
2423470,1,37012,1,46794,48218,46645.51,47533.20,148.49,684.80,0.536626,96.24,1
2423510,1,37052,1,46799,48241,46645.82,47534.61,153.18,706.39,0.536027,96.26,1
2423550,1,37092,1,46807,48256,46646.14,47536.06,160.86,719.94,0.535420,96.27,1
2423590,1,37132,1,46810,48262,46646.47,47537.51,163.53,724.49,0.534805,96.28,1
2423631,1,37173,1,46810,48274,46646.80,47538.98,163.20,735.02,0.534183,96.29,1
2423671,1,37213,1,46812,48290,46647.13,47540.49,164.87,749.51,0.533554,96.30,1
2423711,1,37253,1,46814,48308,46647.46,47542.02,166.54,765.98,0.532916,96.31,1
2423751,1,37293,1,46822,48330,46647.82,47543.60,174.18,786.40,0.532272,96.32,1
2423791,1,37333,1,46832,48334,46648.19,47545.18,183.81,788.82,0.531622,96.33,1
2423831,1,37373,1,46829,48336,46648.55,47546.77,180.45,789.23,0.530966,96.35,1
2423871,1,37413,1,46817,48317,46648.89,47548.31,168.11,768.69,0.530304,96.36,1
2423911,1,37453,1,46811,48312,46649.21,47549.84,161.79,762.16,0.529637,96.37,1
2423951,1,37493,1,46816,48324,46649.55,47551.39,166.45,772.61,0.528964,96.38,1
2423991,1,37533,1,46814,48317,46649.88,47552.92,164.12,764.08,0.528286,96.39,1
2424031,1,37573,1,46810,48321,46650.20,47554.46,159.80,766.54,0.527604,96.41,1
2424071,1,37613,1,46811,48336,46650.53,47556.02,160.47,779.98,0.526917,96.42,1
2424111,1,37653,1,46813,48345,46650.85,47557.60,162.15,787.40,0.526224,96.43,1
2424151,1,37693,1,46820,48346,46651.19,47559.18,168.81,786.82,0.525528,96.44,1
2424191,1,37733,1,46812,48344,46651.52,47560.75,160.48,783.25,0.524827,96.46,1
2424231,1,37773,1,46810,48346,46651.83,47562.32,158.17,783.68,0.524123,96.47,1
2424271,1,37813,1,46807,48345,46652.14,47563.88,154.86,781.12,0.523414,96.48,1
2424312,1,37854,1,46800,48346,46652.44,47565.45,147.56,780.55,0.522700,96.50,1
2424352,1,37894,2,46803,48347,46652.74,47567.01,150.26,779.99,0.521983,96.51,1
2424392,1,37934,2,46796,48354,46653.03,47568.59,142.97,785.41,0.521262,96.52,1
2424432,1,37974,2,46795,48353,46653.32,47570.16,141.68,782.84,0.520536,96.54,1
2424472,1,38014,2,46796,48354,46653.60,47571.73,142.40,782.27,0.519807,96.55,1
2424512,1,38054,2,46799,48629,46653.89,47573.84,145.11,1055.16,0.519065,96.57,1
2424552,1,38094,2,46793,48718,46654.18,47576.13,138.82,1141.87,0.518310,96.58,1
2424592,1,38134,2,46789,48357,46654.45,47577.70,134.55,779.30,0.517551,96.60,1
2424632,1,38174,2,46791,48351,46654.72,47579.24,136.28,771.76,0.516790,96.61,1
2424672,1,38214,2,46779,48336,46654.97,47580.76,124.03,755.24,0.516026,96.62,1
2424712,1,38254,2,46776,48205,46655.21,47582.01,120.79,622.99,0.515261,96.64,1
2424752,1,38294,2,46769,48079,46655.44,47583.00,113.56,496.00,0.514499,96.65,1
2424792,1,38334,2,46760,48309,46655.65,47584.46,104.35,724.54,0.513733,96.67,1
2424832,1,38374,2,46752,48294,46655.85,47585.88,96.15,708.12,0.512965,96.68,1
2424872,1,38414,2,46747,48281,46656.03,47587.27,90.97,693.73,0.512194,96.70,1
2424912,1,38454,2,46730,47595,46656.18,47587.29,73.82,7.71,0.511427,96.72,1
2424952,1,38494,2,46719,48256,46656.30,47588.62,62.70,667.37,0.510657,96.73,1
2424992,1,38534,2,46711,48243,46656.41,47589.93,54.59,653.07,0.509883,96.75,1
2425033,1,38575,2,46701,48225,46656.50,47591.20,44.50,633.80,0.509107,96.76,1
2425073,1,38615,2,46690,48217,46656.57,47592.46,33.43,624.54,0.508328,96.78,1
2425113,1,38655,2,46678,48208,46656.61,47593.69,21.39,614.31,0.507547,96.79,1
2425153,1,38695,2,46677,48205,46656.66,47594.91,20.34,610.09,0.506763,96.81,1
2425193,1,38735,2,46670,48204,46656.68,47596.13,13.32,607.87,0.505977,96.83,1
2425233,1,38775,2,46838,48223,46657.05,47597.38,180.95,625.62,0.505195,96.84,1
2425273,1,38815,2,46963,48243,46657.66,47598.68,305.34,644.32,0.504431,96.86,1
2425313,1,38855,2,46679,48251,46657.70,47599.98,21.30,651.02,0.503664,96.88,1
2425353,1,38895,2,46683,48256,46657.75,47601.29,25.25,654.71,0.502894,96.89,1
2425393,1,38935,2,46684,48257,46657.81,47602.61,26.19,654.39,0.502120,96.91,1
2425433,1,38975,2,46677,48263,46657.85,47603.93,19.15,659.07,0.501344,96.93,1
2425473,1,39015,2,46526,48268,46657.59,47605.25,-131.59,662.75,0.500568,96.94,1
2425513,1,39055,2,46683,48269,46657.64,47606.58,25.36,662.42,0.499789,96.96,1
2425553,1,39095,2,46680,48269,46657.68,47607.91,22.32,661.09,0.499007,96.98,1
2425593,1,39135,2,46679,48266,46657.73,47609.22,21.27,656.78,0.498223,96.99,1
2425633,1,39175,2,46142,48265,46656.70,47610.54,-514.70,654.46,0.497492,97.01,1
2425673,1,39215,2,45947,48268,46655.28,47611.85,-708.28,656.15,0.496856,97.03,1
2425713,1,39255,2,46663,48271,46655.29,47613.17,7.71,657.83,0.496216,97.04,1
2425754,1,39296,2,46664,48272,46655.31,47614.49,8.69,657.51,0.495572,97.06,1
2425794,1,39336,2,46659,48267,46655.32,47615.80,3.68,651.20,0.494923,97.08,1
2425834,1,39376,2,46650,48264,46655.31,47617.09,-5.31,646.91,0.494271,97.10,1
2425874,1,39416,2,46639,48260,46655.28,47618.38,-16.28,641.62,0.493615,97.11,1
2425914,1,39456,2,46639,48263,46655.25,47619.67,-16.25,643.33,0.492956,97.13,1
2425954,1,39496,2,46641,48270,46655.22,47620.97,-14.22,649.03,0.492293,97.15,1
2425994,1,39536,2,46642,48275,46655.20,47622.28,-13.20,652.72,0.491626,97.16,1
2426034,1,39576,2,46639,48279,46655.17,47623.59,-16.17,655.41,0.490956,97.18,1
2426074,1,39616,2,46641,48285,46655.14,47624.92,-14.14,660.08,0.490282,97.20,1
2426114,1,39656,2,46640,48276,46655.11,47626.22,-15.11,649.78,0.489604,97.21,1
2426154,1,39696,2,46638,48261,46655.08,47627.49,-17.08,633.51,0.488924,97.23,1
2426194,1,39736,2,46626,48257,46655.02,47628.75,-29.02,628.25,0.488241,97.25,1
2426234,1,39776,2,46621,48256,46654.96,47630.01,-33.96,625.99,0.487556,97.26,1
2426274,1,39816,2,46618,48252,46654.88,47631.25,-36.88,620.75,0.486867,97.28,1
2426314,1,39856,2,46615,48240,46654.80,47632.47,-39.80,607.53,0.486177,97.30,1
2426354,1,39896,2,46603,48229,46654.70,47633.67,-51.70,595.33,0.485485,97.32,1
2426394,1,39936,2,46593,48221,46654.58,47634.84,-61.58,586.16,0.484792,97.33,1
2426434,1,39976,2,46581,48214,46654.44,47636.00,-73.44,578.00,0.484097,97.35,1
2426475,1,40017,2,46577,48206,46654.29,47637.14,-77.29,568.86,0.483403,97.37,1
2426515,1,40057,2,46570,48208,46654.12,47638.29,-84.12,569.71,0.482707,97.38,1
2426555,1,40097,2,46568,48205,46653.95,47639.42,-85.95,565.58,0.482012,97.40,1
2426595,1,40137,2,46559,48195,46653.76,47640.54,-94.76,554.46,0.481316,97.42,1
2426635,1,40177,2,46551,48187,46653.55,47641.63,-102.55,545.37,0.480622,97.43,1
2426675,1,40217,2,46549,48187,46653.35,47642.72,-104.35,544.28,0.479928,97.45,1
2426715,1,40257,2,46546,48185,46653.13,47643.81,-107.13,541.19,0.479235,97.47,1
2426755,1,40297,2,46540,48188,46652.91,47644.90,-112.91,543.10,0.478543,97.49,1
2426795,1,40337,2,46537,48189,46652.68,47645.99,-115.68,543.01,0.477852,97.50,1
2426835,1,40377,2,46535,48168,46652.44,47647.04,-117.44,520.96,0.477163,97.52,1
2426875,1,40417,2,46525,48154,46652.19,47648.05,-127.19,505.95,0.476477,97.54,1
2426915,1,40457,2,46525,48149,46651.93,47649.05,-126.93,499.95,0.475792,97.55,1
2426955,1,40497,2,46513,48138,46651.66,47650.04,-138.66,487.96,0.475111,97.57,1
2426995,1,40537,2,46502,48127,46651.36,47650.99,-149.36,476.01,0.474434,97.59,1
2427035,1,40577,2,46499,48119,46651.05,47651.93,-152.05,467.07,0.473760,97.60,1
2427075,1,40617,2,46487,48105,46650.73,47652.84,-163.73,452.16,0.473092,97.62,1
2427115,1,40657,2,46479,48089,46650.38,47653.71,-171.38,435.29,0.472429,97.64,1
2427155,1,40697,2,46466,48069,46650.02,47654.54,-184.02,414.46,0.471774,97.66,1
2427195,1,40737,2,46445,48019,46649.61,47655.27,-204.61,363.73,0.471126,97.67,1
2427236,1,40778,2,46413,47970,46649.13,47655.90,-236.13,314.10,0.470491,97.69,1
2427276,1,40818,2,46395,47955,46648.62,47656.50,-253.62,298.50,0.469869,97.71,1
2427316,1,40858,2,46386,47963,46648.10,47657.11,-262.10,305.89,0.469262,97.72,1
2427356,1,40898,2,46386,47968,46647.58,47657.73,-261.58,310.27,0.468668,97.74,1
2427396,1,40938,2,46390,47968,46647.06,47658.36,-257.06,309.64,0.468088,97.76,1
2427436,1,40978,2,46387,47978,46646.54,47659.00,-259.54,319.00,0.467521,97.77,1
2427476,1,41018,2,46389,47986,46646.03,47659.65,-257.03,326.35,0.466967,97.79,1
2427516,1,41058,2,46387,47993,46645.51,47660.32,-258.51,332.68,0.466426,97.81,1
2427556,1,41098,2,46393,47980,46645.01,47660.96,-252.01,319.04,0.465897,97.82,1
2427596,1,41138,2,46385,47976,46644.49,47661.59,-259.49,314.41,0.465381,97.84,1
2427636,1,41178,2,46381,47975,46643.96,47662.22,-262.96,312.78,0.464877,97.86,1
2427676,1,41218,2,46378,47974,46643.43,47662.85,-265.43,311.15,0.464387,97.87,1
2427716,1,41258,2,46372,47971,46642.89,47663.46,-270.89,307.54,0.463910,97.89,1
2427756,1,41298,2,46372,47965,46642.35,47664.07,-270.35,300.93,0.463447,97.90,1
2427796,1,41338,2,46363,47966,46641.79,47664.68,-278.79,301.32,0.462997,97.92,1
2427836,1,41378,2,46363,47966,46641.23,47665.28,-278.23,300.72,0.462562,97.93,1
2427876,1,41418,2,46357,47966,46640.67,47665.88,-283.67,300.12,0.462141,97.95,1
2427917,1,41459,2,46354,48238,46640.10,47667.03,-286.10,570.97,0.461729,97.97,1
2427957,1,41499,2,46351,48318,46639.52,47668.33,-288.52,649.67,0.461326,97.98,1
2427997,1,41539,2,46348,47958,46638.94,47668.91,-290.94,289.09,0.460938,97.99,1
2428037,1,41579,2,46337,47951,46638.34,47669.48,-301.34,281.52,0.460565,98.01,1
2428077,1,41619,2,46329,47939,46637.72,47670.02,-308.72,268.98,0.460208,98.02,1
2428117,1,41659,2,46323,47801,46637.09,47670.28,-314.09,130.72,0.459869,98.04,1
2428157,1,41699,2,46318,47689,46636.45,47670.32,-318.45,18.68,0.459549,98.05,1
2428197,1,41739,2,46315,47933,46635.81,47670.85,-320.81,262.15,0.459245,98.07,1
2428237,1,41779,2,46314,47929,46635.17,47671.36,-321.17,257.64,0.458958,98.08,1
2428277,1,41819,2,46317,47929,46634.54,47671.88,-317.54,257.12,0.458687,98.09,1
2428317,1,41859,2,46313,47262,46633.89,47671.06,-320.89,-409.06,0.458430,98.11,1
2428357,1,41899,2,46311,47909,46633.25,47671.54,-322.25,237.46,0.458190,98.12,1
2428397,1,41939,2,46302,47899,46632.59,47671.99,-330.59,227.01,0.457967,98.13,1
2428437,1,41979,2,46289,47883,46631.90,47672.41,-342.90,210.59,0.457763,98.15,1
2428477,1,42019,2,46282,47874,46631.20,47672.82,-349.20,201.18,0.457579,98.16,1
2428517,1,42059,2,46278,47870,46630.50,47673.21,-352.50,196.79,0.457413,98.17,1
2428557,1,42099,2,46272,47882,46629.78,47673.63,-357.78,208.37,0.457268,98.18,1
2428597,1,42139,2,46273,47884,46629.07,47674.05,-356.07,209.95,0.457142,98.19,1
2428637,1,42179,2,46450,47887,46628.71,47674.48,-178.71,212.52,0.457020,98.21,1
2428678,1,42220,2,46570,47885,46628.60,47674.90,-58.60,210.10,0.456897,98.22,1
2428718,1,42260,2,46271,47882,46627.88,47675.32,-356.88,206.68,0.456794,98.23,1
2428758,1,42300,2,46260,47878,46627.15,47675.72,-367.15,202.28,0.456712,98.24,1
2428798,1,42340,2,46251,47860,46626.40,47676.09,-375.40,183.91,0.456651,98.25,1
2428838,1,42380,2,46212,47851,46625.57,47676.45,-413.57,174.55,0.456615,98.26,1
2428878,1,42420,2,46065,47854,46624.45,47676.80,-559.45,177.20,0.456627,98.27,1
2428918,1,42460,2,46238,47862,46623.68,47677.17,-385.68,184.83,0.456659,98.28,1
2428958,1,42500,2,46243,47867,46622.91,47677.55,-379.91,189.45,0.456712,98.29,1
2428998,1,42540,2,46242,47866,46622.15,47677.93,-380.15,188.07,0.456785,98.30,1
2429038,1,42580,2,45691,47862,46620.29,47678.30,-929.29,183.70,0.456979,98.30,1
2429078,1,42620,2,46240,47861,46619.54,47678.67,-379.54,182.33,0.457190,98.31,1
2429118,1,42660,2,46238,47863,46618.77,47679.04,-380.77,183.96,0.457420,98.32,1
2429158,1,42700,2,46236,47860,46618.01,47679.41,-382.01,180.59,0.457668,98.33,1
2429198,1,42740,2,46237,47860,46617.25,47679.77,-380.25,180.23,0.457933,98.33,1
2429238,1,42780,2,46229,47859,46616.47,47680.13,-387.47,178.87,0.458217,98.34,1
2429278,1,42820,2,46225,47856,46615.69,47680.48,-390.69,175.52,0.458519,98.35,1
2429318,1,42860,2,46224,47861,46614.91,47680.84,-390.91,180.16,0.458840,98.35,1
2429359,1,42901,2,46223,47867,46614.13,47681.22,-391.13,185.78,0.459178,98.36,1
2429399,1,42941,2,46222,47863,46613.35,47681.58,-391.35,181.42,0.459535,98.36,1
2429439,1,42981,2,46220,47864,46612.56,47681.95,-392.56,182.05,0.459910,98.37,1
2429479,1,43021,2,46211,47870,46611.76,47682.33,-400.76,187.67,0.460303,98.37,1
2429519,1,43061,2,46214,47868,46610.97,47682.70,-396.97,185.30,0.460715,98.37,1
2429559,1,43101,2,46212,47859,46610.17,47683.05,-398.17,175.95,0.461145,98.38,1
2429599,1,43141,2,46207,47867,46609.37,47683.42,-402.37,183.58,0.461594,98.38,1
2429639,1,43181,2,46211,47882,46608.57,47683.82,-397.57,198.18,0.462060,98.38,1
2429679,1,43221,2,46214,47883,46607.78,47684.22,-393.78,198.78,0.462543,98.38,1
2429719,1,43261,2,46214,47883,46607.00,47684.62,-393.00,198.38,0.463044,98.38,1
2429759,1,43301,2,46220,47889,46606.22,47685.03,-386.22,203.97,0.463560,98.38,1
2429799,1,43341,2,46212,47880,46605.43,47685.42,-393.43,194.58,0.464093,98.38,1
2429839,1,43381,2,46202,47873,46604.63,47685.79,-402.63,187.21,0.464644,98.38,1
2429879,1,43421,2,46201,47866,46603.82,47686.16,-402.82,179.84,0.465212,98.38,1
2429919,1,43461,2,46201,47855,46603.02,47686.50,-402.02,168.50,0.465799,98.38,1
2429959,1,43501,2,46190,47848,46602.20,47686.82,-412.20,161.18,0.466404,98.38,1
2429999,1,43541,2,46183,47845,46601.36,47687.14,-418.36,157.86,0.467029,98.38,1
2430039,1,43581,2,46177,47836,46600.51,47687.44,-423.51,148.56,0.467674,98.38,1
2430080,1,43622,2,46173,47829,46599.66,47687.72,-426.66,141.28,0.468339,98.38,1
2430120,1,43662,2,46170,47833,46598.80,47688.02,-428.80,144.98,0.469025,98.37,1
2430160,1,43702,2,46161,47834,46597.92,47688.31,-436.92,145.69,0.469732,98.37,1
2430200,1,43742,2,46162,47836,46597.05,47688.61,-435.05,147.39,0.470461,98.37,1
2430240,1,43782,2,46162,47836,46596.18,47688.90,-434.18,147.10,0.471209,98.36,1
2430280,1,43822,2,46160,47832,46595.31,47689.19,-435.31,142.81,0.471979,98.36,1
2430320,1,43862,2,46155,47830,46594.43,47689.47,-439.43,140.53,0.472769,98.35,1
2430360,1,43902,2,46148,47835,46593.54,47689.77,-445.54,145.23,0.473581,98.34,1
2430400,1,43942,2,46150,47836,46592.66,47690.06,-442.66,145.94,0.474415,98.34,1
2430440,1,43982,2,46152,47831,46591.78,47690.34,-439.78,140.66,0.475269,98.33,1
2430480,1,44022,2,46152,47828,46590.90,47690.62,-438.90,137.38,0.476143,98.33,1
2430520,1,44062,2,46149,47829,46590.02,47690.89,-441.02,138.11,0.477038,98.32,1
2430560,1,44102,2,46145,47825,46589.12,47691.16,-444.12,133.84,0.477955,98.31,1
2430600,1,44142,2,46138,47810,46588.22,47691.40,-450.22,118.60,0.478893,98.30,1
2430640,1,44182,2,46134,47806,46587.32,47691.63,-453.32,114.37,0.479853,98.29,1
2430680,1,44222,2,46127,47803,46586.40,47691.86,-459.40,111.14,0.480836,98.28,1
2430720,1,44262,2,46119,47796,46585.46,47692.07,-466.46,103.93,0.481843,98.27,1
2430760,1,44302,2,46118,47793,46584.53,47692.27,-466.53,100.73,0.482873,98.26,1
2430801,1,44343,2,46111,47787,46583.59,47692.46,-472.59,94.54,0.483928,98.25,1
2430841,1,44383,2,46104,47781,46582.63,47692.64,-478.63,88.36,0.485007,98.24,1
2430881,1,44423,2,46100,47791,46581.66,47692.84,-481.66,98.16,0.486112,98.23,1
2430921,1,44463,2,46096,47794,46580.70,47693.04,-484.70,100.96,0.487242,98.22,1
2430961,1,44503,2,46099,47794,46579.73,47693.25,-480.73,100.75,0.488396,98.20,1
2431001,1,44543,2,46098,47798,46578.77,47693.46,-480.77,104.54,0.489575,98.19,1
2431041,1,44583,2,46096,47793,46577.81,47693.66,-481.81,99.34,0.490778,98.18,1
2431081,1,44623,2,46096,47792,46576.85,47693.86,-480.85,98.14,0.492005,98.16,1
2431121,1,44663,2,46090,47788,46575.87,47694.05,-485.87,93.95,0.493258,98.15,1
2431161,1,44703,2,46092,47855,46574.91,47694.37,-482.91,160.63,0.494533,98.13,1
2431201,1,44743,2,46089,47956,46573.94,47694.89,-484.94,261.11,0.495826,98.12,1
2431241,1,44783,2,46088,47794,46572.97,47695.09,-484.97,98.91,0.497144,98.10,1
2431281,1,44823,2,46089,47786,46572.01,47695.28,-483.01,90.72,0.498486,98.08,1
2431321,1,44863,2,46081,47777,46571.03,47695.44,-490.03,81.56,0.499853,98.07,1
2431361,1,44903,2,46072,48250,46570.03,47696.55,-498.03,553.45,0.501213,98.05,1
2431401,1,44943,2,46069,47737,46569.03,47696.63,-500.03,40.37,0.502600,98.03,1
2431441,1,44983,2,46060,47761,46568.02,47696.76,-508.02,64.24,0.504014,98.01,1
2431481,1,45023,2,46058,47763,46567.00,47696.89,-509.00,66.11,0.505454,97.99,1
2431522,1,45064,2,46056,47761,46565.98,47697.02,-509.98,63.98,0.506922,97.97,1
2431562,1,45104,2,46053,47333,46564.95,47696.30,-511.95,-363.30,0.508402,97.95,1
2431602,1,45144,2,46048,47214,46563.92,47695.33,-515.92,-481.33,0.509882,97.93,1
2431642,1,45184,2,46047,47763,46562.89,47695.47,-515.89,67.53,0.511390,97.91,1
2431682,1,45224,2,46043,47762,46561.85,47695.60,-518.85,66.40,0.512925,97.89,1
2431722,1,45264,2,46037,47767,46560.80,47695.75,-523.80,71.25,0.514488,97.86,1
2431762,1,45304,2,46036,47761,46559.76,47695.88,-523.76,65.12,0.516078,97.84,1
2431802,1,45344,2,46035,47756,46558.71,47696.00,-523.71,60.00,0.517695,97.82,1
2431842,1,45384,2,46029,47748,46557.65,47696.11,-528.65,51.89,0.519341,97.79,1
2431882,1,45424,2,46052,47744,46556.64,47696.20,-504.64,47.80,0.521012,97.77,1
2431922,1,45464,2,46171,47746,46555.87,47696.30,-384.87,49.70,0.522696,97.74,1
2431962,1,45504,2,46021,47752,46554.80,47696.42,-533.80,55.58,0.524408,97.72,1
2432002,1,45544,2,46024,47748,46553.74,47696.52,-529.74,51.48,0.526149,97.69,1
2432042,1,45584,2,46021,47738,46552.68,47696.61,-531.68,41.39,0.527918,97.67,1
2432082,1,45624,2,46481,47729,46552.54,47696.68,-71.54,32.32,0.529682,97.64,1
2432122,1,45664,2,46001,47726,46551.44,47696.73,-550.44,29.27,0.531478,97.61,1
2432162,1,45704,2,45999,47725,46550.33,47696.79,-551.33,28.21,0.533304,97.58,1
2432203,1,45745,2,45994,47723,46549.22,47696.85,-555.22,26.15,0.535163,97.55,1
2432243,1,45785,2,45993,47724,46548.11,47696.90,-555.11,27.10,0.537053,97.52,1
2432283,1,45825,2,45585,47728,46546.18,47696.96,-961.18,31.04,0.539048,97.49,1
2432323,1,45865,2,45445,47727,46543.98,47697.03,-1098.98,29.97,0.541177,97.46,1
2432363,1,45905,2,45984,47727,46542.87,47697.09,-558.87,29.91,0.543335,97.43,1
2432403,1,45945,2,45983,47729,46541.75,47697.16,-558.75,31.84,0.545523,97.40,1
2432443,1,45985,2,45980,47736,46540.63,47697.23,-560.63,38.77,0.547741,97.37,1
2432483,1,46025,2,45979,47732,46539.51,47697.30,-560.51,34.70,0.549987,97.33,1
2432523,1,46065,2,45981,47728,46538.39,47697.37,-557.39,30.63,0.552263,97.30,1
2432563,1,46105,2,45978,47725,46537.27,47697.42,-559.27,27.58,0.554567,97.26,1
2432603,1,46145,2,45973,47709,46536.14,47697.45,-563.14,11.55,0.556902,97.23,1
2432643,1,46185,2,45969,47709,46535.01,47697.47,-566.01,11.53,0.559266,97.19,1
2432683,1,46225,2,45965,47712,46533.87,47697.50,-568.87,14.50,0.561661,97.16,1
2432723,1,46265,2,45959,47706,46532.72,47697.52,-573.72,8.48,0.564087,97.12,1
2432763,1,46305,2,45959,47705,46531.57,47697.54,-572.57,7.46,0.566544,97.08,1
2432803,1,46345,2,45953,47703,46530.42,47697.55,-577.42,5.45,0.569032,97.04,1
2432843,1,46385,2,45948,47698,46529.25,47697.55,-581.25,0.45,0.571551,97.00,1
2432883,1,46425,2,45941,47692,46528.08,47697.54,-587.08,-5.54,0.574103,96.96,1
2432924,1,46466,2,45939,47689,46526.90,47697.52,-587.90,-8.52,0.576688,96.92,1
2432964,1,46506,2,45938,47697,46525.73,47697.52,-587.73,-0.52,0.579305,96.88,1
2433004,1,46546,2,45933,47698,46524.54,47697.53,-591.54,0.47,0.581955,96.83,1
2433044,1,46586,2,45928,47697,46523.35,47697.53,-595.35,-0.53,0.584639,96.79,1
2433084,1,46626,2,45928,47698,46522.16,47697.53,-594.16,0.47,0.587356,96.75,1
2433124,1,46666,2,45929,47704,46520.98,47697.55,-591.98,6.45,0.590105,96.70,1
2433164,1,46706,2,45930,47713,46519.80,47697.58,-589.80,15.42,0.592887,96.66,1
2433204,1,46746,2,45931,47717,46518.62,47697.62,-587.62,19.38,0.595701,96.61,1
2433244,1,46786,2,45930,47726,46517.45,47697.68,-587.45,28.32,0.598546,96.56,1
2433284,1,46826,2,45936,47720,46516.29,47697.72,-580.29,22.28,0.601423,96.51,1
2433324,1,46866,2,45936,47722,46515.12,47697.77,-579.12,24.23,0.604330,96.47,1
2433364,1,46906,2,45936,47728,46513.97,47697.84,-577.97,30.16,0.607268,96.42,1
2433404,1,46946,2,45932,47726,46512.80,47697.89,-580.80,28.11,0.610236,96.37,1
2433444,1,46986,2,45927,47724,46511.63,47697.95,-584.63,26.05,0.613236,96.31,1
2433484,1,47026,2,45927,47723,46510.46,47698.00,-583.46,25.00,0.616267,96.26,1
2433524,1,47066,2,45922,47721,46509.29,47698.05,-587.29,22.95,0.619329,96.21,1
2433564,1,47106,2,45920,47719,46508.11,47698.09,-588.11,20.91,0.622423,96.16,1
2433604,1,47146,2,45913,47711,46506.93,47698.12,-593.93,12.88,0.625550,96.10,1
2433645,1,47187,2,45907,47703,46505.73,47698.13,-598.73,4.87,0.628711,96.05,1
2433685,1,47227,2,45900,47691,46504.52,47698.12,-604.52,-7.12,0.631905,95.99,1
2433725,1,47267,2,45896,47686,46503.30,47698.09,-607.30,-12.09,0.635134,95.94,1
2433765,1,47307,2,45883,47687,46502.06,47698.07,-619.06,-11.07,0.638399,95.88,1
2433805,1,47347,2,45880,47681,46500.82,47698.04,-620.82,-17.04,0.641700,95.82,1
2433845,1,47387,2,45881,47678,46499.58,47698.00,-618.58,-20.00,0.645038,95.76,1
2433885,1,47427,2,45877,47677,46498.34,47697.96,-621.34,-20.96,0.648411,95.71,1
2433925,1,47467,2,45872,47679,46497.09,47697.93,-625.09,-18.93,0.651821,95.65,1
2433965,1,47507,2,45874,47683,46495.84,47697.90,-621.84,-14.90,0.655268,95.58,1
2434005,1,47547,2,45878,47678,46494.61,47697.86,-616.61,-19.86,0.658750,95.52,1
2434045,1,47587,2,45876,47672,46493.37,47697.81,-617.37,-25.81,0.662267,95.46,1
2434085,1,47627,2,45869,47669,46492.13,47697.76,-623.13,-28.76,0.665821,95.40,1
2434125,1,47667,2,45862,47664,46490.87,47697.69,-628.87,-33.69,0.669411,95.33,1
2434165,1,47707,2,45861,47657,46489.61,47697.61,-628.61,-40.61,0.673038,95.27,1
2434205,1,47747,2,45854,47655,46488.34,47697.52,-634.34,-42.52,0.676702,95.20,1
2434245,1,47787,2,45853,47654,46487.07,47697.44,-634.07,-43.44,0.680404,95.14,1
2434285,1,47827,2,45846,47652,46485.79,47697.35,-639.79,-45.35,0.684143,95.07,1
2434325,1,47867,2,45847,47653,46484.52,47697.26,-637.52,-44.26,0.687920,95.00,1
2434366,1,47908,2,45844,47648,46483.23,47697.16,-639.23,-49.16,0.691734,94.93,1
2434406,1,47948,2,45837,47641,46481.94,47697.05,-644.94,-56.05,0.695587,94.86,1
2434446,1,47988,2,45830,47645,46480.64,47696.95,-650.64,-51.95,0.699478,94.79,1
2434486,1,48028,2,45827,47643,46479.34,47696.85,-652.34,-53.85,0.703409,94.72,1
2434526,1,48068,2,45827,47638,46478.03,47696.73,-651.03,-58.73,0.707378,94.65,1
2434566,1,48108,2,45820,47761,46476.71,47696.86,-656.71,64.14,0.711387,94.58,1
2434606,1,48148,2,45822,47869,46475.41,47697.20,-653.41,171.80,0.715421,94.50,1
2434646,1,48188,2,45815,47641,46474.09,47697.09,-659.09,-56.09,0.719496,94.43,1
2434686,1,48228,2,45817,47641,46472.77,47696.98,-655.77,-55.98,0.723610,94.35,1
2434726,1,48268,2,45819,47640,46471.47,47696.87,-652.47,-56.87,0.727762,94.28,1
2434766,1,48308,2,45818,47681,46470.16,47696.84,-652.16,-15.84,0.731954,94.20,1
2434806,1,48348,2,45818,47562,46468.86,47696.57,-650.86,-134.57,0.736176,94.12,1
2434846,1,48388,2,45819,47645,46467.56,47696.47,-648.56,-51.47,0.740437,94.04,1
2434886,1,48428,2,45815,47638,46466.26,47696.35,-651.26,-58.35,0.744735,93.96,1
2434926,1,48468,2,45811,47627,46464.95,47696.21,-653.95,-69.21,0.749071,93.88,1
2434966,1,48508,2,45802,47166,46463.62,47695.16,-661.62,-529.16,0.753293,93.80,1
2435006,1,48548,2,45798,47043,46462.30,47693.85,-664.30,-650.85,0.757339,93.72,1
2435046,1,48588,2,45799,47625,46460.97,47693.71,-661.97,-68.71,0.761421,93.63,1
2435086,1,48628,2,45794,47631,46459.64,47693.59,-665.64,-62.59,0.765542,93.55,1
2435127,1,48669,2,45798,47626,46458.32,47693.46,-660.32,-67.46,0.769699,93.47,1
2435167,1,48709,2,45788,47623,46456.98,47693.32,-668.98,-70.32,0.773894,93.38,1
2435207,1,48749,2,45784,47625,46455.64,47693.18,-671.64,-68.18,0.778128,93.30,1
2435247,1,48789,2,45782,47626,46454.29,47693.05,-672.29,-67.05,0.782401,93.21,1
2435287,1,48829,2,45795,47623,46452.97,47692.91,-657.97,-69.91,0.786709,93.13,1
2435327,1,48869,2,45901,47624,46451.87,47692.77,-550.87,-68.77,0.791039,93.04,1
2435367,1,48909,2,45778,47631,46450.52,47692.65,-672.52,-61.65,0.795407,92.95,1
2435407,1,48949,2,45779,47635,46449.18,47692.54,-670.18,-57.54,0.799814,92.86,1
2435447,1,48989,2,45782,47644,46447.85,47692.44,-665.85,-48.44,0.804260,92.77,1
2435487,1,49029,2,46227,47641,46447.41,47692.34,-220.41,-51.34,0.808697,92.68,1
2435527,1,49069,2,46338,47643,46447.19,47692.24,-109.19,-49.24,0.813120,92.59,1
2435567,1,49109,2,45783,47643,46445.86,47692.14,-662.86,-49.14,0.817583,92.50,1
2435607,1,49149,2,45778,47643,46444.52,47692.04,-666.52,-49.04,0.822086,92.41,1
2435647,1,49189,2,45778,47637,46443.19,47691.93,-665.19,-54.93,0.826628,92.32,1
2435687,1,49229,2,45439,47630,46441.18,47691.81,-1002.18,-61.81,0.831277,92.23,1
2435727,1,49269,2,45307,47630,46438.92,47691.69,-1131.92,-61.69,0.836065,92.13,1
2435767,1,49309,2,45767,47630,46437.57,47691.57,-670.57,-61.57,0.840891,92.04,1
2435807,1,49349,2,45765,47630,46436.23,47691.45,-671.23,-61.45,0.845755,91.94,1
2435847,1,49389,2,45759,47625,46434.88,47691.32,-675.88,-66.32,0.850656,91.85,1
2435888,1,49430,2,45759,47617,46433.53,47691.17,-674.53,-74.17,0.855594,91.75,1
2435928,1,49470,2,45750,47603,46432.16,47690.99,-682.16,-87.99,0.860569,91.65,1
2435968,1,49510,2,45739,47602,46430.77,47690.82,-691.77,-88.82,0.865582,91.55,1
2436008,1,49550,2,45734,47606,46429.38,47690.65,-695.38,-84.65,0.870633,91.45,1
2436048,1,49590,2,45736,47608,46428.00,47690.48,-692.00,-82.48,0.875724,91.35,1
2436088,1,49630,2,45737,47608,46426.62,47690.32,-689.62,-82.32,0.880852,91.25,1
2436128,1,49670,2,45738,47618,46425.24,47690.18,-687.24,-72.18,0.880852,91.25,0
2436168,1,49710,2,45737,47621,46423.87,47690.04,-686.87,-69.04,0.880852,91.25,0
2436208,1,49750,2,45737,47621,46422.50,47689.90,-685.50,-68.90,0.880852,91.25,0
2436248,1,49790,2,45742,47622,46421.14,47689.77,-679.14,-67.77,0.880852,91.25,0
2436288,1,49830,2,45747,47624,46419.79,47689.64,-672.79,-65.64,0.880852,91.25,0
2436328,1,49870,2,45742,47626,46418.43,47689.52,-676.43,-63.52,0.880852,91.25,0
2436368,1,49910,2,45740,47620,46417.08,47689.38,-677.08,-69.38,0.880852,91.25,0
2436408,1,49950,2,45735,47616,46415.71,47689.23,-680.71,-73.23,0.880852,91.25,0
2436448,1,49990,2,45727,47608,46414.34,47689.07,-687.34,-81.07,0.880852,91.25,0
2436488,1,50030,2,45725,47599,46412.96,47688.89,-687.96,-89.89,0.880852,91.25,0
2436528,1,50070,2,45718,47603,46411.57,47688.72,-693.57,-85.72,0.880852,91.25,0
2436568,1,50110,2,45718,47605,46410.18,47688.55,-692.18,-83.55,0.880852,91.25,0
2436609,1,50151,2,45719,47601,46408.80,47688.38,-689.80,-87.38,0.880852,91.25,0
2436649,1,50191,2,45712,47601,46407.41,47688.21,-695.41,-87.21,0.880852,91.25,0
2436689,1,50231,2,45712,47602,46406.02,47688.04,-694.02,-86.04,0.880852,91.25,0
2436729,1,50271,2,45700,47602,46404.61,47687.86,-704.61,-85.86,0.880852,91.25,0
2436769,1,50311,2,45706,47603,46403.21,47687.70,-697.21,-84.70,0.880852,91.25,0
2436809,1,50351,2,45705,47602,46401.82,47687.52,-696.82,-85.52,0.880852,91.25,0
2436849,1,50391,2,45702,47598,46400.42,47687.34,-698.42,-89.34,0.880852,91.25,0
2436889,1,50431,2,45697,47605,46399.02,47687.18,-702.02,-82.18,0.880852,91.25,0
2436929,1,50471,2,45700,47607,46397.62,47687.02,-697.62,-80.02,0.880852,91.25,0
2436969,1,50511,2,45702,47601,46396.23,47686.85,-694.23,-85.85,0.880852,91.25,0
2437009,1,50551,2,45702,47591,46394.84,47686.66,-692.84,-95.66,0.880852,91.25,0
2437049,1,50591,2,45700,47593,46393.45,47686.47,-693.45,-93.47,0.880852,91.25,0
2437089,1,50631,2,45695,47597,46392.06,47686.29,-697.06,-89.29,0.880852,91.25,0
2437129,1,50671,2,45694,47592,46390.66,47686.11,-696.66,-94.11,0.880852,91.25,0
2437169,1,50711,2,45692,47592,46389.27,47685.92,-697.27,-93.92,0.880852,91.25,0
2437209,1,50751,2,45692,47595,46387.87,47685.74,-695.87,-90.74,0.880852,91.25,0
2437249,1,50791,2,45689,47595,46386.48,47685.56,-697.48,-90.56,0.880852,91.25,0
2437289,1,50831,2,45689,47587,46385.08,47685.36,-696.08,-98.36,0.880852,91.25,0
2437329,1,50871,2,45681,47581,46383.68,47685.16,-702.68,-104.16,0.880852,91.25,0
2437370,1,50912,2,45672,47573,46382.25,47684.93,-710.25,-111.93,0.880852,91.25,0
2437410,1,50952,2,45668,47569,46380.83,47684.70,-712.83,-115.70,0.880852,91.25,0
2437450,1,50992,2,45665,47578,46379.40,47684.49,-714.40,-106.49,0.880852,91.25,0
2437490,1,51032,2,45666,47575,46377.97,47684.27,-711.97,-109.27,0.880852,91.25,0
2437530,1,51072,2,45666,47573,46376.55,47684.05,-710.55,-111.05,0.880852,91.25,0
2437570,1,51112,2,45663,47577,46375.12,47683.84,-712.12,-106.84,0.880852,91.25,0
2437610,1,51152,2,45659,47576,46373.70,47683.62,-714.70,-107.62,0.880852,91.25,0
2437650,1,51192,2,45656,47572,46372.26,47683.40,-716.26,-111.40,0.880852,91.25,0
2437690,1,51232,2,45661,47567,46370.84,47683.17,-709.84,-116.17,0.880852,91.25,0
2437730,1,51272,2,45659,47565,46369.42,47682.94,-710.42,-117.94,0.880852,91.25,0
2437770,1,51312,2,45654,47557,46367.99,47682.69,-713.99,-125.69,0.880852,91.25,0
2437810,1,51352,2,45650,47552,46366.55,47682.43,-716.55,-130.43,0.880852,91.25,0
2437850,1,51392,2,45643,47551,46365.11,47682.16,-722.11,-131.16,0.880852,91.25,0
2437890,1,51432,2,45642,47539,46363.66,47681.88,-721.66,-142.88,0.880852,91.25,0
2437930,1,51472,2,45633,47533,46362.20,47681.58,-729.20,-148.58,0.880852,91.25,0
2437970,1,51512,2,45627,47534,46360.73,47681.29,-733.73,-147.29,0.880852,91.25,0
2438010,1,51552,2,45625,47660,46359.27,47681.25,-734.27,-21.25,0.880852,91.25,0
2438050,1,51592,2,45624,47777,46357.80,47681.44,-733.80,95.56,0.880852,91.25,0
2438091,1,51633,2,45619,47517,46356.32,47681.11,-737.32,-164.11,0.880852,91.25,0
2438131,1,51673,2,45613,47512,46354.84,47680.77,-741.84,-168.77,0.880852,91.25,0
2438171,1,51713,2,45605,47512,46353.34,47680.44,-748.34,-168.44,0.880852,91.25,0
2438211,1,51753,2,45606,47510,46351.84,47680.10,-745.84,-170.10,0.880852,91.25,0
2438251,1,51793,2,45602,47382,46350.34,47679.50,-748.34,-297.50,0.880852,91.25,0
2438291,1,51833,2,45602,47511,46348.85,47679.17,-746.85,-168.17,0.880852,91.25,0
2438331,1,51873,2,45600,47512,46347.35,47678.84,-747.35,-166.84,0.880852,91.25,0
2438371,1,51913,2,45596,47513,46345.85,47678.50,-749.85,-165.50,0.880852,91.25,0
2438411,1,51953,2,45598,47007,46344.36,47677.16,-746.36,-670.16,0.880852,91.25,0
2438451,1,51993,2,45597,46805,46342.86,47675.42,-745.86,-870.42,0.880852,91.25,0
2438491,1,52033,2,45592,47495,46341.36,47675.06,-749.36,-180.06,0.880852,91.25,0
2438531,1,52073,2,45587,47495,46339.86,47674.70,-752.86,-179.70,0.880852,91.25,0
2438571,1,52113,2,45587,47489,46338.35,47674.33,-751.35,-185.33,0.880852,91.25,0
2438611,1,52153,2,45585,47484,46336.85,47673.95,-751.85,-189.95,0.880852,91.25,0
2438651,1,52193,2,45579,47474,46335.33,47673.55,-756.33,-199.55,0.880852,91.25,0
2438691,1,52233,2,45573,47471,46333.81,47673.15,-760.81,-202.15,0.880852,91.25,0
2438731,1,52273,2,45643,47476,46332.43,47672.76,-689.43,-196.76,0.880852,91.25,0
2438771,1,52313,2,45745,47469,46331.26,47672.35,-586.26,-203.35,0.880852,91.25,0
2438812,1,52354,2,45563,47467,46329.72,47671.94,-766.72,-204.94,0.880852,91.25,0
2438852,1,52394,2,45562,47465,46328.19,47671.53,-766.19,-206.53,0.880852,91.25,0
2438892,1,52434,2,45554,47467,46326.64,47671.12,-772.64,-204.12,0.880852,91.25,0
2438932,1,52474,2,46069,47464,46326.12,47670.71,-257.12,-206.71,0.880852,91.25,0
2438972,1,52514,2,45529,47458,46324.53,47670.28,-795.53,-212.28,0.880852,91.25,0
2439012,1,52554,2,45548,47464,46322.98,47669.87,-774.98,-205.87,0.880852,91.25,0
2439052,1,52594,2,45549,47472,46321.43,47669.48,-772.43,-197.48,0.880852,91.25,0
2439092,1,52634,2,45552,47469,46319.89,47669.08,-767.89,-200.08,0.880852,91.25,0
2439132,1,52674,2,45117,47471,46317.49,47668.68,-1200.49,-197.68,0.880852,91.25,0
2439172,1,52714,2,45015,47464,46314.88,47668.28,-1299.88,-204.28,0.880852,91.25,0
2439212,1,52754,2,45552,47458,46313.36,47667.86,-761.36,-209.86,0.880852,91.25,0
2439252,1,52794,2,45546,47449,46311.82,47667.42,-765.82,-218.42,0.880852,91.25,0
2439292,1,52834,2,45542,47447,46310.29,47666.98,-768.29,-219.98,0.880852,91.25,0
2439332,1,52874,2,45542,47440,46308.75,47666.53,-766.75,-226.53,0.880852,91.25,0
2439372,1,52914,2,45531,47438,46307.20,47666.07,-776.20,-228.07,0.880852,91.25,0
2439412,1,52954,2,45527,47431,46305.64,47665.60,-778.64,-234.60,0.880852,91.25,0
2439452,1,52994,2,45525,47423,46304.08,47665.12,-779.08,-242.12,0.880852,91.25,0
2439492,1,53034,2,45518,47416,46302.51,47664.62,-784.51,-248.62,0.880852,91.25,0
2439533,1,53075,2,45512,47408,46300.93,47664.11,-788.93,-256.11,0.880852,91.25,0
2439573,1,53115,2,45510,47408,46299.35,47663.60,-789.35,-255.60,0.880852,91.25,0
2439613,1,53155,2,45502,47411,46297.75,47663.09,-795.75,-252.09,0.880852,91.25,0
2439653,1,53195,2,45504,47410,46296.17,47662.59,-792.17,-252.59,0.880852,91.25,0
2439693,1,53235,2,45504,47408,46294.59,47662.08,-790.59,-254.08,0.880852,91.25,0
2439733,1,53275,2,45503,47408,46293.00,47661.57,-790.00,-253.57,0.880852,91.25,0
2439773,1,53315,2,45497,47412,46291.41,47661.08,-794.41,-249.08,0.880852,91.25,0
2439813,1,53355,2,45501,47418,46289.84,47660.59,-788.84,-242.59,0.880852,91.25,0
2439853,1,53395,2,45502,47417,46288.26,47660.11,-786.26,-243.11,0.880852,91.25,0
2439893,1,53435,2,45504,47412,46286.70,47659.61,-782.70,-247.61,0.880852,91.25,0
2439933,1,53475,2,45503,47415,46285.13,47659.12,-782.13,-244.12,0.880852,91.25,0
2439973,1,53515,2,45499,47411,46283.56,47658.63,-784.56,-247.63,0.880852,91.25,0
2440013,1,53555,2,45495,47408,46281.98,47658.13,-786.98,-250.13,0.880852,91.25,0
2440053,1,53595,2,45492,47402,46280.41,47657.62,-788.41,-255.62,0.880852,91.25,0
2440093,1,53635,2,45492,47393,46278.83,47657.09,-786.83,-264.09,0.880852,91.25,0
2440133,1,53675,2,45485,47392,46277.25,47656.56,-792.25,-264.56,0.880852,91.25,0
2440173,1,53715,2,45481,47389,46275.66,47656.03,-794.66,-267.03,0.880852,91.25,0
2440213,1,53755,2,45479,47386,46274.06,47655.49,-795.06,-269.49,0.880852,91.25,0
2440254,1,53796,2,45476,47382,46272.47,47654.94,-796.47,-272.94,0.880852,91.25,0
2440294,1,53836,2,45472,47382,46270.87,47654.40,-798.87,-272.40,0.880852,91.25,0
2440334,1,53876,2,45467,47376,46269.26,47653.84,-802.26,-277.84,0.880852,91.25,0
2440374,1,53916,2,45464,47381,46267.65,47653.30,-803.65,-272.30,0.880852,91.25,0
2440414,1,53956,2,45461,47383,46266.04,47652.76,-805.04,-269.76,0.880852,91.25,0
2440454,1,53996,2,45467,47389,46264.44,47652.23,-797.44,-263.23,0.880852,91.25,0
2440494,1,54036,2,45467,47398,46262.85,47651.73,-795.85,-253.73,0.880852,91.25,0
2440534,1,54076,2,45464,47397,46261.25,47651.22,-797.25,-254.22,0.880852,91.25,0
2440574,1,54116,2,45464,47390,46259.66,47650.70,-795.66,-260.70,0.880852,91.25,0
2440614,1,54156,2,45468,47390,46258.07,47650.18,-790.07,-260.18,0.880852,91.25,0
2440654,1,54196,2,45470,47389,46256.50,47649.66,-786.50,-260.66,0.880852,91.25,0
2440694,1,54236,2,45470,47395,46254.93,47649.15,-784.93,-254.15,0.880852,91.25,0
2440734,1,54276,2,45466,47394,46253.35,47648.64,-787.35,-254.64,0.880852,91.25,0
2440774,1,54316,2,45465,47391,46251.78,47648.13,-786.78,-257.13,0.880852,91.25,0
2440814,1,54356,2,45463,47385,46250.20,47647.61,-787.20,-262.61,0.880852,91.25,0
2440854,1,54396,2,45453,47383,46248.61,47647.08,-795.61,-264.08,0.880852,91.25,0
2440894,1,54436,2,45451,47383,46247.01,47646.55,-796.01,-263.55,0.880852,91.25,0
2440934,1,54476,2,45449,47378,46245.42,47646.02,-796.42,-268.02,0.880852,91.25,0
2440975,1,54517,2,45448,47376,46243.82,47645.48,-795.82,-269.48,0.880852,91.25,0
2441015,1,54557,2,45443,47382,46242.22,47644.95,-799.22,-262.95,0.880852,91.25,0
2441055,1,54597,2,45444,47390,46240.63,47644.44,-796.63,-254.44,0.880852,91.25,0
2441095,1,54637,2,45447,47393,46239.04,47643.94,-792.04,-250.94,0.880852,91.25,0
2441135,1,54677,2,45444,47395,46237.45,47643.45,-793.45,-248.45,0.880852,91.25,0
2441175,1,54717,2,45449,47406,46235.88,47642.97,-786.88,-236.97,0.880852,91.25,0
2441215,1,54757,2,45453,47418,46234.31,47642.52,-781.31,-224.52,0.880852,91.25,0
2441255,1,54797,2,45461,47425,46232.77,47642.09,-771.77,-217.09,0.880852,91.25,0
2441295,1,54837,2,45462,47431,46231.23,47641.67,-769.23,-210.67,0.880852,91.25,0
2441335,1,54877,2,45472,47444,46229.71,47641.27,-757.71,-197.27,0.880852,91.25,0
2441375,1,54917,2,45475,47446,46228.20,47640.88,-753.20,-194.88,0.880852,91.25,0
2441415,1,54957,2,45473,47614,46226.70,47640.83,-753.70,-26.83,0.880852,91.25,0
2441455,1,54997,2,45470,47727,46225.18,47641.00,-755.18,86.00,0.880852,91.25,0
2441495,1,55037,2,45464,47440,46223.66,47640.60,-759.66,-200.60,0.880852,91.25,0
2441535,1,55077,2,45468,47441,46222.15,47640.20,-754.15,-199.20,0.880852,91.25,0
2441575,1,55117,2,45466,47450,46220.64,47639.82,-754.64,-189.82,0.880852,91.25,0
2441615,1,55157,2,45465,47451,46219.13,47639.45,-754.13,-188.45,0.880852,91.25,0
2441655,1,55197,2,45463,47316,46217.62,47638.80,-754.62,-322.80,0.880852,91.25,0
2441696,1,55238,2,45465,47447,46216.11,47638.42,-751.11,-191.42,0.880852,91.25,0
2441736,1,55278,2,45460,47451,46214.60,47638.05,-754.60,-187.05,0.880852,91.25,0
2441776,1,55318,2,45454,47451,46213.08,47637.68,-759.08,-186.68,0.880852,91.25,0
2441816,1,55358,2,45453,46958,46211.56,47636.32,-758.56,-678.32,0.880852,91.25,0
2441856,1,55398,2,45453,46764,46210.05,47634.57,-757.05,-870.57,0.880852,91.25,0
2441896,1,55438,2,45455,47452,46208.54,47634.21,-753.54,-182.21,0.880852,91.25,0
2441936,1,55478,2,45453,47453,46207.03,47633.85,-754.03,-180.85,0.880852,91.25,0
2441976,1,55518,2,45455,47455,46205.52,47633.50,-750.52,-178.50,0.880852,91.25,0
2442016,1,55558,2,45455,47455,46204.02,47633.14,-749.02,-178.14,0.880852,91.25,0
2442056,1,55598,2,45460,47457,46202.54,47632.79,-742.54,-175.79,0.880852,91.25,0
2442096,1,55638,2,45458,47456,46201.05,47632.44,-743.05,-176.44,0.880852,91.25,0
2442136,1,55678,2,45515,47463,46199.68,47632.10,-684.68,-169.10,0.880852,91.25,0
2442176,1,55718,2,45626,47466,46198.53,47631.77,-572.53,-165.77,0.880852,91.25,0
2442216,1,55758,2,45455,47461,46197.05,47631.43,-742.05,-170.43,0.880852,91.25,0
2442256,1,55798,2,45454,47459,46195.56,47631.09,-741.56,-172.09,0.880852,91.25,0
2442296,1,55838,2,45455,47452,46194.08,47630.73,-739.08,-178.73,0.880852,91.25,0
2442336,1,55878,2,45940,47445,46193.57,47630.36,-253.57,-185.36,0.880852,91.25,0
2442376,1,55918,2,45439,47439,46192.07,47629.98,-753.07,-190.98,0.880852,91.25,0
2442416,1,55958,2,45436,47436,46190.55,47629.59,-754.55,-193.59,0.880852,91.25,0
2442457,1,55999,2,45432,47436,46189.04,47629.20,-757.04,-193.20,0.880852,91.25,0
2442497,1,56039,2,45431,47437,46187.52,47628.82,-756.52,-191.82,0.880852,91.25,0
2442537,1,56079,2,45013,47435,46185.18,47628.43,-1172.18,-193.43,0.880852,91.25,0
2442577,1,56119,2,44915,47435,46182.64,47628.05,-1267.64,-193.05,0.880852,91.25,0
2442617,1,56159,2,45426,47425,46181.12,47627.64,-755.12,-202.64,0.880852,91.25,0
2442657,1,56199,2,45422,47427,46179.61,47627.24,-757.61,-200.24,0.880852,91.25,0
2442697,1,56239,2,45418,47429,46178.09,47626.85,-760.09,-197.85,0.880852,91.25,0
2442737,1,56279,2,45415,47429,46176.56,47626.45,-761.56,-197.45,0.880852,91.25,0
2442777,1,56319,2,45422,47424,46175.05,47626.05,-753.05,-202.05,0.880852,91.25,0
2442817,1,56359,2,45421,47417,46173.55,47625.63,-752.55,-208.63,0.880852,91.25,0
2442857,1,56399,2,45417,47412,46172.04,47625.21,-755.04,-213.21,0.880852,91.25,0
2442897,1,56439,2,45410,47409,46170.51,47624.78,-760.51,-215.78,0.880852,91.25,0
2442937,1,56479,2,45402,47404,46168.98,47624.34,-766.98,-220.34,0.880852,91.25,0
2442977,1,56519,2,45404,47405,46167.45,47623.90,-763.45,-218.90,0.880852,91.25,0
2443017,1,56559,2,45403,47401,46165.92,47623.45,-762.92,-222.45,0.880852,91.25,0
2443057,1,56599,2,45400,47400,46164.39,47623.01,-764.39,-223.01,0.880852,91.25,0
2443097,1,56639,2,45393,47391,46162.85,47622.55,-769.85,-231.55,0.880852,91.25,0
2443137,1,56679,2,45388,47384,46161.30,47622.07,-773.30,-238.07,0.880852,91.25,0
2443178,1,56720,2,45384,47380,46159.75,47621.59,-775.75,-241.59,0.880852,91.25,0
2443218,1,56760,2,45381,47373,46158.19,47621.09,-777.19,-248.09,0.880852,91.25,0
2443258,1,56800,2,45376,47382,46156.63,47620.61,-780.63,-238.61,0.880852,91.25,0
2443298,1,56840,2,45377,47386,46155.07,47620.14,-778.07,-234.14,0.880852,91.25,0
2443338,1,56880,2,45377,47389,46153.52,47619.68,-776.52,-230.68,0.880852,91.25,0
2443378,1,56920,2,45383,47395,46151.98,47619.23,-768.98,-224.23,0.880852,91.25,0
2443418,1,56960,2,45382,47392,46150.44,47618.78,-768.44,-226.78,0.880852,91.25,0
2443458,1,57000,2,45378,47389,46148.89,47618.32,-770.89,-229.32,0.880852,91.25,0
2443498,1,57040,2,45380,47387,46147.36,47617.86,-767.36,-230.86,0.880852,91.25,0
2443538,1,57080,2,45377,47382,46145.82,47617.39,-768.82,-235.39,0.880852,91.25,0
2443578,1,57120,2,45375,47375,46144.28,47616.91,-769.28,-241.91,0.880852,91.25,0
2443618,1,57160,2,45370,47374,46142.73,47616.43,-772.73,-242.43,0.880852,91.25,0
2443658,1,57200,2,45368,47369,46141.19,47615.93,-773.19,-246.93,0.880852,91.25,0
2443698,1,57240,2,45364,47366,46139.63,47615.43,-775.63,-249.43,0.880852,91.25,0
2443738,1,57280,2,45359,47359,46138.07,47614.92,-779.07,-255.92,0.880852,91.25,0
2443778,1,57320,2,45357,47356,46136.51,47614.41,-779.51,-258.41,0.880852,91.25,0
2443818,1,57360,2,45354,47355,46134.95,47613.89,-780.95,-258.89,0.880852,91.25,0
2443858,1,57400,2,45349,47359,46133.38,47613.38,-784.38,-254.38,0.880852,91.25,0
2443899,1,57441,2,45356,47365,46131.82,47612.88,-775.82,-247.88,0.880852,91.25,0
2443939,1,57481,2,45352,47361,46130.27,47612.38,-778.27,-251.38,0.880852,91.25,0
2443979,1,57521,2,45347,47368,46128.70,47611.89,-781.70,-243.89,0.880852,91.25,0
2444019,1,57561,2,45346,47374,46127.14,47611.42,-781.14,-237.42,0.880852,91.25,0
2444059,1,57601,2,45351,47373,46125.59,47610.94,-774.59,-237.94,0.880852,91.25,0
2444099,1,57641,2,45354,47378,46124.04,47610.48,-770.04,-232.48,0.880852,91.25,0
2444139,1,57681,2,45350,47383,46122.50,47610.02,-772.50,-227.02,0.880852,91.25,0
2444179,1,57721,2,45352,47387,46120.96,47609.58,-768.96,-222.58,0.880852,91.25,0
2444219,1,57761,2,45354,47386,46119.43,47609.13,-765.43,-223.13,0.880852,91.25,0
2444259,1,57801,2,45354,47378,46117.89,47608.67,-763.89,-230.67,0.880852,91.25,0
2444299,1,57841,2,45354,47372,46116.37,47608.20,-762.37,-236.20,0.880852,91.25,0
2444339,1,57881,2,45351,47375,46114.84,47607.73,-763.84,-232.73,0.880852,91.25,0
2444379,1,57921,2,45349,47377,46113.30,47607.27,-764.30,-230.27,0.880852,91.25,0
2444419,1,57961,2,45352,47381,46111.79,47606.82,-759.79,-225.82,0.880852,91.25,0
2444459,1,58001,2,45349,47378,46110.26,47606.36,-761.26,-228.36,0.880852,91.25,0
2444499,1,58041,2,45348,47379,46108.74,47605.91,-760.74,-226.91,0.880852,91.25,0
2444539,1,58081,2,45341,47378,46107.20,47605.46,-766.20,-227.46,0.880852,91.25,0
2444579,1,58121,2,45343,47383,46105.68,47605.01,-762.68,-222.01,0.880852,91.25,0
2444619,1,58161,2,45346,47385,46104.16,47604.57,-758.16,-219.57,0.880852,91.25,0
2444660,1,58202,2,45342,47382,46102.63,47604.13,-760.63,-222.13,0.880852,91.25,0
2444700,1,58242,2,45338,47381,46101.11,47603.68,-763.11,-222.68,0.880852,91.25,0
2444740,1,58282,2,45336,47377,46099.58,47603.23,-763.58,-226.23,0.880852,91.25,0
2444780,1,58322,2,45332,47380,46098.04,47602.79,-766.04,-222.79,0.880852,91.25,0
2444820,1,58362,2,45328,47388,46096.50,47602.36,-768.50,-214.36,0.880852,91.25,0
2444860,1,58402,2,45340,47582,46094.99,47602.32,-754.99,-20.32,0.880852,91.25,0
2444900,1,58442,2,45348,47712,46093.50,47602.54,-745.50,109.46,0.880852,91.25,0
2444940,1,58482,2,45358,47449,46092.03,47602.23,-734.03,-153.23,0.880852,91.25,0
2444980,1,58522,2,45368,47461,46090.59,47601.95,-722.59,-140.95,0.880852,91.25,0
2445020,1,58562,2,45376,47465,46089.16,47601.68,-713.16,-136.68,0.880852,91.25,0
2445060,1,58602,2,45376,47463,46087.73,47601.40,-711.73,-138.40,0.880852,91.25,0
2445100,1,58642,2,45375,47328,46086.30,47600.85,-711.30,-272.85,0.880852,91.25,0
2445140,1,58682,2,45373,47470,46084.88,47600.59,-711.88,-130.59,0.880852,91.25,0
2445180,1,58722,2,45374,47469,46083.46,47600.33,-709.46,-131.33,0.880852,91.25,0
2445220,1,58762,2,45378,47473,46082.05,47600.07,-704.05,-127.07,0.880852,91.25,0
2445260,1,58802,2,45371,46920,46080.62,47598.71,-709.62,-678.71,0.880852,91.25,0
2445300,1,58842,2,45375,46790,46079.21,47597.10,-704.21,-807.10,0.880852,91.25,0
2445340,1,58882,2,45372,47480,46077.80,47596.86,-705.80,-116.86,0.880852,91.25,0
2445381,1,58923,2,45368,47479,46076.38,47596.63,-708.38,-117.63,0.880852,91.25,0
2445421,1,58963,2,45371,47480,46074.97,47596.40,-703.97,-116.40,0.880852,91.25,0
2445461,1,59003,2,45369,47484,46073.56,47596.18,-704.56,-112.18,0.880852,91.25,0
2445501,1,59043,2,45366,47489,46072.15,47595.96,-706.15,-106.96,0.880852,91.25,0
2445541,1,59083,2,45367,47493,46070.74,47595.76,-703.74,-102.76,0.880852,91.25,0
2445581,1,59123,2,45443,47493,46069.48,47595.55,-626.48,-102.55,0.880852,91.25,0
2445621,1,59163,2,45541,47499,46068.43,47595.36,-527.43,-96.36,0.880852,91.25,0
2445661,1,59203,2,45366,47503,46067.03,47595.18,-701.03,-92.18,0.880852,91.25,0
2445701,1,59243,2,45371,47510,46065.64,47595.01,-694.64,-85.01,0.880852,91.25,0
2445741,1,59283,2,45376,47512,46064.26,47594.85,-688.26,-82.85,0.880852,91.25,0
2445781,1,59323,2,45868,47514,46063.87,47594.69,-195.87,-80.69,0.880852,91.25,0
2445821,1,59363,2,45370,47515,46062.48,47594.53,-692.48,-79.53,0.880852,91.25,0
2445861,1,59403,2,45376,47511,46061.11,47594.37,-685.11,-83.37,0.880852,91.25,0
2445901,1,59443,2,45374,47506,46059.74,47594.19,-685.74,-88.19,0.880852,91.25,0
2445941,1,59483,2,45374,47504,46058.37,47594.01,-684.37,-90.01,0.880852,91.25,0
2445981,1,59523,2,44983,47498,46056.22,47593.82,-1073.22,-95.82,0.880852,91.25,0
2446021,1,59563,2,44854,47490,46053.82,47593.61,-1199.82,-103.61,0.880852,91.25,0
2446061,1,59603,2,45352,47482,46052.41,47593.39,-700.41,-111.39,0.880852,91.25,0
2446101,1,59643,2,45346,47474,46051.00,47593.15,-705.00,-119.15,0.880852,91.25,0
2446142,1,59684,2,45346,47466,46049.59,47592.90,-703.59,-126.90,0.880852,91.25,0
2446182,1,59724,2,45338,47464,46048.17,47592.64,-710.17,-128.64,0.880852,91.25,0
2446222,1,59764,2,45333,47462,46046.74,47592.38,-713.74,-130.38,0.880852,91.25,0
2446262,1,59804,2,45332,47456,46045.31,47592.11,-713.31,-136.11,0.880852,91.25,0
2446302,1,59844,2,45327,47450,46043.88,47591.82,-716.88,-141.82,0.880852,91.25,0
2446342,1,59884,2,45323,47449,46042.44,47591.54,-719.44,-142.54,0.880852,91.25,0
2446382,1,59924,2,45321,47445,46041.00,47591.25,-720.00,-146.25,0.880852,91.25,0
2446422,1,59964,2,45317,47443,46039.55,47590.95,-722.55,-147.95,0.880852,91.25,0
2446462,1,60004,2,45323,47442,46038.12,47590.65,-715.12,-148.65,0.880852,91.25,0
2446502,1,60044,2,45325,47444,46036.69,47590.36,-711.69,-146.36,0.880852,91.25,0
2446542,1,60084,2,45328,47448,46035.27,47590.07,-707.27,-142.07,0.880852,91.25,0
2446582,1,60124,2,45323,47446,46033.85,47589.79,-710.85,-143.79,0.880852,91.25,0
2446622,1,60164,2,45318,47440,46032.42,47589.49,-714.42,-149.49,0.880852,91.25,0
2446662,1,60204,2,45311,47425,46030.98,47589.16,-719.98,-164.16,0.880852,91.25,0
2446702,1,60244,2,45312,47422,46029.54,47588.83,-717.54,-166.83,0.880852,91.25,0
2446742,1,60284,2,45302,47411,46028.09,47588.48,-726.09,-177.48,0.880852,91.25,0
2446782,1,60324,2,45294,47406,46026.62,47588.11,-732.62,-182.11,0.880852,91.25,0
2446822,1,60364,2,45289,47397,46025.15,47587.73,-736.15,-190.73,0.880852,91.25,0
2446863,1,60405,2,45282,47392,46023.66,47587.34,-741.66,-195.34,0.880852,91.25,0
2446903,1,60445,2,45282,47389,46022.18,47586.95,-740.18,-197.95,0.880852,91.25,0
2446943,1,60485,2,45275,47394,46020.69,47586.56,-745.69,-192.56,0.880852,91.25,0
2446983,1,60525,2,45278,47399,46019.21,47586.19,-741.21,-187.19,0.880852,91.25,0
2447023,1,60565,2,45275,47394,46017.72,47585.80,-742.72,-191.80,0.880852,91.25,0
2447063,1,60605,2,45278,47396,46016.24,47585.43,-738.24,-189.43,0.880852,91.25,0
