t_ms,phase,red_raw,ir_raw,red_dc,ir_dc,red_ac,ir_ac,OD_red,OD_ir,R,spo2,spo2_valid
34,0,50723,56100,50426.42,55491.27,296.58,608.73,-1.156860,-1.231827,0.597748,95.09,1
72,0,50733,56136,50427.03,55492.55,305.97,643.45,-1.156872,-1.231850,0.597755,95.09,1
113,0,50741,56068,50427.66,55493.71,313.34,574.29,-1.156884,-1.231871,0.597763,95.09,1
151,0,50658,55813,50428.12,55494.35,229.88,318.65,-1.156893,-1.231882,0.597776,95.09,1
192,0,50565,55684,50428.39,55494.73,136.61,189.27,-1.156899,-1.231889,0.597791,95.09,1
233,0,50540,55677,50428.62,55495.09,111.38,181.91,-1.156903,-1.231896,0.597807,95.09,1
272,0,50547,55692,50428.86,55495.49,118.14,196.51,-1.156908,-1.231903,0.597824,95.09,1
313,0,50557,55696,50429.11,55495.89,127.89,200.11,-1.156913,-1.231910,0.597841,95.09,1
352,0,50559,55714,50429.37,55496.33,129.62,217.67,-1.156918,-1.231918,0.597859,95.08,1
393,0,50569,55761,50429.66,55496.86,139.34,264.14,-1.156924,-1.231928,0.597877,95.08,1
433,0,50585,55783,50429.97,55497.43,155.03,285.57,-1.156930,-1.231938,0.597895,95.08,1
473,0,50593,55793,50430.30,55498.03,162.70,294.97,-1.156937,-1.231949,0.597912,95.08,1
512,0,50602,55814,50430.64,55498.66,171.36,315.34,-1.156943,-1.231960,0.597929,95.08,1
553,0,50614,55838,50431.01,55499.34,182.99,338.66,-1.156951,-1.231972,0.597946,95.08,1
592,0,50631,55879,50431.41,55500.10,199.59,378.90,-1.156959,-1.231986,0.597963,95.08,1
632,0,50646,55927,50431.84,55500.96,214.16,426.04,-1.156967,-1.232001,0.597976,95.08,1
672,0,50666,55973,50432.31,55501.90,233.69,471.10,-1.156976,-1.232018,0.597987,95.08,1
710,0,50685,56014,50432.82,55502.93,252.18,511.07,-1.156987,-1.232037,0.597994,95.08,1
752,0,50700,56051,50433.35,55504.03,266.65,546.97,-1.156997,-1.232057,0.597996,95.08,1
790,0,50716,56083,50433.92,55505.19,282.08,577.81,-1.157008,-1.232078,0.597994,95.08,1
828,0,50726,56126,50434.50,55506.43,291.50,619.57,-1.157020,-1.232100,0.597985,95.07,1
872,0,50742,56113,50435.12,55507.64,306.88,605.36,-1.157032,-1.232122,0.597972,95.07,1
913,0,50682,55867,50435.62,55508.36,246.38,358.64,-1.157042,-1.232135,0.597965,95.07,1
955,0,50583,55672,50435.91,55508.69,147.09,163.31,-1.157048,-1.232141,0.597962,95.07,1
992,0,50535,55642,50436.11,55508.96,98.89,133.04,-1.157052,-1.232146,0.597960,95.07,1
1033,0,50539,55667,50436.32,55509.28,102.68,157.72,-1.157056,-1.232151,0.597958,95.07,1
1073,0,50542,55681,50436.53,55509.62,105.47,171.38,-1.157060,-1.232157,0.597958,95.07,1
1115,0,50544,55705,50436.75,55510.01,107.25,194.99,-1.157065,-1.232165,0.597957,95.07,1
1154,0,50561,55745,50437.00,55510.48,124.00,234.52,-1.157069,-1.232173,0.597956,95.07,1
1193,0,50575,55751,50437.27,55510.97,137.73,240.03,-1.157075,-1.232182,0.597956,95.07,1
1233,0,50578,55753,50437.55,55511.45,140.45,241.55,-1.157081,-1.232191,0.597956,95.07,1
1273,0,50578,55770,50437.84,55511.97,140.16,258.03,-1.157086,-1.232200,0.597956,95.07,1
1313,0,50585,55803,50438.13,55512.55,146.87,290.45,-1.157092,-1.232210,0.597956,95.07,1
1353,0,50608,55848,50438.47,55513.23,169.53,334.77,-1.157099,-1.232222,0.597954,95.07,1
1393,0,50628,55895,50438.85,55513.99,189.15,381.01,-1.157106,-1.232236,0.597950,95.07,1
1432,0,50649,55933,50439.27,55514.83,209.73,418.17,-1.157115,-1.232251,0.597945,95.07,1
1473,0,50668,55971,50439.73,55515.75,228.27,455.25,-1.157124,-1.232268,0.597937,95.07,1
1513,0,50681,56006,50440.21,55516.73,240.79,489.27,-1.157133,-1.232285,0.597927,95.07,1
1553,0,50694,56030,50440.72,55517.75,253.28,512.25,-1.157143,-1.232304,0.597913,95.06,1
1593,0,50668,55824,50441.18,55518.37,226.82,305.63,-1.157152,-1.232315,0.597906,95.06,1
1633,0,50557,55581,50441.41,55518.49,115.59,62.51,-1.157157,-1.232317,0.597902,95.06,1
1673,0,50490,55504,50441.51,55518.46,48.49,-14.46,-1.157159,-1.232317,0.597898,95.06,1
1713,0,50480,55520,50441.59,55518.47,38.41,1.53,-1.157161,-1.232317,0.597894,95.06,1
1753,0,50485,55539,50441.68,55518.51,43.32,20.49,-1.157162,-1.232318,0.597892,95.06,1
1789,0,50489,55558,50441.78,55518.59,47.22,39.41,-1.157164,-1.232319,0.597889,95.06,1
1830,0,50507,55600,50441.91,55518.76,65.09,81.24,-1.157167,-1.232322,0.597887,95.06,1
1873,0,50518,55620,50442.06,55518.96,75.94,101.04,-1.157170,-1.232326,0.597886,95.06,1
1913,0,50521,55619,50442.22,55519.16,78.78,99.84,-1.157173,-1.232329,0.597886,95.06,1
1952,0,50525,55638,50442.39,55519.40,82.61,118.60,-1.157176,-1.232334,0.597886,95.06,1
1993,0,50529,55665,50442.57,55519.70,86.43,145.30,-1.157180,-1.232339,0.597887,95.06,1
2034,0,50548,55718,50442.78,55520.09,105.22,197.91,-1.157184,-1.232346,0.597888,95.06,1
2074,0,50568,55764,50443.03,55520.58,124.97,243.42,-1.157189,-1.232355,0.597888,95.06,1
2114,0,50588,55814,50443.32,55521.17,144.68,292.83,-1.157195,-1.232366,0.597887,95.06,1
2154,0,50608,55860,50443.65,55521.85,164.35,338.15,-1.157201,-1.232378,0.597884,95.06,1
2194,0,50627,55907,50444.02,55522.62,182.98,384.37,-1.157209,-1.232392,0.597879,95.06,1
2234,0,50644,55944,50444.42,55523.47,199.58,420.53,-1.157217,-1.232407,0.597870,95.06,1
2274,0,50658,55943,50444.85,55524.31,213.15,418.69,-1.157225,-1.232422,0.597859,95.06,1
2317,0,50614,55672,50445.19,55524.61,168.81,147.39,-1.157232,-1.232427,0.597855,95.06,1
2353,0,50485,55406,50445.27,55524.37,39.73,-118.37,-1.157233,-1.232423,0.597850,95.06,1
2393,0,50418,55337,50445.22,55524.00,-27.22,-187.00,-1.157233,-1.232416,0.597843,95.06,1
2433,0,50409,55347,50445.15,55523.64,-36.15,-176.64,-1.157231,-1.232410,0.597833,95.06,1
2474,0,50413,55351,50445.09,55523.30,-32.09,-172.30,-1.157230,-1.232404,0.597821,95.06,1
2514,0,50416,55352,50445.03,55522.96,-29.03,-170.96,-1.157229,-1.232398,0.597807,95.06,1
2554,0,50422,55392,50444.98,55522.70,-22.98,-130.70,-1.157228,-1.232393,0.597791,95.06,1
2593,0,50445,55426,50444.98,55522.51,0.02,-96.51,-1.157228,-1.232390,0.597775,95.06,1
2633,0,50453,55433,50445.00,55522.33,8.00,-89.33,-1.157228,-1.232386,0.597758,95.06,1
2673,0,50451,55444,50445.01,55522.18,5.99,-78.18,-1.157228,-1.232384,0.597741,95.06,1
2714,0,50459,55478,50445.04,55522.09,13.96,-44.09,-1.157229,-1.232382,0.597724,95.06,1
2754,0,50472,55525,50445.09,55522.10,26.91,2.90,-1.157230,-1.232382,0.597707,95.06,1
2797,0,50495,55572,50445.20,55522.20,49.80,49.80,-1.157232,-1.232384,0.597691,95.06,1
2833,0,50516,55628,50445.34,55522.41,70.66,105.59,-1.157235,-1.232388,0.597675,95.06,1
2876,0,50533,55670,50445.52,55522.71,87.48,147.29,-1.157238,-1.232393,0.597659,95.06,1
2916,0,50552,55719,50445.73,55523.11,106.27,195.89,-1.157243,-1.232400,0.597644,95.06,1
2955,0,50565,55755,50445.97,55523.57,119.03,231.43,-1.157247,-1.232409,0.597629,95.06,1
2996,0,50584,55788,50446.25,55524.10,137.75,263.90,-1.157253,-1.232418,0.597613,95.06,1
3036,0,50587,55677,50446.53,55524.41,140.47,152.59,-1.157258,-1.232424,0.597601,95.06,1
3076,0,50474,55350,50446.58,55524.06,27.42,-174.06,-1.157259,-1.232418,0.597587,95.06,1
3116,0,50360,55178,50446.41,55523.37,-86.41,-345.37,-1.157256,-1.232405,0.597564,95.06,1
3156,0,50336,55167,50446.19,55522.66,-110.19,-355.66,-1.157252,-1.232392,0.597533,95.06,1
3196,0,50346,55177,50445.99,55521.97,-99.99,-344.97,-1.157248,-1.232380,0.597495,95.06,1
3236,0,50353,55185,50445.81,55521.30,-92.81,-336.30,-1.157244,-1.232368,0.597449,95.06,1
3275,0,50364,55212,50445.64,55520.68,-81.64,-308.68,-1.157241,-1.232357,0.597397,95.06,1
3316,0,50382,55268,50445.52,55520.18,-63.52,-252.18,-1.157238,-1.232348,0.597341,95.06,1
3356,0,50397,55293,50445.42,55519.72,-48.42,-226.72,-1.157236,-1.232340,0.597281,95.06,1
3396,0,50405,55309,50445.34,55519.30,-40.34,-210.30,-1.157235,-1.232332,0.597217,95.06,1
3434,0,50418,55337,50445.29,55518.94,-27.29,-181.94,-1.157234,-1.232325,0.597151,95.06,1
3476,0,50432,55379,50445.27,55518.66,-13.27,-139.66,-1.157233,-1.232320,0.597084,95.06,1
3516,0,50453,55436,50445.28,55518.50,7.72,-82.50,-1.157234,-1.232317,0.597016,95.06,1
3555,0,50475,55486,50445.34,55518.43,29.66,-32.43,-1.157235,-1.232316,0.596948,95.06,1
3597,0,50497,55545,50445.45,55518.49,51.55,26.51,-1.157237,-1.232317,0.596882,95.06,1
3635,0,50516,55593,50445.59,55518.64,70.41,74.36,-1.157240,-1.232320,0.596817,95.06,1
3677,0,50539,55638,50445.78,55518.88,93.22,119.12,-1.157243,-1.232324,0.596754,95.06,1
3717,0,50554,55673,50446.00,55519.19,108.00,153.81,-1.157248,-1.232330,0.596693,95.06,1
3756,0,50575,55723,50446.25,55519.60,128.75,203.40,-1.157253,-1.232337,0.596633,95.06,1
3797,0,50572,55602,50446.51,55519.77,125.49,82.23,-1.157258,-1.232340,0.596579,95.06,1
3837,0,50460,55271,50446.54,55519.27,13.46,-248.27,-1.157259,-1.232331,0.596520,95.07,1
3877,0,50352,55121,50446.35,55518.47,-94.35,-397.47,-1.157255,-1.232317,0.596448,95.07,1
3917,0,50333,55134,50446.12,55517.71,-113.12,-383.71,-1.157250,-1.232303,0.596366,95.07,1
3956,0,50348,55170,50445.93,55517.01,-97.93,-347.01,-1.157246,-1.232291,0.596277,95.07,1
3996,0,50361,55193,50445.76,55516.36,-84.76,-323.36,-1.157243,-1.232279,0.596180,95.07,1
4037,0,50379,55236,50445.62,55515.80,-66.62,-279.80,-1.157241,-1.232269,0.596078,95.07,1
4076,0,50409,55289,50445.55,55515.35,-36.55,-226.35,-1.157239,-1.232261,0.595972,95.07,1
4112,0,50424,55313,50445.51,55514.95,-21.51,-201.95,-1.157238,-1.232254,0.595862,95.07,1
4157,0,50430,55324,50445.48,55514.57,-15.48,-190.57,-1.157238,-1.232247,0.595749,95.07,1
4196,0,50435,55349,50445.46,55514.24,-10.46,-165.24,-1.157237,-1.232241,0.595634,95.07,1
4236,0,50453,55396,50445.48,55514.01,7.52,-118.01,-1.157238,-1.232237,0.595518,95.07,1
4275,0,50476,55449,50445.54,55513.88,30.46,-64.88,-1.157239,-1.232234,0.595402,95.08,1
4316,0,50502,55500,50445.65,55513.85,56.35,-13.85,-1.157241,-1.232234,0.595288,95.08,1
4356,0,50521,55549,50445.80,55513.92,75.20,35.08,-1.157244,-1.232235,0.595177,95.08,1
4397,0,50538,55593,50445.99,55514.08,92.01,78.92,-1.157248,-1.232238,0.595068,95.08,1
4436,0,50555,55638,50446.21,55514.33,108.79,123.67,-1.157252,-1.232242,0.594963,95.08,1
4476,0,50572,55674,50446.46,55514.65,125.54,159.35,-1.157257,-1.232248,0.594861,95.08,1
4516,0,50560,55481,50446.69,55514.59,113.31,-33.59,-1.157262,-1.232247,0.594765,95.08,1
4556,0,50435,55194,50446.67,55513.95,-11.67,-319.95,-1.157261,-1.232235,0.594659,95.09,1
4598,0,50356,55107,50446.49,55513.13,-90.49,-406.13,-1.157258,-1.232221,0.594539,95.09,1
4637,0,50348,55150,50446.29,55512.41,-98.29,-362.41,-1.157254,-1.232208,0.594410,95.09,1
4678,0,50374,55188,50446.15,55511.76,-72.15,-323.76,-1.157251,-1.232196,0.594273,95.09,1
4717,0,50394,55228,50446.05,55511.19,-52.05,-283.19,-1.157249,-1.232186,0.594130,95.09,1
4758,0,50418,55292,50445.99,55510.75,-27.99,-218.75,-1.157248,-1.232178,0.593983,95.09,1
4798,0,50444,55327,50445.99,55510.39,-1.99,-183.39,-1.157248,-1.232171,0.593832,95.10,1
4837,0,50447,55338,50445.99,55510.04,1.01,-172.04,-1.157248,-1.232165,0.593679,95.10,1
4877,0,50455,55357,50446.01,55509.74,8.99,-152.74,-1.157248,-1.232160,0.593525,95.10,1
4918,0,50469,55392,50446.06,55509.50,22.94,-117.50,-1.157249,-1.232155,0.593369,95.10,1
4957,0,50494,55454,50446.16,55509.39,47.84,-55.39,-1.157251,-1.232153,0.593215,95.10,1
4998,0,50519,55506,50446.30,55509.39,72.70,-3.39,-1.157254,-1.232153,0.593063,95.11,1
5037,0,50544,55562,50446.50,55509.50,97.50,52.50,-1.157258,-1.232155,0.592916,95.11,1
5078,0,50566,55612,50446.74,55509.70,119.26,102.30,-1.157263,-1.232159,0.592774,95.11,1
5118,0,50587,55655,50447.02,55510.00,139.98,145.00,-1.157268,-1.232164,0.592639,95.11,1
5157,0,50600,55700,50447.33,55510.38,152.67,189.62,-1.157274,-1.232171,0.592510,95.11,1
5197,0,50613,55591,50447.66,55510.54,165.34,80.46,-1.157281,-1.232174,0.592393,95.12,1
5237,0,50497,55257,50447.77,55510.04,49.23,-253.04,-1.157283,-1.232165,0.592270,95.12,1
5278,0,50388,55098,50447.65,55509.21,-59.65,-411.21,-1.157281,-1.232150,0.592131,95.12,1
5317,0,50360,55096,50447.47,55508.39,-87.47,-412.39,-1.157277,-1.232135,0.591978,95.12,1
5359,0,50376,55133,50447.33,55507.64,-71.33,-374.64,-1.157274,-1.232122,0.591812,95.13,1
5399,0,50391,55146,50447.22,55506.92,-56.22,-360.92,-1.157272,-1.232109,0.591635,95.13,1
5438,0,50397,55185,50447.12,55506.28,-50.12,-321.28,-1.157270,-1.232097,0.591449,95.13,1
5481,0,50419,55244,50447.07,55505.75,-28.07,-261.75,-1.157269,-1.232088,0.591256,95.13,1
5519,0,50434,55272,50447.04,55505.29,-13.04,-233.29,-1.157269,-1.232080,0.591060,95.14,1
5559,0,50446,55282,50447.04,55504.84,-1.04,-222.84,-1.157269,-1.232071,0.590858,95.14,1
5598,0,50448,55316,50447.05,55504.47,0.95,-188.47,-1.157269,-1.232065,0.590654,95.14,1
5639,0,50468,55361,50447.09,55504.18,20.91,-143.18,-1.157270,-1.232059,0.590448,95.15,1
5679,0,50496,55425,50447.19,55504.03,48.81,-79.03,-1.157272,-1.232057,0.590243,95.15,1
5718,0,50518,55487,50447.33,55504.00,70.67,-17.00,-1.157274,-1.232056,0.590041,95.15,1
5758,0,50544,55541,50447.53,55504.07,96.47,36.93,-1.157278,-1.232058,0.589844,95.15,1
5799,0,50569,55596,50447.77,55504.25,121.23,91.75,-1.157283,-1.232061,0.589654,95.16,1
5839,0,50590,55636,50448.06,55504.52,141.94,131.48,-1.157289,-1.232066,0.589471,95.16,1
5878,0,50608,55672,50448.38,55504.86,159.62,167.14,-1.157295,-1.232072,0.589298,95.16,1
5919,0,50626,55718,50448.73,55505.28,177.27,212.72,-1.157302,-1.232079,0.589136,95.17,1
5958,0,50639,55635,50449.12,55505.54,189.88,129.46,-1.157310,-1.232084,0.588989,95.17,1
5999,0,50532,55278,50449.29,55505.09,82.71,-227.09,-1.157313,-1.232076,0.588839,95.17,1
6039,0,50402,55084,50449.19,55504.25,-47.19,-420.25,-1.157311,-1.232061,0.588672,95.18,1
6079,0,50368,55069,50449.03,55503.38,-81.03,-434.38,-1.157308,-1.232045,0.588487,95.18,1
6118,0,50373,55087,50448.88,55502.55,-75.88,-415.55,-1.157305,-1.232030,0.588288,95.18,1
6159,0,50379,55097,50448.74,55501.74,-69.74,-404.74,-1.157302,-1.232016,0.588074,95.19,1
6200,0,50380,55119,50448.61,55500.98,-68.61,-381.98,-1.157300,-1.232002,0.587848,95.19,1
6239,0,50399,55179,50448.51,55500.34,-49.51,-321.34,-1.157298,-1.231990,0.587614,95.19,1
6280,0,50425,55211,50448.46,55499.76,-23.46,-288.76,-1.157297,-1.231980,0.587373,95.20,1
6319,0,50434,55224,50448.43,55499.21,-14.43,-275.21,-1.157296,-1.231970,0.587125,95.20,1
6360,0,50436,55255,50448.41,55498.72,-12.41,-243.72,-1.157296,-1.231961,0.586871,95.21,1
6397,0,50448,55300,50448.41,55498.32,-0.41,-198.32,-1.157296,-1.231954,0.586615,95.21,1
6439,0,50470,55353,50448.45,55498.04,21.55,-145.04,-1.157297,-1.231949,0.586358,95.21,1
6479,0,50495,55410,50448.55,55497.86,46.45,-87.86,-1.157298,-1.231946,0.586101,95.22,1
6519,0,50521,55471,50448.69,55497.81,72.31,-26.81,-1.157301,-1.231945,0.585848,95.22,1
6560,0,50541,55526,50448.88,55497.87,92.12,28.13,-1.157305,-1.231946,0.585600,95.23,1
6600,0,50567,55579,50449.12,55498.03,117.88,80.97,-1.157310,-1.231949,0.585358,95.23,1
6640,0,50588,55621,50449.39,55498.28,138.61,122.72,-1.157315,-1.231953,0.585125,95.23,1
6680,0,50607,55661,50449.71,55498.61,157.29,162.39,-1.157321,-1.231959,0.584903,95.24,1
6719,0,50628,55648,50450.07,55498.91,177.93,149.09,-1.157329,-1.231964,0.584694,95.24,1
6760,0,50560,55321,50450.29,55498.55,109.71,-177.55,-1.157333,-1.231958,0.584488,95.25,1
6800,0,50419,55073,50450.23,55497.70,-31.23,-424.70,-1.157332,-1.231943,0.584264,95.25,1
6840,0,50367,55042,50450.07,55496.79,-83.07,-454.79,-1.157329,-1.231926,0.584023,95.26,1
6881,0,50375,55076,50449.92,55495.95,-74.92,-419.95,-1.157326,-1.231911,0.583767,95.26,1
6919,0,50389,55091,50449.80,55495.14,-60.80,-404.14,-1.157323,-1.231897,0.583497,95.26,1
6959,0,50392,55112,50449.68,55494.37,-57.68,-382.37,-1.157321,-1.231883,0.583215,95.27,1
6999,0,50409,55168,50449.61,55493.72,-40.61,-325.72,-1.157319,-1.231871,0.582925,95.27,1
7040,0,50429,55203,50449.57,55493.14,-20.57,-290.14,-1.157319,-1.231861,0.582628,95.28,1
7082,0,50435,55218,50449.54,55492.59,-14.54,-274.59,-1.157318,-1.231851,0.582325,95.28,1
7121,0,50442,55233,50449.52,55492.07,-7.52,-259.07,-1.157318,-1.231841,0.582016,95.29,1
7160,0,50453,55278,50449.53,55491.65,3.47,-213.65,-1.157318,-1.231834,0.581704,95.29,1
7202,0,50472,55338,50449.58,55491.34,22.42,-153.34,-1.157319,-1.231828,0.581391,95.30,1
7240,0,50500,55400,50449.68,55491.16,50.32,-91.16,-1.157321,-1.231825,0.581079,95.30,1
7278,0,50526,55459,50449.83,55491.10,76.17,-32.10,-1.157324,-1.231824,0.580771,95.31,1
7320,0,50551,55520,50450.04,55491.16,100.96,28.84,-1.157328,-1.231825,0.580469,95.31,1
7360,0,50570,55575,50450.28,55491.33,119.72,83.67,-1.157333,-1.231828,0.580175,95.32,1
7400,0,50592,55619,50450.56,55491.59,141.44,127.41,-1.157338,-1.231833,0.579891,95.33,1
7440,0,50618,55666,50450.90,55491.94,167.10,174.06,-1.157345,-1.231839,0.579618,95.33,1
7480,0,50641,55693,50451.28,55492.34,189.72,200.66,-1.157353,-1.231846,0.579361,95.34,1
7520,0,50612,55426,50451.61,55492.21,160.39,-66.21,-1.157359,-1.231844,0.579118,95.34,1
7560,0,50467,55133,50451.64,55491.49,15.36,-358.49,-1.157360,-1.231831,0.578862,95.35,1
7597,0,50395,55068,50451.52,55490.64,-56.52,-422.64,-1.157357,-1.231816,0.578589,95.35,1
7640,0,50394,55104,50451.41,55489.87,-57.41,-385.87,-1.157355,-1.231802,0.578305,95.36,1
7680,0,50413,55149,50451.34,55489.19,-38.34,-340.19,-1.157354,-1.231789,0.578010,95.36,1
7720,0,50427,55171,50451.29,55488.55,-24.29,-317.55,-1.157353,-1.231778,0.577707,95.37,1
7760,0,50445,55226,50451.28,55488.03,-6.28,-262.03,-1.157353,-1.231768,0.577399,95.38,1
7800,0,50466,55262,50451.31,55487.58,14.69,-225.58,-1.157353,-1.231760,0.577086,95.38,1
7841,0,50474,55273,50451.36,55487.16,22.64,-214.16,-1.157354,-1.231753,0.576770,95.39,1
7881,0,50476,55288,50451.41,55486.76,24.59,-198.76,-1.157355,-1.231746,0.576451,95.39,1
7917,0,50484,55317,50451.47,55486.42,32.53,-169.42,-1.157357,-1.231739,0.576132,95.40,1
7961,0,50498,55371,50451.57,55486.19,46.43,-115.19,-1.157358,-1.231735,0.575813,95.41,1
8002,0,50523,55428,50451.71,55486.07,71.29,-58.07,-1.157361,-1.231733,0.575497,95.41,1
8041,0,50548,55491,50451.91,55486.09,96.09,4.91,-1.157365,-1.231733,0.575187,95.42,1
8082,0,50570,55544,50452.14,55486.20,117.86,57.80,-1.157370,-1.231736,0.574886,95.43,1
8121,0,50595,55592,50452.43,55486.42,142.57,105.58,-1.157375,-1.231739,0.574595,95.43,1
8162,0,50611,55646,50452.75,55486.74,158.25,159.26,-1.157382,-1.231745,0.574317,95.44,1
8202,0,50629,55687,50453.11,55487.14,175.89,199.86,-1.157389,-1.231752,0.574052,95.44,1
8241,0,50619,55480,50453.44,55487.13,165.56,-7.13,-1.157395,-1.231752,0.573802,95.45,1
8282,0,50495,55167,50453.52,55486.49,41.48,-319.49,-1.157397,-1.231741,0.573544,95.46,1
8321,0,50409,55083,50453.44,55485.68,-44.44,-402.68,-1.157395,-1.231726,0.573270,95.46,1
8363,0,50406,55125,50453.34,55484.96,-47.34,-359.96,-1.157394,-1.231713,0.572984,95.47,1
8400,0,50433,55180,50453.30,55484.36,-20.30,-304.36,-1.157393,-1.231702,0.572690,95.48,1
8441,0,50452,55219,50453.30,55483.83,-1.30,-264.83,-1.157393,-1.231693,0.572390,95.48,1
8482,0,50475,55279,50453.35,55483.42,21.65,-204.42,-1.157394,-1.231685,0.572087,95.49,1
8521,0,50496,55309,50453.43,55483.07,42.57,-174.07,-1.157395,-1.231679,0.571782,95.50,1
8561,0,50502,55313,50453.53,55482.73,48.47,-169.73,-1.157397,-1.231673,0.571477,95.50,1
8600,0,50499,55324,50453.62,55482.41,45.38,-158.41,-1.157399,-1.231667,0.571171,95.51,1
8641,0,50508,55358,50453.73,55482.17,54.27,-124.17,-1.157401,-1.231663,0.570866,95.52,1
8682,0,50525,55405,50453.88,55482.02,71.12,-77.02,-1.157404,-1.231660,0.570565,95.52,1
8721,0,50546,55462,50454.06,55481.98,91.94,-19.98,-1.157408,-1.231659,0.570269,95.53,1
8762,0,50570,55523,50454.30,55482.06,115.70,40.94,-1.157412,-1.231661,0.569981,95.54,1
8801,0,50587,55576,50454.56,55482.25,132.44,93.75,-1.157418,-1.231664,0.569704,95.54,1
8841,0,50609,55627,50454.87,55482.54,154.13,144.46,-1.157424,-1.231669,0.569439,95.55,1
8881,0,50632,55652,50455.23,55482.87,176.77,169.12,-1.157431,-1.231676,0.569190,95.56,1
8921,0,50602,55397,50455.52,55482.70,146.48,-85.70,-1.157437,-1.231672,0.568953,95.56,1
8961,0,50460,55114,50455.53,55481.97,4.47,-367.97,-1.157437,-1.231659,0.568701,95.57,1
9001,0,50386,55046,50455.39,55481.10,-69.39,-435.10,-1.157434,-1.231644,0.568432,95.57,1
9040,0,50394,55089,50455.27,55480.32,-61.27,-391.32,-1.157432,-1.231629,0.568150,95.58,1
9081,0,50415,55127,50455.20,55479.61,-40.20,-352.61,-1.157430,-1.231617,0.567855,95.59,1
9120,0,50430,55155,50455.14,55478.96,-25.14,-323.96,-1.157429,-1.231605,0.567552,95.59,1
9160,0,50453,55220,50455.14,55478.45,-2.14,-258.45,-1.157429,-1.231596,0.567242,95.60,1
9198,0,50480,55258,50455.19,55478.00,24.81,-220.00,-1.157430,-1.231588,0.566928,95.61,1
9241,0,50486,55268,50455.25,55477.59,30.75,-209.59,-1.157431,-1.231580,0.566612,95.62,1
9280,0,50491,55286,50455.33,55477.20,35.67,-191.20,-1.157433,-1.231573,0.566293,95.62,1
9321,0,50503,55323,50455.43,55476.89,47.57,-153.89,-1.157435,-1.231568,0.565974,95.63,1
9362,0,50524,55377,50455.56,55476.70,68.44,-99.70,-1.157438,-1.231564,0.565658,95.64,1
9400,0,50543,55435,50455.74,55476.61,87.26,-41.61,-1.157441,-1.231563,0.565347,95.64,1
9441,0,50564,55488,50455.96,55476.64,108.04,11.36,-1.157445,-1.231563,0.565045,95.65,1
9483,0,50584,55540,50456.21,55476.77,127.79,63.23,-1.157450,-1.231565,0.564752,95.66,1
9522,0,50606,55584,50456.52,55476.98,149.48,107.02,-1.157456,-1.231569,0.564473,95.66,1
9563,0,50620,55624,50456.84,55477.28,163.16,146.72,-1.157463,-1.231575,0.564208,95.67,1
9601,0,50632,55671,50457.20,55477.67,174.80,193.33,-1.157470,-1.231582,0.563958,95.68,1
9642,0,50644,55594,50457.57,55477.90,186.43,116.10,-1.157477,-1.231586,0.563728,95.68,1
9682,0,50534,55215,50457.72,55477.38,76.28,-262.38,-1.157480,-1.231577,0.563495,95.69,1
9722,0,50403,55005,50457.61,55476.44,-54.61,-471.44,-1.157478,-1.231560,0.563238,95.70,1
9762,0,50364,54993,50457.43,55475.47,-93.43,-482.47,-1.157474,-1.231542,0.562961,95.70,1
9802,0,50373,55023,50457.26,55474.57,-84.26,-451.57,-1.157471,-1.231526,0.562668,95.71,1
9842,0,50385,55041,50457.11,55473.70,-72.11,-432.70,-1.157468,-1.231510,0.562360,95.72,1
9884,0,50393,55066,50456.99,55472.89,-63.99,-406.89,-1.157466,-1.231496,0.562038,95.73,1
9922,0,50420,55133,50456.91,55472.21,-36.91,-339.21,-1.157464,-1.231483,0.561707,95.73,1
9963,0,50445,55164,50456.89,55471.60,-11.89,-307.60,-1.157464,-1.231472,0.561367,95.74,1
10002,0,50453,55178,50456.88,55471.01,-3.88,-293.01,-1.157464,-1.231462,0.561021,95.75,1
10042,0,50454,55197,50456.88,55470.46,-2.88,-273.46,-1.157464,-1.231452,0.560668,95.75,1
10082,0,50467,55243,50456.90,55470.01,10.10,-227.01,-1.157464,-1.231444,0.560312,95.76,1
10122,0,50489,55296,50456.97,55469.66,32.03,-173.66,-1.157465,-1.231437,0.559954,95.77,1
10163,0,50509,55352,50457.07,55469.43,51.93,-117.43,-1.157467,-1.231433,0.559598,95.78,1
10202,0,50535,55410,50457.23,55469.31,77.77,-59.31,-1.157471,-1.231431,0.559246,95.78,1
10242,0,50557,55458,50457.43,55469.29,99.57,-11.29,-1.157475,-1.231431,0.558901,95.79,1
10283,0,50574,55507,50457.66,55469.37,116.34,37.63,-1.157479,-1.231432,0.558565,95.80,1
10322,0,50592,55541,50457.93,55469.52,134.07,71.48,-1.157485,-1.231435,0.558240,95.80,1
10364,0,50604,55589,50458.23,55469.76,145.77,119.24,-1.157490,-1.231439,0.557928,95.81,1
10404,0,50615,55558,50458.54,55469.94,156.46,88.06,-1.157497,-1.231442,0.557631,95.82,1
10445,0,50539,55211,50458.71,55469.42,80.29,-258.42,-1.157500,-1.231433,0.557332,95.83,1
10485,0,50394,54966,50458.58,55468.42,-64.58,-502.42,-1.157497,-1.231415,0.557010,95.83,1
10524,0,50341,54934,50458.34,55467.35,-117.34,-533.35,-1.157493,-1.231396,0.556669,95.84,1
10564,0,50343,54964,50458.11,55466.35,-115.11,-502.35,-1.157488,-1.231378,0.556313,95.85,1
10604,0,50356,54985,50457.91,55465.39,-101.91,-480.39,-1.157484,-1.231360,0.555943,95.86,1
10642,0,50361,54999,50457.72,55464.46,-96.72,-465.46,-1.157480,-1.231344,0.555561,95.86,1
10684,0,50380,55073,50457.57,55463.68,-77.57,-390.68,-1.157477,-1.231329,0.555170,95.87,1
10723,0,50403,55109,50457.46,55462.97,-54.46,-353.97,-1.157475,-1.231317,0.554771,95.88,1
10764,0,50421,55130,50457.39,55462.30,-36.39,-332.30,-1.157474,-1.231305,0.554365,95.89,1
10804,0,50426,55157,50457.32,55461.70,-31.32,-304.70,-1.157472,-1.231294,0.553953,95.90,1
10844,0,50444,55195,50457.30,55461.16,-13.30,-266.16,-1.157472,-1.231284,0.553537,95.90,1
10884,0,50466,55251,50457.32,55460.75,8.68,-209.75,-1.157472,-1.231277,0.553118,95.91,1
10924,0,50491,55309,50457.39,55460.45,33.61,-151.45,-1.157474,-1.231271,0.552700,95.92,1
10964,0,50513,55371,50457.50,55460.27,55.50,-89.27,-1.157476,-1.231268,0.552283,95.93,1
11004,0,50535,55421,50457.66,55460.19,77.34,-39.19,-1.157479,-1.231267,0.551872,95.94,1
11043,0,50558,55469,50457.86,55460.21,100.14,8.79,-1.157483,-1.231267,0.551467,95.94,1
11083,0,50571,55510,50458.09,55460.31,112.91,49.69,-1.157488,-1.231269,0.551071,95.95,1
11124,0,50592,55556,50458.36,55460.50,133.64,95.50,-1.157493,-1.231272,0.550686,95.96,1
11162,0,50608,55570,50458.66,55460.72,149.34,109.28,-1.157499,-1.231276,0.550315,95.97,1
11204,0,50558,55294,50458.86,55460.39,99.14,-166.39,-1.157503,-1.231270,0.549948,95.98,1
11244,0,50416,55024,50458.77,55459.52,-42.77,-435.52,-1.157501,-1.231255,0.549566,95.99,1
11285,0,50354,54962,50458.57,55458.53,-104.57,-496.53,-1.157497,-1.231237,0.549171,96.00,1
11324,0,50350,55000,50458.35,55457.61,-108.35,-457.61,-1.157493,-1.231220,0.548766,96.00,1
11365,0,50368,55023,50458.17,55456.75,-90.17,-433.75,-1.157489,-1.231205,0.548351,96.01,1
11404,0,50372,55046,50458.00,55455.93,-86.00,-409.93,-1.157486,-1.231190,0.547929,96.02,1
11447,0,50384,55101,50457.85,55455.22,-73.85,-354.22,-1.157483,-1.231177,0.547500,96.03,1
11485,0,50411,55146,50457.76,55454.60,-46.76,-308.60,-1.157481,-1.231166,0.547067,96.04,1
11525,0,50421,55157,50457.69,55454.01,-36.69,-297.01,-1.157480,-1.231155,0.546630,96.05,1
11566,0,50425,55179,50457.62,55453.46,-32.63,-274.46,-1.157478,-1.231145,0.546188,96.06,1
11606,0,50437,55214,50457.59,55452.98,-20.59,-238.98,-1.157478,-1.231137,0.545743,96.07,1
11646,0,50456,55274,50457.59,55452.63,-1.59,-178.63,-1.157478,-1.231130,0.545298,96.07,1
11684,0,50482,55335,50457.64,55452.39,24.36,-117.39,-1.157479,-1.231126,0.544852,96.08,1
11726,0,50508,55397,50457.74,55452.29,50.26,-55.29,-1.157481,-1.231124,0.544410,96.09,1
11765,0,50538,55457,50457.90,55452.30,80.10,4.70,-1.157484,-1.231124,0.543973,96.10,1
11805,0,50562,55501,50458.11,55452.39,103.89,48.61,-1.157488,-1.231126,0.543543,96.11,1
11846,0,50577,55546,50458.35,55452.58,118.65,93.42,-1.157493,-1.231129,0.543122,96.12,1
11885,0,50598,55600,50458.63,55452.88,139.37,147.12,-1.157498,-1.231135,0.542713,96.13,1
11925,0,50608,55508,50458.93,55452.99,149.07,55.01,-1.157504,-1.231137,0.542319,96.14,1
11965,0,50504,55195,50459.02,55452.48,44.98,-257.48,-1.157506,-1.231128,0.541921,96.15,1
12006,0,50400,55055,50458.90,55451.68,-58.90,-396.68,-1.157504,-1.231113,0.541513,96.16,1
12045,0,50383,55059,50458.75,55450.90,-75.75,-391.90,-1.157501,-1.231099,0.541098,96.17,1
12085,0,50394,55102,50458.62,55450.20,-64.62,-348.20,-1.157498,-1.231087,0.540676,96.18,1
12126,0,50407,55137,50458.52,55449.58,-51.52,-312.58,-1.157496,-1.231075,0.540249,96.19,1
12164,0,50421,55188,50458.45,55449.05,-37.45,-261.05,-1.157495,-1.231066,0.539819,96.20,1
12206,0,50440,55232,50458.41,55448.62,-18.41,-216.62,-1.157494,-1.231058,0.539386,96.21,1
12245,0,50454,55242,50458.40,55448.21,-4.40,-206.21,-1.157494,-1.231051,0.538952,96.22,1
12286,0,50454,55245,50458.39,55447.80,-4.39,-202.80,-1.157494,-1.231043,0.538515,96.23,1
12323,0,50460,55269,50458.40,55447.45,1.60,-178.45,-1.157494,-1.231037,0.538077,96.23,1
12365,0,50467,55321,50458.42,55447.20,8.58,-126.20,-1.157494,-1.231032,0.537639,96.24,1
12405,0,50495,55381,50458.49,55447.07,36.51,-66.07,-1.157495,-1.231030,0.537203,96.25,1
12447,0,50518,55439,50458.61,55447.05,59.39,-8.05,-1.157498,-1.231030,0.536771,96.26,1
12484,0,50546,55494,50458.79,55447.14,87.21,46.86,-1.157501,-1.231031,0.536345,96.27,1
12525,0,50566,55544,50459.00,55447.34,107.00,96.66,-1.157506,-1.231035,0.535926,96.28,1
12566,0,50586,55596,50459.26,55447.64,126.74,148.36,-1.157511,-1.231040,0.535518,96.29,1
12606,0,50591,55473,50459.52,55447.69,131.48,25.31,-1.157516,-1.231041,0.535122,96.30,1
12647,0,50488,55186,50459.58,55447.16,28.42,-261.16,-1.157517,-1.231032,0.534721,96.31,1
12686,0,50403,55068,50459.47,55446.41,-56.47,-378.41,-1.157515,-1.231018,0.534312,96.32,1
12725,0,50390,55080,50459.33,55445.68,-69.33,-365.68,-1.157512,-1.231005,0.533895,96.33,1
12766,0,50404,55124,50459.22,55445.04,-55.22,-321.04,-1.157510,-1.230993,0.533473,96.34,1
12804,0,50417,55158,50459.14,55444.46,-42.14,-286.46,-1.157508,-1.230983,0.533047,96.35,1
12846,0,50431,55209,50459.09,55443.99,-28.09,-234.99,-1.157507,-1.230975,0.532618,96.36,1
12884,0,50457,55244,50459.08,55443.59,-2.08,-199.59,-1.157507,-1.230967,0.532186,96.37,1
12926,0,50464,55248,50459.09,55443.20,4.91,-195.20,-1.157508,-1.230960,0.531753,96.38,1
12966,0,50467,55257,50459.11,55442.83,7.89,-185.83,-1.157508,-1.230954,0.531318,96.39,1
13005,0,50470,55291,50459.13,55442.53,10.87,-151.53,-1.157508,-1.230948,0.530883,96.40,1
13046,0,50485,55340,50459.19,55442.33,25.81,-102.33,-1.157509,-1.230945,0.530449,96.41,1
13086,0,50506,55391,50459.28,55442.23,46.72,-51.23,-1.157511,-1.230943,0.530017,96.42,1
13126,0,50529,55446,50459.42,55442.23,69.58,3.77,-1.157514,-1.230943,0.529590,96.43,1
13166,0,50547,55489,50459.60,55442.33,87.40,46.67,-1.157517,-1.230945,0.529169,96.44,1
13205,0,50566,55540,50459.81,55442.52,106.19,97.48,-1.157522,-1.230948,0.528756,96.45,1
13247,0,50584,55588,50460.06,55442.82,123.94,145.18,-1.157527,-1.230953,0.528354,96.46,1
13287,0,50601,55567,50460.34,55443.07,140.66,123.93,-1.157532,-1.230958,0.527966,96.47,1
13328,0,50530,55270,50460.48,55442.72,69.52,-172.72,-1.157535,-1.230952,0.527579,96.48,1
13367,0,50413,55052,50460.39,55441.94,-47.39,-389.94,-1.157533,-1.230937,0.527181,96.49,1
13408,0,50358,55006,50460.19,55441.07,-102.19,-435.07,-1.157529,-1.230922,0.526774,96.50,1
13449,0,50358,55032,50459.98,55440.25,-101.98,-408.25,-1.157525,-1.230907,0.526362,96.51,1
13486,0,50368,55040,50459.80,55439.45,-91.80,-399.45,-1.157521,-1.230893,0.525942,96.52,1
13526,0,50375,55058,50459.63,55438.69,-84.63,-380.69,-1.157518,-1.230879,0.525517,96.53,1
13568,0,50392,55115,50459.50,55438.05,-67.50,-323.05,-1.157516,-1.230867,0.525087,96.54,1
13607,0,50416,55151,50459.41,55437.47,-43.41,-286.47,-1.157514,-1.230857,0.524654,96.55,1
13649,0,50425,55164,50459.35,55436.93,-34.35,-272.93,-1.157513,-1.230847,0.524216,96.56,1
13686,0,50435,55185,50459.30,55436.42,-24.30,-251.42,-1.157512,-1.230838,0.523774,96.58,1
13729,0,50442,55221,50459.27,55435.99,-17.27,-214.99,-1.157511,-1.230830,0.523331,96.59,1
13768,0,50458,55271,50459.27,55435.66,-1.27,-164.66,-1.157511,-1.230824,0.522887,96.60,1
13807,0,50483,55321,50459.31,55435.44,23.69,-114.44,-1.157512,-1.230820,0.522443,96.61,1
13847,0,50503,55375,50459.40,55435.32,43.60,-60.32,-1.157514,-1.230818,0.522001,96.62,1
13889,0,50521,55423,50459.53,55435.29,61.47,-12.29,-1.157516,-1.230818,0.521564,96.63,1
13928,0,50539,55458,50459.69,55435.34,79.31,22.66,-1.157519,-1.230819,0.521132,96.64,1
13967,0,50555,55503,50459.88,55435.48,95.12,67.52,-1.157523,-1.230821,0.520708,96.65,1
14008,0,50571,55519,50460.10,55435.64,110.90,83.36,-1.157527,-1.230824,0.520294,96.66,1
14049,0,50526,55254,50460.23,55435.28,65.77,-181.28,-1.157530,-1.230817,0.519881,96.67,1
14088,0,50399,54996,50460.11,55434.40,-61.11,-438.40,-1.157528,-1.230802,0.519455,96.68,1
14126,0,50329,54932,50459.85,55433.40,-130.85,-501.40,-1.157522,-1.230783,0.519021,96.69,1
14168,0,50317,54940,50459.57,55432.41,-142.57,-492.41,-1.157517,-1.230766,0.518584,96.70,1
14208,0,50320,54953,50459.29,55431.46,-139.29,-478.46,-1.157511,-1.230748,0.518143,96.71,1
14247,0,50326,54959,50459.02,55430.51,-133.02,-471.51,-1.157506,-1.230731,0.517698,96.72,1
14288,0,50340,55021,50458.79,55429.70,-118.79,-408.70,-1.157501,-1.230717,0.517251,96.73,1
14328,0,50369,55073,50458.61,55428.98,-89.61,-355.98,-1.157498,-1.230704,0.516801,96.74,1
14368,0,50381,55100,50458.45,55428.33,-77.45,-328.33,-1.157495,-1.230692,0.516349,96.75,1
14409,0,50393,55122,50458.32,55427.72,-65.32,-305.72,-1.157492,-1.230681,0.515894,96.76,1
14448,0,50404,55158,50458.22,55427.18,-54.22,-269.18,-1.157490,-1.230671,0.515437,96.77,1
14489,0,50427,55215,50458.16,55426.76,-31.16,-211.76,-1.157489,-1.230664,0.514979,96.78,1
14529,0,50449,55266,50458.14,55426.44,-9.14,-160.44,-1.157489,-1.230658,0.514520,96.79,1
14567,0,50478,55320,50458.18,55426.23,19.82,-106.23,-1.157489,-1.230654,0.514062,96.80,1
14609,0,50496,55368,50458.26,55426.11,37.74,-58.11,-1.157491,-1.230652,0.513606,96.82,1
14649,0,50516,55413,50458.38,55426.09,57.62,-13.09,-1.157493,-1.230652,0.513154,96.83,1
14688,0,50531,55462,50458.53,55426.16,72.47,35.84,-1.157496,-1.230653,0.512707,96.84,1
14729,0,50545,55425,50458.70,55426.16,86.30,-1.16,-1.157500,-1.230653,0.512266,96.85,1
14768,0,50471,55132,50458.73,55425.58,12.27,-293.58,-1.157500,-1.230642,0.511820,96.86,1
14809,0,50355,54936,50458.52,55424.60,-103.52,-488.60,-1.157496,-1.230625,0.511365,96.87,1
14849,0,50309,54912,50458.23,55423.58,-149.23,-511.58,-1.157490,-1.230606,0.510907,96.88,1
14888,0,50313,54941,50457.94,55422.61,-144.94,-481.61,-1.157485,-1.230589,0.510448,96.89,1
14931,0,50325,54954,50457.67,55421.68,-132.67,-467.68,-1.157479,-1.230572,0.509987,96.90,1
14968,0,50330,54993,50457.42,55420.82,-127.42,-427.82,-1.157474,-1.230556,0.509525,96.91,1
15008,0,50354,55053,50457.21,55420.09,-103.21,-367.09,-1.157470,-1.230543,0.509062,96.92,1
15050,0,50371,55087,50457.04,55419.42,-86.04,-332.42,-1.157467,-1.230531,0.508598,96.93,1
15089,0,50378,55094,50456.88,55418.77,-78.88,-324.77,-1.157464,-1.230520,0.508132,96.94,1
15127,0,50378,55119,50456.73,55418.18,-78.73,-299.18,-1.157461,-1.230509,0.507666,96.96,1
15166,0,50394,55161,50456.60,55417.66,-62.60,-256.66,-1.157458,-1.230500,0.507199,96.97,1
15208,0,50418,55212,50456.53,55417.25,-38.53,-205.25,-1.157457,-1.230492,0.506732,96.98,1
15248,0,50439,55278,50456.49,55416.98,-17.49,-138.98,-1.157456,-1.230487,0.506265,96.99,1
15287,0,50463,55334,50456.51,55416.81,6.49,-82.81,-1.157456,-1.230484,0.505799,97.00,1
15329,0,50488,55387,50456.57,55416.75,31.43,-29.75,-1.157457,-1.230483,0.505335,97.01,1
15368,0,50509,55440,50456.68,55416.80,52.32,23.20,-1.157459,-1.230484,0.504874,97.02,1
15408,0,50527,55347,50456.82,55416.66,70.18,-69.66,-1.157462,-1.230482,0.504418,97.03,1
15448,0,50430,55062,50456.77,55415.96,-26.77,-353.96,-1.157461,-1.230469,0.503955,97.04,1
15488,0,50336,54935,50456.53,55415.00,-120.53,-480.00,-1.157457,-1.230451,0.503487,97.05,1
15528,0,50319,54952,50456.25,55414.07,-137.25,-462.07,-1.157451,-1.230435,0.503019,97.07,1
15569,0,50331,54995,50456.00,55413.23,-125.00,-418.23,-1.157446,-1.230420,0.502551,97.08,1
15608,0,50351,55032,50455.80,55412.47,-104.80,-380.47,-1.157442,-1.230406,0.502082,97.09,1
15649,0,50367,55091,50455.62,55411.83,-88.62,-320.83,-1.157439,-1.230394,0.501613,97.10,1
15688,0,50397,55136,50455.50,55411.28,-58.50,-275.28,-1.157436,-1.230384,0.501143,97.11,1
15728,0,50406,55148,50455.41,55410.76,-49.41,-262.76,-1.157434,-1.230375,0.500671,97.12,1
15767,0,50404,55161,50455.30,55410.26,-51.30,-249.26,-1.157432,-1.230366,0.500198,97.13,1
15808,0,50416,55197,50455.23,55409.83,-39.23,-212.83,-1.157431,-1.230358,0.499725,97.14,1
15849,0,50433,55244,50455.18,55409.50,-22.18,-165.50,-1.157430,-1.230352,0.499252,97.16,1
15890,0,50451,55303,50455.18,55409.29,-4.18,-106.29,-1.157430,-1.230348,0.498780,97.17,1
15931,0,50474,55356,50455.21,55409.18,18.79,-53.18,-1.157431,-1.230347,0.498309,97.18,1
15968,0,50497,55410,50455.30,55409.19,41.70,0.81,-1.157432,-1.230347,0.497841,97.19,1
16008,0,50515,55457,50455.42,55409.29,59.58,47.71,-1.157435,-1.230348,0.497376,97.20,1
16049,0,50535,55506,50455.58,55409.48,79.42,96.52,-1.157438,-1.230352,0.496917,97.21,1
16089,0,50548,55455,50455.77,55409.57,92.23,45.43,-1.157442,-1.230354,0.496465,97.22,1
16131,0,50467,55158,50455.79,55409.07,11.21,-251.07,-1.157442,-1.230345,0.496010,97.23,1
16169,0,50354,54981,50455.59,55408.22,-101.59,-427.22,-1.157438,-1.230329,0.495550,97.25,1
16209,0,50318,54973,50455.32,55407.35,-137.32,-434.35,-1.157433,-1.230313,0.495093,97.26,1
16250,0,50329,54998,50455.07,55406.54,-126.07,-408.54,-1.157428,-1.230299,0.494637,97.27,1
16290,0,50339,55015,50454.84,55405.75,-115.84,-390.75,-1.157423,-1.230285,0.494181,97.28,1
16330,0,50349,55042,50454.62,55405.03,-105.62,-363.03,-1.157419,-1.230271,0.493725,97.29,1
16370,0,50371,55099,50454.46,55404.42,-83.46,-305.42,-1.157416,-1.230260,0.493269,97.30,1
16410,0,50394,55129,50454.34,55403.87,-60.34,-274.87,-1.157413,-1.230251,0.492812,97.31,1
16452,0,50404,55147,50454.24,55403.36,-50.24,-256.36,-1.157411,-1.230241,0.492354,97.32,1
16491,0,50403,55171,50454.14,55402.89,-51.14,-231.89,-1.157409,-1.230233,0.491896,97.34,1
16532,0,50418,55212,50454.07,55402.51,-36.07,-190.51,-1.157408,-1.230226,0.491437,97.35,1
16569,0,50442,55259,50454.05,55402.23,-12.05,-143.23,-1.157408,-1.230221,0.490979,97.36,1
16609,0,50463,55316,50454.07,55402.05,8.93,-86.05,-1.157408,-1.230218,0.490522,97.37,1
16646,0,50485,55371,50454.13,55401.99,30.87,-30.99,-1.157409,-1.230217,0.490066,97.38,1
16690,0,50503,55422,50454.23,55402.04,48.77,19.96,-1.157411,-1.230217,0.489614,97.39,1
16728,0,50522,55469,50454.36,55402.17,67.64,66.83,-1.157414,-1.230220,0.489166,97.40,1
16772,0,50540,55512,50454.54,55402.39,85.46,109.61,-1.157417,-1.230224,0.488723,97.42,1
16811,0,50557,55564,50454.74,55402.72,102.26,161.28,-1.157421,-1.230230,0.488288,97.43,1
16850,0,50571,55541,50454.98,55403.00,116.02,138.00,-1.157426,-1.230235,0.487862,97.44,1
16892,0,50502,55254,50455.07,55402.70,46.93,-148.70,-1.157428,-1.230229,0.487437,97.45,1
16931,0,50382,55056,50454.93,55402.01,-72.93,-346.01,-1.157425,-1.230217,0.487009,97.46,1
16969,0,50339,55024,50454.70,55401.25,-115.70,-377.25,-1.157420,-1.230203,0.486582,97.47,1
17009,0,50343,55039,50454.47,55400.53,-111.47,-361.53,-1.157416,-1.230190,0.486156,97.48,1
17051,0,50353,55061,50454.27,55399.86,-101.27,-338.86,-1.157412,-1.230178,0.485730,97.49,1
17090,0,50356,55086,50454.07,55399.23,-98.07,-313.23,-1.157408,-1.230167,0.485305,97.51,1
17131,0,50373,55146,50453.91,55398.73,-80.91,-252.73,-1.157405,-1.230158,0.484882,97.52,1
17171,0,50404,55190,50453.82,55398.31,-49.82,-208.31,-1.157403,-1.230150,0.484459,97.53,1
17211,0,50416,55207,50453.74,55397.93,-37.74,-190.93,-1.157401,-1.230143,0.484036,97.54,1
17250,0,50424,55232,50453.68,55397.59,-29.68,-165.59,-1.157400,-1.230137,0.483613,97.55,1
17291,0,50438,55271,50453.65,55397.34,-15.65,-126.34,-1.157400,-1.230133,0.483190,97.56,1
17331,0,50459,55326,50453.66,55397.20,5.34,-71.20,-1.157400,-1.230130,0.482768,97.57,1
17371,0,50482,55390,50453.72,55397.19,28.28,-7.19,-1.157401,-1.230130,0.482348,97.58,1
17410,0,50505,55449,50453.83,55397.30,51.17,51.70,-1.157403,-1.230132,0.481931,97.59,1
17451,0,50531,55505,50453.98,55397.52,77.02,107.48,-1.157406,-1.230136,0.481518,97.61,1
17490,0,50554,55551,50454.19,55397.82,99.81,153.18,-1.157410,-1.230142,0.481113,97.62,1
17531,0,50571,55600,50454.42,55398.23,116.58,201.77,-1.157415,-1.230149,0.480716,97.63,1
17570,0,50590,55654,50454.70,55398.74,135.30,255.26,-1.157420,-1.230158,0.480328,97.64,1
17610,0,50592,55546,50454.97,55399.04,137.03,146.96,-1.157426,-1.230163,0.479954,97.65,1
17651,0,50492,55255,50455.05,55398.75,36.95,-143.75,-1.157427,-1.230158,0.479581,97.66,1
17692,0,50394,55106,50454.93,55398.17,-60.93,-292.17,-1.157425,-1.230148,0.479205,97.67,1
17732,0,50369,55108,50454.75,55397.59,-85.75,-289.59,-1.157421,-1.230137,0.478829,97.68,1
17771,0,50376,55144,50454.60,55397.09,-78.60,-253.09,-1.157418,-1.230128,0.478454,97.69,1
17811,0,50384,55179,50454.46,55396.65,-70.46,-217.65,-1.157416,-1.230120,0.478079,97.70,1
17851,0,50402,55232,50454.35,55396.32,-52.35,-164.32,-1.157413,-1.230114,0.477706,97.71,1
17891,0,50428,55277,50454.30,55396.09,-26.30,-119.09,-1.157413,-1.230110,0.477334,97.72,1
17932,0,50440,55293,50454.27,55395.88,-14.27,-102.88,-1.157412,-1.230106,0.476962,97.73,1
17972,0,50443,55306,50454.25,55395.70,-11.25,-89.70,-1.157412,-1.230103,0.476590,97.75,1
18012,0,50450,55336,50454.25,55395.59,-4.25,-59.59,-1.157411,-1.230101,0.476220,97.76,1
18052,0,50466,55383,50454.27,55395.56,11.73,-12.56,-1.157412,-1.230101,0.475850,97.77,1
18092,0,50489,55444,50454.34,55395.66,34.66,48.34,-1.157413,-1.230102,0.475483,97.78,1
18132,0,50518,55495,50454.47,55395.86,63.53,99.14,-1.157416,-1.230106,0.475118,97.79,1
18173,0,50542,55546,50454.64,55396.16,87.36,149.84,-1.157419,-1.230111,0.474760,97.80,1
18213,0,50558,55591,50454.85,55396.55,103.15,194.45,-1.157423,-1.230119,0.474407,97.81,1
18253,0,50578,55644,50455.10,55397.05,122.90,246.95,-1.157428,-1.230127,0.474063,97.82,1
18292,0,50592,55615,50455.37,55397.48,136.63,217.52,-1.157434,-1.230135,0.473730,97.83,1
18334,0,50522,55317,50455.50,55397.32,66.50,-80.32,-1.157436,-1.230132,0.473401,97.84,1
18373,0,50401,55099,50455.39,55396.73,-54.39,-297.73,-1.157434,-1.230122,0.473068,97.85,1
18412,0,50352,55056,50455.19,55396.05,-103.19,-340.05,-1.157430,-1.230109,0.472734,97.86,1
18452,0,50346,55083,50454.97,55395.43,-108.97,-312.43,-1.157426,-1.230098,0.472402,97.87,1
18490,0,50357,55115,50454.77,55394.87,-97.77,-279.87,-1.157422,-1.230088,0.472072,97.88,1
18533,0,50369,55157,50454.60,55394.39,-85.60,-237.39,-1.157418,-1.230080,0.471744,97.89,1
18574,0,50390,55210,50454.47,55394.03,-64.47,-184.03,-1.157416,-1.230073,0.471418,97.90,1
18614,0,50412,55231,50454.39,55393.70,-42.39,-162.70,-1.157414,-1.230067,0.471091,97.91,1
18653,0,50410,55235,50454.30,55393.39,-44.30,-158.39,-1.157413,-1.230061,0.470765,97.92,1
18692,0,50415,55256,50454.23,55393.11,-39.23,-137.11,-1.157411,-1.230057,0.470439,97.93,1
18732,0,50423,55297,50454.16,55392.92,-31.16,-95.92,-1.157410,-1.230053,0.470114,97.94,1
18772,0,50447,55357,50454.15,55392.85,-7.15,-35.85,-1.157410,-1.230052,0.469791,97.95,1
18812,0,50472,55409,50454.19,55392.89,17.81,16.11,-1.157410,-1.230052,0.469468,97.96,1
18852,0,50495,55466,50454.27,55393.04,40.73,72.96,-1.157412,-1.230055,0.469147,97.96,1
18893,0,50514,55518,50454.39,55393.29,59.61,124.71,-1.157414,-1.230060,0.468829,97.97,1
18932,0,50532,55568,50454.55,55393.64,77.45,174.36,-1.157417,-1.230066,0.468514,97.98,1
18974,0,50557,55612,50454.75,55394.07,102.25,217.93,-1.157421,-1.230074,0.468204,97.99,1
19014,0,50577,55653,50455.00,55394.59,122.00,258.41,-1.157426,-1.230083,0.467902,98.00,1
19053,0,50594,55678,50455.28,55395.16,138.72,282.84,-1.157432,-1.230093,0.467608,98.01,1
19093,0,50567,55412,50455.51,55395.20,111.49,16.80,-1.157436,-1.230094,0.467326,98.02,1
19132,0,50416,55083,50455.43,55394.57,-39.43,-311.57,-1.157435,-1.230083,0.467037,98.03,1
19171,0,50318,54965,50455.16,55393.71,-137.16,-428.71,-1.157429,-1.230067,0.466747,98.04,1
19213,0,50297,54974,50454.84,55392.87,-157.84,-418.87,-1.157423,-1.230052,0.466461,98.05,1
19251,0,50312,54996,50454.55,55392.08,-142.55,-396.08,-1.157418,-1.230038,0.466179,98.06,1
19293,0,50323,55012,50454.29,55391.32,-131.29,-379.32,-1.157412,-1.230024,0.465897,98.07,1
19333,0,50336,55051,50454.06,55390.64,-118.06,-339.64,-1.157408,-1.230012,0.465617,98.07,1
19374,0,50350,55096,50453.85,55390.06,-103.85,-294.06,-1.157404,-1.230001,0.465339,98.08,1
19414,0,50363,55111,50453.67,55389.50,-90.67,-278.50,-1.157400,-1.229991,0.465060,98.09,1
19455,0,50364,55122,50453.49,55388.96,-89.49,-266.96,-1.157396,-1.229982,0.464783,98.10,1
19495,0,50372,55149,50453.33,55388.49,-81.33,-239.49,-1.157393,-1.229973,0.464506,98.11,1
19535,0,50386,55187,50453.20,55388.09,-67.20,-201.09,-1.157391,-1.229966,0.464230,98.12,1
19575,0,50403,55248,50453.10,55387.81,-50.10,-139.81,-1.157389,-1.229961,0.463955,98.13,1
19616,0,50424,55304,50453.04,55387.64,-29.04,-83.64,-1.157387,-1.229958,0.463681,98.13,1
19654,0,50448,55368,50453.04,55387.60,-5.04,-19.60,-1.157387,-1.229957,0.463407,98.14,1
19695,0,50475,55410,50453.08,55387.65,21.92,22.35,-1.157388,-1.229958,0.463135,98.15,1
19734,0,50495,55454,50453.17,55387.78,41.83,66.22,-1.157390,-1.229960,0.462865,98.16,1
19775,0,50512,55506,50453.29,55388.02,58.71,117.98,-1.157392,-1.229964,0.462597,98.17,1
19814,0,50534,55539,50453.45,55388.32,80.55,150.68,-1.157396,-1.229970,0.462332,98.18,1
19854,0,50511,55293,50453.57,55388.14,57.43,-95.14,-1.157398,-1.229967,0.462071,98.18,1
19895,0,50367,54965,50453.39,55387.29,-86.39,-422.29,-1.157395,-1.229951,0.461799,98.19,1
19934,0,50275,54846,50453.04,55386.21,-178.04,-540.21,-1.157387,-1.229932,0.461527,98.20,1
19975,0,50264,54862,50452.66,55385.16,-188.66,-523.16,-1.157380,-1.229913,0.461259,98.21,1
20015,0,50279,54901,50452.32,55384.20,-173.32,-483.20,-1.157373,-1.229895,0.460994,98.22,1
20054,0,50288,54931,50451.99,55383.29,-163.99,-452.29,-1.157367,-1.229879,0.460733,98.22,1
20095,0,50306,54985,50451.70,55382.49,-145.70,-397.49,-1.157361,-1.229865,0.460474,98.23,1
20134,0,50334,55035,50451.46,55381.80,-117.46,-346.80,-1.157356,-1.229852,0.460215,98.24,1
20175,0,50352,55054,50451.27,55381.14,-99.27,-327.14,-1.157352,-1.229840,0.459956,98.25,1
20214,0,50354,55069,50451.07,55380.52,-97.07,-311.52,-1.157349,-1.229829,0.459696,98.26,1
20253,0,50363,55099,50450.90,55379.96,-87.90,-280.96,-1.157345,-1.229819,0.459436,98.26,1
20294,0,50377,55150,50450.75,55379.50,-73.75,-229.50,-1.157342,-1.229811,0.459176,98.27,1
20336,0,50398,55204,50450.64,55379.16,-52.64,-175.16,-1.157340,-1.229805,0.458917,98.28,1
20375,0,50422,55268,50450.59,55378.93,-28.59,-110.93,-1.157339,-1.229800,0.458658,98.29,1
20412,0,50448,55319,50450.59,55378.82,-2.59,-59.82,-1.157339,-1.229798,0.458399,98.29,1
20455,0,50467,55381,50450.62,55378.82,16.38,2.18,-1.157340,-1.229798,0.458142,98.30,1
20495,0,50487,55429,50450.70,55378.92,36.30,50.08,-1.157341,-1.229800,0.457885,98.31,1
20536,0,50509,55481,50450.81,55379.13,58.19,101.87,-1.157343,-1.229804,0.457632,98.32,1
20575,0,50533,55527,50450.98,55379.43,82.02,147.57,-1.157347,-1.229809,0.457382,98.32,1
20614,0,50531,55349,50451.14,55379.37,79.86,-30.37,-1.157350,-1.229808,0.457137,98.33,1
20656,0,50391,54995,50451.02,55378.60,-60.02,-383.60,-1.157347,-1.229794,0.456883,98.34,1
20694,0,50283,54858,50450.68,55377.56,-167.68,-519.56,-1.157341,-1.229776,0.456628,98.35,1
20735,0,50272,54882,50450.33,55376.57,-178.33,-494.57,-1.157334,-1.229758,0.456376,98.35,1
20772,0,50295,54940,50450.02,55375.70,-155.02,-435.70,-1.157328,-1.229742,0.456127,98.36,1
20816,0,50327,54982,50449.77,55374.92,-122.77,-392.92,-1.157323,-1.229728,0.455876,98.37,1
20855,0,50348,55038,50449.57,55374.25,-101.57,-336.25,-1.157319,-1.229716,0.455624,98.38,1
20898,0,50366,55086,50449.41,55373.67,-83.41,-287.67,-1.157315,-1.229705,0.455371,98.38,1
20935,0,50379,55102,50449.27,55373.13,-70.27,-271.13,-1.157313,-1.229696,0.455117,98.39,1
20976,0,50382,55103,50449.13,55372.59,-67.13,-269.59,-1.157310,-1.229686,0.454861,98.40,1
21015,0,50388,55126,50449.01,55372.10,-61.01,-246.10,-1.157308,-1.229677,0.454603,98.40,1
21055,0,50405,55173,50448.93,55371.70,-43.93,-198.70,-1.157306,-1.229670,0.454345,98.41,1
21097,0,50429,55230,50448.89,55371.42,-19.89,-141.42,-1.157305,-1.229665,0.454086,98.42,1
21135,0,50445,55289,50448.88,55371.25,-3.88,-82.25,-1.157305,-1.229662,0.453828,98.43,1
21175,0,50471,55343,50448.93,55371.20,22.07,-28.20,-1.157306,-1.229661,0.453570,98.43,1
21215,0,50493,55390,50449.02,55371.24,43.98,18.76,-1.157308,-1.229661,0.453315,98.44,1
21254,0,50508,55436,50449.14,55371.37,58.86,64.63,-1.157310,-1.229664,0.453062,98.45,1
21297,0,50531,55483,50449.30,55371.60,81.70,111.40,-1.157313,-1.229668,0.452814,98.45,1
21335,0,50538,55364,50449.48,55371.58,88.52,-7.58,-1.157317,-1.229668,0.452572,98.46,1
21376,0,50413,55015,50449.41,55370.87,-36.41,-355.87,-1.157315,-1.229655,0.452322,98.47,1
21416,0,50297,54839,50449.11,55369.81,-152.11,-530.81,-1.157310,-1.229636,0.452066,98.47,1
21456,0,50276,54857,50448.76,55368.79,-172.76,-511.79,-1.157303,-1.229617,0.451811,98.48,1
21497,0,50300,54924,50448.46,55367.90,-148.46,-443.90,-1.157297,-1.229601,0.451558,98.49,1
21536,0,50322,54982,50448.21,55367.13,-126.21,-385.13,-1.157292,-1.229587,0.451304,98.50,1
21577,0,50350,55055,50448.02,55366.51,-98.02,-311.51,-1.157288,-1.229576,0.451050,98.50,1
21618,0,50381,55097,50447.89,55365.97,-66.89,-268.97,-1.157285,-1.229566,0.450795,98.51,1
21656,0,50393,55107,50447.78,55365.45,-54.78,-258.45,-1.157283,-1.229557,0.450538,98.52,1
21696,0,50398,55108,50447.68,55364.94,-49.68,-256.94,-1.157281,-1.229548,0.450278,98.52,1
21736,0,50408,55135,50447.60,55364.48,-39.60,-229.48,-1.157280,-1.229540,0.450016,98.53,1
21777,0,50423,55188,50447.55,55364.13,-24.55,-176.13,-1.157279,-1.229533,0.449753,98.54,1
21816,0,50446,55246,50447.55,55363.90,-1.55,-117.90,-1.157279,-1.229529,0.449490,98.54,1
21856,0,50469,55308,50447.60,55363.79,21.40,-55.79,-1.157280,-1.229527,0.449227,98.55,1
21896,0,50499,55361,50447.70,55363.79,51.30,-2.79,-1.157282,-1.229527,0.448968,98.56,1
21936,0,50516,55409,50447.84,55363.88,68.16,45.12,-1.157284,-1.229529,0.448712,98.56,1
21976,0,50531,55454,50448.01,55364.06,82.99,89.94,-1.157288,-1.229532,0.448461,98.57,1
22016,0,50551,55497,50448.21,55364.33,102.79,132.67,-1.157292,-1.229537,0.448217,98.58,1
22057,0,50537,55274,50448.39,55364.15,88.61,-90.15,-1.157295,-1.229533,0.447978,98.58,1
22100,0,50389,54912,50448.28,55363.25,-59.28,-451.25,-1.157293,-1.229517,0.447727,98.59,1
22138,0,50279,54770,50447.94,55362.06,-168.94,-592.06,-1.157286,-1.229496,0.447470,98.60,1
22176,0,50253,54793,50447.55,55360.93,-194.55,-567.93,-1.157279,-1.229475,0.447215,98.60,1
22217,0,50274,54836,50447.21,55359.88,-173.21,-523.88,-1.157272,-1.229456,0.446961,98.61,1
22256,0,50291,54868,50446.89,55358.90,-155.89,-490.90,-1.157266,-1.229439,0.446706,98.62,1
22296,0,50308,54923,50446.62,55358.03,-138.62,-435.03,-1.157260,-1.229423,0.446452,98.62,1
22337,0,50336,54972,50446.40,55357.26,-110.40,-385.26,-1.157256,-1.229409,0.446195,98.63,1
22377,0,50351,54990,50446.21,55356.52,-95.21,-366.52,-1.157252,-1.229396,0.445937,98.64,1
22417,0,50350,55005,50446.02,55355.82,-96.02,-350.82,-1.157248,-1.229383,0.445676,98.64,1
22458,0,50364,55033,50445.85,55355.18,-81.85,-322.18,-1.157245,-1.229371,0.445414,98.65,1
22496,0,50384,55085,50445.73,55354.64,-61.73,-269.64,-1.157243,-1.229362,0.445149,98.66,1
22538,0,50410,55146,50445.66,55354.22,-35.66,-208.22,-1.157241,-1.229354,0.444884,98.66,1
22576,0,50437,55205,50445.64,55353.93,-8.64,-148.93,-1.157241,-1.229349,0.444618,98.67,1
22617,0,50458,55258,50445.67,55353.73,12.33,-95.73,-1.157241,-1.229345,0.444352,98.68,1
22656,0,50485,55304,50445.75,55353.64,39.25,-49.64,-1.157243,-1.229344,0.444088,98.68,1
22698,0,50497,55343,50445.86,55353.62,51.14,-10.62,-1.157245,-1.229343,0.443827,98.69,1
22734,0,50517,55385,50446.00,55353.68,71.00,31.32,-1.157248,-1.229344,0.443569,98.70,1
22778,0,50521,55243,50446.15,55353.46,74.85,-110.46,-1.157251,-1.229340,0.443315,98.70,1
22817,0,50384,54854,50446.03,55352.46,-62.03,-498.46,-1.157249,-1.229322,0.443047,98.71,1
22857,0,50247,54659,50445.63,55351.08,-198.63,-692.08,-1.157241,-1.229297,0.442774,98.72,1
22899,0,50212,54647,50445.17,55349.67,-233.17,-702.67,-1.157231,-1.229272,0.442503,98.72,1
22939,0,50221,54676,50444.72,55348.32,-223.72,-672.32,-1.157223,-1.229248,0.442235,98.73,1
22979,0,50232,54688,50444.30,55347.00,-212.30,-659.00,-1.157214,-1.229224,0.441968,98.74,1
23018,0,50238,54728,50443.89,55345.77,-205.89,-617.77,-1.157206,-1.229201,0.441704,98.74,1
23059,0,50261,54793,50443.52,55344.66,-182.52,-551.66,-1.157199,-1.229181,0.441440,98.75,1
23100,0,50282,54827,50443.20,55343.62,-161.20,-516.62,-1.157193,-1.229163,0.441177,98.76,1
23140,0,50290,54832,50442.90,55342.60,-152.90,-510.60,-1.157187,-1.229144,0.440913,98.76,1
23177,0,50297,54865,50442.61,55341.65,-145.61,-476.65,-1.157181,-1.229127,0.440648,98.77,1
23217,0,50315,54917,50442.36,55340.80,-127.36,-423.80,-1.157176,-1.229112,0.440383,98.78,1
23257,0,50338,54981,50442.15,55340.08,-104.15,-359.08,-1.157172,-1.229099,0.440118,98.78,1
23297,0,50368,55045,50442.00,55339.49,-74.00,-294.49,-1.157169,-1.229088,0.439851,98.79,1
23338,0,50396,55104,50441.91,55339.02,-45.91,-235.02,-1.157167,-1.229079,0.439584,98.80,1
23377,0,50424,55152,50441.87,55338.65,-17.87,-186.65,-1.157166,-1.229073,0.439316,98.80,1
23418,0,50445,55202,50441.88,55338.38,3.12,-136.38,-1.157166,-1.229068,0.439048,98.81,1
23457,0,50464,55249,50441.93,55338.20,22.07,-89.20,-1.157167,-1.229065,0.438780,98.82,1
23498,0,50483,55273,50442.01,55338.07,40.99,-65.07,-1.157169,-1.229062,0.438514,98.82,1
23538,0,50444,54983,50442.02,55337.37,1.98,-354.37,-1.157169,-1.229050,0.438242,98.83,1
23575,0,50291,54662,50441.71,55336.02,-150.71,-674.02,-1.157163,-1.229025,0.437959,98.84,1
23618,0,50199,54572,50441.23,55334.49,-242.23,-762.49,-1.157153,-1.228998,0.437678,98.84,1
23659,0,50193,54599,50440.73,55333.02,-247.73,-734.02,-1.157144,-1.228971,0.437402,98.85,1
23699,0,50212,54636,50440.28,55331.63,-228.28,-695.63,-1.157135,-1.228946,0.437128,98.86,1
23740,0,50220,54656,50439.84,55330.28,-219.84,-674.28,-1.157126,-1.228921,0.436857,98.86,1
23780,0,50239,54722,50439.44,55329.06,-200.44,-607.06,-1.157118,-1.228899,0.436587,98.87,1
23819,0,50270,54766,50439.11,55327.94,-169.11,-561.94,-1.157111,-1.228879,0.436318,98.88,1
23860,0,50275,54781,50438.78,55326.84,-163.78,-545.84,-1.157105,-1.228859,0.436047,98.88,1
23900,0,50281,54803,50438.46,55325.80,-157.46,-522.80,-1.157099,-1.228840,0.435777,98.89,1
23939,0,50294,54839,50438.18,55324.82,-144.18,-485.82,-1.157093,-1.228823,0.435506,98.90,1
23978,0,50314,54893,50437.93,55323.96,-123.93,-430.96,-1.157088,-1.228807,0.435235,98.90,1
24019,0,50339,54956,50437.73,55323.23,-98.73,-367.23,-1.157084,-1.228794,0.434963,98.91,1
24059,0,50367,55025,50437.59,55322.63,-70.59,-297.63,-1.157081,-1.228783,0.434691,98.92,1
24099,0,50394,55085,50437.51,55322.16,-43.51,-237.16,-1.157080,-1.228775,0.434417,98.92,1
24138,0,50421,55136,50437.48,55321.79,-16.48,-185.79,-1.157079,-1.228768,0.434144,98.93,1
24179,0,50441,55185,50437.48,55321.52,3.52,-136.52,-1.157079,-1.228763,0.433870,98.94,1
24218,0,50466,55234,50437.54,55321.34,28.46,-87.34,-1.157080,-1.228760,0.433598,98.94,1
24258,0,50470,55093,50437.61,55320.89,32.39,-227.89,-1.157082,-1.228752,0.433324,98.95,1
24299,0,50343,54743,50437.42,55319.73,-94.42,-576.73,-1.157078,-1.228731,0.433041,98.96,1
24340,0,50231,54598,50437.01,55318.29,-206.01,-720.29,-1.157070,-1.228705,0.432757,98.96,1
24380,0,50213,54620,50436.57,55316.89,-223.57,-696.89,-1.157061,-1.228680,0.432474,98.97,1
24419,0,50238,54675,50436.17,55315.61,-198.17,-640.61,-1.157053,-1.228656,0.432193,98.98,1
24459,0,50258,54713,50435.82,55314.41,-177.82,-601.41,-1.157046,-1.228635,0.431911,98.98,1
24500,0,50275,54774,50435.50,55313.33,-160.50,-539.33,-1.157040,-1.228615,0.431629,98.99,1
24540,0,50301,54819,50435.23,55312.34,-134.23,-493.34,-1.157034,-1.228597,0.431347,99.00,1
24581,0,50311,54825,50434.98,55311.37,-123.98,-486.37,-1.157030,-1.228580,0.431062,99.00,1
24620,0,50310,54830,50434.73,55310.41,-124.73,-480.41,-1.157025,-1.228562,0.430776,99.01,1
24661,0,50315,54866,50434.49,55309.52,-119.49,-443.52,-1.157020,-1.228546,0.430490,99.02,1
24700,0,50334,54924,50434.29,55308.75,-100.29,-384.75,-1.157016,-1.228532,0.430202,99.02,1
24737,0,50358,54986,50434.14,55308.11,-76.14,-322.11,-1.157013,-1.228521,0.429915,99.03,1
24780,0,50385,55051,50434.04,55307.60,-49.04,-256.60,-1.157011,-1.228511,0.429626,99.04,1
24819,0,50411,55106,50434.00,55307.20,-23.00,-201.20,-1.157010,-1.228504,0.429338,99.04,1
24859,0,50438,55156,50434.01,55306.89,3.99,-150.89,-1.157010,-1.228499,0.429049,99.05,1
24903,0,50455,55206,50434.05,55306.70,20.95,-100.70,-1.157011,-1.228495,0.428761,99.06,1
24939,0,50477,55254,50434.14,55306.59,42.86,-52.59,-1.157013,-1.228493,0.428475,99.07,1
24981,0,50462,55024,50434.20,55306.03,27.80,-282.03,-1.157014,-1.228483,0.428186,99.07,1
25020,0,50317,54692,50433.96,55304.80,-116.96,-612.80,-1.157009,-1.228461,0.427891,99.08,1
25060,0,50229,54593,50433.55,55303.38,-204.55,-710.38,-1.157001,-1.228435,0.427595,99.09,1
25098,0,50222,54619,50433.13,55302.01,-211.13,-683.01,-1.156993,-1.228410,0.427301,99.09,1
25139,0,50237,54652,50432.74,55300.71,-195.74,-648.71,-1.156985,-1.228387,0.427007,99.10,1
25179,0,50254,54679,50432.38,55299.47,-178.38,-620.47,-1.156978,-1.228365,0.426714,99.11,1
25219,0,50271,54748,50432.06,55298.37,-161.06,-550.37,-1.156972,-1.228345,0.426421,99.11,1
25259,0,50300,54798,50431.80,55297.37,-131.80,-499.37,-1.156966,-1.228327,0.426127,99.12,1
25300,0,50312,54808,50431.56,55296.39,-119.56,-488.39,-1.156962,-1.228309,0.425831,99.13,1
25340,0,50318,54823,50431.34,55295.45,-113.34,-472.45,-1.156957,-1.228292,0.425534,99.14,1
25382,0,50323,54860,50431.12,55294.58,-108.12,-434.58,-1.156953,-1.228276,0.425236,99.14,1
25418,0,50343,54914,50430.95,55293.82,-87.95,-379.82,-1.156949,-1.228262,0.424937,99.15,1
25462,0,50366,54974,50430.82,55293.18,-64.82,-319.18,-1.156947,-1.228251,0.424637,99.16,1
25502,0,50395,55030,50430.75,55292.66,-35.75,-262.66,-1.156946,-1.228241,0.424336,99.16,1
25542,0,50417,55087,50430.72,55292.25,-13.72,-205.25,-1.156945,-1.228234,0.424035,99.17,1
25581,0,50434,55139,50430.73,55291.95,3.27,-152.95,-1.156945,-1.228228,0.423734,99.18,1
25622,0,50451,55184,50430.77,55291.73,20.23,-107.73,-1.156946,-1.228225,0.423434,99.18,1
25661,0,50469,55227,50430.85,55291.60,38.15,-64.60,-1.156948,-1.228222,0.423135,99.19,1
25702,0,50486,55204,50430.96,55291.43,55.04,-87.43,-1.156950,-1.228219,0.422838,99.20,1
25741,0,50414,54862,50430.93,55290.57,-16.93,-428.57,-1.156949,-1.228204,0.422536,99.21,1
25780,0,50264,54608,50430.60,55289.21,-166.60,-681.21,-1.156943,-1.228179,0.422230,99.21,1
25820,0,50210,54565,50430.16,55287.76,-220.16,-722.76,-1.156934,-1.228153,0.421926,99.22,1
25860,0,50221,54599,50429.74,55286.39,-208.74,-687.39,-1.156926,-1.228128,0.421625,99.23,1
25899,0,50235,54613,50429.35,55285.04,-194.35,-672.04,-1.156918,-1.228104,0.421323,99.23,1
25940,0,50243,54635,50428.98,55283.75,-185.98,-648.75,-1.156911,-1.228080,0.421023,99.24,1
25980,0,50263,54708,50428.65,55282.60,-165.65,-574.60,-1.156904,-1.228059,0.420723,99.25,1
26019,0,50295,54755,50428.38,55281.54,-133.38,-526.54,-1.156899,-1.228040,0.420421,99.26,1
26060,0,50306,54775,50428.14,55280.53,-122.14,-505.53,-1.156894,-1.228022,0.420119,99.26,1
26100,0,50312,54801,50427.91,55279.57,-115.91,-478.57,-1.156889,-1.228005,0.419815,99.27,1
26141,0,50330,54839,50427.71,55278.70,-97.71,-439.70,-1.156885,-1.227989,0.419510,99.28,1
26181,0,50352,54897,50427.57,55277.93,-75.57,-380.93,-1.156883,-1.227975,0.419203,99.29,1
26221,0,50367,54958,50427.45,55277.30,-60.45,-319.30,-1.156880,-1.227963,0.418896,99.29,1
26261,0,50397,55016,50427.39,55276.78,-30.39,-260.78,-1.156879,-1.227954,0.418588,99.30,1
26301,0,50420,55075,50427.37,55276.37,-7.37,-201.37,-1.156879,-1.227947,0.418280,99.31,1
26342,0,50442,55116,50427.41,55276.05,14.59,-160.05,-1.156879,-1.227941,0.417972,99.31,1
26381,0,50459,55166,50427.47,55275.84,31.53,-109.84,-1.156881,-1.227937,0.417665,99.32,1
26421,0,50471,55211,50427.56,55275.71,43.44,-64.71,-1.156882,-1.227935,0.417359,99.33,1
26461,0,50491,55261,50427.69,55275.68,63.31,-14.68,-1.156885,-1.227934,0.417056,99.34,1
26500,0,50482,55047,50427.80,55275.22,54.20,-228.22,-1.156887,-1.227926,0.416753,99.34,1
26540,0,50335,54695,50427.62,55274.06,-92.62,-579.06,-1.156883,-1.227905,0.416444,99.35,1
26581,0,50235,54586,50427.23,55272.69,-192.23,-686.69,-1.156876,-1.227880,0.416136,99.36,1
26621,0,50226,54616,50426.83,55271.37,-200.83,-655.37,-1.156868,-1.227856,0.415830,99.37,1
26661,0,50246,54652,50426.47,55270.14,-180.47,-618.14,-1.156861,-1.227834,0.415526,99.37,1
26699,0,50263,54670,50426.15,55268.94,-163.15,-598.94,-1.156854,-1.227812,0.415221,99.38,1
26741,0,50281,54725,50425.86,55267.85,-144.86,-542.85,-1.156849,-1.227793,0.414916,99.39,1
26780,0,50310,54786,50425.63,55266.89,-115.63,-480.89,-1.156844,-1.227775,0.414611,99.40,1
26820,0,50329,54814,50425.44,55265.98,-96.44,-451.98,-1.156840,-1.227759,0.414303,99.40,1
26861,0,50334,54830,50425.26,55265.11,-91.26,-435.11,-1.156837,-1.227743,0.413995,99.41,1
26900,0,50343,54866,50425.09,55264.32,-82.09,-398.32,-1.156833,-1.227729,0.413685,99.42,1
26941,0,50367,54920,50424.98,55263.63,-57.98,-343.63,-1.156831,-1.227716,0.413374,99.43,1
26981,0,50389,54978,50424.91,55263.06,-35.91,-285.06,-1.156830,-1.227706,0.413062,99.43,1
27021,0,50418,55044,50424.90,55262.62,-6.90,-218.62,-1.156830,-1.227698,0.412750,99.44,1
27062,0,50436,55109,50424.92,55262.32,11.08,-153.32,-1.156830,-1.227692,0.412438,99.45,1
27101,0,50458,55160,50424.99,55262.11,33.01,-102.11,-1.156831,-1.227689,0.412127,99.45,1
27143,0,50480,55205,50425.10,55262.00,54.90,-57.00,-1.156834,-1.227687,0.411818,99.46,1
27183,0,50498,55246,50425.25,55261.97,72.75,-15.97,-1.156837,-1.227686,0.411512,99.47,1
27222,0,50515,55309,50425.43,55262.06,89.57,46.94,-1.156840,-1.227688,0.411210,99.48,1
27263,0,50533,55275,50425.64,55262.09,107.36,12.91,-1.156844,-1.227688,0.410912,99.48,1
27303,0,50449,54937,50425.69,55261.44,23.31,-324.44,-1.156845,-1.227677,0.410613,99.49,1
27343,0,50320,54730,50425.48,55260.38,-105.48,-530.38,-1.156841,-1.227657,0.410310,99.50,1
27384,0,50283,54730,50425.20,55259.32,-142.20,-529.32,-1.156835,-1.227638,0.410008,99.51,1
27423,0,50301,54790,50424.95,55258.38,-123.95,-468.38,-1.156831,-1.227621,0.409705,99.51,1
27464,0,50321,54834,50424.74,55257.54,-103.74,-423.54,-1.156826,-1.227606,0.409403,99.52,1
27503,0,50342,54888,50424.58,55256.80,-82.58,-368.80,-1.156823,-1.227593,0.409099,99.53,1
27543,0,50370,54953,50424.47,55256.19,-54.47,-303.19,-1.156821,-1.227582,0.408795,99.54,1
27584,0,50396,54975,50424.41,55255.63,-28.41,-280.63,-1.156820,-1.227571,0.408490,99.54,1
27625,0,50400,54983,50424.37,55255.09,-24.37,-272.09,-1.156819,-1.227561,0.408184,99.55,1
27664,0,50408,55009,50424.34,55254.59,-16.34,-245.59,-1.156818,-1.227553,0.407877,99.56,1
27703,0,50425,55060,50424.34,55254.21,0.66,-194.21,-1.156819,-1.227546,0.407570,99.57,1
27743,0,50447,55122,50424.39,55253.95,22.61,-131.95,-1.156819,-1.227541,0.407264,99.58,1
27784,0,50473,55188,50424.48,55253.82,48.52,-65.82,-1.156821,-1.227539,0.406959,99.58,1
27822,0,50500,55243,50424.64,55253.80,75.36,-10.80,-1.156824,-1.227538,0.406658,99.59,1
27862,0,50519,55298,50424.83,55253.89,94.17,44.11,-1.156828,-1.227540,0.406361,99.60,1
27903,0,50539,55344,50425.06,55254.07,113.94,89.93,-1.156833,-1.227543,0.406069,99.61,1
27943,0,50556,55400,50425.32,55254.36,130.68,145.64,-1.156838,-1.227548,0.405784,99.61,1
27984,0,50579,55403,50425.63,55254.66,153.37,148.34,-1.156844,-1.227554,0.405509,99.62,1
28025,0,50519,55101,50425.82,55254.36,93.18,-153.36,-1.156848,-1.227548,0.405237,99.63,1
28064,0,50383,54850,50425.73,55253.55,-42.73,-403.55,-1.156846,-1.227534,0.404961,99.64,1
28105,0,50318,54810,50425.52,55252.66,-107.52,-442.66,-1.156842,-1.227518,0.404684,99.64,1
28145,0,50324,54855,50425.31,55251.87,-101.31,-396.87,-1.156838,-1.227503,0.404408,99.65,1
28184,0,50345,54892,50425.15,55251.15,-80.15,-359.15,-1.156835,-1.227490,0.404130,99.66,1
28224,0,50358,54928,50425.02,55250.50,-67.02,-322.50,-1.156832,-1.227479,0.403852,99.66,1
28265,0,50383,54999,50424.94,55250.00,-41.94,-251.00,-1.156830,-1.227470,0.403573,99.67,1
28303,0,50411,55041,50424.91,55249.59,-13.91,-208.59,-1.156830,-1.227462,0.403294,99.68,1
28344,0,50420,55057,50424.90,55249.20,-4.90,-192.20,-1.156830,-1.227455,0.403014,99.69,1
28384,0,50432,55076,50424.92,55248.86,7.08,-172.86,-1.156830,-1.227449,0.402734,99.69,1
28424,0,50448,55123,50424.96,55248.61,23.04,-125.61,-1.156831,-1.227444,0.402455,99.70,1
28464,0,50469,55177,50425.05,55248.47,43.95,-71.47,-1.156833,-1.227442,0.402177,99.71,1
28504,0,50496,55238,50425.20,55248.45,70.80,-10.45,-1.156836,-1.227441,0.401902,99.72,1
28544,0,50521,55297,50425.39,55248.55,95.61,48.45,-1.156839,-1.227443,0.401632,99.72,1
28584,0,50544,55357,50425.63,55248.77,118.37,108.23,-1.156844,-1.227447,0.401368,99.73,1
28624,0,50568,55399,50425.91,55249.07,142.09,149.93,-1.156850,-1.227453,0.401113,99.74,1
28666,0,50582,55442,50426.23,55249.45,155.77,192.55,-1.156856,-1.227460,0.400867,99.75,1
28704,0,50599,55486,50426.57,55249.93,172.43,236.07,-1.156863,-1.227468,0.400633,99.75,1
28745,0,50612,55439,50426.95,55250.30,185.05,188.70,-1.156870,-1.227475,0.400412,99.76,1
28785,0,50515,55087,50427.12,55249.98,87.88,-162.98,-1.156874,-1.227469,0.400195,99.77,1
28826,0,50380,54863,50427.03,55249.21,-47.03,-386.21,-1.156872,-1.227455,0.399973,99.77,1
28865,0,50331,54837,50426.84,55248.38,-95.84,-411.38,-1.156868,-1.227440,0.399750,99.78,1
28904,0,50338,54870,50426.66,55247.63,-88.66,-377.63,-1.156865,-1.227427,0.399525,99.79,1
28944,0,50350,54889,50426.51,55246.91,-76.51,-357.91,-1.156862,-1.227414,0.399298,99.79,1
28984,0,50353,54915,50426.36,55246.25,-73.36,-331.25,-1.156859,-1.227402,0.399071,99.80,1
29023,0,50378,54983,50426.27,55245.73,-48.27,-262.73,-1.156857,-1.227392,0.398842,99.81,1
29064,0,50405,55019,50426.23,55245.27,-21.23,-226.27,-1.156856,-1.227384,0.398613,99.81,1
29104,0,50411,55045,50426.20,55244.87,-15.20,-199.87,-1.156855,-1.227377,0.398383,99.82,1
29146,0,50426,55072,50426.20,55244.53,-0.20,-172.53,-1.156855,-1.227371,0.398152,99.82,1
29184,0,50442,55121,50426.23,55244.29,15.77,-123.29,-1.156856,-1.227366,0.397922,99.83,1
29226,0,50467,55178,50426.31,55244.15,40.69,-66.15,-1.156858,-1.227364,0.397693,99.83,1
29264,0,50495,55241,50426.45,55244.15,68.55,-3.15,-1.156860,-1.227364,0.397466,99.84,1
29303,0,50523,55295,50426.65,55244.25,96.35,50.75,-1.156864,-1.227365,0.397245,99.84,1
29343,0,50547,55351,50426.89,55244.46,120.11,106.54,-1.156869,-1.227369,0.397030,99.85,1
29384,0,50567,55401,50427.17,55244.78,139.83,156.22,-1.156875,-1.227375,0.396824,99.85,1
29424,0,50583,55449,50427.48,55245.19,155.52,203.81,-1.156881,-1.227382,0.396627,99.86,1
29464,0,50601,55494,50427.83,55245.69,173.17,248.31,-1.156888,-1.227391,0.396443,99.86,1
29505,0,50626,55522,50428.23,55246.25,197.77,275.75,-1.156896,-1.227401,0.396273,99.87,1
29545,0,50591,55252,50428.56,55246.26,162.44,5.74,-1.156902,-1.227402,0.396115,99.87,1
29585,0,50436,54937,50428.57,55245.64,7.43,-308.64,-1.156902,-1.227391,0.395954,99.87,1
29624,0,50351,54856,50428.42,55244.86,-77.42,-388.86,-1.156899,-1.227376,0.395789,99.88,1
29665,0,50345,54887,50428.26,55244.15,-83.26,-357.15,-1.156896,-1.227364,0.395622,99.88,1
29706,0,50363,54914,50428.13,55243.49,-65.13,-329.49,-1.156894,-1.227352,0.395453,99.88,1
29745,0,50371,54932,50428.02,55242.87,-57.02,-310.87,-1.156891,-1.227340,0.395282,99.89,1
29785,0,50386,54994,50427.93,55242.37,-41.93,-248.37,-1.156890,-1.227331,0.395109,99.89,1
29825,0,50411,55048,50427.90,55241.98,-16.90,-193.98,-1.156889,-1.227324,0.394936,99.89,1
29865,0,50425,55072,50427.90,55241.64,-2.90,-169.64,-1.156889,-1.227318,0.394762,99.90,1
29904,0,50432,55080,50427.91,55241.32,4.09,-161.32,-1.156889,-1.227312,0.394587,99.90,1
29945,0,50443,55117,50427.94,55241.08,15.06,-124.08,-1.156890,-1.227308,0.394412,99.90,1
29985,0,50462,55176,50428.01,55240.95,33.99,-64.95,-1.156891,-1.227306,0.394238,99.91,1
30026,0,50487,55240,50428.13,55240.95,58.87,-0.95,-1.156894,-1.227306,0.394066,99.91,1
30065,0,50512,55304,50428.30,55241.08,83.70,62.92,-1.156897,-1.227308,0.393897,99.91,1
30105,0,50544,55367,50428.53,55241.33,115.47,125.67,-1.156902,-1.227313,0.393735,99.91,1
30146,0,50573,55419,50428.82,55241.69,144.18,177.31,-1.156907,-1.227319,0.393582,99.92,1
30185,0,50594,55462,50429.15,55242.13,164.85,219.87,-1.156914,-1.227327,0.393441,99.92,1
30225,0,50614,55513,50429.52,55242.67,184.48,270.33,-1.156921,-1.227337,0.393312,99.92,1
30266,0,50632,55530,50429.93,55243.25,202.07,286.75,-1.156929,-1.227347,0.393200,99.92,1
30304,0,50590,55242,50430.25,55243.25,159.75,-1.25,-1.156936,-1.227347,0.393100,99.93,1
30346,0,50442,54949,50430.27,55242.66,11.73,-293.66,-1.156936,-1.227337,0.392995,99.93,1
30385,0,50369,54888,50430.15,55241.95,-61.15,-353.95,-1.156934,-1.227324,0.392887,99.93,1
30425,0,50374,54935,50430.04,55241.34,-56.04,-306.34,-1.156932,-1.227313,0.392775,99.93,1
30465,0,50396,54980,50429.98,55240.82,-33.98,-260.82,-1.156930,-1.227303,0.392661,99.94,1
30506,0,50413,55023,50429.95,55240.39,-16.95,-217.39,-1.156930,-1.227296,0.392545,99.94,1
30545,0,50435,55089,50429.96,55240.09,5.04,-151.09,-1.156930,-1.227290,0.392428,99.94,1
30585,0,50456,55116,50430.01,55239.84,25.99,-123.84,-1.156931,-1.227286,0.392312,99.94,1
30625,0,50462,55119,50430.08,55239.60,31.92,-120.60,-1.156932,-1.227281,0.392195,99.94,1
30664,0,50461,55134,50430.14,55239.39,30.86,-105.39,-1.156934,-1.227277,0.392078,99.94,1
30705,0,50472,55174,50430.23,55239.26,41.77,-65.26,-1.156935,-1.227275,0.391963,99.95,1
30745,0,50489,55234,50430.34,55239.25,58.66,-5.25,-1.156937,-1.227275,0.391849,99.95,1
30786,0,50512,55296,50430.51,55239.36,81.49,56.64,-1.156941,-1.227277,0.391739,99.95,1
30826,0,50540,55362,50430.73,55239.61,109.27,122.39,-1.156945,-1.227281,0.391635,99.95,1
30865,0,50567,55415,50431.00,55239.96,136.00,175.04,-1.156951,-1.227288,0.391539,99.95,1
30906,0,50587,55459,50431.31,55240.40,155.69,218.60,-1.156957,-1.227296,0.391453,99.95,1
30946,0,50605,55511,50431.66,55240.95,173.34,270.05,-1.156964,-1.227306,0.391379,99.95,1
30986,0,50622,55515,50432.04,55241.50,189.96,273.50,-1.156971,-1.227316,0.391319,99.96,1
31025,0,50564,55184,50432.31,55241.38,131.69,-57.38,-1.156976,-1.227314,0.391267,99.96,1
31066,0,50415,54904,50432.27,55240.71,-17.27,-336.71,-1.156976,-1.227301,0.391209,99.96,1
31106,0,50350,54857,50432.11,55239.95,-82.11,-382.95,-1.156973,-1.227288,0.391146,99.96,1
31148,0,50360,54901,50431.96,55239.27,-71.96,-338.27,-1.156970,-1.227275,0.391080,99.96,1
31186,0,50379,54940,50431.86,55238.67,-52.86,-298.67,-1.156968,-1.227264,0.391010,99.96,1
31227,0,50392,54978,50431.78,55238.15,-39.78,-260.15,-1.156966,-1.227255,0.390937,99.96,1
31265,0,50413,55045,50431.75,55237.77,-18.75,-192.77,-1.156965,-1.227248,0.390862,99.96,1
31306,0,50437,55076,50431.76,55237.45,5.24,-161.45,-1.156965,-1.227242,0.390786,99.97,1
31347,0,50448,55080,50431.79,55237.13,16.21,-157.13,-1.156966,-1.227237,0.390709,99.97,1
31387,0,50452,55099,50431.84,55236.86,20.16,-137.86,-1.156967,-1.227232,0.390631,99.97,1
31428,0,50457,55139,50431.89,55236.66,25.11,-97.66,-1.156968,-1.227228,0.390553,99.97,1
31468,0,50478,55194,50431.98,55236.58,46.02,-42.58,-1.156970,-1.227227,0.390477,99.97,1
31508,0,50502,55256,50432.12,55236.62,69.88,19.38,-1.156973,-1.227227,0.390403,99.97,1
31548,0,50523,55312,50432.30,55236.77,90.70,75.23,-1.156976,-1.227230,0.390334,99.97,1
31587,0,50544,55361,50432.53,55237.02,111.47,123.98,-1.156981,-1.227235,0.390270,99.97,1
31628,0,50558,55407,50432.79,55237.36,125.21,169.64,-1.156986,-1.227241,0.390214,99.97,1
31668,0,50575,55448,50433.07,55237.79,141.93,210.21,-1.156992,-1.227248,0.390166,99.97,1
31709,0,50593,55484,50433.39,55238.28,159.61,245.72,-1.156998,-1.227257,0.390129,99.97,1
31750,0,50564,55207,50433.65,55238.21,130.35,-31.21,-1.157003,-1.227256,0.390101,99.98,1
31789,0,50402,54862,50433.59,55237.46,-31.59,-375.46,-1.157002,-1.227243,0.390064,99.98,1
31829,0,50313,54771,50433.35,55236.54,-120.35,-465.54,-1.156997,-1.227226,0.390021,99.98,1
31868,0,50304,54805,50433.09,55235.67,-129.09,-430.67,-1.156992,-1.227210,0.389975,99.98,1
31909,0,50324,54836,50432.87,55234.87,-108.87,-398.87,-1.156988,-1.227196,0.389926,99.98,1
31949,0,50338,54855,50432.69,55234.12,-94.69,-379.12,-1.156984,-1.227182,0.389873,99.98,1
31988,0,50351,54912,50432.53,55233.47,-81.53,-321.47,-1.156981,-1.227170,0.389817,99.98,1
32030,0,50385,54970,50432.43,55232.95,-47.43,-262.95,-1.156979,-1.227161,0.389759,99.98,1
32068,0,50400,54991,50432.37,55232.46,-32.37,-241.46,-1.156978,-1.227152,0.389697,99.98,1
32108,0,50408,55014,50432.32,55232.03,-24.32,-218.03,-1.156977,-1.227144,0.389634,99.98,1
32148,0,50417,55046,50432.29,55231.66,-15.29,-185.66,-1.156976,-1.227137,0.389568,99.98,1
32189,0,50433,55097,50432.30,55231.39,0.70,-134.39,-1.156976,-1.227133,0.389501,99.98,1
32228,0,50460,55160,50432.36,55231.25,27.64,-71.25,-1.156977,-1.227130,0.389435,99.98,1
32268,0,50485,55217,50432.46,55231.22,52.54,-14.22,-1.156980,-1.227129,0.389371,99.98,1
32308,0,50509,55276,50432.62,55231.31,76.38,44.69,-1.156983,-1.227131,0.389309,99.98,1
32349,0,50527,55325,50432.81,55231.50,94.19,93.50,-1.156986,-1.227134,0.389253,99.98,1
32388,0,50544,55368,50433.03,55231.77,110.97,136.23,-1.156991,-1.227139,0.389202,99.99,1
32430,0,50562,55413,50433.29,55232.13,128.71,180.87,-1.156996,-1.227146,0.389159,99.99,1
32469,0,50573,55350,50433.57,55232.37,139.43,117.63,-1.157001,-1.227150,0.389126,99.99,1
32510,0,50470,54967,50433.64,55231.84,36.36,-264.84,-1.157003,-1.227141,0.389090,99.99,1
32549,0,50322,54741,50433.42,55230.86,-111.42,-489.86,-1.156999,-1.227123,0.389044,99.99,1
32590,0,50275,54730,50433.11,55229.86,-158.11,-499.86,-1.156992,-1.227105,0.388996,99.99,1
32630,0,50287,54774,50432.82,55228.95,-145.82,-454.95,-1.156987,-1.227088,0.388947,99.99,1
32669,0,50307,54794,50432.57,55228.08,-125.57,-434.08,-1.156982,-1.227073,0.388895,99.99,1
32708,0,50320,54829,50432.34,55227.29,-112.34,-398.29,-1.156977,-1.227058,0.388840,99.99,1
32749,0,50343,54899,50432.17,55226.63,-89.17,-327.63,-1.156974,-1.227046,0.388782,99.99,1
32786,0,50362,54940,50432.03,55226.06,-70.03,-286.06,-1.156971,-1.227036,0.388722,99.99,1
32829,0,50379,54960,50431.92,55225.53,-52.92,-265.53,-1.156969,-1.227026,0.388660,99.99,1
32868,0,50388,54984,50431.84,55225.05,-43.84,-241.05,-1.156967,-1.227018,0.388595,99.99,1
32909,0,50407,55032,50431.79,55224.66,-24.79,-192.66,-1.156966,-1.227011,0.388529,99.99,1
32948,0,50434,55090,50431.79,55224.39,2.21,-134.39,-1.156966,-1.227006,0.388462,99.99,1
32990,0,50455,55155,50431.84,55224.26,23.16,-69.26,-1.156967,-1.227003,0.388394,99.99,1
33028,0,50479,55214,50431.93,55224.24,47.07,-10.24,-1.156969,-1.227003,0.388328,99.99,1
33069,0,50501,55268,50432.07,55224.33,68.93,43.67,-1.156972,-1.227005,0.388266,99.99,1
33112,0,50521,55312,50432.25,55224.50,88.75,87.50,-1.156976,-1.227008,0.388207,99.99,1
33151,0,50540,55357,50432.47,55224.77,107.53,132.23,-1.156980,-1.227013,0.388154,99.99,1
33188,0,50561,55407,50432.73,55225.14,128.27,181.86,-1.156985,-1.227019,0.388108,99.99,1
33230,0,50565,55290,50432.99,55225.27,132.01,64.73,-1.156990,-1.227022,0.388073,99.99,1
33268,0,50436,54909,50433.00,55224.64,3.00,-315.64,-1.156990,-1.227010,0.388031,99.99,1
33308,0,50309,54727,50432.75,55223.64,-123.75,-496.64,-1.156985,-1.226992,0.387981,99.99,1
33350,0,50279,54735,50432.45,55222.67,-153.45,-487.67,-1.156979,-1.226975,0.387929,99.99,1
33388,0,50297,54782,50432.18,55221.79,-135.18,-439.79,-1.156974,-1.226959,0.387875,99.99,1
33430,0,50313,54806,50431.94,55220.96,-118.94,-414.96,-1.156969,-1.226944,0.387818,99.99,1
33470,0,50321,54859,50431.72,55220.23,-110.72,-361.23,-1.156965,-1.226931,0.387760,99.99,1
33511,0,50350,54927,50431.56,55219.65,-81.56,-292.65,-1.156962,-1.226920,0.387701,99.99,1
33551,0,50367,54950,50431.43,55219.11,-64.43,-269.11,-1.156959,-1.226910,0.387639,99.99,1
33590,0,50376,54966,50431.32,55218.61,-55.32,-252.61,-1.156957,-1.226901,0.387576,99.99,1
33633,0,50387,54998,50431.23,55218.16,-44.23,-220.16,-1.156955,-1.226893,0.387510,99.99,1
33669,0,50403,55052,50431.18,55217.83,-28.18,-165.83,-1.156954,-1.226887,0.387444,99.99,1
33711,0,50430,55116,50431.18,55217.63,-1.18,-101.63,-1.156954,-1.226883,0.387376,99.99,1
33750,0,50454,55187,50431.23,55217.57,22.77,-30.57,-1.156955,-1.226882,0.387310,99.99,1
33790,0,50488,55251,50431.34,55217.64,56.66,33.36,-1.156957,-1.226884,0.387245,99.99,1
33828,0,50515,55312,50431.51,55217.83,83.49,94.17,-1.156961,-1.226887,0.387184,100.00,1
33870,0,50538,55354,50431.72,55218.10,106.28,135.90,-1.156965,-1.226892,0.387129,100.00,1
33910,0,50556,55402,50431.97,55218.47,124.03,183.53,-1.156970,-1.226899,0.387081,100.00,1
33950,0,50577,55453,50432.27,55218.94,144.73,234.06,-1.156976,-1.226907,0.387041,100.00,1
33989,0,50576,55295,50432.55,55219.09,143.45,75.91,-1.156981,-1.226910,0.387014,100.00,1
34030,0,50437,54930,50432.57,55218.52,4.43,-288.52,-1.156982,-1.226900,0.386980,100.00,1
34070,0,50327,54794,50432.36,55217.67,-105.36,-423.67,-1.156977,-1.226884,0.386941,100.00,1
34111,0,50313,54824,50432.12,55216.88,-119.12,-392.88,-1.156973,-1.226870,0.386900,100.00,1
34150,0,50339,54884,50431.93,55216.22,-92.93,-332.22,-1.156969,-1.226858,0.386856,100.00,1
34190,0,50358,54929,50431.79,55215.64,-73.79,-286.64,-1.156966,-1.226848,0.386810,100.00,1
34230,0,50376,54994,50431.68,55215.20,-55.68,-221.20,-1.156964,-1.226840,0.386763,100.00,1
34271,0,50405,55039,50431.62,55214.85,-26.62,-175.85,-1.156963,-1.226833,0.386714,100.00,1
34311,0,50413,55044,50431.59,55214.51,-18.59,-170.51,-1.156962,-1.226827,0.386664,100.00,1
34351,0,50409,55048,50431.55,55214.18,-22.55,-166.18,-1.156961,-1.226821,0.386612,100.00,1
34392,0,50419,55085,50431.52,55213.92,-12.52,-128.92,-1.156961,-1.226816,0.386559,100.00,1
34432,0,50434,55138,50431.53,55213.77,2.47,-75.77,-1.156961,-1.226814,0.386506,100.00,1
34471,0,50457,55204,50431.58,55213.75,25.42,-9.75,-1.156962,-1.226813,0.386454,100.00,1
34511,0,50487,55270,50431.70,55213.86,55.30,56.14,-1.156964,-1.226815,0.386403,100.00,1
34551,0,50511,55325,50431.86,55214.09,79.14,110.91,-1.156968,-1.226819,0.386356,100.00,1
34592,0,50538,55380,50432.07,55214.42,105.93,165.58,-1.156972,-1.226825,0.386314,100.00,1
34633,0,50557,55434,50432.32,55214.86,124.68,219.14,-1.156977,-1.226833,0.386278,100.00,1
34673,0,50580,55476,50432.62,55215.38,147.38,260.62,-1.156983,-1.226843,0.386251,100.00,1
34711,0,50553,55214,50432.86,55215.38,120.14,-1.38,-1.156987,-1.226843,0.386233,100.00,1
34751,0,50402,54882,50432.80,55214.72,-30.80,-332.72,-1.156986,-1.226831,0.386207,100.00,1
34791,0,50317,54796,50432.57,55213.88,-115.57,-417.88,-1.156982,-1.226816,0.386177,100.00,1
34833,0,50321,54845,50432.35,55213.14,-111.35,-368.14,-1.156977,-1.226802,0.386145,100.00,1
34871,0,50342,54900,50432.17,55212.52,-90.17,-312.52,-1.156974,-1.226791,0.386110,100.00,1
34914,0,50363,54942,50432.03,55211.98,-69.03,-269.98,-1.156971,-1.226781,0.386074,100.00,1
34952,0,50384,55013,50431.94,55211.58,-47.94,-198.58,-1.156969,-1.226774,0.386036,100.00,1
34992,0,50409,55044,50431.89,55211.25,-22.89,-167.25,-1.156968,-1.226768,0.385997,100.00,1
35030,0,50421,55052,50431.87,55210.93,-10.88,-158.93,-1.156968,-1.226762,0.385956,100.00,1
35072,0,50423,55064,50431.86,55210.64,-8.86,-146.64,-1.156968,-1.226757,0.385913,100.00,1
35112,0,50430,55107,50431.86,55210.43,-1.86,-103.43,-1.156968,-1.226753,0.385870,100.00,1
35151,0,50448,55168,50431.89,55210.35,16.11,-42.35,-1.156968,-1.226752,0.385827,100.00,1
35192,0,50476,55230,50431.98,55210.39,44.02,19.61,-1.156970,-1.226752,0.385785,100.00,1
35233,0,50501,55288,50432.12,55210.55,68.88,77.45,-1.156973,-1.226755,0.385746,100.00,1
35270,0,50522,55343,50432.30,55210.81,89.70,132.19,-1.156976,-1.226760,0.385712,100.00,1
35311,0,50540,55390,50432.52,55211.17,107.48,178.83,-1.156981,-1.226766,0.385682,100.00,1
35350,0,50559,55443,50432.77,55211.64,126.23,231.36,-1.156986,-1.226775,0.385659,100.00,1
35391,0,50583,55486,50433.07,55212.19,149.93,273.81,-1.156992,-1.226785,0.385645,100.00,1
35430,0,50573,55287,50433.35,55212.34,139.65,74.66,-1.156997,-1.226788,0.385643,100.00,1
35471,0,50421,54892,50433.33,55211.70,-12.33,-319.70,-1.156997,-1.226776,0.385634,100.00,1
35512,0,50303,54744,50433.07,55210.77,-130.07,-466.77,-1.156992,-1.226759,0.385617,100.00,1
35552,0,50284,54760,50432.77,55209.87,-148.77,-449.87,-1.156986,-1.226743,0.385600,100.00,1
35592,0,50303,54809,50432.52,55209.07,-129.52,-400.07,-1.156981,-1.226728,0.385581,100.00,1
35634,0,50318,54834,50432.29,55208.32,-114.29,-374.32,-1.156976,-1.226715,0.385560,100.00,1
35673,0,50333,54880,50432.09,55207.66,-99.09,-327.66,-1.156972,-1.226703,0.385537,100.00,1
35713,0,50365,54947,50431.96,55207.14,-66.96,-260.14,-1.156970,-1.226693,0.385511,100.00,1
35751,0,50390,54974,50431.87,55206.68,-41.88,-232.68,-1.156968,-1.226685,0.385483,100.00,1
35792,0,50392,54987,50431.80,55206.24,-39.80,-219.24,-1.156966,-1.226677,0.385453,100.00,1
35831,0,50399,55019,50431.73,55205.86,-32.73,-186.86,-1.156965,-1.226670,0.385420,100.00,1
35872,0,50418,55069,50431.71,55205.59,-13.71,-136.59,-1.156965,-1.226665,0.385387,100.00,1
35911,0,50444,55132,50431.73,55205.45,12.27,-73.45,-1.156965,-1.226663,0.385353,100.00,1
35950,0,50471,55194,50431.81,55205.43,39.19,-11.43,-1.156967,-1.226662,0.385320,100.00,1
35991,0,50491,55255,50431.93,55205.53,59.07,49.47,-1.156969,-1.226664,0.385289,100.00,1
36032,0,50515,55305,50432.10,55205.73,82.90,99.27,-1.156972,-1.226668,0.385263,100.00,1
36071,0,50533,55353,50432.30,55206.02,100.70,146.98,-1.156976,-1.226673,0.385241,100.00,1
36112,0,50544,55397,50432.53,55206.41,111.47,190.59,-1.156981,-1.226680,0.385225,100.00,1
36152,0,50563,55434,50432.79,55206.86,130.21,227.14,-1.156986,-1.226689,0.385216,100.00,1
36193,0,50537,55156,50433.00,55206.76,104.00,-50.76,-1.156990,-1.226687,0.385214,100.00,1
36231,0,50369,54796,50432.88,55205.94,-63.88,-409.94,-1.156988,-1.226672,0.385201,100.00,1
36274,0,50270,54690,50432.55,55204.91,-162.55,-514.91,-1.156981,-1.226653,0.385185,100.00,1
36313,0,50260,54716,50432.21,55203.93,-172.21,-487.93,-1.156975,-1.226635,0.385169,100.00,1
36353,0,50277,54754,50431.90,55203.04,-154.90,-449.04,-1.156968,-1.226619,0.385153,100.00,1
36393,0,50292,54769,50431.62,55202.17,-139.62,-433.17,-1.156963,-1.226603,0.385135,100.00,1
36435,0,50305,54836,50431.37,55201.44,-126.37,-365.44,-1.156958,-1.226590,0.385117,100.00,1
36474,0,50338,54904,50431.19,55200.84,-93.19,-296.84,-1.156954,-1.226579,0.385098,100.00,1
36514,0,50360,54931,50431.05,55200.30,-71.05,-269.30,-1.156952,-1.226570,0.385077,100.00,1
36553,0,50369,54952,50430.93,55199.81,-61.93,-247.81,-1.156949,-1.226561,0.385054,100.00,1
36593,0,50381,54986,50430.83,55199.38,-49.83,-213.38,-1.156947,-1.226553,0.385029,100.00,1
36634,0,50402,55038,50430.78,55199.06,-28.78,-161.06,-1.156946,-1.226547,0.385003,100.00,1
36673,0,50433,55107,50430.78,55198.88,2.22,-91.88,-1.156946,-1.226544,0.384976,100.00,1
36715,0,50455,55169,50430.83,55198.82,24.17,-29.82,-1.156947,-1.226543,0.384950,100.00,1
36753,0,50479,55225,50430.93,55198.87,48.07,26.12,-1.156949,-1.226544,0.384925,100.00,1
36794,0,50502,55281,50431.07,55199.04,70.93,81.96,-1.156952,-1.226547,0.384903,100.00,1
36833,0,50521,55326,50431.25,55199.29,89.75,126.71,-1.156956,-1.226551,0.384884,100.00,1
36874,0,50539,55370,50431.47,55199.64,107.53,170.36,-1.156960,-1.226557,0.384872,100.00,1
36916,0,50555,55418,50431.72,55200.07,123.28,217.93,-1.156965,-1.226565,0.384865,100.00,1
36953,0,50568,55355,50431.99,55200.39,136.01,154.61,-1.156970,-1.226571,0.384869,100.00,1
36994,0,50457,54962,50432.04,55199.91,24.96,-237.91,-1.156971,-1.226563,0.384868,100.00,1
37033,0,50310,54720,50431.80,55198.95,-121.80,-478.95,-1.156966,-1.226545,0.384858,100.00,1
37074,0,50260,54703,50431.46,55197.96,-171.46,-494.96,-1.156960,-1.226527,0.384849,100.00,1
37112,0,50270,54745,50431.14,55197.05,-161.14,-452.05,-1.156953,-1.226511,0.384840,100.00,1
37152,0,50287,54779,50430.85,55196.22,-143.85,-417.22,-1.156948,-1.226496,0.384831,100.00,1
37191,0,50294,54810,50430.58,55195.45,-136.58,-385.45,-1.156942,-1.226482,0.384822,100.00,1
37230,0,50312,54874,50430.34,55194.81,-118.34,-320.81,-1.156937,-1.226470,0.384814,100.00,1
37275,0,50339,54908,50430.16,55194.24,-91.16,-286.24,-1.156934,-1.226460,0.384805,100.00,1
37314,0,50351,54923,50430.01,55193.70,-79.01,-270.70,-1.156931,-1.226450,0.384795,100.00,1
37354,0,50356,54948,50429.86,55193.21,-73.86,-245.21,-1.156928,-1.226441,0.384784,100.00,1
37395,0,50370,54996,50429.74,55192.81,-59.74,-196.81,-1.156926,-1.226434,0.384771,100.00,1
37433,0,50395,55060,50429.68,55192.55,-34.68,-132.55,-1.156924,-1.226429,0.384759,100.00,1
37475,0,50423,55123,50429.66,55192.41,-6.66,-69.41,-1.156924,-1.226427,0.384746,100.00,1
37514,0,50453,55187,50429.71,55192.40,23.29,-5.40,-1.156925,-1.226426,0.384733,100.00,1
37554,0,50479,55242,50429.81,55192.50,49.19,49.50,-1.156927,-1.226428,0.384722,100.00,1
37593,0,50499,55295,50429.95,55192.71,69.05,102.29,-1.156930,-1.226432,0.384713,100.00,1
37634,0,50519,55337,50430.13,55193.00,88.87,144.00,-1.156933,-1.226437,0.384707,100.00,1
37674,0,50538,55382,50430.35,55193.38,107.65,188.62,-1.156938,-1.226444,0.384706,100.00,1
37716,0,50558,55434,50430.61,55193.86,127.39,240.14,-1.156943,-1.226453,0.384711,100.00,1
37754,0,50568,55362,50430.89,55194.20,137.11,167.80,-1.156948,-1.226459,0.384726,100.00,1
37795,0,50459,54969,50430.95,55193.75,28.05,-224.75,-1.156949,-1.226451,0.384736,100.00,1
37833,0,50316,54742,50430.71,55192.85,-114.71,-450.85,-1.156945,-1.226435,0.384739,100.00,1
37874,0,50269,54726,50430.39,55191.91,-161.39,-465.91,-1.156939,-1.226418,0.384742,100.00,1
37914,0,50280,54778,50430.09,55191.09,-150.09,-413.09,-1.156933,-1.226403,0.384745,100.00,1
37956,0,50296,54807,50429.83,55190.32,-133.83,-383.32,-1.156927,-1.226389,0.384748,100.00,1
37996,0,50310,54844,50429.59,55189.63,-119.59,-345.63,-1.156923,-1.226376,0.384751,100.00,1
38035,0,50334,54903,50429.40,55189.06,-95.40,-286.06,-1.156919,-1.226366,0.384753,100.00,1
38075,0,50350,54934,50429.24,55188.55,-79.24,-254.55,-1.156916,-1.226357,0.384754,100.00,1
38117,0,50358,54949,50429.10,55188.07,-71.10,-239.07,-1.156913,-1.226348,0.384754,100.00,1
38155,0,50362,54976,50428.97,55187.65,-66.97,-211.65,-1.156910,-1.226340,0.384753,100.00,1
38198,0,50378,55022,50428.87,55187.32,-50.87,-165.32,-1.156908,-1.226334,0.384751,100.00,1
38235,0,50403,55083,50428.82,55187.12,-25.82,-104.12,-1.156907,-1.226331,0.384750,100.00,1
38274,0,50425,55148,50428.81,55187.04,-3.81,-39.04,-1.156907,-1.226329,0.384748,100.00,1
38313,0,50455,55213,50428.86,55187.09,26.14,25.91,-1.156908,-1.226330,0.384746,100.00,1
38354,0,50480,55271,50428.97,55187.26,51.03,83.74,-1.156910,-1.226333,0.384746,100.00,1
38393,0,50502,55328,50429.12,55187.54,72.88,140.46,-1.156913,-1.226338,0.384747,100.00,1
38435,0,50528,55372,50429.32,55187.91,98.68,184.09,-1.156917,-1.226345,0.384752,100.00,1
38476,0,50544,55418,50429.55,55188.37,114.45,229.62,-1.156922,-1.226354,0.384761,100.00,1
38517,0,50572,55470,50429.83,55188.94,142.17,281.06,-1.156927,-1.226364,0.384777,100.00,1
38555,0,50577,55351,50430.13,55189.27,146.87,161.73,-1.156933,-1.226370,0.384804,100.00,1
38596,0,50446,54963,50430.16,55188.82,15.84,-225.82,-1.156934,-1.226362,0.384827,100.00,1
38636,0,50317,54777,50429.93,55188.00,-112.93,-411.00,-1.156929,-1.226347,0.384845,100.00,1
38675,0,50293,54788,50429.66,55187.20,-136.66,-399.20,-1.156924,-1.226332,0.384861,100.00,1
38716,0,50313,54848,50429.43,55186.52,-116.43,-338.52,-1.156919,-1.226320,0.384877,100.00,1
38755,0,50333,54888,50429.24,55185.93,-96.24,-297.93,-1.156916,-1.226309,0.384891,100.00,1
38796,0,50347,54944,50429.07,55185.45,-82.07,-241.45,-1.156912,-1.226300,0.384905,100.00,1
38835,0,50373,54996,50428.96,55185.07,-55.96,-189.07,-1.156910,-1.226294,0.384918,100.00,1
38877,0,50383,55011,50428.87,55184.72,-45.88,-173.72,-1.156908,-1.226287,0.384929,100.00,1
38916,0,50388,55008,50428.79,55184.37,-40.79,-176.37,-1.156907,-1.226281,0.384940,100.00,1
38957,0,50388,55031,50428.71,55184.06,-40.71,-153.06,-1.156905,-1.226275,0.384949,100.00,1
38997,0,50400,55079,50428.66,55183.86,-28.66,-104.86,-1.156904,-1.226272,0.384958,100.00,1
39033,0,50425,55141,50428.65,55183.77,-3.65,-42.77,-1.156904,-1.226270,0.384967,100.00,1
39072,0,50447,55198,50428.69,55183.80,18.31,14.20,-1.156905,-1.226271,0.384976,100.00,1
39111,0,50474,55259,50428.78,55183.95,45.22,75.05,-1.156907,-1.226273,0.384986,100.00,1
39156,0,50494,55312,50428.91,55184.21,65.09,127.79,-1.156909,-1.226278,0.384997,100.00,1
39197,0,50511,55351,50429.08,55184.55,81.92,166.45,-1.156912,-1.226284,0.385011,100.00,1
39235,0,50533,55411,50429.29,55185.00,103.71,226.00,-1.156917,-1.226292,0.385027,100.00,1
39276,0,50559,55432,50429.55,55185.50,129.45,246.50,-1.156922,-1.226301,0.385050,100.00,1
39317,0,50511,55115,50429.71,55185.36,81.29,-70.36,-1.156925,-1.226299,0.385076,100.00,1
39356,0,50355,54810,50429.57,55184.61,-74.57,-374.61,-1.156922,-1.226285,0.385094,100.00,1
39397,0,50283,54751,50429.27,55183.74,-146.27,-432.74,-1.156916,-1.226269,0.385110,100.00,1
39436,0,50288,54803,50428.99,55182.98,-140.99,-379.98,-1.156911,-1.226256,0.385127,100.00,1
39478,0,50317,54862,50428.77,55182.34,-111.77,-320.34,-1.156906,-1.226244,0.385143,100.00,1
39518,0,50333,54910,50428.58,55181.79,-95.58,-271.79,-1.156903,-1.226234,0.385159,100.00,1
39557,0,50364,54967,50428.45,55181.36,-64.45,-214.36,-1.156900,-1.226226,0.385174,100.00,1
39597,0,50378,54989,50428.35,55180.98,-50.35,-191.98,-1.156898,-1.226220,0.385188,100.00,1
39636,0,50377,54987,50428.25,55180.59,-51.25,-193.59,-1.156896,-1.226213,0.385200,100.00,1
39677,0,50378,55000,50428.15,55180.23,-50.15,-180.23,-1.156894,-1.226206,0.385211,100.00,1
39717,0,50387,55039,50428.07,55179.95,-41.07,-140.95,-1.156892,-1.226201,0.385222,100.00,1
39757,0,50405,55093,50428.03,55179.78,-23.03,-86.78,-1.156892,-1.226198,0.385232,100.00,1
39798,0,50429,55150,50428.03,55179.72,0.97,-29.72,-1.156892,-1.226197,0.385242,100.00,1
39837,0,50454,55207,50428.09,55179.78,25.91,27.22,-1.156893,-1.226198,0.385253,100.00,1
39877,0,50472,55260,50428.18,55179.94,43.82,80.06,-1.156895,-1.226201,0.385264,100.00,1
39917,0,50488,55308,50428.30,55180.20,59.70,127.80,-1.156897,-1.226205,0.385276,100.00,1
39958,0,50509,55358,50428.46,55180.55,80.54,177.45,-1.156900,-1.226212,0.385290,100.00,1
39998,0,50530,55371,50428.66,55180.93,101.34,190.07,-1.156904,-1.226219,0.385308,100.00,1
40037,0,50481,55050,50428.77,55180.67,52.23,-130.67,-1.156906,-1.226214,0.385326,100.00,1
40077,0,50315,54732,50428.54,55179.78,-113.54,-447.78,-1.156902,-1.226198,0.385335,100.00,1
40117,0,50229,54647,50428.14,55178.71,-199.14,-531.71,-1.156894,-1.226178,0.385347,100.00,1
40157,0,50230,54672,50427.75,55177.70,-197.75,-505.70,-1.156886,-1.226160,0.385364,100.00,1
40199,0,50247,54700,50427.39,55176.75,-180.39,-476.75,-1.156879,-1.226143,0.385382,100.00,1
40237,0,50258,54718,50427.05,55175.83,-169.05,-457.83,-1.156872,-1.226126,0.385402,100.00,1
40275,0,50279,54779,50426.76,55175.04,-147.76,-396.04,-1.156867,-1.226112,0.385422,100.00,1
40318,0,50297,54821,50426.50,55174.33,-129.50,-353.33,-1.156861,-1.226099,0.385443,100.00,1
40355,0,50308,54835,50426.27,55173.66,-118.27,-338.66,-1.156857,-1.226087,0.385463,100.00,1
40396,0,50312,54852,50426.04,55173.02,-114.04,-321.02,-1.156852,-1.226075,0.385484,100.00,1
40437,0,50322,54893,50425.84,55172.46,-103.84,-279.46,-1.156848,-1.226065,0.385504,100.00,1
40473,0,50346,54949,50425.68,55172.01,-79.68,-223.01,-1.156845,-1.226057,0.385524,100.00,1
40516,0,50370,55007,50425.57,55171.68,-55.57,-164.68,-1.156843,-1.226051,0.385545,100.00,1
40556,0,50388,55062,50425.49,55171.46,-37.49,-109.46,-1.156841,-1.226047,0.385565,100.00,1
40599,0,50407,55117,50425.46,55171.36,-18.46,-54.36,-1.156841,-1.226045,0.385585,100.00,1
40638,0,50428,55160,50425.46,55171.34,2.54,-11.34,-1.156841,-1.226045,0.385604,100.00,1
40681,0,50445,55204,50425.50,55171.40,19.50,32.60,-1.156842,-1.226046,0.385624,100.00,1
40718,0,50464,55255,50425.58,55171.57,38.42,83.43,-1.156843,-1.226049,0.385645,100.00,1
40759,0,50452,55085,50425.64,55171.40,26.36,-86.40,-1.156844,-1.226046,0.385665,100.00,1
40799,0,50318,54742,50425.42,55170.54,-107.42,-428.54,-1.156840,-1.226030,0.385677,100.00,1
40837,0,50210,54595,50424.99,55169.39,-214.99,-574.39,-1.156831,-1.226009,0.385692,100.00,1
40878,0,50186,54591,50424.52,55168.24,-238.52,-577.24,-1.156822,-1.225989,0.385715,100.00,1
40916,0,50195,54613,50424.06,55167.13,-229.06,-554.13,-1.156813,-1.225968,0.385746,100.00,1
40957,0,50195,54617,50423.60,55166.03,-228.60,-549.03,-1.156804,-1.225949,0.385783,100.00,1
40998,0,50205,54670,50423.16,55165.04,-218.16,-495.04,-1.156795,-1.225931,0.385829,100.00,1
41037,0,50239,54737,50422.80,55164.18,-183.80,-427.18,-1.156788,-1.225915,0.385879,100.00,1
41079,0,50261,54767,50422.47,55163.39,-161.47,-396.39,-1.156781,-1.225901,0.385932,100.00,1
41118,0,50269,54782,50422.17,55162.63,-153.17,-380.63,-1.156775,-1.225887,0.385987,100.00,1
41159,0,50285,54820,50421.89,55161.95,-136.89,-341.95,-1.156770,-1.225875,0.386043,100.00,1
41198,0,50301,54876,50421.65,55161.37,-120.65,-285.37,-1.156765,-1.225864,0.386100,100.00,1
41237,0,50325,54937,50421.46,55160.93,-96.46,-223.93,-1.156761,-1.225856,0.386159,100.00,1
41278,0,50353,54997,50421.32,55160.60,-68.32,-163.60,-1.156759,-1.225850,0.386218,100.00,1
41317,0,50376,55056,50421.23,55160.39,-45.23,-104.39,-1.156757,-1.225846,0.386277,100.00,1
41357,0,50404,55111,50421.20,55160.29,-17.20,-49.29,-1.156756,-1.225845,0.386335,100.00,1
41397,0,50425,55160,50421.21,55160.29,3.79,-0.29,-1.156756,-1.225845,0.386394,100.00,1
41438,0,50440,55213,50421.25,55160.40,18.75,52.60,-1.156757,-1.225846,0.386452,100.00,1
41478,0,50458,55215,50421.32,55160.51,36.68,54.49,-1.156759,-1.225848,0.386511,100.00,1
41519,0,50402,54957,50421.29,55160.10,-19.29,-203.10,-1.156758,-1.225841,0.386567,100.00,1
41561,0,50286,54741,50421.02,55159.27,-135.02,-418.27,-1.156753,-1.225826,0.386619,100.00,1
41599,0,50232,54696,50420.64,55158.34,-188.64,-462.34,-1.156745,-1.225809,0.386675,100.00,1
41639,0,50229,54714,50420.26,55157.45,-191.26,-443.45,-1.156738,-1.225793,0.386735,100.00,1
41682,0,50235,54725,50419.89,55156.59,-184.89,-431.59,-1.156730,-1.225777,0.386800,100.00,1
41719,0,50237,54746,50419.52,55155.77,-182.52,-409.77,-1.156723,-1.225762,0.386870,100.00,1
41760,0,50259,54816,50419.20,55155.09,-160.20,-339.09,-1.156717,-1.225750,0.386944,100.00,1
41800,0,50289,54862,50418.95,55154.50,-129.95,-292.50,-1.156711,-1.225740,0.387020,100.00,1
41839,0,50305,54889,50418.72,55153.97,-113.72,-264.97,-1.156707,-1.225730,0.387098,100.00,1
41879,0,50314,54924,50418.51,55153.52,-104.51,-229.52,-1.156703,-1.225722,0.387177,100.00,1
41920,0,50332,54969,50418.34,55153.15,-86.34,-184.15,-1.156699,-1.225715,0.387257,100.00,1
41959,0,50357,55031,50418.22,55152.91,-61.22,-121.91,-1.156697,-1.225711,0.387338,100.00,1
42000,0,50386,55087,50418.16,55152.78,-32.16,-65.78,-1.156696,-1.225708,0.387419,100.00,1
42040,0,50412,55147,50418.14,55152.77,-6.14,-5.77,-1.156696,-1.225708,0.387500,100.00,1
42080,0,50436,55210,50418.18,55152.88,17.82,57.12,-1.156696,-1.225710,0.387580,100.00,1
42119,0,50458,55257,50418.26,55153.09,39.74,103.91,-1.156698,-1.225714,0.387660,100.00,1
42162,0,50477,55306,50418.38,55153.40,58.62,152.60,-1.156700,-1.225720,0.387740,100.00,1
42200,0,50500,55361,50418.54,55153.82,81.46,207.18,-1.156703,-1.225727,0.387820,100.00,1
42240,0,50523,55394,50418.75,55154.30,104.25,239.70,-1.156708,-1.225736,0.387901,100.00,1
42279,0,50491,55187,50418.90,55154.37,72.10,32.63,-1.156711,-1.225737,0.387984,100.00,1
42319,0,50385,54990,50418.83,55154.04,-33.83,-164.04,-1.156709,-1.225731,0.388066,100.00,1
42361,0,50330,54943,50418.66,55153.62,-88.66,-210.62,-1.156706,-1.225724,0.388149,100.00,1
42401,0,50333,54967,50418.48,55153.25,-85.48,-186.25,-1.156702,-1.225717,0.388232,100.00,1
42441,0,50345,54988,50418.34,55152.92,-73.34,-164.92,-1.156699,-1.225711,0.388316,100.00,1
42482,0,50351,55014,50418.21,55152.64,-67.21,-138.64,-1.156697,-1.225706,0.388401,100.00,1
42520,0,50368,55075,50418.11,55152.49,-50.11,-77.49,-1.156695,-1.225703,0.388486,100.00,1
42562,0,50387,55112,50418.05,55152.41,-31.05,-40.41,-1.156694,-1.225702,0.388572,100.00,1
42600,0,50399,55131,50418.01,55152.37,-19.01,-21.37,-1.156693,-1.225701,0.388657,100.00,1
42640,0,50417,55155,50418.01,55152.37,-1.01,2.62,-1.156693,-1.225701,0.388742,100.00,1
42681,0,50426,55203,50418.03,55152.48,7.97,50.52,-1.156693,-1.225703,0.388827,100.00,1
42720,0,50451,55260,50418.09,55152.69,32.91,107.31,-1.156695,-1.225707,0.388911,100.00,1
42762,0,50475,55320,50418.21,55153.03,56.79,166.97,-1.156697,-1.225713,0.388995,100.00,1
42799,0,50505,55379,50418.38,55153.48,86.62,225.52,-1.156700,-1.225721,0.389078,100.00,1
42841,0,50534,55425,50418.62,55154.02,115.38,270.98,-1.156705,-1.225731,0.389162,100.00,1
42879,0,50553,55470,50418.89,55154.66,134.11,315.34,-1.156710,-1.225742,0.389249,100.00,1
42920,0,50575,55524,50419.20,55155.39,155.80,368.61,-1.156717,-1.225756,0.389338,100.00,1
42960,0,50593,55549,50419.55,55156.18,173.45,392.82,-1.156723,-1.225770,0.389431,100.00,1
43000,0,50570,55370,50419.85,55156.61,150.15,213.39,-1.156729,-1.225778,0.389532,100.00,1
43041,0,50473,55167,50419.96,55156.64,53.04,10.36,-1.156732,-1.225778,0.389636,100.00,1
43080,0,50420,55124,50419.96,55156.57,0.04,-32.57,-1.156732,-1.225777,0.389738,100.00,1
43120,0,50419,55140,50419.96,55156.54,-0.96,-16.54,-1.156732,-1.225777,0.389841,100.00,1
43160,0,50425,55148,50419.97,55156.53,5.03,-8.53,-1.156732,-1.225776,0.389943,100.00,1
43199,0,50424,55165,50419.98,55156.55,4.02,8.45,-1.156732,-1.225777,0.390045,100.00,1
43241,0,50440,55218,50420.02,55156.67,19.98,61.33,-1.156733,-1.225779,0.390146,100.00,1
43281,0,50454,55243,50420.09,55156.85,33.91,86.15,-1.156734,-1.225782,0.390247,100.00,1
43320,0,50464,55255,50420.18,55157.05,43.82,97.95,-1.156736,-1.225786,0.390348,100.00,1
43361,0,50471,55278,50420.28,55157.29,50.72,120.71,-1.156738,-1.225790,0.390449,100.00,1
43401,0,50479,55321,50420.40,55157.62,58.60,163.38,-1.156740,-1.225796,0.390550,100.00,1
43441,0,50496,55371,50420.55,55158.05,75.45,212.95,-1.156743,-1.225804,0.390649,100.00,1
43481,0,50519,55417,50420.75,55158.57,98.25,258.43,-1.156747,-1.225813,0.390748,100.00,1
43521,0,50542,55472,50420.99,55159.20,121.01,312.80,-1.156752,-1.225825,0.390846,100.00,1
43562,0,50566,55521,50421.29,55159.92,144.71,361.08,-1.156758,-1.225838,0.390946,100.00,1
43600,0,50585,55568,50421.61,55160.74,163.39,407.26,-1.156764,-1.225853,0.391046,100.00,1
43641,0,50603,55613,50421.98,55161.64,181.02,451.36,-1.156772,-1.225869,0.391147,100.00,1
43681,0,50626,55660,50422.39,55162.64,203.61,497.36,-1.156780,-1.225887,0.391250,100.00,1
43721,0,50643,55648,50422.83,55163.62,220.17,484.38,-1.156788,-1.225905,0.391360,100.00,1
43760,0,50594,55409,50423.17,55164.11,170.83,244.89,-1.156795,-1.225914,0.391481,100.00,1
43801,0,50492,55236,50423.31,55164.25,68.69,71.75,-1.156798,-1.225916,0.391605,100.00,1
43840,0,50446,55199,50423.36,55164.32,22.64,34.68,-1.156799,-1.225918,0.391728,100.00,1
43881,0,50442,55198,50423.40,55164.39,18.60,33.61,-1.156800,-1.225919,0.391850,100.00,1
43920,0,50439,55182,50423.43,55164.43,15.57,17.57,-1.156801,-1.225919,0.391973,100.00,1
43961,0,50433,55183,50423.45,55164.47,9.55,18.53,-1.156801,-1.225920,0.392095,100.00,1
44001,0,50446,55231,50423.50,55164.60,22.50,66.40,-1.156802,-1.225923,0.392217,100.00,1
44041,0,50461,55261,50423.57,55164.80,37.43,96.20,-1.156803,-1.225926,0.392338,100.00,1
44081,0,50468,55274,50423.66,55165.02,44.34,108.98,-1.156805,-1.225930,0.392459,100.00,1
44122,0,50476,55295,50423.77,55165.28,52.23,129.72,-1.156807,-1.225935,0.392580,100.00,1
44162,0,50489,55333,50423.90,55165.61,65.10,167.39,-1.156810,-1.225941,0.392700,100.00,1
44203,0,50507,55382,50424.07,55166.05,82.93,215.95,-1.156813,-1.225949,0.392820,100.00,1
44240,0,50525,55438,50424.27,55166.59,100.73,271.41,-1.156817,-1.225959,0.392938,100.00,1
44282,0,50544,55487,50424.52,55167.23,119.48,319.77,-1.156822,-1.225970,0.393056,100.00,1
44322,0,50567,55531,50424.80,55167.96,142.20,363.04,-1.156828,-1.225984,0.393172,100.00,1
44363,0,50589,55574,50425.13,55168.78,163.87,405.22,-1.156834,-1.225998,0.393289,100.00,1
44401,0,50607,55618,50425.49,55169.68,181.51,448.32,-1.156841,-1.226015,0.393407,100.00,1
44444,0,50623,55668,50425.89,55170.68,197.11,497.32,-1.156849,-1.226033,0.393524,100.00,1
44482,0,50645,55720,50426.33,55171.78,218.67,548.22,-1.156858,-1.226053,0.393641,100.00,1
44523,0,50656,55643,50426.79,55172.72,229.21,470.28,-1.156867,-1.226070,0.393768,100.00,1
44562,0,50581,55401,50427.10,55173.18,153.90,227.82,-1.156873,-1.226078,0.393903,100.00,1
44601,0,50494,55286,50427.23,55173.41,66.77,112.59,-1.156876,-1.226082,0.394039,100.00,1
44640,0,50475,55272,50427.33,55173.61,47.67,98.39,-1.156878,-1.226086,0.394175,100.00,1
44681,0,50471,55265,50427.42,55173.79,43.58,91.21,-1.156880,-1.226089,0.394311,100.00,1
44720,0,50463,55251,50427.50,55173.95,35.50,77.05,-1.156881,-1.226092,0.394446,100.00,1
44762,0,50460,55269,50427.56,55174.14,32.44,94.86,-1.156882,-1.226095,0.394581,100.00,1
44800,0,50479,55315,50427.67,55174.42,51.33,140.58,-1.156885,-1.226101,0.394716,100.00,1
44841,0,50493,55338,50427.80,55174.75,65.20,163.25,-1.156887,-1.226107,0.394849,100.00,1
44881,0,50499,55354,50427.95,55175.11,71.05,178.89,-1.156890,-1.226113,0.394983,100.00,1
44921,0,50506,55384,50428.10,55175.52,77.90,208.48,-1.156893,-1.226121,0.395115,100.00,1
44963,0,50517,55425,50428.28,55176.02,88.72,248.98,-1.156897,-1.226130,0.395246,100.00,1
45002,0,50536,55473,50428.50,55176.62,107.50,296.38,-1.156901,-1.226140,0.395375,100.00,1
45041,0,50559,55526,50428.76,55177.32,130.24,348.68,-1.156906,-1.226153,0.395502,100.00,1
45082,0,50579,55577,50429.06,55178.12,149.94,398.88,-1.156912,-1.226168,0.395627,100.00,1
45122,0,50597,55627,50429.39,55179.02,167.61,447.98,-1.156919,-1.226184,0.395749,100.00,1
45163,0,50618,55673,50429.77,55180.00,188.23,493.00,-1.156926,-1.226202,0.395869,100.00,1
45202,0,50639,55714,50430.19,55181.07,208.81,532.93,-1.156934,-1.226221,0.395989,100.00,1
45242,0,50652,55762,50430.64,55182.24,221.36,579.76,-1.156943,-1.226242,0.396105,100.00,1
45283,0,50674,55818,50431.12,55183.51,242.87,634.49,-1.156953,-1.226265,0.396219,100.00,1
45323,0,50698,55857,50431.66,55184.86,266.34,672.14,-1.156964,-1.226290,0.396333,100.00,1
45363,0,50684,55699,50432.17,55185.89,251.83,513.11,-1.156974,-1.226308,0.396456,100.00,1
45403,0,50601,55518,50432.51,55186.55,168.49,331.45,-1.156981,-1.226321,0.396584,100.00,1
45443,0,50552,55464,50432.75,55187.11,119.25,276.89,-1.156985,-1.226331,0.396713,100.00,1
45483,0,50541,55470,50432.97,55187.68,108.03,282.32,-1.156990,-1.226341,0.396841,100.00,1
45523,0,50540,55466,50433.18,55188.23,106.82,277.77,-1.156994,-1.226351,0.396968,100.00,1
45563,0,50533,55460,50433.38,55188.78,99.62,271.22,-1.156998,-1.226361,0.397093,100.00,1
45603,0,50541,55496,50433.60,55189.40,107.40,306.60,-1.157002,-1.226372,0.397217,100.00,1
45643,0,50557,55526,50433.85,55190.07,123.15,335.93,-1.157007,-1.226384,0.397339,100.00,1
45683,0,50564,55547,50434.11,55190.79,129.89,356.21,-1.157012,-1.226397,0.397458,100.00,1
45724,0,50569,55562,50434.38,55191.53,134.62,370.47,-1.157018,-1.226411,0.397576,100.00,1
45764,0,50580,55596,50434.67,55192.34,145.33,403.66,-1.157023,-1.226425,0.397692,100.00,1
45803,0,50593,55632,50434.99,55193.22,158.01,438.78,-1.157030,-1.226441,0.397804,100.00,1
45844,0,50605,55682,50435.33,55194.20,169.67,487.80,-1.157036,-1.226459,0.397912,100.00,1
45884,0,50627,55731,50435.71,55195.27,191.29,535.73,-1.157044,-1.226478,0.398016,100.00,1
45925,0,50645,55780,50436.13,55196.45,208.87,583.55,-1.157052,-1.226500,0.398116,100.00,1
45964,0,50662,55820,50436.58,55197.70,225.42,622.30,-1.157061,-1.226522,0.398211,100.00,1
46003,0,50686,55869,50437.08,55199.04,248.92,669.96,-1.157071,-1.226547,0.398303,100.00,1
46044,0,50707,55917,50437.62,55200.48,269.37,716.52,-1.157082,-1.226573,0.398393,100.00,1
46084,0,50724,55970,50438.20,55202.02,285.80,767.98,-1.157093,-1.226601,0.398479,100.00,1
46124,0,50748,56018,50438.82,55203.65,309.18,814.35,-1.157106,-1.226630,0.398563,100.00,1
46163,0,50769,56062,50439.48,55205.37,329.52,856.63,-1.157119,-1.226661,0.398646,100.00,1
46204,0,50777,55965,50440.16,55206.89,336.84,758.11,-1.157132,-1.226689,0.398737,100.00,1
46245,0,50701,55795,50440.68,55208.06,260.32,586.94,-1.157142,-1.226710,0.398832,100.00,1
46284,0,50652,55748,50441.11,55209.14,210.89,538.86,-1.157151,-1.226730,0.398928,100.00,1
46324,0,50645,55768,50441.52,55210.26,203.48,557.74,-1.157159,-1.226750,0.399020,100.00,1
46365,0,50660,55782,50441.95,55211.41,218.05,570.59,-1.157168,-1.226771,0.399112,100.00,1
46404,0,50660,55788,50442.39,55212.56,217.61,575.44,-1.157176,-1.226792,0.399202,100.00,1
46444,0,50666,55827,50442.84,55213.79,223.16,613.21,-1.157185,-1.226814,0.399290,100.00,1
46484,0,50680,55853,50443.32,55215.07,236.68,637.93,-1.157195,-1.226837,0.399376,100.00,1
46524,0,50685,55869,50443.80,55216.38,241.20,652.62,-1.157204,-1.226861,0.399459,100.00,1
46566,0,50690,55877,50444.29,55217.71,245.71,659.29,-1.157214,-1.226885,0.399541,100.00,1
46605,0,50695,55904,50444.80,55219.08,250.20,684.92,-1.157224,-1.226910,0.399619,100.00,1
46646,0,50712,55952,50445.33,55220.55,266.67,731.45,-1.157235,-1.226936,0.399695,100.00,1
46686,0,50724,56001,50445.89,55222.11,278.11,778.89,-1.157246,-1.226965,0.399767,100.00,1
46725,0,50745,56048,50446.49,55223.77,298.51,824.23,-1.157258,-1.226995,0.399836,100.00,1
46761,0,50767,56091,50447.13,55225.50,319.87,865.50,-1.157270,-1.227026,0.399902,100.00,1
46805,0,50786,56134,50447.81,55227.32,338.19,906.68,-1.157284,-1.227059,0.399966,100.00,1
46845,0,50799,56180,50448.51,55229.23,350.49,950.77,-1.157298,-1.227093,0.400027,100.00,1
46882,0,50815,56216,50449.25,55231.20,365.75,984.80,-1.157312,-1.227129,0.400087,100.00,1
46925,0,50836,56259,50450.02,55233.26,385.98,1025.74,-1.157328,-1.227167,0.400144,100.00,1
46965,0,50856,56254,50450.83,55235.30,405.17,1018.70,-1.157344,-1.227203,0.400204,100.00,1
47006,0,50813,56071,50451.56,55236.98,361.44,834.02,-1.157358,-1.227234,0.400270,100.00,1
47045,0,50740,55962,50452.14,55238.43,287.86,723.57,-1.157370,-1.227260,0.400336,100.00,1
47085,0,50718,55951,50452.67,55239.86,265.33,711.14,-1.157380,-1.227286,0.400402,100.00,1
47124,0,50723,55964,50453.21,55241.30,269.79,722.70,-1.157391,-1.227312,0.400466,100.00,1
47164,0,50727,55958,50453.76,55242.74,273.24,715.26,-1.157402,-1.227338,0.400529,100.00,1
47204,0,50725,55973,50454.30,55244.20,270.70,728.80,-1.157413,-1.227365,0.400592,100.00,1
47245,0,50734,56004,50454.87,55245.72,279.13,758.28,-1.157424,-1.227392,0.400653,100.00,1
47285,0,50737,56008,50455.43,55247.25,281.57,760.75,-1.157435,-1.227420,0.400713,100.00,1
47326,0,50736,56012,50456.00,55248.78,280.00,763.22,-1.157446,-1.227447,0.400771,100.00,1
47366,0,50738,56025,50456.56,55250.33,281.44,774.67,-1.157457,-1.227476,0.400827,100.00,1
47405,0,50744,56051,50457.14,55251.93,286.86,799.07,-1.157469,-1.227504,0.400881,100.00,1
47447,0,50753,56094,50457.73,55253.62,295.27,840.38,-1.157480,-1.227535,0.400933,99.99,1
47485,0,50771,56135,50458.36,55255.39,312.64,879.61,-1.157493,-1.227567,0.400982,99.99,1
47525,0,50787,56175,50459.02,55257.23,327.98,917.77,-1.157506,-1.227600,0.401028,99.99,1
47565,0,50804,56206,50459.71,55259.12,344.29,946.87,-1.157520,-1.227635,0.401072,99.99,1
47606,0,50820,56248,50460.44,55261.11,359.56,986.89,-1.157534,-1.227670,0.401115,99.99,1
47646,0,50827,56280,50461.17,55263.14,365.83,1016.86,-1.157549,-1.227707,0.401155,99.99,1
47687,0,50842,56317,50461.93,55265.25,380.07,1051.75,-1.157564,-1.227746,0.401193,99.99,1
47726,0,50863,56356,50462.74,55267.44,400.26,1088.56,-1.157580,-1.227785,0.401230,99.99,1
47767,0,50881,56322,50463.57,55269.55,417.43,1052.45,-1.157596,-1.227823,0.401268,99.99,1
47805,0,50816,56107,50464.28,55271.22,351.72,835.78,-1.157610,-1.227854,0.401310,99.99,1
47846,0,50736,55960,50464.82,55272.60,271.18,687.40,-1.157621,-1.227878,0.401353,99.99,1
47886,0,50705,55926,50465.30,55273.91,239.70,652.09,-1.157631,-1.227902,0.401395,99.99,1
47928,0,50692,55909,50465.76,55275.18,226.24,633.82,-1.157640,-1.227925,0.401436,99.99,1
47965,0,50685,55883,50466.20,55276.40,218.80,606.60,-1.157648,-1.227947,0.401476,99.99,1
48006,0,50672,55868,50466.61,55277.59,205.39,590.41,-1.157656,-1.227969,0.401515,99.99,1
48045,0,50676,55889,50467.04,55278.81,208.96,610.19,-1.157665,-1.227991,0.401553,99.98,1
48086,0,50682,55899,50467.46,55280.05,214.54,618.95,-1.157673,-1.228013,0.401590,99.98,1
48127,0,50681,55898,50467.89,55281.29,213.11,616.71,-1.157682,-1.228036,0.401625,99.98,1
48167,0,50682,55911,50468.32,55282.55,213.68,628.45,-1.157690,-1.228059,0.401658,99.98,1
48207,0,50691,55930,50468.77,55283.85,222.23,646.15,-1.157699,-1.228082,0.401690,99.98,1
48250,0,50700,55968,50469.23,55285.22,230.77,682.78,-1.157708,-1.228107,0.401721,99.98,1
48285,0,50716,56008,50469.73,55286.66,246.27,721.34,-1.157718,-1.228133,0.401749,99.98,1
48325,0,50731,56049,50470.25,55288.19,260.75,760.81,-1.157729,-1.228161,0.401776,99.98,1
48366,0,50748,56085,50470.81,55289.79,277.19,795.21,-1.157740,-1.228189,0.401801,99.98,1
48407,0,50765,56120,50471.40,55291.45,293.60,828.55,-1.157751,-1.228219,0.401824,99.98,1
48446,0,50783,56161,50472.03,55293.19,310.97,867.81,-1.157764,-1.228251,0.401847,99.98,1
48489,0,50799,56196,50472.68,55295.00,326.32,901.00,-1.157777,-1.228284,0.401868,99.98,1
48527,0,50812,56233,50473.36,55296.87,338.64,936.12,-1.157790,-1.228318,0.401889,99.98,1
48568,0,50829,56210,50474.07,55298.70,354.93,911.30,-1.157804,-1.228351,0.401911,99.98,1
48607,0,50775,55977,50474.68,55300.06,300.32,676.94,-1.157816,-1.228375,0.401936,99.97,1
48647,0,50674,55778,50475.07,55301.02,198.93,476.98,-1.157824,-1.228392,0.401962,99.97,1
48687,0,50620,55710,50475.37,55301.84,144.63,408.16,-1.157830,-1.228407,0.401987,99.97,1
48728,0,50608,55694,50475.63,55302.62,132.37,391.37,-1.157835,-1.228422,0.402012,99.97,1
48766,0,50603,55667,50475.89,55303.36,127.11,363.64,-1.157840,-1.228435,0.402037,99.97,1
48807,0,50597,55653,50476.13,55304.05,120.87,348.95,-1.157845,-1.228447,0.402061,99.97,1
48846,0,50602,55679,50476.39,55304.80,125.61,374.20,-1.157850,-1.228461,0.402084,99.97,1
48887,0,50611,55702,50476.66,55305.60,134.34,396.40,-1.157856,-1.228475,0.402108,99.97,1
48928,0,50617,55705,50476.94,55306.40,140.06,398.60,-1.157861,-1.228490,0.402130,99.97,1
48967,0,50626,55719,50477.24,55307.23,148.76,411.77,-1.157867,-1.228505,0.402153,99.97,1
49008,0,50634,55748,50477.55,55308.11,156.45,439.89,-1.157873,-1.228521,0.402175,99.97,1
49049,0,50650,55788,50477.90,55309.07,172.10,478.93,-1.157880,-1.228538,0.402196,99.97,1
49087,0,50666,55832,50478.28,55310.12,187.72,521.88,-1.157888,-1.228557,0.402218,99.97,1
49129,0,50682,55879,50478.69,55311.26,203.31,567.74,-1.157896,-1.228578,0.402238,99.97,1
49168,0,50701,55924,50479.14,55312.49,221.86,611.51,-1.157905,-1.228600,0.402259,99.97,1
49208,0,50722,55959,50479.62,55313.78,242.37,645.22,-1.157914,-1.228623,0.402279,99.96,1
49247,0,50740,56000,50480.15,55315.16,259.85,684.84,-1.157925,-1.228648,0.402299,99.96,1
49288,0,50753,56039,50480.70,55316.61,272.30,722.39,-1.157936,-1.228674,0.402320,99.96,1
49327,0,50770,56088,50481.27,55318.15,288.73,769.85,-1.157947,-1.228702,0.402341,99.96,1
49367,0,50793,56110,50481.90,55319.73,311.10,790.27,-1.157959,-1.228731,0.402363,99.96,1
49405,0,50773,55908,50482.48,55320.91,290.52,587.09,-1.157971,-1.228752,0.402389,99.96,1
49444,0,50658,55653,50482.83,55321.58,175.17,331.42,-1.157978,-1.228764,0.402418,99.96,1
49487,0,50590,55580,50483.05,55322.10,106.95,257.90,-1.157982,-1.228774,0.402447,99.96,1
49529,0,50580,55593,50483.24,55322.64,96.76,270.36,-1.157986,-1.228783,0.402475,99.96,1
49567,0,50591,55599,50483.46,55323.20,107.54,275.80,-1.157990,-1.228793,0.402503,99.96,1
49608,0,50593,55597,50483.68,55323.75,109.32,273.25,-1.157995,-1.228803,0.402532,99.96,1
49649,0,50598,55637,50483.91,55324.37,114.09,312.62,-1.157999,-1.228815,0.402560,99.96,1
49689,0,50613,55667,50484.17,55325.06,128.83,341.94,-1.158004,-1.228827,0.402589,99.96,1
49729,0,50617,55674,50484.43,55325.76,132.57,348.24,-1.158010,-1.228840,0.402617,99.96,1
49770,0,50620,55681,50484.71,55326.47,135.29,354.53,-1.158015,-1.228853,0.402645,99.96,1
49809,0,50630,55704,50485.00,55327.23,145.00,376.77,-1.158021,-1.228866,0.402673,99.95,1
49850,0,50642,55749,50485.32,55328.07,156.68,420.93,-1.158027,-1.228882,0.402702,99.95,1
49889,0,50656,55798,50485.66,55329.02,170.34,468.98,-1.158034,-1.228899,0.402729,99.95,1
49932,0,50677,55847,50486.04,55330.05,190.96,516.95,-1.158041,-1.228917,0.402757,99.95,1
49969,0,50694,55891,50486.46,55331.18,207.54,559.82,-1.158050,-1.228938,0.402784,99.95,1
50011,0,50714,55931,50486.92,55332.38,227.08,598.62,-1.158059,-1.228959,0.402812,99.95,1
50049,0,50727,55971,50487.40,55333.66,239.60,637.34,-1.158068,-1.228982,0.402839,99.95,1
50090,0,50744,56024,50487.91,55335.04,256.09,688.96,-1.158078,-1.229007,0.402866,99.95,1
50131,0,50769,56047,50488.48,55336.46,280.52,710.54,-1.158090,-1.229033,0.402894,99.95,1
50170,0,50743,55836,50488.99,55337.46,254.01,498.54,-1.158100,-1.229051,0.402926,99.95,1
50209,0,50631,55593,50489.27,55337.98,141.73,255.02,-1.158105,-1.229061,0.402959,99.95,1
50248,0,50569,55528,50489.43,55338.36,79.57,189.64,-1.158109,-1.229068,0.402993,99.95,1
50288,0,50570,55559,50489.60,55338.80,80.40,220.20,-1.158112,-1.229075,0.403026,99.95,1
50328,0,50580,55582,50489.78,55339.29,90.22,242.71,-1.158115,-1.229084,0.403059,99.95,1
50368,0,50586,55602,50489.98,55339.82,96.02,262.18,-1.158119,-1.229094,0.403092,99.95,1
50409,0,50604,55651,50490.21,55340.44,113.79,310.56,-1.158124,-1.229105,0.403125,99.94,1
50448,0,50616,55663,50490.46,55341.09,125.54,321.91,-1.158129,-1.229117,0.403158,99.94,1
50489,0,50616,55664,50490.71,55341.74,125.29,322.26,-1.158134,-1.229129,0.403190,99.94,1
50529,0,50615,55672,50490.96,55342.40,124.04,329.60,-1.158139,-1.229141,0.403223,99.94,1
50570,0,50626,55713,50491.23,55343.14,134.77,369.86,-1.158144,-1.229154,0.403255,99.94,1
50610,0,50641,55758,50491.54,55343.97,149.46,414.03,-1.158150,-1.229169,0.403288,99.94,1
50650,0,50657,55808,50491.87,55344.90,165.13,463.10,-1.158157,-1.229186,0.403319,99.94,1
50690,0,50675,55855,50492.23,55345.93,182.77,509.07,-1.158164,-1.229204,0.403350,99.94,1
50732,0,50688,55899,50492.63,55347.04,195.37,551.96,-1.158172,-1.229224,0.403380,99.94,1
50770,0,50706,55936,50493.06,55348.21,212.94,587.79,-1.158180,-1.229246,0.403409,99.94,1
50810,0,50723,55979,50493.52,55349.48,229.48,629.52,-1.158190,-1.229268,0.403438,99.94,1
50849,0,50744,55969,50494.02,55350.72,249.98,618.28,-1.158199,-1.229291,0.403468,99.94,1
50889,0,50680,55696,50494.40,55351.41,185.60,344.59,-1.158207,-1.229303,0.403500,99.94,1
50929,0,50559,55463,50494.53,55351.63,64.47,111.37,-1.158209,-1.229307,0.403533,99.94,1
50969,0,50510,55416,50494.56,55351.76,15.44,64.24,-1.158210,-1.229310,0.403565,99.93,1
51008,0,50511,55427,50494.59,55351.91,16.41,75.09,-1.158211,-1.229312,0.403598,99.93,1
51048,0,50519,55429,50494.64,55352.07,24.36,76.93,-1.158212,-1.229315,0.403630,99.93,1
51088,0,50516,55438,50494.69,55352.24,21.31,85.76,-1.158213,-1.229318,0.403662,99.93,1
51131,0,50531,55485,50494.76,55352.51,36.24,132.49,-1.158214,-1.229323,0.403694,99.93,1
51170,0,50544,55504,50494.86,55352.81,49.14,151.19,-1.158216,-1.229329,0.403725,99.93,1
51211,0,50548,55512,50494.97,55353.13,53.03,158.87,-1.158218,-1.229334,0.403756,99.93,1
51250,0,50548,55527,50495.08,55353.48,52.92,173.52,-1.158220,-1.229341,0.403787,99.93,1
51290,0,50554,55560,50495.20,55353.89,58.80,206.11,-1.158223,-1.229348,0.403818,99.93,1
51331,0,50572,55608,50495.36,55354.40,76.64,253.60,-1.158226,-1.229357,0.403848,99.93,1
51371,0,50591,55652,50495.55,55355.00,95.45,297.00,-1.158230,-1.229368,0.403877,99.93,1
51410,0,50607,55698,50495.77,55355.69,111.23,342.31,-1.158234,-1.229381,0.403905,99.93,1
51449,0,50624,55742,50496.03,55356.46,127.97,385.54,-1.158239,-1.229395,0.403933,99.93,1
51488,0,50636,55782,50496.31,55357.31,139.69,424.69,-1.158245,-1.229410,0.403959,99.92,1
51528,0,50654,55819,50496.62,55358.24,157.37,460.76,-1.158251,-1.229427,0.403985,99.92,1
51570,0,50672,55853,50496.98,55359.23,175.02,493.77,-1.158258,-1.229445,0.404010,99.92,1
51611,0,50662,55673,50497.31,55359.86,164.69,313.14,-1.158265,-1.229456,0.404037,99.92,1
51650,0,50528,55354,50497.37,55359.85,30.63,-5.85,-1.158266,-1.229456,0.404064,99.92,1
51692,0,50437,55234,50497.25,55359.60,-60.25,-125.60,-1.158263,-1.229451,0.404091,99.92,1
51731,0,50423,55230,50497.10,55359.34,-74.10,-129.34,-1.158260,-1.229447,0.404118,99.92,1
51772,0,50429,55229,50496.96,55359.08,-67.96,-130.08,-1.158258,-1.229442,0.404146,99.92,1
51809,0,50428,55217,50496.83,55358.80,-68.83,-141.80,-1.158255,-1.229437,0.404174,99.92,1
51850,0,50433,55252,50496.70,55358.59,-63.70,-106.59,-1.158252,-1.229433,0.404203,99.92,1
51891,0,50461,55307,50496.63,55358.49,-35.63,-51.49,-1.158251,-1.229431,0.404232,99.92,1
51933,0,50469,55333,50496.58,55358.44,-27.58,-25.44,-1.158250,-1.229430,0.404260,99.92,1
51970,0,50478,55349,50496.54,55358.42,-18.54,-9.42,-1.158249,-1.229430,0.404289,99.92,1
52013,0,50489,55380,50496.53,55358.46,-7.53,21.54,-1.158249,-1.229431,0.404317,99.92,1
52051,0,50503,55419,50496.54,55358.59,6.46,60.41,-1.158249,-1.229433,0.404346,99.91,1
52091,0,50522,55477,50496.59,55358.82,25.41,118.18,-1.158250,-1.229437,0.404374,99.91,1
52132,0,50548,55532,50496.70,55359.17,51.30,172.83,-1.158252,-1.229444,0.404401,99.91,1
52173,0,50569,55578,50496.84,55359.61,72.16,218.39,-1.158255,-1.229451,0.404429,99.91,1
52212,0,50586,55622,50497.02,55360.14,88.98,261.86,-1.158259,-1.229461,0.404455,99.91,1
52252,0,50601,55665,50497.23,55360.75,103.77,304.25,-1.158263,-1.229472,0.404482,99.91,1
52293,0,50616,55705,50497.47,55361.44,118.53,343.56,-1.158268,-1.229484,0.404507,99.91,1
52332,0,50631,55749,50497.74,55362.21,133.26,386.79,-1.158273,-1.229499,0.404532,99.91,1
52372,0,50628,55595,50498.00,55362.68,130.00,232.32,-1.158278,-1.229507,0.404559,99.91,1
52413,0,50517,55295,50498.04,55362.55,18.96,-67.55,-1.158279,-1.229505,0.404586,99.91,1
52451,0,50427,55187,50497.90,55362.20,-70.90,-175.20,-1.158276,-1.229498,0.404612,99.91,1
52492,0,50411,55204,50497.73,55361.88,-86.73,-157.88,-1.158273,-1.229492,0.404640,99.91,1
52534,0,50424,55213,50497.59,55361.59,-73.59,-148.59,-1.158270,-1.229487,0.404667,99.91,1
52571,0,50427,55213,50497.45,55361.29,-70.45,-148.29,-1.158267,-1.229482,0.404695,99.91,1
52611,0,50436,55248,50497.32,55361.06,-61.32,-113.06,-1.158265,-1.229478,0.404723,99.90,1
52651,0,50461,55300,50497.25,55360.94,-36.25,-60.94,-1.158263,-1.229475,0.404752,99.90,1
52691,0,50481,55330,50497.22,55360.88,-16.22,-30.88,-1.158263,-1.229474,0.404780,99.90,1
52732,0,50486,55343,50497.20,55360.85,-11.20,-17.85,-1.158262,-1.229474,0.404808,99.90,1
52771,0,50492,55371,50497.20,55360.87,-5.20,10.13,-1.158262,-1.229474,0.404837,99.90,1
52812,0,50512,55418,50497.23,55360.99,14.77,57.01,-1.158263,-1.229476,0.404865,99.90,1
52851,0,50534,55473,50497.30,55361.21,36.70,111.79,-1.158264,-1.229480,0.404893,99.90,1
52891,0,50555,55523,50497.42,55361.54,57.58,161.46,-1.158267,-1.229486,0.404920,99.90,1
52931,0,50569,55573,50497.56,55361.96,71.44,211.04,-1.158270,-1.229494,0.404948,99.90,1
52975,0,50592,55614,50497.75,55362.47,94.25,251.53,-1.158273,-1.229503,0.404975,99.90,1
53013,0,50608,55661,50497.98,55363.07,110.02,297.93,-1.158278,-1.229514,0.405002,99.90,1
53053,0,50623,55702,50498.23,55363.75,124.77,338.25,-1.158283,-1.229526,0.405029,99.90,1
53093,0,50645,55754,50498.52,55364.53,146.48,389.47,-1.158289,-1.229540,0.405055,99.90,1
53133,0,50667,55789,50498.86,55365.38,168.14,423.62,-1.158295,-1.229556,0.405082,99.90,1
53173,0,50641,55572,50499.14,55365.79,141.86,206.21,-1.158301,-1.229563,0.405113,99.89,1
53214,0,50523,55332,50499.20,55365.73,23.80,-33.73,-1.158302,-1.229562,0.405143,99.89,1
53252,0,50466,55285,50499.13,55365.57,-33.13,-80.57,-1.158301,-1.229559,0.405174,99.89,1
53293,0,50471,55318,50499.07,55365.47,-28.07,-47.47,-1.158299,-1.229557,0.405204,99.89,1
53333,0,50486,55346,50499.05,55365.43,-13.05,-19.43,-1.158299,-1.229557,0.405234,99.89,1
53373,0,50498,55365,50499.05,55365.43,-1.05,-0.43,-1.158299,-1.229557,0.405264,99.89,1
53414,0,50520,55420,50499.09,55365.54,20.91,54.46,-1.158300,-1.229559,0.405294,99.89,1
53452,0,50543,55451,50499.18,55365.71,43.82,85.29,-1.158302,-1.229562,0.405325,99.89,1
53493,0,50552,55459,50499.29,55365.90,52.71,93.10,-1.158304,-1.229565,0.405355,99.89,1
53533,0,50556,55480,50499.40,55366.13,56.60,113.87,-1.158306,-1.229569,0.405386,99.89,1
53572,0,50565,55514,50499.54,55366.43,65.46,147.57,-1.158309,-1.229575,0.405417,99.89,1
53610,0,50590,55568,50499.72,55366.84,90.28,201.16,-1.158312,-1.229582,0.405448,99.89,1
53652,0,50609,55615,50499.94,55367.33,109.06,247.67,-1.158317,-1.229591,0.405481,99.89,1
53693,0,50632,55670,50500.20,55367.94,131.80,302.06,-1.158322,-1.229602,0.405514,99.89,1
53732,0,50651,55715,50500.51,55368.63,150.49,346.37,-1.158328,-1.229614,0.405548,99.88,1
53773,0,50666,55754,50500.84,55369.41,165.16,384.59,-1.158334,-1.229628,0.405584,99.88,1
53813,0,50681,55797,50501.20,55370.26,179.80,426.74,-1.158342,-1.229644,0.405621,99.88,1
