t_ms,phase,red_raw,ir_raw,red_dc,ir_dc,red_dc_init,ir_dc_init,red_ac,ir_ac,OD_red,OD_ir,OD_red_slide,OD_ir_slide,R,spo2,spo2_valid
37,0,51190,54079,50672.46,53389.86,717.91,1001.25,517.54,689.14,-2.769040,-2.488042,-0.418253,-0.410303,0.954728,86.33,1
76,0,51207,54112,50673.54,53391.30,717.91,1001.25,533.46,720.70,-2.769061,-2.488069,-0.418014,-0.410077,0.954796,86.32,1
116,0,51222,54155,50674.63,53392.83,717.91,1001.25,547.37,762.17,-2.769083,-2.488098,-0.417777,-0.409852,0.954847,86.32,1
155,0,51245,54194,50675.77,53394.43,717.91,1001.25,569.23,799.57,-2.769105,-2.488128,-0.417540,-0.409629,0.954878,86.31,1
192,0,51250,54212,50676.92,53396.07,717.91,1001.25,573.08,815.93,-2.769128,-2.488158,-0.417303,-0.409406,0.954889,86.31,1
236,0,51259,54228,50678.09,53397.73,717.91,1001.25,580.91,830.27,-2.769151,-2.488189,-0.417067,-0.409184,0.954881,86.30,1
276,0,51261,54259,50679.25,53399.46,717.91,1001.25,581.75,859.54,-2.769174,-2.488222,-0.416832,-0.408964,0.954852,86.30,1
316,0,51263,54227,50680.42,53401.11,717.91,1001.25,582.58,825.89,-2.769197,-2.488253,-0.416596,-0.408742,0.954805,86.29,1
356,0,51220,54083,50681.50,53402.48,717.91,1001.25,538.50,680.52,-2.769218,-2.488278,-0.416359,-0.408515,0.954753,86.29,1
396,0,51168,53980,50682.48,53403.63,717.91,1001.25,485.52,576.37,-2.769237,-2.488300,-0.416120,-0.408285,0.954698,86.28,1
436,0,51150,53962,50683.41,53404.75,717.91,1001.25,466.59,557.25,-2.769256,-2.488321,-0.415881,-0.408054,0.954642,86.28,1
476,0,51154,53979,50684.36,53405.90,717.91,1001.25,469.64,573.10,-2.769274,-2.488342,-0.415642,-0.407823,0.954582,86.27,1
516,0,51170,53980,50685.33,53407.05,717.91,1001.25,484.67,572.95,-2.769294,-2.488364,-0.415403,-0.407593,0.954521,86.27,1
556,0,51162,53988,50686.28,53408.21,717.91,1001.25,475.72,579.79,-2.769312,-2.488386,-0.415165,-0.407364,0.954457,86.26,1
596,0,51165,54021,50687.24,53409.44,717.91,1001.25,477.76,611.56,-2.769331,-2.488409,-0.414926,-0.407135,0.954389,86.26,1
636,0,51190,54048,50688.25,53410.71,717.91,1001.25,501.75,637.29,-2.769351,-2.488433,-0.414689,-0.406908,0.954315,86.26,1
676,0,51187,54027,50689.25,53411.95,717.91,1001.25,497.75,615.05,-2.769371,-2.488456,-0.414452,-0.406680,0.954238,86.25,1
715,0,51155,54020,50690.18,53413.17,717.91,1001.25,464.82,606.83,-2.769389,-2.488479,-0.414214,-0.406452,0.954156,86.25,1
757,0,51160,54051,50691.12,53414.45,717.91,1001.25,468.88,636.55,-2.769408,-2.488503,-0.413976,-0.406225,0.954066,86.25,1
795,0,51178,54078,50692.10,53415.77,717.91,1001.25,485.90,662.23,-2.769427,-2.488527,-0.413739,-0.406000,0.953970,86.24,1
838,0,51189,54102,50693.09,53417.15,717.91,1001.25,495.91,684.85,-2.769447,-2.488553,-0.413502,-0.405775,0.953865,86.24,1
876,0,51203,54139,50694.11,53418.59,717.91,1001.25,508.89,720.41,-2.769467,-2.488580,-0.413266,-0.405552,0.953750,86.24,1
917,0,51220,54175,50695.17,53420.11,717.91,1001.25,524.83,754.89,-2.769488,-2.488608,-0.413031,-0.405330,0.953624,86.24,1
957,0,51230,54214,50696.24,53421.70,717.91,1001.25,533.76,792.30,-2.769509,-2.488638,-0.412797,-0.405110,0.953485,86.23,1
997,0,51269,54278,50697.39,53423.41,717.91,1001.25,571.61,854.59,-2.769531,-2.488670,-0.412564,-0.404892,0.953330,86.23,1
1037,0,51286,54322,50698.57,53425.21,717.91,1001.25,587.43,896.79,-2.769555,-2.488704,-0.412332,-0.404676,0.953159,86.23,1
1076,0,51313,54367,50699.80,53427.10,717.91,1001.25,613.20,939.90,-2.769579,-2.488739,-0.412101,-0.404462,0.952970,86.23,1
1116,0,51343,54393,50701.09,53429.03,717.91,1001.25,641.91,963.97,-2.769604,-2.488775,-0.411871,-0.404249,0.952764,86.23,1
1157,0,51343,54372,50702.37,53430.92,717.91,1001.25,640.63,941.08,-2.769630,-2.488811,-0.411642,-0.404036,0.952544,86.23,1
1196,0,51309,54244,50703.59,53432.55,717.91,1001.25,605.41,811.45,-2.769654,-2.488841,-0.411411,-0.403817,0.952318,86.23,1
1236,0,51256,54164,50704.69,53434.01,717.91,1001.25,551.31,729.99,-2.769675,-2.488869,-0.411179,-0.403596,0.952089,86.22,1
1277,0,51244,54158,50705.77,53435.46,717.91,1001.25,538.23,722.54,-2.769697,-2.488896,-0.410946,-0.403374,0.951856,86.22,1
1317,0,51246,54146,50706.85,53436.88,717.91,1001.25,539.15,709.12,-2.769718,-2.488922,-0.410713,-0.403153,0.951620,86.22,1
1357,0,51232,54133,50707.90,53438.28,717.91,1001.25,524.10,694.72,-2.769739,-2.488949,-0.410480,-0.402931,0.951381,86.22,1
1398,0,51247,54158,50708.98,53439.72,717.91,1001.25,538.02,718.28,-2.769760,-2.488976,-0.410247,-0.402710,0.951138,86.22,1
1437,0,51276,54225,50710.12,53441.29,717.91,1001.25,565.88,783.71,-2.769783,-2.489005,-0.410016,-0.402491,0.950890,86.22,1
1479,0,51299,54252,50711.30,53442.91,717.91,1001.25,587.70,809.09,-2.769806,-2.489035,-0.409786,-0.402274,0.950637,86.22,1
1518,0,51314,54273,50712.50,53444.57,717.91,1001.25,601.50,828.43,-2.769830,-2.489066,-0.409557,-0.402057,0.950377,86.22,1
1557,0,51316,54293,50713.71,53446.27,717.91,1001.25,602.29,846.73,-2.769853,-2.489098,-0.409327,-0.401841,0.950111,86.22,1
1598,0,51329,54305,50714.94,53447.99,717.91,1001.25,614.06,857.01,-2.769878,-2.489130,-0.409099,-0.401626,0.949839,86.23,1
1638,0,51337,54328,50716.19,53449.75,717.91,1001.25,620.81,878.25,-2.769902,-2.489163,-0.408871,-0.401412,0.949559,86.23,1
1677,0,51342,54342,50717.44,53451.54,717.91,1001.25,624.56,890.46,-2.769927,-2.489197,-0.408643,-0.401199,0.949273,86.23,1
1717,0,51344,54355,50718.70,53453.34,717.91,1001.25,625.30,901.66,-2.769952,-2.489230,-0.408415,-0.400986,0.948978,86.23,1
1758,0,51349,54387,50719.96,53455.21,717.91,1001.25,629.04,931.79,-2.769977,-2.489265,-0.408188,-0.400774,0.948675,86.23,1
1798,0,51362,54409,50721.24,53457.12,717.91,1001.25,640.76,951.88,-2.770002,-2.489301,-0.407961,-0.400563,0.948362,86.23,1
1838,0,51368,54427,50722.54,53459.06,717.91,1001.25,645.46,967.94,-2.770027,-2.489337,-0.407735,-0.400353,0.948040,86.23,1
1878,0,51363,54439,50723.82,53461.02,717.91,1001.25,639.18,977.98,-2.770053,-2.489374,-0.407509,-0.400144,0.947707,86.24,1
1920,0,51385,54479,50725.14,53463.06,717.91,1001.25,659.86,1015.94,-2.770079,-2.489412,-0.407283,-0.399936,0.947363,86.24,1
1958,0,51389,54488,50726.47,53465.11,717.91,1001.25,662.53,1022.89,-2.770105,-2.489450,-0.407058,-0.399728,0.947008,86.24,1
1998,0,51378,54380,50727.77,53466.95,717.91,1001.25,650.23,913.05,-2.770131,-2.489485,-0.406833,-0.399517,0.946650,86.24,1
2038,0,51294,54242,50728.91,53468.50,717.91,1001.25,565.09,773.50,-2.770153,-2.489514,-0.406604,-0.399301,0.946289,86.25,1
2078,0,51256,54196,50729.96,53469.95,717.91,1001.25,526.04,726.05,-2.770174,-2.489541,-0.406374,-0.399083,0.945928,86.25,1
2117,0,51259,54197,50731.02,53471.41,717.91,1001.25,527.98,725.59,-2.770195,-2.489568,-0.406144,-0.398865,0.945565,86.25,1
2158,0,51259,54181,50732.08,53472.83,717.91,1001.25,526.92,708.17,-2.770216,-2.489595,-0.405915,-0.398646,0.945201,86.26,1
2199,0,51242,54181,50733.10,53474.25,717.91,1001.25,508.90,706.75,-2.770236,-2.489621,-0.405685,-0.398428,0.944836,86.26,1
2238,0,51258,54247,50734.15,53475.80,717.91,1001.25,523.85,771.20,-2.770256,-2.489650,-0.405455,-0.398212,0.944468,86.27,1
2279,0,51299,54295,50735.28,53477.44,717.91,1001.25,563.72,817.56,-2.770279,-2.489681,-0.405228,-0.397998,0.944095,86.27,1
2318,0,51315,54311,50736.44,53479.11,717.91,1001.25,578.56,831.89,-2.770302,-2.489712,-0.405001,-0.397785,0.943720,86.27,1
2358,0,51319,54317,50737.61,53480.78,717.91,1001.25,581.39,836.22,-2.770324,-2.489743,-0.404774,-0.397572,0.943341,86.28,1
2399,0,51320,54330,50738.78,53482.48,717.91,1001.25,581.22,847.52,-2.770348,-2.489775,-0.404547,-0.397360,0.942959,86.28,1
2439,0,51330,54356,50739.96,53484.23,717.91,1001.25,590.04,871.77,-2.770371,-2.489808,-0.404321,-0.397148,0.942572,86.29,1
2478,0,51342,54389,50741.17,53486.04,717.91,1001.25,600.83,902.96,-2.770395,-2.489842,-0.404096,-0.396939,0.942179,86.29,1
2518,0,51359,54411,50742.41,53487.89,717.91,1001.25,616.59,923.11,-2.770419,-2.489877,-0.403872,-0.396730,0.941782,86.30,1
2558,0,51363,54436,50743.65,53489.79,717.91,1001.25,619.35,946.21,-2.770443,-2.489912,-0.403647,-0.396522,0.941379,86.30,1
2598,0,51377,54455,50744.92,53491.73,717.91,1001.25,632.08,963.27,-2.770468,-2.489948,-0.403424,-0.396315,0.940969,86.31,1
2638,0,51385,54467,50746.20,53493.68,717.91,1001.25,638.80,973.32,-2.770494,-2.489985,-0.403201,-0.396108,0.940554,86.31,1
2678,0,51382,54488,50747.47,53495.67,717.91,1001.25,634.53,992.33,-2.770519,-2.490022,-0.402977,-0.395902,0.940131,86.32,1
2718,0,51390,54466,50748.76,53497.61,717.91,1001.25,641.24,968.39,-2.770544,-2.490058,-0.402755,-0.395695,0.939704,86.32,1
2757,0,51336,54334,50749.93,53499.29,717.91,1001.25,586.07,834.71,-2.770567,-2.490089,-0.402530,-0.395484,0.939275,86.33,1
2798,0,51266,54196,50750.97,53500.68,717.91,1001.25,515.03,695.32,-2.770588,-2.490116,-0.402303,-0.395268,0.938847,86.34,1
2839,0,51207,54122,50751.88,53501.92,717.91,1001.25,455.12,620.08,-2.770606,-2.490139,-0.402073,-0.395048,0.938420,86.34,1
2879,0,51200,54135,50752.78,53503.19,717.91,1001.25,447.22,631.81,-2.770623,-2.490162,-0.401843,-0.394830,0.937993,86.35,1
2920,0,51213,54136,50753.70,53504.45,717.91,1001.25,459.30,631.55,-2.770642,-2.490186,-0.401614,-0.394612,0.937566,86.35,1
2959,0,51214,54143,50754.62,53505.73,717.91,1001.25,459.37,637.27,-2.770660,-2.490210,-0.401385,-0.394394,0.937140,86.36,1
2999,0,51226,54170,50755.57,53507.06,717.91,1001.25,470.43,662.94,-2.770679,-2.490235,-0.401157,-0.394177,0.936713,86.37,1
3040,0,51237,54199,50756.54,53508.45,717.91,1001.25,480.46,690.55,-2.770697,-2.490261,-0.400929,-0.393961,0.936286,86.37,1
3079,0,51247,54214,50757.52,53509.86,717.91,1001.25,489.48,704.14,-2.770717,-2.490287,-0.400702,-0.393746,0.935858,86.38,1
3119,0,51261,54240,50758.52,53511.32,717.91,1001.25,502.48,728.68,-2.770737,-2.490314,-0.400475,-0.393532,0.935429,86.39,1
3158,0,51269,54252,50759.55,53512.80,717.91,1001.25,509.45,739.20,-2.770757,-2.490342,-0.400249,-0.393319,0.934999,86.39,1
3199,0,51284,54297,50760.60,53514.37,717.91,1001.25,523.40,782.62,-2.770777,-2.490371,-0.400024,-0.393107,0.934566,86.40,1
3240,0,51313,54334,50761.70,53516.02,717.91,1001.25,551.30,817.98,-2.770799,-2.490402,-0.399800,-0.392897,0.934132,86.41,1
3280,0,51317,54328,50762.82,53517.64,717.91,1001.25,554.18,810.36,-2.770821,-2.490433,-0.399576,-0.392687,0.933696,86.42,1
3319,0,51294,54309,50763.88,53519.23,717.91,1001.25,530.12,789.77,-2.770842,-2.490462,-0.399351,-0.392476,0.933258,86.42,1
3359,0,51292,54325,50764.94,53520.84,717.91,1001.25,527.06,804.16,-2.770863,-2.490492,-0.399127,-0.392266,0.932817,86.43,1
3423,0,51302,54366,50766.01,53522.53,717.91,1001.25,535.99,843.47,-2.770884,-2.490524,-0.398903,-0.392057,0.932373,86.44,1
3440,0,51345,54441,50767.17,53524.37,717.91,1001.25,577.83,916.63,-2.770907,-2.490558,-0.398681,-0.391852,0.931923,86.45,1
3480,0,51396,54504,50768.43,53526.33,717.91,1001.25,627.57,977.67,-2.770932,-2.490595,-0.398461,-0.391649,0.931469,86.46,1
3521,0,51418,54511,50769.73,53528.30,717.91,1001.25,648.27,982.70,-2.770957,-2.490632,-0.398241,-0.391446,0.931011,86.46,1
3559,0,51400,54402,50770.99,53530.05,717.91,1001.25,629.01,871.95,-2.770982,-2.490664,-0.398022,-0.391239,0.930554,86.47,1
3599,0,51350,54277,50772.15,53531.55,717.91,1001.25,577.85,745.45,-2.771005,-2.490692,-0.397800,-0.391028,0.930100,86.48,1
3640,0,51314,54237,50773.24,53532.96,717.91,1001.25,540.76,704.04,-2.771026,-2.490719,-0.397577,-0.390815,0.929648,86.49,1
3680,0,51315,54239,50774.32,53534.38,717.91,1001.25,540.68,704.62,-2.771048,-2.490745,-0.397354,-0.390602,0.929198,86.50,1
3720,0,51326,54243,50775.43,53535.80,717.91,1001.25,550.57,707.20,-2.771070,-2.490772,-0.397132,-0.390390,0.928751,86.51,1
3760,0,51328,54249,50776.54,53537.23,717.91,1001.25,551.46,711.77,-2.771091,-2.490798,-0.396910,-0.390178,0.928306,86.51,1
3800,0,51355,54286,50777.70,53538.73,717.91,1001.25,577.30,747.27,-2.771114,-2.490826,-0.396690,-0.389967,0.927864,86.52,1
3841,0,51375,54339,50778.89,53540.33,717.91,1001.25,596.11,798.67,-2.771138,-2.490856,-0.396470,-0.389758,0.927424,86.53,1
3880,0,51397,54351,50780.13,53541.95,717.91,1001.25,616.87,809.05,-2.771162,-2.490887,-0.396251,-0.389551,0.926986,86.54,1
3921,0,51401,54379,50781.37,53543.62,717.91,1001.25,619.63,835.37,-2.771187,-2.490918,-0.396032,-0.389344,0.926549,86.55,1
3961,0,51411,54388,50782.63,53545.32,717.91,1001.25,628.37,842.68,-2.771211,-2.490950,-0.395814,-0.389137,0.926114,86.56,1
4000,0,51433,54423,50783.93,53547.07,717.91,1001.25,649.07,875.93,-2.771237,-2.490982,-0.395597,-0.388932,0.925681,86.57,1
4040,0,51446,54446,50785.26,53548.87,717.91,1001.25,660.74,897.12,-2.771263,-2.491016,-0.395381,-0.388728,0.925248,86.58,1
4081,0,51455,54470,50786.60,53550.72,717.91,1001.25,668.40,919.28,-2.771290,-2.491050,-0.395165,-0.388525,0.924816,86.59,1
4122,0,51470,54495,50787.96,53552.61,717.91,1001.25,682.04,942.39,-2.771317,-2.491086,-0.394949,-0.388323,0.924384,86.59,1
4160,0,51470,54513,50789.33,53554.53,717.91,1001.25,680.67,958.47,-2.771343,-2.491122,-0.394734,-0.388122,0.923952,86.60,1
4200,0,51484,54533,50790.72,53556.49,717.91,1001.25,693.28,976.51,-2.771371,-2.491158,-0.394519,-0.387921,0.923519,86.61,1
4242,0,51493,54548,50792.13,53558.47,717.91,1001.25,700.87,989.53,-2.771399,-2.491195,-0.394305,-0.387721,0.923086,86.62,1
4280,0,51496,54564,50793.54,53560.48,717.91,1001.25,702.46,1003.52,-2.771426,-2.491233,-0.394092,-0.387522,0.922651,86.63,1
4319,0,51509,54592,50794.97,53562.55,717.91,1001.25,714.03,1029.45,-2.771455,-2.491271,-0.393878,-0.387324,0.922215,86.64,1
4360,0,51511,54528,50796.41,53564.48,717.91,1001.25,714.59,963.52,-2.771483,-2.491307,-0.393665,-0.387124,0.921781,86.65,1
4401,0,51450,54377,50797.71,53566.11,717.91,1001.25,652.29,810.89,-2.771508,-2.491338,-0.393450,-0.386918,0.921351,86.66,1
4442,0,51396,54318,50798.91,53567.61,717.91,1001.25,597.09,750.39,-2.771532,-2.491366,-0.393232,-0.386709,0.920924,86.67,1
4480,0,51394,54321,50800.11,53569.12,717.91,1001.25,593.89,751.88,-2.771555,-2.491394,-0.393015,-0.386502,0.920501,86.68,1
4520,0,51399,54318,50801.30,53570.62,717.91,1001.25,597.70,747.38,-2.771579,-2.491422,-0.392798,-0.386294,0.920080,86.69,1
4561,0,51398,54302,50802.50,53572.08,717.91,1001.25,595.50,729.92,-2.771603,-2.491449,-0.392581,-0.386085,0.919664,86.70,1
4600,0,51401,54313,50803.70,53573.57,717.91,1001.25,597.30,739.43,-2.771626,-2.491477,-0.392364,-0.385877,0.919251,86.71,1
4641,0,51411,54357,50804.91,53575.13,717.91,1001.25,606.09,781.87,-2.771650,-2.491506,-0.392148,-0.385671,0.918841,86.72,1
4679,0,51429,54382,50806.16,53576.75,717.91,1001.25,622.84,805.25,-2.771675,-2.491536,-0.391932,-0.385466,0.918433,86.73,1
4720,0,51432,54385,50807.42,53578.36,717.91,1001.25,624.58,806.64,-2.771699,-2.491566,-0.391717,-0.385261,0.918028,86.74,1
4761,0,51440,54403,50808.68,53580.02,717.91,1001.25,631.32,822.98,-2.771724,-2.491597,-0.391502,-0.385057,0.917625,86.75,1
4802,0,51450,54417,50809.97,53581.69,717.91,1001.25,640.03,835.31,-2.771749,-2.491629,-0.391288,-0.384853,0.917224,86.76,1
4841,0,51457,54443,50811.27,53583.41,717.91,1001.25,645.73,859.59,-2.771775,-2.491661,-0.391074,-0.384651,0.916824,86.77,1
4881,0,51464,54456,50812.57,53585.16,717.91,1001.25,651.43,870.84,-2.771801,-2.491693,-0.390860,-0.384449,0.916427,86.78,1
4921,0,51469,54476,50813.89,53586.94,717.91,1001.25,655.11,889.06,-2.771827,-2.491727,-0.390647,-0.384248,0.916030,86.79,1
4961,0,51474,54488,50815.21,53588.75,717.91,1001.25,658.79,899.25,-2.771853,-2.491760,-0.390434,-0.384047,0.915633,86.79,1
5001,0,51477,54499,50816.53,53590.57,717.91,1001.25,660.47,908.43,-2.771879,-2.491794,-0.390222,-0.383847,0.915237,86.80,1
5042,0,51479,54503,50817.86,53592.39,717.91,1001.25,661.14,910.61,-2.771905,-2.491828,-0.390009,-0.383647,0.914842,86.81,1
5081,0,51474,54521,50819.17,53594.25,717.91,1001.25,654.83,926.75,-2.771931,-2.491863,-0.389797,-0.383448,0.914446,86.82,1
5122,0,51490,54554,50820.52,53596.18,717.91,1001.25,669.48,957.82,-2.771957,-2.491899,-0.389585,-0.383251,0.914049,86.83,1
5162,0,51496,54575,50821.87,53598.14,717.91,1001.25,674.13,976.86,-2.771984,-2.491935,-0.389373,-0.383054,0.913650,86.84,1
5202,0,51496,54493,50823.21,53599.93,717.91,1001.25,672.79,893.07,-2.772010,-2.491969,-0.389162,-0.382854,0.913254,86.85,1
5241,0,51433,54364,50824.44,53601.46,717.91,1001.25,608.56,762.54,-2.772034,-2.491997,-0.388948,-0.382649,0.912860,86.86,1
5283,0,51391,54321,50825.57,53602.90,717.91,1001.25,565.43,718.10,-2.772057,-2.492024,-0.388732,-0.382443,0.912469,86.87,1
5322,0,51397,54328,50826.71,53604.36,717.91,1001.25,570.29,723.64,-2.772079,-2.492052,-0.388517,-0.382237,0.912081,86.88,1
5362,0,51402,54319,50827.87,53605.79,717.91,1001.25,574.13,713.21,-2.772102,-2.492078,-0.388303,-0.382031,0.911695,86.89,1
5402,0,51392,54300,50829.00,53607.18,717.91,1001.25,563.00,692.82,-2.772124,-2.492104,-0.388088,-0.381824,0.911313,86.90,1
5441,0,51389,54301,50830.12,53608.57,717.91,1001.25,558.88,692.43,-2.772146,-2.492130,-0.387873,-0.381618,0.910934,86.91,1
5481,0,51380,54309,50831.22,53609.97,717.91,1001.25,548.78,699.03,-2.772168,-2.492156,-0.387658,-0.381412,0.910557,86.92,1
5539,0,51389,54334,50832.34,53611.42,717.91,1001.25,556.66,722.58,-2.772190,-2.492183,-0.387443,-0.381207,0.910182,86.93,1
5564,0,51406,54356,50833.48,53612.91,717.91,1001.25,572.52,743.09,-2.772212,-2.492211,-0.387229,-0.381003,0.909809,86.94,1
5601,0,51419,54372,50834.66,53614.43,717.91,1001.25,584.34,757.57,-2.772235,-2.492239,-0.387015,-0.380799,0.909438,86.95,1
5642,0,51430,54405,50835.85,53616.01,717.91,1001.25,594.15,788.99,-2.772259,-2.492269,-0.386803,-0.380597,0.909069,86.96,1
5681,0,51447,54443,50837.07,53617.67,717.91,1001.25,609.93,825.33,-2.772283,-2.492300,-0.386591,-0.380396,0.908700,86.97,1
5723,0,51462,54459,50838.32,53619.35,717.91,1001.25,623.68,839.65,-2.772307,-2.492331,-0.386379,-0.380196,0.908332,86.98,1
5763,0,51467,54468,50839.58,53621.05,717.91,1001.25,627.42,846.95,-2.772332,-2.492363,-0.386168,-0.379997,0.907965,86.99,1
5802,0,51462,54476,50840.82,53622.76,717.91,1001.25,621.18,853.24,-2.772357,-2.492395,-0.385957,-0.379797,0.907599,87.00,1
5842,0,51457,54473,50842.06,53624.46,717.91,1001.25,614.94,848.54,-2.772381,-2.492427,-0.385746,-0.379598,0.907233,87.01,1
5882,0,51459,54475,50843.29,53626.17,717.91,1001.25,615.71,848.83,-2.772405,-2.492458,-0.385535,-0.379399,0.906867,87.02,1
5923,0,51446,54483,50844.50,53627.88,717.91,1001.25,601.50,855.12,-2.772429,-2.492490,-0.385323,-0.379200,0.906501,87.03,1
5962,0,51454,54498,50845.72,53629.62,717.91,1001.25,608.28,868.37,-2.772453,-2.492523,-0.385112,-0.379002,0.906134,87.04,1
6004,0,51456,54472,50846.94,53631.31,717.91,1001.25,609.06,840.69,-2.772477,-2.492554,-0.384901,-0.378804,0.905768,87.05,1
6042,0,51402,54320,50848.05,53632.69,717.91,1001.25,553.95,687.31,-2.772499,-2.492580,-0.384689,-0.378599,0.905404,87.06,1
6082,0,51337,54226,50849.04,53633.88,717.91,1001.25,487.96,592.12,-2.772518,-2.492602,-0.384473,-0.378391,0.905043,87.07,1
6124,0,51325,54240,50849.99,53635.09,717.91,1001.25,475.01,604.91,-2.772537,-2.492625,-0.384258,-0.378184,0.904684,87.08,1
6162,0,51352,54267,50850.99,53636.36,717.91,1001.25,501.01,630.64,-2.772557,-2.492648,-0.384043,-0.377977,0.904327,87.08,1
6202,0,51350,54244,50851.99,53637.57,717.91,1001.25,498.01,606.43,-2.772576,-2.492671,-0.383829,-0.377770,0.903973,87.09,1
6241,0,51342,54256,50852.97,53638.81,717.91,1001.25,489.03,617.19,-2.772596,-2.492694,-0.383614,-0.377564,0.903621,87.10,1
6282,0,51356,54279,50853.98,53640.09,717.91,1001.25,502.02,638.91,-2.772615,-2.492718,-0.383400,-0.377359,0.903271,87.11,1
6321,0,51361,54292,50855.00,53641.40,717.91,1001.25,506.00,650.60,-2.772635,-2.492742,-0.383187,-0.377154,0.902923,87.12,1
6362,0,51370,54311,50856.03,53642.74,717.91,1001.25,513.97,668.26,-2.772656,-2.492767,-0.382973,-0.376950,0.902577,87.13,1
6402,0,51381,54329,50857.08,53644.11,717.91,1001.25,523.92,684.89,-2.772676,-2.492793,-0.382761,-0.376747,0.902232,87.14,1
6442,0,51400,54377,50858.16,53645.58,717.91,1001.25,541.84,731.42,-2.772698,-2.492820,-0.382549,-0.376545,0.901888,87.15,1
6482,0,51436,54437,50859.32,53647.17,717.91,1001.25,576.68,789.83,-2.772720,-2.492850,-0.382339,-0.376346,0.901545,87.16,1
6520,0,51463,54467,50860.53,53648.81,717.91,1001.25,602.47,818.19,-2.772744,-2.492880,-0.382130,-0.376148,0.901202,87.17,1
6562,0,51469,54481,50861.75,53650.47,717.91,1001.25,607.25,830.53,-2.772768,-2.492911,-0.381921,-0.375951,0.900859,87.18,1
6602,0,51464,54460,50862.95,53652.09,717.91,1001.25,601.05,807.91,-2.772792,-2.492942,-0.381712,-0.375753,0.900518,87.19,1
6642,0,51446,54454,50864.12,53653.70,717.91,1001.25,581.88,800.30,-2.772815,-2.492972,-0.381503,-0.375555,0.900177,87.20,1
6683,0,51456,54486,50865.30,53655.36,717.91,1001.25,590.70,830.64,-2.772838,-2.493003,-0.381294,-0.375358,0.899836,87.21,1
6722,0,51466,54510,50866.51,53657.07,717.91,1001.25,599.49,852.93,-2.772862,-2.493035,-0.381086,-0.375162,0.899494,87.22,1
6762,0,51467,54452,50867.71,53658.66,717.91,1001.25,599.29,793.34,-2.772885,-2.493064,-0.380877,-0.374964,0.899153,87.22,1
6802,0,51421,54337,50868.82,53660.02,717.91,1001.25,552.18,676.98,-2.772907,-2.493089,-0.380667,-0.374762,0.898815,87.23,1
6845,0,51390,54309,50869.86,53661.32,717.91,1001.25,520.14,647.68,-2.772928,-2.493114,-0.380456,-0.374559,0.898480,87.24,1
6883,0,51394,54297,50870.91,53662.60,717.91,1001.25,523.09,634.40,-2.772949,-2.493137,-0.380246,-0.374356,0.898148,87.25,1
6924,0,51382,54271,50871.94,53663.82,717.91,1001.25,510.06,607.18,-2.772969,-2.493160,-0.380034,-0.374151,0.897819,87.26,1
6963,0,51376,54269,50872.95,53665.03,717.91,1001.25,503.05,603.97,-2.772988,-2.493183,-0.379823,-0.373947,0.897492,87.27,1
7003,0,51378,54289,50873.96,53666.28,717.91,1001.25,504.04,622.72,-2.773008,-2.493206,-0.379612,-0.373744,0.897168,87.28,1
7044,0,51385,54298,50874.98,53667.54,717.91,1001.25,510.02,630.46,-2.773028,-2.493230,-0.379401,-0.373541,0.896847,87.29,1
7083,0,51384,54300,50876.00,53668.81,717.91,1001.25,508.00,631.19,-2.773048,-2.493253,-0.379190,-0.373338,0.896528,87.30,1
7121,0,51388,54320,50877.02,53670.11,717.91,1001.25,510.98,649.89,-2.773068,-2.493278,-0.378980,-0.373136,0.896210,87.31,1
7163,0,51417,54368,50878.11,53671.51,717.91,1001.25,538.89,696.49,-2.773090,-2.493304,-0.378771,-0.372936,0.895895,87.32,1
7204,0,51443,54413,50879.24,53673.00,717.91,1001.25,563.76,740.00,-2.773112,-2.493331,-0.378563,-0.372738,0.895580,87.32,1
7243,0,51476,54477,50880.43,53674.61,717.91,1001.25,595.57,802.39,-2.773135,-2.493361,-0.378357,-0.372542,0.895267,87.33,1
7283,0,51517,54536,50881.71,53676.33,717.91,1001.25,635.29,859.67,-2.773160,-2.493393,-0.378152,-0.372348,0.894953,87.34,1
7324,0,51548,54571,50883.04,53678.12,717.91,1001.25,664.96,892.88,-2.773187,-2.493427,-0.377948,-0.372156,0.894641,87.35,1
7364,0,51566,54596,50884.41,53679.95,717.91,1001.25,681.59,916.05,-2.773214,-2.493461,-0.377745,-0.371965,0.894329,87.36,1
7404,0,51578,54619,50885.79,53681.83,717.91,1001.25,692.21,937.17,-2.773241,-2.493496,-0.377543,-0.371775,0.894018,87.37,1
7443,0,51589,54636,50887.20,53683.74,717.91,1001.25,701.80,952.26,-2.773268,-2.493531,-0.377341,-0.371585,0.893707,87.38,1
7484,0,51586,54554,50888.60,53685.48,717.91,1001.25,697.40,868.52,-2.773296,-2.493564,-0.377140,-0.371392,0.893399,87.39,1
7524,0,51518,54404,50889.86,53686.92,717.91,1001.25,628.14,717.08,-2.773321,-2.493591,-0.376936,-0.371194,0.893096,87.39,1
7562,0,51478,54348,50891.04,53688.25,717.91,1001.25,586.96,659.75,-2.773344,-2.493615,-0.376730,-0.370994,0.892798,87.40,1
7600,0,51475,54345,50892.20,53689.56,717.91,1001.25,582.80,655.44,-2.773367,-2.493640,-0.376524,-0.370794,0.892504,87.41,1
7642,0,51495,54329,50893.41,53690.84,717.91,1001.25,601.59,638.16,-2.773391,-2.493664,-0.376319,-0.370594,0.892217,87.42,1
7683,0,51489,54317,50894.60,53692.10,717.91,1001.25,594.40,624.90,-2.773414,-2.493687,-0.376114,-0.370393,0.891934,87.43,1
7722,0,51496,54334,50895.80,53693.38,717.91,1001.25,600.20,640.62,-2.773438,-2.493711,-0.375909,-0.370193,0.891658,87.44,1
7763,0,51517,54374,50897.05,53694.75,717.91,1001.25,619.95,679.25,-2.773462,-2.493736,-0.375706,-0.369994,0.891387,87.44,1
7803,0,51533,54396,50898.32,53696.15,717.91,1001.25,634.68,699.85,-2.773487,-2.493762,-0.375503,-0.369796,0.891121,87.45,1
7845,0,51554,54404,50899.63,53697.57,717.91,1001.25,654.37,706.43,-2.773513,-2.493789,-0.375301,-0.369599,0.890861,87.46,1
7884,0,51554,54417,50900.94,53699.01,717.91,1001.25,653.06,717.99,-2.773539,-2.493816,-0.375099,-0.369402,0.890606,87.47,1
7923,0,51575,54446,50902.29,53700.50,717.91,1001.25,672.71,745.50,-2.773565,-2.493844,-0.374898,-0.369207,0.890357,87.48,1
7964,0,51583,54467,50903.65,53702.04,717.91,1001.25,679.35,764.96,-2.773592,-2.493872,-0.374697,-0.369012,0.890114,87.49,1
8004,0,51591,54490,50905.03,53703.62,717.91,1001.25,685.97,786.38,-2.773619,-2.493901,-0.374497,-0.368818,0.889875,87.49,1
8043,0,51605,54519,50906.43,53705.25,717.91,1001.25,698.57,813.75,-2.773646,-2.493932,-0.374297,-0.368626,0.889640,87.50,1
8083,0,51618,54535,50907.86,53706.91,717.91,1001.25,710.14,828.09,-2.773674,-2.493963,-0.374098,-0.368434,0.889410,87.51,1
8123,0,51630,54563,50909.30,53708.62,717.91,1001.25,720.70,854.37,-2.773703,-2.493995,-0.373900,-0.368243,0.889183,87.52,1
8164,0,51644,54593,50910.77,53710.39,717.91,1001.25,733.23,882.61,-2.773732,-2.494028,-0.373702,-0.368053,0.888960,87.53,1
8205,0,51659,54586,50912.27,53712.15,717.91,1001.25,746.73,873.85,-2.773761,-2.494061,-0.373505,-0.367864,0.888742,87.53,1
8244,0,51621,54443,50913.69,53713.61,717.91,1001.25,707.31,729.39,-2.773789,-2.494088,-0.373306,-0.367669,0.888530,87.54,1
8284,0,51565,54362,50914.99,53714.91,717.91,1001.25,650.01,647.09,-2.773814,-2.494112,-0.373106,-0.367471,0.888326,87.55,1
8324,0,51564,54363,50916.29,53716.21,717.91,1001.25,647.71,646.79,-2.773840,-2.494136,-0.372905,-0.367273,0.888128,87.56,1
8363,0,51579,54371,50917.62,53717.52,717.91,1001.25,661.38,653.48,-2.773866,-2.494160,-0.372706,-0.367075,0.887937,87.56,1
8405,0,51580,54356,50918.95,53718.80,717.91,1001.25,661.05,637.20,-2.773892,-2.494184,-0.372506,-0.366878,0.887753,87.57,1
8443,0,51587,54374,50920.28,53720.11,717.91,1001.25,666.72,653.89,-2.773918,-2.494209,-0.372306,-0.366680,0.887577,87.58,1
8484,0,51606,54426,50921.65,53721.52,717.91,1001.25,684.35,704.48,-2.773945,-2.494235,-0.372108,-0.366485,0.887407,87.58,1
8522,0,51632,54463,50923.07,53723.01,717.91,1001.25,708.93,739.99,-2.773973,-2.494262,-0.371910,-0.366292,0.887244,87.59,1
8563,0,51653,54482,50924.54,53724.53,717.91,1001.25,728.46,757.47,-2.774002,-2.494291,-0.371714,-0.366099,0.887087,87.60,1
8603,0,51665,54510,50926.02,53726.10,717.91,1001.25,738.98,783.90,-2.774031,-2.494320,-0.371518,-0.365907,0.886937,87.61,1
8642,0,51673,54536,50927.51,53727.72,717.91,1001.25,745.49,808.28,-2.774060,-2.494350,-0.371322,-0.365716,0.886792,87.61,1
8684,0,51694,54570,50929.05,53729.41,717.91,1001.25,764.95,840.59,-2.774091,-2.494382,-0.371127,-0.365527,0.886652,87.62,1
8723,0,51712,54606,50930.61,53731.16,717.91,1001.25,781.39,874.84,-2.774121,-2.494414,-0.370934,-0.365339,0.886518,87.63,1
8764,0,51729,54636,50932.21,53732.98,717.91,1001.25,796.79,903.02,-2.774153,-2.494448,-0.370740,-0.365152,0.886387,87.63,1
8805,0,51736,54666,50933.82,53734.84,717.91,1001.25,802.18,931.16,-2.774184,-2.494483,-0.370548,-0.364967,0.886261,87.64,1
8845,0,51754,54693,50935.46,53736.76,717.91,1001.25,818.54,956.24,-2.774216,-2.494519,-0.370356,-0.364782,0.886137,87.64,1
8884,0,51761,54701,50937.11,53738.69,717.91,1001.25,823.89,962.31,-2.774249,-2.494555,-0.370164,-0.364598,0.886017,87.65,1
8925,0,51766,54731,50938.77,53740.68,717.91,1001.25,827.23,990.32,-2.774282,-2.494591,-0.369973,-0.364415,0.885900,87.66,1
8964,0,51776,54749,50940.45,53742.70,717.91,1001.25,835.55,1006.30,-2.774314,-2.494629,-0.369782,-0.364233,0.885784,87.66,1
9005,0,51755,54626,50942.08,53744.46,717.91,1001.25,812.92,881.54,-2.774346,-2.494662,-0.369590,-0.364046,0.885674,87.67,1
9045,0,51695,54546,50943.59,53746.07,717.91,1001.25,751.41,799.93,-2.774376,-2.494692,-0.369396,-0.363856,0.885569,87.67,1
9085,0,51675,54528,50945.05,53747.64,717.91,1001.25,729.95,780.36,-2.774405,-2.494721,-0.369201,-0.363666,0.885469,87.68,1
9124,0,51689,54550,50946.54,53749.24,717.91,1001.25,742.46,800.76,-2.774434,-2.494751,-0.369007,-0.363477,0.885374,87.69,1
9165,0,51689,54535,50948.02,53750.82,717.91,1001.25,740.98,784.18,-2.774463,-2.494780,-0.368813,-0.363287,0.885284,87.69,1
9205,0,51692,54557,50949.51,53752.43,717.91,1001.25,742.49,804.57,-2.774492,-2.494810,-0.368620,-0.363098,0.885198,87.70,1
9245,0,51690,54560,50950.99,53754.05,717.91,1001.25,739.01,805.95,-2.774521,-2.494840,-0.368426,-0.362909,0.885117,87.70,1
9285,0,51698,54575,50952.49,53755.69,717.91,1001.25,745.51,819.31,-2.774551,-2.494871,-0.368232,-0.362721,0.885040,87.71,1
9325,0,51682,54536,50953.95,53757.25,717.91,1001.25,728.05,778.75,-2.774579,-2.494900,-0.368038,-0.362531,0.884967,87.71,1
9365,0,51654,54487,50955.35,53758.71,717.91,1001.25,698.65,728.29,-2.774607,-2.494927,-0.367844,-0.362340,0.884899,87.72,1
9405,0,51595,54384,50956.63,53759.97,717.91,1001.25,638.37,624.03,-2.774632,-2.494950,-0.367647,-0.362145,0.884835,87.72,1
9445,0,51528,54343,50957.78,53761.14,717.91,1001.25,570.22,581.86,-2.774654,-2.494972,-0.367447,-0.361949,0.884776,87.73,1
9485,0,51512,54347,50958.89,53762.31,717.91,1001.25,553.11,584.69,-2.774676,-2.494994,-0.367247,-0.361752,0.884719,87.73,1
9524,0,51508,54318,50959.98,53763.42,717.91,1001.25,548.02,554.58,-2.774698,-2.495015,-0.367046,-0.361555,0.884665,87.74,1
9564,0,51482,54296,50961.03,53764.49,717.91,1001.25,520.97,531.51,-2.774718,-2.495034,-0.366845,-0.361357,0.884614,87.74,1
9606,0,51467,54298,50962.04,53765.56,717.91,1001.25,504.96,532.44,-2.774738,-2.495054,-0.366643,-0.361160,0.884566,87.74,1
9644,0,51463,54313,50963.05,53766.66,717.91,1001.25,499.95,546.34,-2.774758,-2.495075,-0.366442,-0.360963,0.884519,87.75,1
9684,0,51478,54349,50964.08,53767.82,717.91,1001.25,513.92,581.18,-2.774778,-2.495096,-0.366241,-0.360767,0.884473,87.75,1
9725,0,51486,54348,50965.12,53768.98,717.91,1001.25,520.87,579.02,-2.774799,-2.495118,-0.366040,-0.360571,0.884430,87.76,1
9764,0,51460,54249,50966.12,53769.95,717.91,1001.25,493.88,479.05,-2.774818,-2.495136,-0.365839,-0.360372,0.884389,87.76,1
9806,0,51422,54217,50967.03,53770.84,717.91,1001.25,454.97,446.16,-2.774836,-2.495152,-0.365636,-0.360172,0.884351,87.76,1
9844,0,51426,54210,50967.95,53771.72,717.91,1001.25,458.05,438.28,-2.774854,-2.495169,-0.365433,-0.359972,0.884315,87.77,1
9885,0,51427,54190,50968.87,53772.56,717.91,1001.25,458.13,417.44,-2.774872,-2.495184,-0.365231,-0.359771,0.884283,87.77,1
9925,0,51411,54218,50969.75,53773.45,717.91,1001.25,441.25,444.55,-2.774889,-2.495201,-0.365028,-0.359571,0.884253,87.78,1
9965,0,51466,54359,50970.75,53774.62,717.91,1001.25,495.25,584.38,-2.774909,-2.495223,-0.364827,-0.359376,0.884224,87.78,1
10006,0,51589,54518,50971.98,53776.11,717.91,1001.25,617.02,741.89,-2.774933,-2.495250,-0.364631,-0.359188,0.884195,87.78,1
10046,0,51654,54592,50973.35,53777.74,717.91,1001.25,680.65,814.26,-2.774960,-2.495281,-0.364438,-0.359002,0.884166,87.79,1
10087,0,51701,54642,50974.81,53779.47,717.91,1001.25,726.19,862.53,-2.774989,-2.495313,-0.364247,-0.358818,0.884138,87.79,1
10125,0,51718,54675,50976.30,53781.27,717.91,1001.25,741.70,893.73,-2.775018,-2.495346,-0.364056,-0.358636,0.884110,87.79,1
10166,0,51742,54717,50977.83,53783.14,717.91,1001.25,764.17,933.86,-2.775048,-2.495381,-0.363867,-0.358455,0.884081,87.80,1
10206,0,51751,54743,50979.37,53785.06,717.91,1001.25,771.62,957.94,-2.775078,-2.495417,-0.363678,-0.358275,0.884052,87.80,1
10246,0,51760,54785,50980.94,53787.06,717.91,1001.25,779.06,997.94,-2.775109,-2.495454,-0.363489,-0.358097,0.884019,87.80,1
10287,0,51787,54830,50982.55,53789.14,717.91,1001.25,804.45,1040.86,-2.775141,-2.495493,-0.363301,-0.357920,0.883984,87.81,1
10326,0,51816,54885,50984.22,53791.34,717.91,1001.25,831.78,1093.66,-2.775173,-2.495533,-0.363115,-0.357746,0.883945,87.81,1
10365,0,51846,54939,50985.95,53793.63,717.91,1001.25,860.05,1145.37,-2.775207,-2.495576,-0.362930,-0.357574,0.883901,87.81,1
10407,0,51878,54973,50987.73,53795.99,717.91,1001.25,890.27,1177.01,-2.775242,-2.495620,-0.362746,-0.357402,0.883852,87.81,1
10446,0,51890,54984,50989.54,53798.37,717.91,1001.25,900.46,1185.63,-2.775277,-2.495664,-0.362563,-0.357232,0.883798,87.82,1
10487,0,51875,54893,50991.31,53800.56,717.91,1001.25,883.69,1092.44,-2.775312,-2.495705,-0.362379,-0.357058,0.883744,87.82,1
10526,0,51828,54832,50992.98,53802.62,717.91,1001.25,835.02,1029.38,-2.775345,-2.495744,-0.362194,-0.356882,0.883690,87.82,1
10566,0,51820,54825,50994.64,53804.67,717.91,1001.25,825.36,1020.33,-2.775378,-2.495781,-0.362008,-0.356705,0.883636,87.82,1
10605,0,51831,54845,50996.32,53806.75,717.91,1001.25,834.68,1038.25,-2.775410,-2.495820,-0.361823,-0.356530,0.883580,87.83,1
10646,0,51834,54824,50997.99,53808.79,717.91,1001.25,836.01,1015.21,-2.775443,-2.495858,-0.361638,-0.356353,0.883525,87.83,1
10687,0,51830,54851,50999.66,53810.87,717.91,1001.25,830.34,1040.13,-2.775476,-2.495897,-0.361453,-0.356178,0.883469,87.83,1
10725,0,51852,54904,51001.36,53813.06,717.91,1001.25,850.64,1090.94,-2.775509,-2.495937,-0.361268,-0.356005,0.883411,87.83,1
10765,0,51879,54949,51003.12,53815.34,717.91,1001.25,875.88,1133.66,-2.775544,-2.495980,-0.361085,-0.355833,0.883350,87.84,1
10807,0,51905,54995,51004.93,53817.70,717.91,1001.25,900.07,1177.30,-2.775579,-2.496024,-0.360903,-0.355663,0.883286,87.84,1
10847,0,51923,55020,51006.76,53820.10,717.91,1001.25,916.24,1199.90,-2.775615,-2.496068,-0.360722,-0.355495,0.883218,87.84,1
10887,0,51943,55064,51008.64,53822.59,717.91,1001.25,934.36,1241.41,-2.775652,-2.496114,-0.360542,-0.355327,0.883147,87.84,1
10927,0,51972,55109,51010.57,53825.16,717.91,1001.25,961.43,1283.84,-2.775690,-2.496162,-0.360362,-0.355162,0.883070,87.85,1
10968,0,51985,55150,51012.52,53827.82,717.91,1001.25,972.48,1322.18,-2.775728,-2.496212,-0.360184,-0.354998,0.882988,87.85,1
11006,0,52011,55197,51014.52,53830.55,717.91,1001.25,996.48,1366.45,-2.775767,-2.496263,-0.360006,-0.354836,0.882899,87.85,1
11047,0,52033,55234,51016.55,53833.36,717.91,1001.25,1016.45,1400.64,-2.775807,-2.496315,-0.359830,-0.354675,0.882804,87.85,1
11087,0,52045,55260,51018.61,53836.22,717.91,1001.25,1026.39,1423.78,-2.775848,-2.496368,-0.359653,-0.354515,0.882702,87.86,1
11127,0,52057,55288,51020.69,53839.12,717.91,1001.25,1036.31,1448.88,-2.775888,-2.496422,-0.359478,-0.354356,0.882593,87.86,1
11167,0,52066,55305,51022.79,53842.06,717.91,1001.25,1043.21,1462.94,-2.775929,-2.496476,-0.359302,-0.354198,0.882476,87.86,1
11207,0,52075,55345,51024.89,53845.07,717.91,1001.25,1050.11,1499.93,-2.775970,-2.496532,-0.359128,-0.354042,0.882351,87.86,1
11247,0,52091,55301,51027.02,53847.98,717.91,1001.25,1063.98,1453.02,-2.776012,-2.496586,-0.358953,-0.353883,0.882221,87.87,1
11286,0,52053,55211,51029.08,53850.71,717.91,1001.25,1023.92,1360.29,-2.776053,-2.496637,-0.358778,-0.353722,0.882089,87.87,1
11327,0,52035,55175,51031.09,53853.36,717.91,1001.25,1003.91,1321.64,-2.776092,-2.496686,-0.358601,-0.353559,0.881954,87.87,1
11366,0,52027,55172,51033.08,53856.00,717.91,1001.25,993.92,1316.00,-2.776131,-2.496735,-0.358425,-0.353396,0.881817,87.87,1
11406,0,52041,55173,51035.10,53858.63,717.91,1001.25,1005.90,1314.37,-2.776171,-2.496784,-0.358249,-0.353233,0.881679,87.88,1
11447,0,52039,55165,51037.11,53861.25,717.91,1001.25,1001.89,1303.75,-2.776210,-2.496832,-0.358073,-0.353069,0.881540,87.88,1
11489,0,52040,55192,51039.11,53863.91,717.91,1001.25,1000.89,1328.09,-2.776249,-2.496882,-0.357897,-0.352907,0.881399,87.88,1
11527,0,52068,55227,51041.17,53866.64,717.91,1001.25,1026.83,1360.36,-2.776290,-2.496933,-0.357722,-0.352746,0.881256,87.88,1
11567,0,52084,55249,51043.26,53869.40,717.91,1001.25,1040.74,1379.60,-2.776330,-2.496984,-0.357548,-0.352586,0.881111,87.89,1
11606,0,52088,55257,51045.35,53872.18,717.91,1001.25,1042.65,1384.82,-2.776371,-2.497036,-0.357374,-0.352426,0.880964,87.89,1
11647,0,52100,55282,51047.46,53875.00,717.91,1001.25,1052.54,1407.00,-2.776413,-2.497088,-0.357200,-0.352267,0.880814,87.89,1
11687,0,52108,55295,51049.58,53877.84,717.91,1001.25,1058.42,1417.16,-2.776454,-2.497140,-0.357027,-0.352109,0.880663,87.89,1
11726,0,52108,55319,51051.70,53880.72,717.91,1001.25,1056.30,1438.28,-2.776496,-2.497194,-0.356854,-0.351951,0.880508,87.90,1
11768,0,52118,55336,51053.83,53883.63,717.91,1001.25,1064.17,1452.37,-2.776538,-2.497248,-0.356682,-0.351795,0.880349,87.90,1
11807,0,52125,55375,51055.97,53886.62,717.91,1001.25,1069.03,1488.38,-2.776580,-2.497303,-0.356509,-0.351639,0.880187,87.90,1
11848,0,52155,55413,51058.17,53889.67,717.91,1001.25,1096.83,1523.33,-2.776623,-2.497360,-0.356338,-0.351485,0.880020,87.91,1
11888,0,52170,55437,51060.40,53892.77,717.91,1001.25,1109.60,1544.23,-2.776666,-2.497417,-0.356168,-0.351332,0.879849,87.91,1
11929,0,52186,55475,51062.65,53895.93,717.91,1001.25,1123.35,1579.07,-2.776711,-2.497476,-0.355998,-0.351180,0.879673,87.91,1
11967,0,52199,55497,51064.93,53899.14,717.91,1001.25,1134.07,1597.86,-2.776755,-2.497536,-0.355829,-0.351029,0.879492,87.91,1
12028,0,52209,55528,51067.21,53902.39,717.91,1001.25,1141.79,1625.61,-2.776800,-2.497596,-0.355660,-0.350879,0.879306,87.92,1
12059,0,52225,55557,51069.53,53905.71,717.91,1001.25,1155.47,1651.29,-2.776845,-2.497658,-0.355492,-0.350731,0.879115,87.92,1
12088,0,52229,55474,51071.85,53908.84,717.91,1001.25,1157.15,1565.16,-2.776891,-2.497716,-0.355324,-0.350579,0.878922,87.92,1
12128,0,52170,55377,51074.05,53911.78,717.91,1001.25,1095.95,1465.22,-2.776934,-2.497770,-0.355154,-0.350423,0.878728,87.93,1
12167,0,52153,55367,51076.21,53914.69,717.91,1001.25,1076.79,1452.31,-2.776976,-2.497824,-0.354983,-0.350268,0.878532,87.93,1
12208,0,52152,55375,51078.36,53917.61,717.91,1001.25,1073.64,1457.39,-2.777018,-2.497879,-0.354812,-0.350112,0.878335,87.93,1
12247,0,52169,55382,51080.55,53920.54,717.91,1001.25,1088.45,1461.46,-2.777061,-2.497933,-0.354642,-0.349957,0.878137,87.94,1
12288,0,52173,55383,51082.73,53923.47,717.91,1001.25,1090.27,1459.53,-2.777104,-2.497987,-0.354472,-0.349802,0.877939,87.94,1
12327,0,52181,55419,51084.93,53926.46,717.91,1001.25,1096.07,1492.54,-2.777147,-2.498043,-0.354302,-0.349648,0.877739,87.94,1
12368,0,52209,55462,51087.18,53929.54,717.91,1001.25,1121.82,1532.46,-2.777191,-2.498100,-0.354133,-0.349495,0.877537,87.95,1
12408,0,52224,55496,51089.46,53932.67,717.91,1001.25,1134.54,1563.33,-2.777235,-2.498158,-0.353965,-0.349344,0.877333,87.95,1
12448,0,52247,55515,51091.77,53935.84,717.91,1001.25,1155.23,1579.16,-2.777281,-2.498216,-0.353799,-0.349194,0.877127,87.95,1
12488,0,52242,55530,51094.07,53939.03,717.91,1001.25,1147.93,1590.97,-2.777326,-2.498276,-0.353631,-0.349044,0.876918,87.96,1
12528,0,52261,55564,51096.41,53942.28,717.91,1001.25,1164.59,1621.72,-2.777371,-2.498336,-0.353465,-0.348896,0.876708,87.96,1
12567,0,52276,55584,51098.77,53945.56,717.91,1001.25,1177.23,1638.44,-2.777417,-2.498397,-0.353299,-0.348748,0.876494,87.97,1
12607,0,52294,55614,51101.16,53948.90,717.91,1001.25,1192.84,1665.10,-2.777464,-2.498459,-0.353134,-0.348601,0.876278,87.97,1
12648,0,52300,55635,51103.56,53952.28,717.91,1001.25,1196.44,1682.72,-2.777511,-2.498521,-0.352969,-0.348455,0.876059,87.97,1
12691,0,52301,55642,51105.95,53955.66,717.91,1001.25,1195.05,1686.34,-2.777558,-2.498584,-0.352805,-0.348309,0.875837,87.98,1
12727,0,52303,55649,51108.35,53959.04,717.91,1001.25,1194.65,1689.96,-2.777605,-2.498646,-0.352640,-0.348164,0.875612,87.98,1
12769,0,52307,55675,51110.75,53962.48,717.91,1001.25,1196.25,1712.52,-2.777652,-2.498710,-0.352475,-0.348019,0.875384,87.99,1
12809,0,52327,55705,51113.18,53965.96,717.91,1001.25,1213.82,1739.04,-2.777699,-2.498775,-0.352312,-0.347876,0.875152,87.99,1
12849,0,52330,55683,51115.61,53969.40,717.91,1001.25,1214.39,1713.60,-2.777747,-2.498838,-0.352148,-0.347731,0.874917,87.99,1
12889,0,52296,55582,51117.98,53972.62,717.91,1001.25,1178.02,1609.38,-2.777793,-2.498898,-0.351983,-0.347583,0.874682,88.00,1
12930,0,52259,55516,51120.26,53975.71,717.91,1001.25,1138.74,1540.29,-2.777838,-2.498955,-0.351817,-0.347433,0.874447,88.00,1
12969,0,52240,55506,51122.50,53978.78,717.91,1001.25,1117.50,1527.22,-2.777882,-2.499012,-0.351650,-0.347282,0.874211,88.01,1
13009,0,52239,55527,51124.74,53981.87,717.91,1001.25,1114.26,1545.13,-2.777925,-2.499069,-0.351483,-0.347131,0.873974,88.01,1
13049,0,52263,55523,51127.02,53984.96,717.91,1001.25,1135.98,1538.04,-2.777970,-2.499127,-0.351317,-0.346981,0.873737,88.02,1
13092,0,52247,55523,51129.26,53988.04,717.91,1001.25,1117.74,1534.96,-2.778014,-2.499184,-0.351151,-0.346831,0.873499,88.02,1
13130,0,52257,55551,51131.52,53991.16,717.91,1001.25,1125.48,1559.84,-2.778058,-2.499242,-0.350985,-0.346681,0.873261,88.02,1
13170,0,52256,55566,51133.77,53994.32,717.91,1001.25,1122.23,1571.68,-2.778102,-2.499300,-0.350818,-0.346533,0.873021,88.03,1
13210,0,52264,55555,51136.03,53997.44,717.91,1001.25,1127.97,1557.56,-2.778146,-2.499358,-0.350652,-0.346383,0.872780,88.03,1
13248,0,52255,55574,51138.27,54000.59,717.91,1001.25,1116.73,1573.41,-2.778190,-2.499416,-0.350486,-0.346235,0.872538,88.04,1
13289,0,52266,55577,51140.52,54003.75,717.91,1001.25,1125.48,1573.25,-2.778234,-2.499475,-0.350321,-0.346086,0.872295,88.04,1
13329,0,52271,55611,51142.79,54006.96,717.91,1001.25,1128.21,1604.04,-2.778278,-2.499534,-0.350155,-0.345939,0.872050,88.05,1
13369,0,52281,55629,51145.06,54010.21,717.91,1001.25,1135.94,1618.79,-2.778323,-2.499594,-0.349990,-0.345792,0.871803,88.05,1
13410,0,52291,55665,51147.36,54013.52,717.91,1001.25,1143.64,1651.48,-2.778368,-2.499656,-0.349825,-0.345647,0.871554,88.06,1
13450,0,52304,55679,51149.67,54016.85,717.91,1001.25,1154.33,1662.15,-2.778413,-2.499717,-0.349661,-0.345502,0.871302,88.06,1
13490,0,52306,55707,51151.98,54020.23,717.91,1001.25,1154.02,1686.77,-2.778458,-2.499780,-0.349497,-0.345359,0.871048,88.07,1
13530,0,52317,55723,51154.32,54023.64,717.91,1001.25,1162.68,1699.36,-2.778504,-2.499843,-0.349333,-0.345215,0.870791,88.07,1
13569,0,52326,55752,51156.66,54027.10,717.91,1001.25,1169.34,1724.90,-2.778550,-2.499907,-0.349170,-0.345073,0.870531,88.08,1
13609,0,52340,55780,51159.03,54030.61,717.91,1001.25,1180.97,1749.39,-2.778596,-2.499972,-0.349008,-0.344932,0.870268,88.08,1
13651,0,52347,55775,51161.41,54034.09,717.91,1001.25,1185.59,1740.91,-2.778642,-2.500036,-0.348845,-0.344791,0.870001,88.09,1
13689,0,52318,55659,51163.72,54037.34,717.91,1001.25,1154.28,1621.66,-2.778688,-2.500097,-0.348682,-0.344645,0.869734,88.09,1
13728,0,52270,55599,51165.94,54040.47,717.91,1001.25,1104.06,1558.53,-2.778731,-2.500154,-0.348517,-0.344497,0.869467,88.10,1
13771,0,52260,55600,51168.12,54043.59,717.91,1001.25,1091.88,1556.41,-2.778774,-2.500212,-0.348351,-0.344349,0.869198,88.10,1
13811,0,52266,55612,51170.32,54046.73,717.91,1001.25,1095.68,1565.27,-2.778817,-2.500270,-0.348185,-0.344202,0.868929,88.11,1
13851,0,52275,55604,51172.53,54049.84,717.91,1001.25,1102.47,1554.16,-2.778860,-2.500328,-0.348020,-0.344054,0.868659,88.11,1
13890,0,52279,55622,51174.75,54052.99,717.91,1001.25,1104.25,1569.01,-2.778903,-2.500386,-0.347856,-0.343907,0.868388,88.12,1
13930,0,52289,55650,51176.98,54056.18,717.91,1001.25,1112.02,1593.82,-2.778947,-2.500445,-0.347691,-0.343761,0.868116,88.12,1
13971,0,52307,55691,51179.24,54059.45,717.91,1001.25,1127.76,1631.55,-2.778991,-2.500506,-0.347527,-0.343616,0.867843,88.13,1
14010,0,52317,55723,51181.52,54062.78,717.91,1001.25,1135.48,1660.22,-2.779036,-2.500567,-0.347364,-0.343473,0.867568,88.13,1
14051,0,52340,55757,51183.83,54066.17,717.91,1001.25,1156.17,1690.83,-2.779081,-2.500630,-0.347202,-0.343331,0.867291,88.14,1
14091,0,52366,55803,51186.20,54069.65,717.91,1001.25,1179.80,1733.35,-2.779127,-2.500694,-0.347040,-0.343190,0.867012,88.15,1
14131,0,52384,55837,51188.60,54073.18,717.91,1001.25,1195.40,1763.82,-2.779174,-2.500760,-0.346880,-0.343051,0.866730,88.15,1
14170,0,52394,55868,51191.01,54076.77,717.91,1001.25,1202.99,1791.23,-2.779221,-2.500826,-0.346720,-0.342912,0.866446,88.16,1
14210,0,52416,55904,51193.46,54080.43,717.91,1001.25,1222.54,1823.57,-2.779269,-2.500894,-0.346560,-0.342776,0.866160,88.16,1
14266,0,52438,55955,51195.96,54084.18,717.91,1001.25,1242.04,1870.82,-2.779318,-2.500963,-0.346402,-0.342640,0.865870,88.17,1
14290,0,52466,56009,51198.50,54088.03,717.91,1001.25,1267.50,1920.97,-2.779367,-2.501034,-0.346245,-0.342507,0.865577,88.17,1
14330,0,52495,56059,51201.09,54091.97,717.91,1001.25,1293.91,1967.03,-2.779418,-2.501107,-0.346088,-0.342376,0.865280,88.18,1
14371,0,52522,56103,51203.74,54096.00,717.91,1001.25,1318.26,2007.00,-2.779469,-2.501181,-0.345933,-0.342246,0.864979,88.19,1
14410,0,52538,56134,51206.41,54100.07,717.91,1001.25,1331.59,2033.93,-2.779522,-2.501257,-0.345779,-0.342117,0.864674,88.19,1
14450,0,52555,56165,51209.11,54104.21,717.91,1001.25,1345.89,2060.79,-2.779574,-2.501333,-0.345625,-0.341990,0.864366,88.20,1
14490,0,52563,56163,51211.82,54108.32,717.91,1001.25,1351.18,2054.68,-2.779627,-2.501409,-0.345471,-0.341862,0.864054,88.20,1
14532,0,52541,56056,51214.48,54112.22,717.91,1001.25,1326.52,1943.78,-2.779679,-2.501481,-0.345317,-0.341730,0.863740,88.21,1
14571,0,52495,55982,51217.04,54115.96,717.91,1001.25,1277.96,1866.04,-2.779729,-2.501550,-0.345161,-0.341596,0.863426,88.22,1
14610,0,52482,55966,51219.57,54119.67,717.91,1001.25,1262.43,1846.33,-2.779779,-2.501619,-0.345004,-0.341460,0.863111,88.22,1
14650,0,52477,55963,51222.09,54123.36,717.91,1001.25,1254.91,1839.64,-2.779828,-2.501687,-0.344847,-0.341325,0.862795,88.23,1
14690,0,52477,55953,51224.60,54127.02,717.91,1001.25,1252.40,1825.98,-2.779877,-2.501755,-0.344691,-0.341189,0.862478,88.23,1
14732,0,52478,55960,51227.11,54130.68,717.91,1001.25,1250.89,1829.32,-2.779926,-2.501822,-0.344534,-0.341054,0.862160,88.24,1
14771,0,52492,55997,51229.64,54134.42,717.91,1001.25,1262.36,1862.58,-2.779975,-2.501891,-0.344378,-0.340919,0.861841,88.25,1
14811,0,52512,56029,51232.20,54138.21,717.91,1001.25,1279.80,1890.79,-2.780025,-2.501961,-0.344222,-0.340786,0.861522,88.25,1
14851,0,52524,56048,51234.79,54142.03,717.91,1001.25,1289.21,1905.97,-2.780076,-2.502032,-0.344067,-0.340654,0.861201,88.26,1
14892,0,52534,56071,51237.39,54145.89,717.91,1001.25,1296.61,1925.11,-2.780127,-2.502103,-0.343913,-0.340522,0.860878,88.27,1
14931,0,52544,56103,51240.00,54149.80,717.91,1001.25,1304.00,1953.20,-2.780178,-2.502175,-0.343758,-0.340392,0.860555,88.27,1
14971,0,52559,56139,51242.64,54153.78,717.91,1001.25,1316.36,1985.22,-2.780229,-2.502249,-0.343605,-0.340263,0.860229,88.28,1
15012,0,52575,56159,51245.31,54157.79,717.91,1001.25,1329.69,2001.21,-2.780281,-2.502323,-0.343452,-0.340134,0.859901,88.29,1
15052,0,52585,56193,51247.99,54161.86,717.91,1001.25,1337.01,2031.14,-2.780334,-2.502398,-0.343299,-0.340007,0.859571,88.29,1
15092,0,52591,56207,51250.68,54165.95,717.91,1001.25,1340.32,2041.05,-2.780386,-2.502474,-0.343147,-0.339880,0.859240,88.30,1
15131,0,52595,56226,51253.37,54170.07,717.91,1001.25,1341.63,2055.93,-2.780438,-2.502550,-0.342995,-0.339753,0.858905,88.31,1
15172,0,52601,56235,51256.07,54174.21,717.91,1001.25,1344.93,2060.79,-2.780491,-2.502626,-0.342843,-0.339627,0.858569,88.31,1
15212,0,52612,56268,51258.78,54178.39,717.91,1001.25,1353.22,2089.61,-2.780544,-2.502703,-0.342691,-0.339502,0.858230,88.32,1
15252,0,52623,56282,51261.51,54182.60,717.91,1001.25,1361.49,2099.40,-2.780597,-2.502781,-0.342540,-0.339378,0.857888,88.33,1
15291,0,52633,56297,51264.26,54186.83,717.91,1001.25,1368.74,2110.17,-2.780651,-2.502859,-0.342389,-0.339254,0.857545,88.33,1
15331,0,52637,56293,51267.00,54191.05,717.91,1001.25,1370.00,2101.95,-2.780704,-2.502937,-0.342239,-0.339130,0.857199,88.34,1
15371,0,52604,56170,51269.68,54195.01,717.91,1001.25,1334.32,1974.99,-2.780757,-2.503010,-0.342087,-0.339001,0.856853,88.35,1
15411,0,52547,56069,51272.23,54198.76,717.91,1001.25,1274.77,1870.24,-2.780806,-2.503079,-0.341933,-0.338868,0.856507,88.36,1
15451,0,52524,56049,51274.74,54202.46,717.91,1001.25,1249.26,1846.54,-2.780855,-2.503148,-0.341778,-0.338735,0.856161,88.36,1
15491,0,52523,56046,51277.23,54206.15,717.91,1001.25,1245.77,1839.85,-2.780904,-2.503216,-0.341623,-0.338601,0.855815,88.37,1
15530,0,52526,56033,51279.73,54209.80,717.91,1001.25,1246.27,1823.20,-2.780953,-2.503283,-0.341468,-0.338467,0.855469,88.38,1
15571,0,52523,56030,51282.22,54213.45,717.91,1001.25,1240.78,1816.55,-2.781001,-2.503350,-0.341313,-0.338333,0.855123,88.38,1
15611,0,52532,56059,51284.72,54217.14,717.91,1001.25,1247.28,1841.86,-2.781050,-2.503418,-0.341158,-0.338200,0.854778,88.39,1
15651,0,52547,56076,51287.25,54220.86,717.91,1001.25,1259.75,1855.14,-2.781099,-2.503487,-0.341004,-0.338067,0.854432,88.40,1
15690,0,52549,56075,51289.77,54224.57,717.91,1001.25,1259.23,1850.43,-2.781148,-2.503555,-0.340850,-0.337934,0.854087,88.41,1
15732,0,52546,56082,51292.29,54228.28,717.91,1001.25,1253.71,1853.72,-2.781198,-2.503624,-0.340696,-0.337802,0.853742,88.41,1
15771,0,52555,56098,51294.82,54232.02,717.91,1001.25,1260.18,1865.98,-2.781247,-2.503693,-0.340543,-0.337670,0.853397,88.42,1
15813,0,52564,56116,51297.36,54235.79,717.91,1001.25,1266.64,1880.21,-2.781296,-2.503762,-0.340389,-0.337538,0.853052,88.43,1
15852,0,52580,56149,51299.92,54239.62,717.91,1001.25,1280.08,1909.38,-2.781346,-2.503833,-0.340237,-0.337408,0.852706,88.44,1
15891,0,52583,56170,51302.49,54243.48,717.91,1001.25,1280.51,1926.52,-2.781396,-2.503904,-0.340084,-0.337279,0.852360,88.44,1
15932,0,52601,56197,51305.09,54247.39,717.91,1001.25,1295.91,1949.61,-2.781447,-2.503976,-0.339932,-0.337150,0.852014,88.45,1
15972,0,52607,56226,51307.69,54251.35,717.91,1001.25,1299.31,1974.65,-2.781498,-2.504049,-0.339781,-0.337023,0.851666,88.46,1
16012,0,52630,56247,51310.34,54255.34,717.91,1001.25,1319.66,1991.66,-2.781549,-2.504123,-0.339630,-0.336896,0.851318,88.47,1
16051,0,52638,56273,51312.99,54259.38,717.91,1001.25,1325.01,2013.62,-2.781601,-2.504197,-0.339479,-0.336770,0.850970,88.48,1
16092,0,52652,56306,51315.67,54263.47,717.91,1001.25,1336.33,2042.53,-2.781653,-2.504272,-0.339329,-0.336645,0.850620,88.48,1
16131,0,52659,56247,51318.36,54267.44,717.91,1001.25,1340.64,1979.56,-2.781706,-2.504346,-0.339180,-0.336518,0.850270,88.49,1
16172,0,52604,56094,51320.93,54271.10,717.91,1001.25,1283.07,1822.90,-2.781756,-2.504413,-0.339028,-0.336386,0.849922,88.50,1
16212,0,52557,56026,51323.41,54274.61,717.91,1001.25,1233.59,1751.39,-2.781804,-2.504478,-0.338874,-0.336250,0.849576,88.51,1
16252,0,52551,56015,51325.86,54278.09,717.91,1001.25,1225.14,1736.91,-2.781852,-2.504542,-0.338721,-0.336115,0.849231,88.51,1
16292,0,52555,56002,51328.32,54281.54,717.91,1001.25,1226.68,1720.46,-2.781900,-2.504605,-0.338567,-0.335978,0.848888,88.52,1
16331,0,52551,55980,51330.77,54284.94,717.91,1001.25,1220.23,1695.06,-2.781947,-2.504668,-0.338413,-0.335841,0.848546,88.53,1
16372,0,52556,55988,51333.22,54288.34,717.91,1001.25,1222.78,1699.66,-2.781995,-2.504731,-0.338260,-0.335705,0.848207,88.54,1
16409,0,52563,56009,51335.68,54291.79,717.91,1001.25,1227.32,1717.21,-2.782043,-2.504794,-0.338106,-0.335568,0.847869,88.55,1
16452,0,52575,56009,51338.16,54295.22,717.91,1001.25,1236.84,1713.78,-2.782091,-2.504858,-0.337954,-0.335432,0.847534,88.55,1
16493,0,52579,56018,51340.65,54298.67,717.91,1001.25,1238.35,1719.33,-2.782140,-2.504921,-0.337801,-0.335297,0.847200,88.56,1
16531,0,52590,56033,51343.15,54302.14,717.91,1001.25,1246.85,1730.86,-2.782189,-2.504985,-0.337649,-0.335161,0.846868,88.57,1
16573,0,52600,56067,51345.66,54305.67,717.91,1001.25,1254.34,1761.33,-2.782238,-2.505050,-0.337497,-0.335027,0.846538,88.58,1
16612,0,52615,56104,51348.20,54309.27,717.91,1001.25,1266.80,1794.73,-2.782287,-2.505116,-0.337346,-0.334895,0.846210,88.59,1
16653,0,52633,56131,51350.77,54312.91,717.91,1001.25,1282.23,1818.09,-2.782337,-2.505183,-0.337195,-0.334763,0.845883,88.59,1
16693,0,52640,56152,51353.35,54316.59,717.91,1001.25,1286.65,1835.41,-2.782387,-2.505251,-0.337045,-0.334632,0.845556,88.60,1
16733,0,52655,56177,51355.96,54320.31,717.91,1001.25,1299.04,1856.69,-2.782438,-2.505319,-0.336895,-0.334501,0.845232,88.61,1
16773,0,52664,56192,51358.57,54324.06,717.91,1001.25,1305.43,1867.94,-2.782489,-2.505388,-0.336746,-0.334372,0.844908,88.62,1
16813,0,52673,56220,51361.20,54327.85,717.91,1001.25,1311.80,1892.15,-2.782540,-2.505458,-0.336597,-0.334243,0.844585,88.63,1
16854,0,52685,56241,51363.85,54331.68,717.91,1001.25,1321.15,1909.32,-2.782592,-2.505529,-0.336448,-0.334115,0.844263,88.63,1
16893,0,52695,56257,51366.52,54335.53,717.91,1001.25,1328.48,1921.47,-2.782644,-2.505599,-0.336300,-0.333987,0.843941,88.64,1
16933,0,52679,56151,51369.14,54339.16,717.91,1001.25,1309.86,1811.84,-2.782695,-2.505666,-0.336151,-0.333856,0.843622,88.65,1
16973,0,52613,56008,51371.63,54342.50,717.91,1001.25,1241.37,1665.50,-2.782743,-2.505728,-0.336000,-0.333719,0.843305,88.66,1
17014,0,52576,55966,51374.04,54345.75,717.91,1001.25,1201.96,1620.25,-2.782790,-2.505788,-0.335847,-0.333581,0.842991,88.67,1
17053,0,52575,55970,51376.44,54349.00,717.91,1001.25,1198.56,1621.00,-2.782837,-2.505847,-0.335695,-0.333443,0.842679,88.67,1
17093,0,52578,55974,51378.85,54352.25,717.91,1001.25,1199.15,1621.75,-2.782884,-2.505907,-0.335542,-0.333305,0.842369,88.68,1
17133,0,52585,55958,51381.26,54355.47,717.91,1001.25,1203.74,1602.53,-2.782931,-2.505966,-0.335390,-0.333166,0.842062,88.69,1
17172,0,52589,55978,51383.68,54358.71,717.91,1001.25,1205.32,1619.29,-2.782978,-2.506026,-0.335237,-0.333028,0.841757,88.70,1
17213,0,52609,56016,51386.13,54362.03,717.91,1001.25,1222.87,1653.97,-2.783026,-2.506087,-0.335086,-0.332892,0.841455,88.71,1
17254,0,52622,56038,51388.61,54365.38,717.91,1001.25,1233.39,1672.62,-2.783074,-2.506149,-0.334935,-0.332756,0.841155,88.71,1
17293,0,52633,56058,51391.09,54368.77,717.91,1001.25,1241.91,1689.23,-2.783122,-2.506211,-0.334785,-0.332621,0.840857,88.72,1
17333,0,52639,56086,51393.59,54372.21,717.91,1001.25,1245.41,1713.79,-2.783170,-2.506274,-0.334634,-0.332487,0.840561,88.73,1
17373,0,52653,56114,51396.11,54375.69,717.91,1001.25,1256.89,1738.31,-2.783220,-2.506338,-0.334485,-0.332354,0.840266,88.74,1
17412,0,52665,56141,51398.65,54379.22,717.91,1001.25,1266.35,1761.78,-2.783269,-2.506403,-0.334336,-0.332221,0.839973,88.75,1
17452,0,52679,56165,51401.21,54382.80,717.91,1001.25,1277.79,1782.20,-2.783319,-2.506469,-0.334187,-0.332090,0.839682,88.75,1
17492,0,52685,56187,51403.78,54386.41,717.91,1001.25,1281.22,1800.59,-2.783369,-2.506536,-0.334039,-0.331959,0.839392,88.76,1
17533,0,52694,56228,51406.36,54390.09,717.91,1001.25,1287.64,1837.91,-2.783419,-2.506603,-0.333890,-0.331830,0.839103,88.77,1
17573,0,52708,56248,51408.97,54393.81,717.91,1001.25,1299.03,1854.19,-2.783470,-2.506671,-0.333743,-0.331702,0.838814,88.78,1
17614,0,52712,56269,51411.57,54397.56,717.91,1001.25,1300.43,1871.44,-2.783520,-2.506741,-0.333596,-0.331574,0.838526,88.79,1
17654,0,52721,56287,51414.20,54401.34,717.91,1001.25,1306.80,1885.66,-2.783571,-2.506810,-0.333448,-0.331447,0.838239,88.79,1
17693,0,52729,56319,51416.83,54405.18,717.91,1001.25,1312.17,1913.82,-2.783623,-2.506881,-0.333302,-0.331321,0.837952,88.80,1
17734,0,52730,56287,51419.46,54408.94,717.91,1001.25,1310.54,1878.06,-2.783674,-2.506950,-0.333155,-0.331194,0.837666,88.81,1
17774,0,52687,56170,51421.99,54412.46,717.91,1001.25,1265.01,1757.54,-2.783723,-2.507015,-0.333007,-0.331062,0.837381,88.82,1
17814,0,52631,56102,51424.41,54415.84,717.91,1001.25,1206.59,1686.16,-2.783770,-2.507077,-0.332856,-0.330928,0.837097,88.82,1
17854,0,52623,56102,51426.81,54419.22,717.91,1001.25,1196.19,1682.78,-2.783817,-2.507138,-0.332705,-0.330794,0.836815,88.83,1
17893,0,52628,56112,51429.21,54422.61,717.91,1001.25,1198.79,1689.39,-2.783863,-2.507201,-0.332555,-0.330660,0.836534,88.84,1
17934,0,52632,56105,51431.62,54425.97,717.91,1001.25,1200.38,1679.03,-2.783910,-2.507263,-0.332404,-0.330526,0.836254,88.85,1
17973,0,52624,56116,51434.00,54429.36,717.91,1001.25,1190.00,1686.64,-2.783957,-2.507325,-0.332254,-0.330392,0.835975,88.85,1
18013,0,52632,56152,51436.40,54432.80,717.91,1001.25,1195.60,1719.20,-2.784003,-2.507388,-0.332103,-0.330260,0.835697,88.86,1
18054,0,52647,56182,51438.82,54436.30,717.91,1001.25,1208.18,1745.70,-2.784050,-2.507452,-0.331953,-0.330129,0.835419,88.87,1
18094,0,52661,56200,51441.27,54439.83,717.91,1001.25,1219.73,1760.17,-2.784098,-2.507517,-0.331804,-0.329998,0.835142,88.88,1
18134,0,52672,56229,51443.73,54443.41,717.91,1001.25,1228.27,1785.59,-2.784146,-2.507583,-0.331655,-0.329868,0.834865,88.88,1
18175,0,52683,56261,51446.21,54447.04,717.91,1001.25,1236.79,1813.96,-2.784194,-2.507650,-0.331507,-0.329739,0.834589,88.89,1
18214,0,52694,56289,51448.71,54450.73,717.91,1001.25,1245.29,1838.27,-2.784242,-2.507717,-0.331359,-0.329612,0.834312,88.90,1
18255,0,52707,56308,51451.23,54454.44,717.91,1001.25,1255.77,1853.56,-2.784291,-2.507786,-0.331211,-0.329485,0.834035,88.91,1
18295,0,52709,56339,51453.74,54458.21,717.91,1001.25,1255.26,1880.79,-2.784340,-2.507855,-0.331064,-0.329359,0.833758,88.91,1
18335,0,52711,56351,51456.26,54462.00,717.91,1001.25,1254.74,1889.00,-2.784389,-2.507924,-0.330917,-0.329233,0.833480,88.92,1
18375,0,52721,56375,51458.79,54465.82,717.91,1001.25,1262.21,1909.18,-2.784438,-2.507995,-0.330770,-0.329109,0.833201,88.93,1
18414,0,52728,56397,51461.33,54469.69,717.91,1001.25,1266.67,1927.31,-2.784488,-2.508065,-0.330623,-0.328985,0.832922,88.94,1
18454,0,52738,56422,51463.88,54473.59,717.91,1001.25,1274.12,1948.41,-2.784537,-2.508137,-0.330477,-0.328862,0.832641,88.94,1
18494,0,52741,56457,51466.44,54477.56,717.91,1001.25,1274.56,1979.44,-2.784587,-2.508210,-0.330330,-0.328740,0.832360,88.95,1
18539,0,52750,56476,51469.01,54481.56,717.91,1001.25,1280.99,1994.44,-2.784637,-2.508284,-0.330185,-0.328619,0.832076,88.96,1
18580,0,52737,56394,51471.55,54485.39,717.91,1001.25,1265.45,1908.61,-2.784686,-2.508354,-0.330038,-0.328494,0.831792,88.97,1
18615,0,52693,56329,51473.99,54489.08,717.91,1001.25,1219.01,1839.92,-2.784734,-2.508421,-0.329890,-0.328368,0.831508,88.97,1
18656,0,52678,56333,51476.40,54492.77,717.91,1001.25,1201.60,1840.23,-2.784781,-2.508489,-0.329742,-0.328241,0.831223,88.98,1
18695,0,52688,56362,51478.83,54496.50,717.91,1001.25,1209.17,1865.50,-2.784828,-2.508558,-0.329594,-0.328115,0.830938,88.99,1
18736,0,52697,56376,51481.27,54500.27,717.91,1001.25,1215.73,1875.73,-2.784875,-2.508627,-0.329446,-0.327990,0.830651,89.00,1
18775,0,52698,56395,51483.70,54504.05,717.91,1001.25,1214.30,1890.95,-2.784922,-2.508696,-0.329298,-0.327866,0.830363,89.00,1
18815,0,52709,56421,51486.15,54507.89,717.91,1001.25,1222.85,1913.11,-2.784970,-2.508767,-0.329151,-0.327742,0.830074,89.01,1
18855,0,52720,56447,51488.62,54511.77,717.91,1001.25,1231.38,1935.23,-2.785018,-2.508838,-0.329004,-0.327619,0.829784,89.02,1
18895,0,52727,56467,51491.10,54515.68,717.91,1001.25,1235.90,1951.32,-2.785066,-2.508909,-0.328857,-0.327497,0.829492,89.03,1
18935,0,52734,56484,51493.59,54519.62,717.91,1001.25,1240.41,1964.38,-2.785114,-2.508982,-0.328711,-0.327376,0.829199,89.03,1
18975,0,52747,56518,51496.09,54523.62,717.91,1001.25,1250.91,1994.38,-2.785163,-2.509055,-0.328565,-0.327255,0.828903,89.04,1
19014,0,52751,56531,51498.61,54527.63,717.91,1001.25,1252.39,2003.37,-2.785212,-2.509129,-0.328419,-0.327135,0.828607,89.05,1
19055,0,52765,56561,51501.14,54531.70,717.91,1001.25,1263.86,2029.30,-2.785261,-2.509203,-0.328274,-0.327017,0.828308,89.05,1
19095,0,52769,56578,51503.68,54535.79,717.91,1001.25,1265.32,2042.21,-2.785310,-2.509279,-0.328129,-0.326898,0.828007,89.06,1
19135,0,52777,56611,51506.22,54539.95,717.91,1001.25,1270.78,2071.05,-2.785360,-2.509355,-0.327984,-0.326781,0.827704,89.07,1
19176,0,52786,56634,51508.79,54544.14,717.91,1001.25,1277.21,2089.86,-2.785409,-2.509431,-0.327840,-0.326665,0.827399,89.08,1
19216,0,52789,56647,51511.35,54548.34,717.91,1001.25,1277.65,2098.66,-2.785459,-2.509509,-0.327696,-0.326549,0.827091,89.08,1
19257,0,52802,56674,51513.93,54552.60,717.91,1001.25,1288.07,2121.40,-2.785509,-2.509587,-0.327552,-0.326433,0.826781,89.09,1
19296,0,52808,56681,51516.52,54556.86,717.91,1001.25,1291.48,2124.14,-2.785560,-2.509665,-0.327408,-0.326318,0.826468,89.10,1
19335,0,52788,56601,51519.06,54560.95,717.91,1001.25,1268.94,2040.05,-2.785609,-2.509739,-0.327264,-0.326200,0.826154,89.11,1
19376,0,52746,56544,51521.52,54564.91,717.91,1001.25,1224.48,1979.09,-2.785657,-2.509812,-0.327118,-0.326080,0.825838,89.11,1
19418,0,52736,56549,51523.95,54568.88,717.91,1001.25,1212.05,1980.12,-2.785704,-2.509885,-0.326972,-0.325960,0.825521,89.12,1
19457,0,52738,56561,51526.38,54572.87,717.91,1001.25,1211.62,1988.13,-2.785751,-2.509958,-0.326826,-0.325841,0.825202,89.13,1
19497,0,52739,56555,51528.80,54576.83,717.91,1001.25,1210.20,1978.17,-2.785798,-2.510031,-0.326680,-0.325721,0.824881,89.14,1
19537,0,52740,56578,51531.23,54580.84,717.91,1001.25,1208.77,1997.16,-2.785845,-2.510104,-0.326533,-0.325601,0.824559,89.14,1
19577,0,52748,56606,51533.66,54584.89,717.91,1001.25,1214.34,2021.11,-2.785892,-2.510178,-0.326388,-0.325483,0.824234,89.15,1
19616,0,52756,56628,51536.11,54588.97,717.91,1001.25,1219.89,2039.03,-2.785940,-2.510253,-0.326242,-0.325366,0.823907,89.16,1
19656,0,52761,56638,51538.55,54593.07,717.91,1001.25,1222.45,2044.93,-2.785987,-2.510328,-0.326097,-0.325249,0.823579,89.17,1
19697,0,52773,56656,51541.02,54597.20,717.91,1001.25,1231.98,2058.80,-2.786035,-2.510404,-0.325952,-0.325132,0.823248,89.17,1
19736,0,52775,56677,51543.49,54601.36,717.91,1001.25,1231.51,2075.64,-2.786083,-2.510480,-0.325807,-0.325016,0.822915,89.18,1
19776,0,52780,56704,51545.96,54605.57,717.91,1001.25,1234.04,2098.43,-2.786131,-2.510557,-0.325662,-0.324901,0.822579,89.19,1
19817,0,52787,56729,51548.45,54609.82,717.91,1001.25,1238.55,2119.18,-2.786179,-2.510635,-0.325518,-0.324787,0.822241,89.20,1
19857,0,52802,56752,51550.96,54614.10,717.91,1001.25,1251.04,2137.90,-2.786228,-2.510713,-0.325374,-0.324673,0.821900,89.20,1
19896,0,52808,56774,51553.47,54618.42,717.91,1001.25,1254.53,2155.58,-2.786277,-2.510792,-0.325231,-0.324561,0.821557,89.21,1
19937,0,52820,56792,51556.01,54622.77,717.91,1001.25,1263.99,2169.23,-2.786326,-2.510872,-0.325088,-0.324449,0.821211,89.22,1
19976,0,52824,56815,51558.55,54627.16,717.91,1001.25,1265.45,2187.84,-2.786375,-2.510952,-0.324945,-0.324337,0.820862,89.23,1
20016,0,52831,56848,51561.09,54631.60,717.91,1001.25,1269.91,2216.40,-2.786424,-2.511034,-0.324803,-0.324227,0.820510,89.24,1
20053,0,52837,56859,51563.65,54636.05,717.91,1001.25,1273.35,2222.95,-2.786474,-2.511115,-0.324660,-0.324117,0.820155,89.24,1
20096,0,52828,56793,51566.18,54640.37,717.91,1001.25,1261.82,2152.63,-2.786523,-2.511194,-0.324518,-0.324005,0.819798,89.25,1
20132,0,52789,56714,51568.62,54644.52,717.91,1001.25,1220.38,2069.48,-2.786571,-2.511270,-0.324373,-0.323889,0.819439,89.26,1
20176,0,52768,56701,51571.02,54648.63,717.91,1001.25,1196.98,2052.37,-2.786617,-2.511345,-0.324228,-0.323773,0.819079,89.27,1
20216,0,52769,56707,51573.42,54652.75,717.91,1001.25,1195.58,2054.25,-2.786664,-2.511421,-0.324083,-0.323657,0.818716,89.27,1
20257,0,52762,56712,51575.80,54656.87,717.91,1001.25,1186.20,2055.13,-2.786710,-2.511496,-0.323938,-0.323542,0.818352,89.28,1
20296,0,52764,56712,51578.18,54660.98,717.91,1001.25,1185.82,2051.02,-2.786756,-2.511571,-0.323793,-0.323426,0.817986,89.29,1
20338,0,52768,56732,51580.56,54665.13,717.91,1001.25,1187.44,2066.87,-2.786802,-2.511647,-0.323648,-0.323311,0.817617,89.30,1
20378,0,52774,56752,51582.95,54669.30,717.91,1001.25,1191.05,2082.70,-2.786848,-2.511724,-0.323503,-0.323196,0.817247,89.31,1
20418,0,52779,56766,51585.34,54673.50,717.91,1001.25,1193.66,2092.50,-2.786895,-2.511800,-0.323359,-0.323082,0.816874,89.32,1
20457,0,52786,56776,51587.75,54677.71,717.91,1001.25,1198.25,2098.29,-2.786941,-2.511877,-0.323214,-0.322969,0.816500,89.32,1
20497,0,52791,56795,51590.15,54681.94,717.91,1001.25,1200.85,2113.06,-2.786988,-2.511955,-0.323070,-0.322855,0.816123,89.33,1
20538,0,52799,56812,51592.57,54686.20,717.91,1001.25,1206.43,2125.80,-2.787035,-2.512033,-0.322926,-0.322743,0.815744,89.34,1
20578,0,52803,56835,51594.99,54690.50,717.91,1001.25,1208.01,2144.50,-2.787082,-2.512111,-0.322783,-0.322631,0.815363,89.35,1
20616,0,52815,56860,51597.43,54694.84,717.91,1001.25,1217.57,2165.16,-2.787129,-2.512191,-0.322640,-0.322520,0.814979,89.36,1
20656,0,52822,56885,51599.88,54699.23,717.91,1001.25,1222.12,2185.77,-2.787177,-2.512271,-0.322497,-0.322410,0.814593,89.36,1
20710,0,52829,56905,51602.34,54703.64,717.91,1001.25,1226.66,2201.36,-2.787224,-2.512352,-0.322354,-0.322300,0.814204,89.37,1
20735,0,52839,56927,51604.82,54708.09,717.91,1001.25,1234.18,2218.91,-2.787272,-2.512433,-0.322212,-0.322191,0.813813,89.38,1
20777,0,52843,56947,51607.30,54712.57,717.91,1001.25,1235.70,2234.43,-2.787320,-2.512515,-0.322070,-0.322083,0.813419,89.39,1
20816,0,52853,56963,51609.79,54717.07,717.91,1001.25,1243.21,2245.93,-2.787369,-2.512597,-0.321928,-0.321975,0.813022,89.40,1
20856,0,52857,56984,51612.29,54721.61,717.91,1001.25,1244.71,2262.39,-2.787417,-2.512680,-0.321787,-0.321868,0.812623,89.41,1
20897,0,52861,56967,51614.79,54726.10,717.91,1001.25,1246.21,2240.90,-2.787465,-2.512762,-0.321645,-0.321761,0.812221,89.42,1
20937,0,52833,56861,51617.22,54730.37,717.91,1001.25,1215.78,2130.63,-2.787513,-2.512840,-0.321503,-0.321649,0.811818,89.42,1
20976,0,52782,56798,51619.55,54734.51,717.91,1001.25,1162.45,2063.49,-2.787558,-2.512916,-0.321358,-0.321535,0.811413,89.43,1
21016,0,52770,56795,51621.86,54738.63,717.91,1001.25,1148.14,2056.37,-2.787602,-2.512991,-0.321213,-0.321420,0.811007,89.44,1
21055,0,52771,56790,51624.16,54742.73,717.91,1001.25,1146.84,2047.27,-2.787647,-2.513066,-0.321069,-0.321306,0.810599,89.45,1
21096,0,52764,56778,51626.44,54746.80,717.91,1001.25,1137.56,2031.20,-2.787691,-2.513140,-0.320923,-0.321191,0.810190,89.46,1
21134,0,52770,56780,51628.73,54750.87,717.91,1001.25,1141.27,2029.13,-2.787735,-2.513214,-0.320779,-0.321076,0.809780,89.47,1
21176,0,52771,56803,51631.01,54754.98,717.91,1001.25,1139.99,2048.02,-2.787780,-2.513289,-0.320634,-0.320961,0.809368,89.48,1
21218,0,52780,56814,51633.31,54759.10,717.91,1001.25,1146.69,2054.90,-2.787824,-2.513365,-0.320489,-0.320847,0.808955,89.49,1
21257,0,52785,56821,51635.62,54763.22,717.91,1001.25,1149.38,2057.78,-2.787869,-2.513440,-0.320345,-0.320733,0.808540,89.50,1
21298,0,52789,56835,51637.93,54767.37,717.91,1001.25,1151.07,2067.63,-2.787913,-2.513516,-0.320201,-0.320620,0.808124,89.50,1
21338,0,52796,56847,51640.24,54771.53,717.91,1001.25,1155.76,2075.47,-2.787958,-2.513592,-0.320057,-0.320507,0.807707,89.51,1
21378,0,52802,56867,51642.57,54775.72,717.91,1001.25,1159.43,2091.28,-2.788003,-2.513668,-0.319914,-0.320394,0.807288,89.52,1
21417,0,52804,56886,51644.89,54779.94,717.91,1001.25,1159.11,2106.06,-2.788048,-2.513745,-0.319770,-0.320283,0.806868,89.53,1
21458,0,52815,56906,51647.23,54784.20,717.91,1001.25,1167.77,2121.80,-2.788094,-2.513823,-0.319627,-0.320172,0.806446,89.54,1
21498,0,52825,56922,51649.59,54788.47,717.91,1001.25,1175.41,2133.53,-2.788139,-2.513901,-0.319484,-0.320061,0.806022,89.55,1
21538,0,52832,56945,51651.95,54792.79,717.91,1001.25,1180.05,2152.21,-2.788185,-2.513980,-0.319342,-0.319951,0.805597,89.56,1
21577,0,52838,56964,51654.33,54797.13,717.91,1001.25,1183.67,2166.87,-2.788231,-2.514059,-0.319200,-0.319842,0.805170,89.57,1
21618,0,52854,56979,51656.73,54801.50,717.91,1001.25,1197.27,2177.50,-2.788278,-2.514139,-0.319058,-0.319733,0.804741,89.58,1
21658,0,52855,57001,51659.13,54805.90,717.91,1001.25,1195.87,2195.10,-2.788324,-2.514219,-0.318917,-0.319625,0.804311,89.59,1
21697,0,52865,57009,51661.54,54810.30,717.91,1001.25,1203.46,2198.70,-2.788371,-2.514299,-0.318776,-0.319517,0.803878,89.60,1
21738,0,52866,56999,51663.95,54814.68,717.91,1001.25,1202.05,2184.32,-2.788417,-2.514379,-0.318635,-0.319409,0.803445,89.61,1
21775,0,52830,56876,51666.29,54818.81,717.91,1001.25,1163.71,2057.19,-2.788462,-2.514455,-0.318492,-0.319296,0.803011,89.62,1
21817,0,52779,56792,51668.51,54822.76,717.91,1001.25,1110.49,1969.24,-2.788506,-2.514527,-0.318348,-0.319180,0.802576,89.63,1
21858,0,52763,56779,51670.70,54826.67,717.91,1001.25,1092.30,1952.33,-2.788548,-2.514598,-0.318203,-0.319063,0.802141,89.64,1
21897,0,52764,56776,51672.89,54830.57,717.91,1001.25,1091.11,1945.43,-2.788590,-2.514669,-0.318058,-0.318946,0.801706,89.65,1
21938,0,52764,56756,51675.07,54834.42,717.91,1001.25,1088.93,1921.58,-2.788633,-2.514739,-0.317913,-0.318829,0.801270,89.65,1
21978,0,52758,56750,51677.24,54838.25,717.91,1001.25,1080.76,1911.75,-2.788675,-2.514809,-0.317768,-0.318711,0.800834,89.66,1
22018,0,52764,56765,51679.42,54842.11,717.91,1001.25,1084.58,1922.89,-2.788717,-2.514879,-0.317623,-0.318593,0.800398,89.67,1
22058,0,52772,56771,51681.61,54845.97,717.91,1001.25,1090.39,1925.03,-2.788759,-2.514950,-0.317478,-0.318476,0.799961,89.68,1
22099,0,52770,56769,51683.79,54849.82,717.91,1001.25,1086.21,1919.18,-2.788801,-2.515020,-0.317334,-0.318359,0.799524,89.69,1
22139,0,52773,56770,51685.96,54853.66,717.91,1001.25,1087.04,1916.34,-2.788843,-2.515090,-0.317189,-0.318241,0.799088,89.70,1
22179,0,52779,56778,51688.15,54857.51,717.91,1001.25,1090.85,1920.49,-2.788886,-2.515160,-0.317045,-0.318124,0.798651,89.71,1
22220,0,52781,56792,51690.34,54861.38,717.91,1001.25,1090.66,1930.62,-2.788928,-2.515231,-0.316901,-0.318007,0.798213,89.72,1
22258,0,52792,56809,51692.54,54865.28,717.91,1001.25,1099.46,1943.72,-2.788971,-2.515302,-0.316757,-0.317891,0.797776,89.73,1
22299,0,52801,56825,51694.76,54869.20,717.91,1001.25,1106.24,1955.80,-2.789014,-2.515373,-0.316613,-0.317776,0.797339,89.74,1
22339,0,52802,56836,51696.98,54873.13,717.91,1001.25,1105.02,1962.87,-2.789056,-2.515445,-0.316470,-0.317660,0.796901,89.75,1
22379,0,52815,56853,51699.21,54877.09,717.91,1001.25,1115.79,1975.91,-2.789100,-2.515517,-0.316327,-0.317546,0.796463,89.76,1
22419,0,52820,56871,51701.46,54881.08,717.91,1001.25,1118.54,1989.92,-2.789143,-2.515590,-0.316185,-0.317431,0.796024,89.77,1
22459,0,52826,56889,51703.71,54885.10,717.91,1001.25,1122.29,2003.90,-2.789186,-2.515663,-0.316042,-0.317318,0.795586,89.78,1
22498,0,52833,56909,51705.97,54889.15,717.91,1001.25,1127.03,2019.85,-2.789230,-2.515737,-0.315900,-0.317205,0.795147,89.79,1
22538,0,52847,56932,51708.25,54893.23,717.91,1001.25,1138.75,2038.77,-2.789274,-2.515811,-0.315758,-0.317093,0.794707,89.80,1
22579,0,52857,56928,51710.55,54897.30,717.91,1001.25,1146.45,2030.70,-2.789319,-2.515885,-0.315617,-0.316980,0.794267,89.81,1
22619,0,52835,56802,51712.80,54901.12,717.91,1001.25,1122.20,1900.88,-2.789362,-2.515955,-0.315475,-0.316863,0.793828,89.82,1
22658,0,52773,56700,51714.93,54904.71,717.91,1001.25,1058.07,1795.29,-2.789403,-2.516020,-0.315331,-0.316742,0.793390,89.83,1
22699,0,52750,56683,51717.00,54908.27,717.91,1001.25,1033.00,1774.73,-2.789443,-2.516085,-0.315186,-0.316621,0.792952,89.84,1
22738,0,52758,56692,51719.08,54911.84,717.91,1001.25,1038.92,1780.16,-2.789484,-2.516150,-0.315041,-0.316499,0.792516,89.86,1
22779,0,52762,56684,51721.16,54915.39,717.91,1001.25,1040.84,1768.61,-2.789524,-2.516215,-0.314896,-0.316378,0.792079,89.87,1
22815,0,52766,56685,51723.25,54918.93,717.91,1001.25,1042.75,1766.07,-2.789565,-2.516279,-0.314751,-0.316256,0.791644,89.88,1
22866,0,52777,56702,51725.36,54922.50,717.91,1001.25,1051.64,1779.50,-2.789605,-2.516344,-0.314607,-0.316135,0.791210,89.89,1
22897,0,52787,56720,51727.49,54926.09,717.91,1001.25,1059.51,1793.91,-2.789646,-2.516410,-0.314463,-0.316015,0.790776,89.90,1
22939,0,52794,56720,51729.62,54929.68,717.91,1001.25,1064.38,1790.32,-2.789688,-2.516475,-0.314320,-0.315894,0.790344,89.91,1
22980,0,52801,56726,51731.77,54933.28,717.91,1001.25,1069.23,1792.72,-2.789729,-2.516541,-0.314176,-0.315774,0.789912,89.92,1
23020,0,52803,56740,51733.91,54936.89,717.91,1001.25,1069.09,1803.11,-2.789771,-2.516606,-0.314033,-0.315654,0.789481,89.93,1
23059,0,52816,56759,51736.07,54940.54,717.91,1001.25,1079.93,1818.46,-2.789812,-2.516673,-0.313891,-0.315535,0.789051,89.94,1
23100,0,52827,56781,51738.26,54944.22,717.91,1001.25,1088.74,1836.78,-2.789855,-2.516740,-0.313749,-0.315416,0.788622,89.95,1
23138,0,52838,56803,51740.46,54947.94,717.91,1001.25,1097.54,1855.06,-2.789897,-2.516807,-0.313607,-0.315298,0.788194,89.96,1
23179,0,52845,56819,51742.67,54951.68,717.91,1001.25,1102.33,1867.32,-2.789940,-2.516876,-0.313465,-0.315181,0.787767,89.97,1
23220,0,52858,56833,51744.90,54955.45,717.91,1001.25,1113.10,1877.55,-2.789983,-2.516944,-0.313324,-0.315065,0.787341,89.98,1
23260,0,52868,56852,51747.14,54959.24,717.91,1001.25,1120.86,1892.76,-2.790026,-2.517013,-0.313184,-0.314948,0.786915,89.99,1
23299,0,52875,56874,51749.40,54963.07,717.91,1001.25,1125.60,1910.93,-2.790070,-2.517083,-0.313044,-0.314833,0.786490,90.00,1
23339,0,52883,56900,51751.67,54966.95,717.91,1001.25,1131.33,1933.05,-2.790114,-2.517153,-0.312904,-0.314719,0.786066,90.01,1
23378,0,52894,56868,51753.96,54970.75,717.91,1001.25,1140.04,1897.25,-2.790158,-2.517222,-0.312764,-0.314603,0.785643,90.02,1
23420,0,52851,56719,51756.15,54974.25,717.91,1001.25,1094.85,1744.75,-2.790200,-2.517286,-0.312623,-0.314482,0.785221,90.03,1
23459,0,52802,56641,51758.25,54977.58,717.91,1001.25,1043.75,1663.42,-2.790241,-2.517347,-0.312480,-0.314357,0.784802,90.04,1
23499,0,52794,56636,51760.32,54980.90,717.91,1001.25,1033.68,1655.10,-2.790281,-2.517407,-0.312337,-0.314233,0.784384,90.05,1
23540,0,52806,56642,51762.41,54984.22,717.91,1001.25,1043.59,1657.78,-2.790321,-2.517467,-0.312194,-0.314109,0.783968,90.06,1
23580,0,52812,56637,51764.52,54987.53,717.91,1001.25,1047.48,1649.47,-2.790362,-2.517528,-0.312051,-0.313985,0.783554,90.07,1
23618,0,52816,56646,51766.62,54990.85,717.91,1001.25,1049.38,1655.15,-2.790403,-2.517588,-0.311909,-0.313861,0.783142,90.08,1
23659,0,52829,56678,51768.75,54994.23,717.91,1001.25,1060.25,1683.77,-2.790444,-2.517649,-0.311767,-0.313738,0.782732,90.09,1
23701,0,52849,56684,51770.91,54997.61,717.91,1001.25,1078.09,1686.39,-2.790485,-2.517711,-0.311626,-0.313615,0.782324,90.10,1
23742,0,52855,56693,51773.07,55001.00,717.91,1001.25,1081.93,1692.00,-2.790527,-2.517773,-0.311485,-0.313492,0.781918,90.12,1
23780,0,52859,56702,51775.25,55004.40,717.91,1001.25,1083.75,1697.60,-2.790569,-2.517834,-0.311344,-0.313370,0.781514,90.13,1
23820,0,52869,56727,51777.43,55007.85,717.91,1001.25,1091.57,1719.15,-2.790612,-2.517897,-0.311204,-0.313249,0.781112,90.14,1
23859,0,52886,56752,51779.65,55011.34,717.91,1001.25,1106.35,1740.66,-2.790654,-2.517961,-0.311064,-0.313128,0.780711,90.15,1
23902,0,52897,56780,51781.89,55014.87,717.91,1001.25,1115.11,1765.13,-2.790698,-2.518025,-0.310925,-0.313009,0.780313,90.16,1
23941,0,52912,56806,51784.15,55018.46,717.91,1001.25,1127.85,1787.54,-2.790741,-2.518090,-0.310786,-0.312890,0.779917,90.17,1
23981,0,52924,56819,51786.43,55022.06,717.91,1001.25,1137.57,1796.94,-2.790785,-2.518155,-0.310648,-0.312772,0.779522,90.18,1
24021,0,52933,56847,51788.72,55025.71,717.91,1001.25,1144.28,1821.29,-2.790829,-2.518222,-0.310510,-0.312655,0.779130,90.19,1
24061,0,52945,56877,51791.04,55029.41,717.91,1001.25,1153.96,1847.59,-2.790874,-2.518289,-0.310373,-0.312538,0.778738,90.20,1
24101,0,52961,56902,51793.37,55033.16,717.91,1001.25,1167.63,1868.84,-2.790919,-2.518357,-0.310236,-0.312423,0.778349,90.21,1
24142,0,52974,56928,51795.74,55036.95,717.91,1001.25,1178.26,1891.05,-2.790965,-2.518426,-0.310100,-0.312309,0.777961,90.22,1
24181,0,52988,56946,51798.12,55040.77,717.91,1001.25,1189.88,1905.23,-2.791011,-2.518496,-0.309964,-0.312195,0.777575,90.23,1
24223,0,52990,56896,51800.51,55044.48,717.91,1001.25,1189.49,1851.52,-2.791057,-2.518563,-0.309828,-0.312079,0.777191,90.24,1
24262,0,52935,56738,51802.78,55047.87,717.91,1001.25,1132.22,1690.13,-2.791101,-2.518624,-0.309690,-0.311957,0.776810,90.25,1
24302,0,52886,56675,51804.95,55051.12,717.91,1001.25,1081.05,1623.88,-2.791143,-2.518683,-0.309551,-0.311833,0.776431,90.26,1
24340,0,52886,56679,51807.11,55054.38,717.91,1001.25,1078.89,1624.62,-2.791184,-2.518743,-0.309411,-0.311710,0.776055,90.27,1
24381,0,52898,56680,51809.30,55057.64,717.91,1001.25,1088.70,1622.36,-2.791227,-2.518802,-0.309272,-0.311586,0.775681,90.28,1
24421,0,52900,56677,51811.48,55060.87,717.91,1001.25,1088.52,1616.13,-2.791269,-2.518861,-0.309133,-0.311462,0.775311,90.29,1
24461,0,52903,56687,51813.66,55064.13,717.91,1001.25,1089.34,1622.87,-2.791311,-2.518920,-0.308994,-0.311338,0.774942,90.30,1
24501,0,52924,56731,51815.89,55067.46,717.91,1001.25,1108.11,1663.54,-2.791354,-2.518980,-0.308856,-0.311216,0.774576,90.31,1
24541,0,52938,56749,51818.13,55070.83,717.91,1001.25,1119.87,1678.17,-2.791397,-2.519041,-0.308718,-0.311095,0.774213,90.32,1
24580,0,52944,56757,51820.39,55074.20,717.91,1001.25,1123.61,1682.80,-2.791441,-2.519103,-0.308581,-0.310974,0.773853,90.33,1
24620,0,52953,56772,51822.65,55077.60,717.91,1001.25,1130.35,1694.40,-2.791484,-2.519164,-0.308444,-0.310853,0.773494,90.34,1
24660,0,52961,56789,51824.93,55081.03,717.91,1001.25,1136.07,1707.97,-2.791528,-2.519227,-0.308307,-0.310733,0.773139,90.35,1
24701,0,52974,56819,51827.23,55084.50,717.91,1001.25,1146.77,1734.50,-2.791573,-2.519290,-0.308171,-0.310614,0.772785,90.36,1
24741,0,52980,56840,51829.54,55088.02,717.91,1001.25,1150.46,1751.98,-2.791617,-2.519353,-0.308035,-0.310495,0.772434,90.37,1
24781,0,52993,56863,51831.87,55091.57,717.91,1001.25,1161.13,1771.43,-2.791662,-2.519418,-0.307900,-0.310378,0.772086,90.38,1
24821,0,52998,56882,51834.20,55095.15,717.91,1001.25,1163.80,1786.85,-2.791707,-2.519483,-0.307765,-0.310261,0.771739,90.39,1
24862,0,53003,56890,51836.54,55098.74,717.91,1001.25,1166.46,1791.26,-2.791752,-2.519548,-0.307629,-0.310144,0.771394,90.40,1
24902,0,53007,56910,51838.88,55102.36,717.91,1001.25,1168.12,1807.64,-2.791798,-2.519614,-0.307495,-0.310028,0.771052,90.41,1
24966,0,53011,56928,51841.23,55106.02,717.91,1001.25,1169.77,1821.98,-2.791843,-2.519680,-0.307360,-0.309913,0.770711,90.42,1
24982,0,53021,56956,51843.59,55109.72,717.91,1001.25,1177.41,1846.28,-2.791888,-2.519747,-0.307225,-0.309798,0.770372,90.43,1
25022,0,53036,56987,51845.97,55113.48,717.91,1001.25,1190.03,1873.52,-2.791934,-2.519815,-0.307092,-0.309685,0.770034,90.44,1
25061,0,53045,57002,51848.37,55117.25,717.91,1001.25,1196.63,1884.75,-2.791981,-2.519884,-0.306958,-0.309572,0.769699,90.45,1
25102,0,53031,56882,51850.74,55120.79,717.91,1001.25,1180.26,1761.21,-2.792026,-2.519948,-0.306824,-0.309454,0.769365,90.46,1
25142,0,52964,56754,51852.96,55124.05,717.91,1001.25,1111.04,1629.95,-2.792069,-2.520007,-0.306688,-0.309332,0.769035,90.47,1
25182,0,52934,56734,51855.13,55127.28,717.91,1001.25,1078.87,1606.72,-2.792111,-2.520066,-0.306550,-0.309210,0.768706,90.48,1
25221,0,52936,56750,51857.29,55130.52,717.91,1001.25,1078.71,1619.48,-2.792153,-2.520125,-0.306412,-0.309087,0.768380,90.49,1
25262,0,52947,56759,51859.47,55133.78,717.91,1001.25,1087.53,1625.22,-2.792195,-2.520184,-0.306275,-0.308965,0.768056,90.50,1
25303,0,52956,56757,51861.67,55137.03,717.91,1001.25,1094.33,1619.97,-2.792237,-2.520243,-0.306138,-0.308843,0.767734,90.50,1
25341,0,52958,56777,51863.86,55140.31,717.91,1001.25,1094.14,1636.69,-2.792279,-2.520302,-0.306001,-0.308722,0.767415,90.51,1
25382,0,52975,56808,51866.09,55143.64,717.91,1001.25,1108.91,1664.36,-2.792322,-2.520363,-0.305865,-0.308601,0.767098,90.52,1
25422,0,52989,56824,51868.33,55147.01,717.91,1001.25,1120.67,1676.99,-2.792366,-2.520424,-0.305730,-0.308482,0.766783,90.53,1
25461,0,52993,56835,51870.58,55150.39,717.91,1001.25,1122.42,1684.61,-2.792409,-2.520485,-0.305594,-0.308362,0.766470,90.54,1
25502,0,53000,56853,51872.84,55153.79,717.91,1001.25,1127.16,1699.21,-2.792452,-2.520547,-0.305459,-0.308244,0.766160,90.55,1
25541,0,53005,56868,51875.11,55157.22,717.91,1001.25,1129.89,1710.78,-2.792496,-2.520609,-0.305324,-0.308125,0.765851,90.56,1
25582,0,53012,56888,51877.38,55160.69,717.91,1001.25,1134.62,1727.31,-2.792540,-2.520672,-0.305190,-0.308008,0.765545,90.57,1
25621,0,53024,56914,51879.68,55164.20,717.91,1001.25,1144.32,1749.80,-2.792584,-2.520735,-0.305055,-0.307891,0.765240,90.58,1
25662,0,53034,56929,51881.98,55167.73,717.91,1001.25,1152.02,1761.27,-2.792629,-2.520799,-0.304922,-0.307775,0.764937,90.59,1
25701,0,53038,56943,51884.30,55171.28,717.91,1001.25,1153.70,1771.72,-2.792673,-2.520864,-0.304788,-0.307659,0.764636,90.60,1
25742,0,53042,56965,51886.61,55174.87,717.91,1001.25,1155.39,1790.13,-2.792718,-2.520929,-0.304654,-0.307544,0.764336,90.60,1
25783,0,53051,56982,51888.95,55178.48,717.91,1001.25,1162.05,1803.52,-2.792763,-2.520994,-0.304521,-0.307429,0.764038,90.61,1
25823,0,53057,57000,51891.28,55182.13,717.91,1001.25,1165.72,1817.87,-2.792808,-2.521060,-0.304388,-0.307315,0.763741,90.62,1
25863,0,53062,57027,51893.62,55185.82,717.91,1001.25,1168.38,1841.18,-2.792853,-2.521127,-0.304256,-0.307202,0.763446,90.63,1
25903,0,53072,57044,51895.98,55189.54,717.91,1001.25,1176.02,1854.46,-2.792898,-2.521195,-0.304123,-0.307090,0.763152,90.64,1
25942,0,53078,57051,51898.35,55193.26,717.91,1001.25,1179.65,1857.74,-2.792944,-2.521262,-0.303991,-0.306978,0.762859,90.65,1
25983,0,53056,56928,51900.67,55196.73,717.91,1001.25,1155.33,1731.27,-2.792989,-2.521325,-0.303858,-0.306861,0.762568,90.66,1
26023,0,52987,56785,51902.84,55199.91,717.91,1001.25,1084.16,1585.09,-2.793031,-2.521383,-0.303722,-0.306739,0.762279,90.67,1
26063,0,52957,56758,51904.95,55203.03,717.91,1001.25,1052.05,1554.97,-2.793071,-2.521439,-0.303586,-0.306616,0.761993,90.67,1
26103,0,52958,56775,51907.06,55206.18,717.91,1001.25,1050.94,1568.82,-2.793112,-2.521496,-0.303449,-0.306493,0.761709,90.68,1
26143,0,52967,56773,51909.18,55209.31,717.91,1001.25,1057.82,1563.69,-2.793153,-2.521553,-0.303313,-0.306371,0.761426,90.69,1
26182,0,52967,56772,51911.30,55212.44,717.91,1001.25,1055.70,1559.56,-2.793194,-2.521610,-0.303176,-0.306248,0.761146,90.70,1
26223,0,52974,56794,51913.43,55215.60,717.91,1001.25,1060.57,1578.40,-2.793234,-2.521667,-0.303040,-0.306126,0.760868,90.71,1
26263,0,52986,56814,51915.57,55218.80,717.91,1001.25,1070.43,1595.20,-2.793276,-2.521725,-0.302905,-0.306005,0.760591,90.72,1
26303,0,52995,56820,51917.73,55222.00,717.91,1001.25,1077.27,1598.00,-2.793318,-2.521783,-0.302769,-0.305884,0.760317,90.72,1
26343,0,52997,56825,51919.89,55225.21,717.91,1001.25,1077.11,1599.79,-2.793359,-2.521841,-0.302634,-0.305763,0.760045,90.73,1
26383,0,53001,56836,51922.06,55228.43,717.91,1001.25,1078.94,1607.57,-2.793401,-2.521899,-0.302499,-0.305643,0.759774,90.74,1
26422,0,53005,56859,51924.23,55231.70,717.91,1001.25,1080.77,1627.30,-2.793442,-2.521958,-0.302364,-0.305523,0.759506,90.75,1
26463,0,53016,56877,51926.41,55234.99,717.91,1001.25,1089.59,1642.01,-2.793484,-2.522018,-0.302230,-0.305404,0.759239,90.76,1
26502,0,53022,56900,51928.60,55238.32,717.91,1001.25,1093.40,1661.68,-2.793527,-2.522078,-0.302096,-0.305286,0.758974,90.77,1
26542,0,53031,56907,51930.81,55241.66,717.91,1001.25,1100.19,1665.34,-2.793569,-2.522139,-0.301962,-0.305168,0.758710,90.77,1
26582,0,53038,56927,51933.02,55245.03,717.91,1001.25,1104.98,1681.97,-2.793612,-2.522200,-0.301828,-0.305050,0.758448,90.78,1
26622,0,53045,56937,51935.25,55248.42,717.91,1001.25,1109.75,1688.58,-2.793655,-2.522261,-0.301695,-0.304933,0.758188,90.79,1
26662,0,53042,56953,51937.46,55251.83,717.91,1001.25,1104.54,1701.17,-2.793697,-2.522323,-0.301561,-0.304817,0.757928,90.80,1
26703,0,53051,56963,51939.69,55255.25,717.91,1001.25,1111.31,1707.75,-2.793740,-2.522385,-0.301428,-0.304701,0.757671,90.80,1
26744,0,53050,56987,51941.91,55258.71,717.91,1001.25,1108.09,1728.29,-2.793783,-2.522447,-0.301295,-0.304585,0.757414,90.81,1
26783,0,53062,57000,51944.16,55262.20,717.91,1001.25,1117.84,1737.80,-2.793826,-2.522510,-0.301163,-0.304470,0.757159,90.82,1
26823,0,53062,56923,51946.39,55265.52,717.91,1001.25,1115.61,1657.48,-2.793869,-2.522570,-0.301030,-0.304352,0.756905,90.83,1
26864,0,52990,56761,51948.48,55268.52,717.91,1001.25,1041.52,1492.48,-2.793910,-2.522624,-0.300895,-0.304229,0.756654,90.84,1
26904,0,52946,56713,51950.48,55271.41,717.91,1001.25,995.52,1441.59,-2.793948,-2.522677,-0.300757,-0.304103,0.756405,90.84,1
26943,0,52943,56726,51952.47,55274.32,717.91,1001.25,990.53,1451.68,-2.793986,-2.522730,-0.300620,-0.303978,0.756157,90.85,1
26984,0,52959,56742,51954.48,55277.25,717.91,1001.25,1004.52,1464.75,-2.794025,-2.522783,-0.300484,-0.303854,0.755912,90.86,1
27023,0,52966,56740,51956.51,55280.18,717.91,1001.25,1009.49,1459.82,-2.794064,-2.522835,-0.300347,-0.303729,0.755669,90.87,1
27091,0,52970,56762,51958.54,55283.14,717.91,1001.25,1011.46,1478.86,-2.794103,-2.522889,-0.300211,-0.303605,0.755427,90.87,1
27109,0,52979,56783,51960.58,55286.14,717.91,1001.25,1018.42,1496.86,-2.794142,-2.522943,-0.300076,-0.303482,0.755188,90.88,1
27145,0,52987,56788,51962.63,55289.15,717.91,1001.25,1024.37,1498.85,-2.794182,-2.522998,-0.299940,-0.303359,0.754950,90.89,1
27184,0,52994,56799,51964.70,55292.17,717.91,1001.25,1029.30,1506.83,-2.794222,-2.523052,-0.299805,-0.303237,0.754714,90.90,1
27224,0,53006,56819,51966.78,55295.22,717.91,1001.25,1039.22,1523.78,-2.794262,-2.523108,-0.299670,-0.303115,0.754480,90.90,1
27265,0,53014,56837,51968.87,55298.31,717.91,1001.25,1045.13,1538.69,-2.794302,-2.523164,-0.299536,-0.302994,0.754248,90.91,1
27301,0,53022,56862,51970.98,55301.44,717.91,1001.25,1051.02,1560.56,-2.794343,-2.523220,-0.299402,-0.302873,0.754018,90.92,1
27343,0,53032,56882,51973.11,55304.60,717.91,1001.25,1058.89,1577.40,-2.794384,-2.523277,-0.299268,-0.302754,0.753789,90.92,1
27385,0,53039,56910,51975.24,55307.81,717.91,1001.25,1063.76,1602.19,-2.794425,-2.523335,-0.299135,-0.302635,0.753562,90.93,1
27425,0,53053,56920,51977.40,55311.04,717.91,1001.25,1075.60,1608.96,-2.794466,-2.523394,-0.299002,-0.302517,0.753336,90.94,1
27464,0,53055,56932,51979.55,55314.28,717.91,1001.25,1075.45,1617.72,-2.794508,-2.523452,-0.298869,-0.302399,0.753112,90.95,1
27505,0,53064,56955,51981.73,55317.56,717.91,1001.25,1082.27,1637.44,-2.794549,-2.523512,-0.298737,-0.302281,0.752889,90.95,1
27544,0,53069,56976,51983.90,55320.88,717.91,1001.25,1085.10,1655.12,-2.794591,-2.523571,-0.298605,-0.302165,0.752667,90.96,1
27584,0,53075,56993,51986.09,55324.22,717.91,1001.25,1088.91,1668.78,-2.794633,-2.523632,-0.298473,-0.302049,0.752446,90.97,1
27624,0,53073,56897,51988.26,55327.37,717.91,1001.25,1084.74,1569.63,-2.794675,-2.523689,-0.298341,-0.301930,0.752228,90.97,1
27667,0,52998,56723,51990.28,55330.16,717.91,1001.25,1007.72,1392.84,-2.794714,-2.523739,-0.298206,-0.301804,0.752012,90.98,1
27706,0,52943,56648,51992.19,55332.80,717.91,1001.25,950.81,1315.20,-2.794750,-2.523787,-0.298069,-0.301675,0.751798,90.99,1
27744,0,52936,56650,51994.08,55335.44,717.91,1001.25,941.92,1314.56,-2.794787,-2.523835,-0.297931,-0.301547,0.751587,90.99,1
27785,0,52938,56653,51995.97,55338.07,717.91,1001.25,942.03,1314.93,-2.794823,-2.523882,-0.297794,-0.301418,0.751377,91.00,1
27826,0,52942,56646,51997.86,55340.69,717.91,1001.25,944.14,1305.31,-2.794860,-2.523930,-0.297657,-0.301290,0.751170,91.01,1
27865,0,52947,56663,51999.76,55343.34,717.91,1001.25,947.24,1319.66,-2.794896,-2.523978,-0.297521,-0.301162,0.750965,91.01,1
27906,0,52957,56693,52001.68,55346.04,717.91,1001.25,955.32,1346.96,-2.794933,-2.524026,-0.297384,-0.301035,0.750762,91.02,1
27945,0,52974,56702,52003.62,55348.75,717.91,1001.25,970.38,1353.25,-2.794971,-2.524075,-0.297248,-0.300908,0.750561,91.03,1
27985,0,52980,56717,52005.57,55351.49,717.91,1001.25,974.43,1365.51,-2.795008,-2.524125,-0.297113,-0.300782,0.750363,91.03,1
28025,0,52988,56734,52007.54,55354.25,717.91,1001.25,980.46,1379.75,-2.795046,-2.524175,-0.296978,-0.300657,0.750166,91.04,1
28067,0,52993,56761,52009.51,55357.07,717.91,1001.25,983.49,1403.93,-2.795084,-2.524226,-0.296843,-0.300532,0.749971,91.05,1
28105,0,53007,56787,52011.51,55359.93,717.91,1001.25,995.49,1427.07,-2.795122,-2.524277,-0.296708,-0.300409,0.749778,91.05,1
28146,0,53016,56812,52013.52,55362.84,717.91,1001.25,1002.48,1449.16,-2.795161,-2.524330,-0.296574,-0.300286,0.749587,91.06,1
28186,0,53029,56833,52015.55,55365.78,717.91,1001.25,1013.45,1467.22,-2.795200,-2.524383,-0.296441,-0.300164,0.749398,91.06,1
28225,0,53043,56850,52017.61,55368.75,717.91,1001.25,1025.39,1481.25,-2.795239,-2.524436,-0.296308,-0.300043,0.749210,91.07,1
28265,0,53048,56874,52019.67,55371.76,717.91,1001.25,1028.33,1502.24,-2.795279,-2.524491,-0.296175,-0.299922,0.749024,91.08,1
28305,0,53058,56897,52021.75,55374.81,717.91,1001.25,1036.25,1522.19,-2.795319,-2.524546,-0.296043,-0.299802,0.748840,91.08,1
28345,0,53062,56914,52023.83,55377.89,717.91,1001.25,1038.17,1536.11,-2.795359,-2.524601,-0.295910,-0.299683,0.748657,91.09,1
28385,0,53073,56937,52025.93,55381.01,717.91,1001.25,1047.07,1555.99,-2.795399,-2.524658,-0.295779,-0.299565,0.748475,91.09,1
28425,0,53078,56923,52028.04,55384.09,717.91,1001.25,1049.96,1538.91,-2.795440,-2.524714,-0.295647,-0.299446,0.748295,91.10,1
28465,0,53039,56730,52030.06,55386.79,717.91,1001.25,1008.94,1343.21,-2.795479,-2.524762,-0.295514,-0.299320,0.748117,91.11,1
28504,0,52953,56574,52031.91,55389.16,717.91,1001.25,921.09,1184.84,-2.795514,-2.524805,-0.295377,-0.299188,0.747943,91.11,1
28545,0,52918,56546,52033.68,55391.48,717.91,1001.25,884.32,1154.52,-2.795548,-2.524847,-0.295240,-0.299056,0.747771,91.12,1
28585,0,52919,56548,52035.45,55393.79,717.91,1001.25,883.55,1154.21,-2.795582,-2.524889,-0.295102,-0.298923,0.747601,91.12,1
28625,0,52922,56537,52037.23,55396.08,717.91,1001.25,884.77,1140.92,-2.795616,-2.524930,-0.294965,-0.298790,0.747434,91.13,1
28667,0,52918,56527,52038.99,55398.34,717.91,1001.25,879.01,1128.66,-2.795650,-2.524971,-0.294827,-0.298657,0.747269,91.14,1
28706,0,52922,56553,52040.75,55400.66,717.91,1001.25,881.25,1152.34,-2.795684,-2.525012,-0.294689,-0.298525,0.747107,91.14,1
28746,0,52936,56575,52042.55,55403.01,717.91,1001.25,893.45,1171.99,-2.795719,-2.525055,-0.294553,-0.298393,0.746947,91.15,1
28786,0,52946,56586,52044.36,55405.37,717.91,1001.25,901.64,1180.63,-2.795753,-2.525098,-0.294416,-0.298262,0.746790,91.15,1
28826,0,52950,56602,52046.17,55407.77,717.91,1001.25,903.83,1194.23,-2.795788,-2.525141,-0.294280,-0.298132,0.746635,91.16,1
28866,0,52962,56625,52048.00,55410.21,717.91,1001.25,914.00,1214.79,-2.795823,-2.525185,-0.294144,-0.298002,0.746483,91.16,1
28906,0,52968,56639,52049.84,55412.67,717.91,1001.25,918.16,1226.33,-2.795859,-2.525229,-0.294008,-0.297873,0.746332,91.17,1
28946,0,52978,56665,52051.70,55415.18,717.91,1001.25,926.30,1249.82,-2.795894,-2.525275,-0.293873,-0.297745,0.746184,91.17,1
28987,0,52986,56693,52053.57,55417.73,717.91,1001.25,932.43,1275.27,-2.795930,-2.525321,-0.293738,-0.297617,0.746038,91.18,1
29026,0,52996,56716,52055.46,55420.33,717.91,1001.25,940.54,1295.67,-2.795967,-2.525368,-0.293604,-0.297491,0.745894,91.18,1
29066,0,53004,56737,52057.36,55422.97,717.91,1001.25,946.64,1314.03,-2.796003,-2.525415,-0.293470,-0.297365,0.745752,91.19,1
29107,0,53014,56756,52059.27,55425.64,717.91,1001.25,954.73,1330.36,-2.796040,-2.525463,-0.293336,-0.297240,0.745611,91.19,1
29146,0,53023,56772,52061.20,55428.33,717.91,1001.25,961.80,1343.67,-2.796077,-2.525512,-0.293202,-0.297116,0.745473,91.20,1
29187,0,53031,56792,52063.14,55431.06,717.91,1001.25,967.86,1360.94,-2.796114,-2.525561,-0.293069,-0.296992,0.745336,91.20,1
29226,0,53034,56815,52065.08,55433.83,717.91,1001.25,968.92,1381.17,-2.796152,-2.525611,-0.292937,-0.296869,0.745200,91.21,1
29267,0,53042,56827,52067.04,55436.62,717.91,1001.25,974.96,1390.38,-2.796189,-2.525661,-0.292804,-0.296747,0.745066,91.21,1
29304,0,53029,56685,52068.96,55439.12,717.91,1001.25,960.04,1245.88,-2.796226,-2.525707,-0.292671,-0.296619,0.744935,91.22,1
29345,0,52936,56471,52070.70,55441.19,717.91,1001.25,865.30,1029.81,-2.796259,-2.525744,-0.292534,-0.296484,0.744807,91.22,1
29386,0,52886,56408,52072.33,55443.12,717.91,1001.25,813.67,964.88,-2.796291,-2.525779,-0.292396,-0.296346,0.744681,91.23,1
29425,0,52881,56413,52073.95,55445.06,717.91,1001.25,807.05,967.94,-2.796322,-2.525814,-0.292257,-0.296209,0.744559,91.23,1
29465,0,52893,56413,52075.59,55447.00,717.91,1001.25,817.41,966.00,-2.796353,-2.525849,-0.292119,-0.296071,0.744439,91.24,1
29506,0,52882,56398,52077.20,55448.90,717.91,1001.25,804.80,949.10,-2.796384,-2.525883,-0.291980,-0.295933,0.744322,91.24,1
29546,0,52889,56418,52078.83,55450.84,717.91,1001.25,810.17,967.16,-2.796416,-2.525918,-0.291842,-0.295796,0.744207,91.25,1
29587,0,52909,56448,52080.49,55452.84,717.91,1001.25,828.51,995.16,-2.796448,-2.525954,-0.291704,-0.295660,0.744096,91.25,1
29626,0,52917,56464,52082.16,55454.86,717.91,1001.25,834.84,1009.14,-2.796479,-2.525990,-0.291567,-0.295525,0.743987,91.26,1
29667,0,52923,56474,52083.85,55456.90,717.91,1001.25,839.15,1017.10,-2.796512,-2.526027,-0.291430,-0.295389,0.743881,91.26,1
29707,0,52933,56491,52085.55,55458.97,717.91,1001.25,847.45,1032.03,-2.796545,-2.526065,-0.291294,-0.295255,0.743777,91.27,1
29747,0,52940,56515,52087.26,55461.09,717.91,1001.25,852.74,1053.91,-2.796577,-2.526103,-0.291157,-0.295121,0.743676,91.27,1
29787,0,52952,56539,52088.99,55463.24,717.91,1001.25,863.01,1075.76,-2.796611,-2.526142,-0.291022,-0.294989,0.743578,91.27,1
29827,0,52965,56560,52090.74,55465.44,717.91,1001.25,874.26,1094.56,-2.796644,-2.526181,-0.290886,-0.294857,0.743482,91.28,1
29866,0,52977,56594,52092.52,55467.70,717.91,1001.25,884.48,1126.30,-2.796678,-2.526222,-0.290752,-0.294726,0.743389,91.28,1
29907,0,52986,56624,52094.30,55470.01,717.91,1001.25,891.70,1153.99,-2.796713,-2.526264,-0.290617,-0.294596,0.743298,91.29,1
29947,0,52997,56646,52096.11,55472.36,717.91,1001.25,900.89,1173.64,-2.796747,-2.526306,-0.290483,-0.294467,0.743209,91.29,1
29987,0,53009,56664,52097.94,55474.74,717.91,1001.25,911.06,1189.26,-2.796782,-2.526349,-0.290350,-0.294339,0.743123,91.29,1
30027,0,53017,56680,52099.78,55477.15,717.91,1001.25,917.22,1202.85,-2.796818,-2.526392,-0.290217,-0.294211,0.743039,91.30,1
30067,0,53022,56698,52101.63,55479.59,717.91,1001.25,920.37,1218.41,-2.796853,-2.526437,-0.290084,-0.294084,0.742956,91.30,1
30108,0,53032,56719,52103.49,55482.07,717.91,1001.25,928.51,1236.93,-2.796889,-2.526481,-0.289951,-0.293958,0.742876,91.31,1
30147,0,53032,56611,52105.35,55484.33,717.91,1001.25,926.65,1126.67,-2.796925,-2.526522,-0.289819,-0.293828,0.742799,91.31,1
30187,0,52946,56403,52107.04,55486.17,717.91,1001.25,838.96,916.83,-2.796957,-2.526555,-0.289683,-0.293690,0.742725,91.31,1
30227,0,52881,56321,52108.59,55487.84,717.91,1001.25,772.41,833.16,-2.796987,-2.526585,-0.289545,-0.293550,0.742655,91.32,1
30266,0,52872,56329,52110.11,55489.53,717.91,1001.25,761.89,839.47,-2.797016,-2.526615,-0.289406,-0.293410,0.742587,91.32,1
30307,0,52886,56334,52111.67,55491.22,717.91,1001.25,774.33,842.78,-2.797046,-2.526646,-0.289268,-0.293270,0.742522,91.32,1
30347,0,52892,56334,52113.23,55492.91,717.91,1001.25,778.77,841.09,-2.797076,-2.526676,-0.289131,-0.293130,0.742461,91.33,1
30387,0,52892,56346,52114.79,55494.61,717.91,1001.25,777.21,851.39,-2.797106,-2.526707,-0.288993,-0.292990,0.742402,91.33,1
30427,0,52900,56367,52116.36,55496.36,717.91,1001.25,783.64,870.64,-2.797136,-2.526739,-0.288856,-0.292851,0.742347,91.33,1
30467,0,52903,56374,52117.93,55498.12,717.91,1001.25,785.07,875.88,-2.797166,-2.526770,-0.288718,-0.292713,0.742294,91.34,1
30508,0,52905,56384,52119.51,55499.89,717.91,1001.25,785.49,884.11,-2.797196,-2.526802,-0.288581,-0.292575,0.742244,91.34,1
30548,0,52915,56399,52121.10,55501.69,717.91,1001.25,793.90,897.31,-2.797227,-2.526835,-0.288445,-0.292437,0.742198,91.34,1
30587,0,52926,56431,52122.71,55503.55,717.91,1001.25,803.29,927.45,-2.797258,-2.526868,-0.288308,-0.292301,0.742154,91.35,1
30628,0,52933,56455,52124.33,55505.46,717.91,1001.25,808.67,949.54,-2.797289,-2.526902,-0.288172,-0.292166,0.742112,91.35,1
30668,0,52944,56491,52125.97,55507.43,717.91,1001.25,818.03,983.57,-2.797320,-2.526938,-0.288037,-0.292032,0.742073,91.35,1
30707,0,52957,56512,52127.64,55509.44,717.91,1001.25,829.36,1002.56,-2.797352,-2.526974,-0.287902,-0.291898,0.742037,91.36,1
30747,0,52967,56541,52129.32,55511.51,717.91,1001.25,837.68,1029.49,-2.797385,-2.527012,-0.287767,-0.291766,0.742003,91.36,1
30788,0,52982,56557,52131.02,55513.60,717.91,1001.25,850.98,1043.40,-2.797417,-2.527049,-0.287633,-0.291634,0.741971,91.36,1
30827,0,52988,56585,52132.74,55515.75,717.91,1001.25,855.26,1069.25,-2.797450,-2.527088,-0.287500,-0.291504,0.741942,91.36,1
30868,0,52994,56616,52134.46,55517.95,717.91,1001.25,859.54,1098.05,-2.797483,-2.527128,-0.287366,-0.291374,0.741914,91.37,1
30908,0,53004,56546,52136.20,55520.01,717.91,1001.25,867.80,1025.99,-2.797517,-2.527165,-0.287233,-0.291242,0.741890,91.37,1
30947,0,52933,56336,52137.80,55521.64,717.91,1001.25,795.20,814.36,-2.797547,-2.527194,-0.287097,-0.291102,0.741869,91.37,1
30988,0,52863,56236,52139.25,55523.07,717.91,1001.25,723.75,712.93,-2.797575,-2.527220,-0.286959,-0.290959,0.741851,91.37,1
31027,0,52851,56241,52140.68,55524.51,717.91,1001.25,710.32,716.49,-2.797602,-2.527246,-0.286820,-0.290816,0.741836,91.38,1
31068,0,52863,56253,52142.12,55525.96,717.91,1001.25,720.88,727.04,-2.797630,-2.527272,-0.286682,-0.290674,0.741824,91.38,1
31107,0,52864,56253,52143.57,55527.42,717.91,1001.25,720.43,725.58,-2.797658,-2.527298,-0.286543,-0.290531,0.741816,91.38,1
31148,0,52862,56263,52145.00,55528.89,717.91,1001.25,717.00,734.11,-2.797685,-2.527325,-0.286405,-0.290389,0.741810,91.38,1
31188,0,52879,56300,52146.47,55530.44,717.91,1001.25,732.53,769.56,-2.797714,-2.527353,-0.286268,-0.290249,0.741807,91.39,1
31227,0,52892,56311,52147.96,55532.00,717.91,1001.25,744.04,779.00,-2.797742,-2.527381,-0.286130,-0.290109,0.741808,91.39,1
31268,0,52894,56326,52149.46,55533.59,717.91,1001.25,744.54,792.41,-2.797771,-2.527409,-0.285993,-0.289969,0.741811,91.39,1
31307,0,52901,56344,52150.96,55535.21,717.91,1001.25,750.04,808.79,-2.797800,-2.527438,-0.285857,-0.289830,0.741817,91.39,1
31347,0,52907,56375,52152.47,55536.89,717.91,1001.25,754.53,838.11,-2.797829,-2.527469,-0.285720,-0.289692,0.741825,91.39,1
31442,0,52918,56401,52154.00,55538.62,717.91,1001.25,764.00,862.38,-2.797858,-2.527500,-0.285584,-0.289555,0.741837,91.40,1
31451,0,52934,56438,52155.57,55540.42,717.91,1001.25,778.43,897.58,-2.797888,-2.527532,-0.285449,-0.289420,0.741850,91.40,1
31469,0,52947,56463,52157.15,55542.27,717.91,1001.25,789.85,920.73,-2.797918,-2.527565,-0.285314,-0.289285,0.741867,91.40,1
31508,0,52949,56486,52158.74,55544.16,717.91,1001.25,790.26,941.84,-2.797949,-2.527600,-0.285180,-0.289151,0.741885,91.40,1
31549,0,52967,56513,52160.36,55546.10,717.91,1001.25,806.64,966.90,-2.797980,-2.527634,-0.285046,-0.289019,0.741906,91.40,1
31588,0,52975,56536,52161.98,55548.08,717.91,1001.25,813.02,987.92,-2.798011,-2.527670,-0.284912,-0.288887,0.741929,91.40,1
31628,0,52980,56560,52163.62,55550.10,717.91,1001.25,816.38,1009.90,-2.798043,-2.527707,-0.284779,-0.288756,0.741953,91.40,1
31669,0,52994,56581,52165.28,55552.16,717.91,1001.25,828.72,1028.84,-2.798074,-2.527744,-0.284646,-0.288626,0.741980,91.41,1
31708,0,52991,56444,52166.93,55553.95,717.91,1001.25,824.07,890.05,-2.798106,-2.527776,-0.284513,-0.288490,0.742010,91.41,1
31748,0,52898,56243,52168.40,55555.33,717.91,1001.25,729.60,687.67,-2.798134,-2.527801,-0.284376,-0.288348,0.742043,91.41,1
31789,0,52844,56181,52169.75,55556.58,717.91,1001.25,674.25,624.42,-2.798160,-2.527823,-0.284238,-0.288203,0.742080,91.41,1
31829,0,52837,56197,52171.09,55557.86,717.91,1001.25,665.91,639.14,-2.798186,-2.527846,-0.284099,-0.288060,0.742120,91.41,1
31869,0,52844,56199,52172.43,55559.15,717.91,1001.25,671.57,639.85,-2.798211,-2.527869,-0.283961,-0.287916,0.742162,91.41,1
31908,0,52850,56187,52173.79,55560.41,717.91,1001.25,676.21,626.59,-2.798237,-2.527892,-0.283822,-0.287772,0.742208,91.41,1
31948,0,52857,56220,52175.16,55561.73,717.91,1001.25,681.84,658.27,-2.798264,-2.527916,-0.283684,-0.287629,0.742257,91.41,1
31988,0,52880,56264,52176.57,55563.13,717.91,1001.25,703.43,700.87,-2.798290,-2.527941,-0.283548,-0.287487,0.742308,91.41,1
32029,0,52896,56286,52178.01,55564.58,717.91,1001.25,717.99,721.42,-2.798318,-2.527967,-0.283411,-0.287347,0.742363,91.42,1
32070,0,52900,56301,52179.45,55566.05,717.91,1001.25,720.55,734.95,-2.798346,-2.527994,-0.283275,-0.287207,0.742421,91.42,1
32109,0,52904,56317,52180.90,55567.55,717.91,1001.25,723.10,749.45,-2.798374,-2.528021,-0.283139,-0.287068,0.742481,91.42,1
32148,0,52909,56339,52182.36,55569.10,717.91,1001.25,726.64,769.90,-2.798402,-2.528049,-0.283003,-0.286929,0.742545,91.42,1
32188,0,52922,56362,52183.84,55570.68,717.91,1001.25,738.16,791.32,-2.798430,-2.528077,-0.282868,-0.286792,0.742611,91.42,1
32228,0,52937,56400,52185.35,55572.34,717.91,1001.25,751.65,827.66,-2.798459,-2.528107,-0.282734,-0.286655,0.742680,91.42,1
32269,0,52951,56428,52186.88,55574.05,717.91,1001.25,764.12,853.95,-2.798488,-2.528138,-0.282600,-0.286520,0.742751,91.42,1
32308,0,52961,56457,52188.43,55575.82,717.91,1001.25,772.57,881.18,-2.798518,-2.528169,-0.282466,-0.286386,0.742824,91.42,1
32348,0,52966,56477,52189.98,55577.62,717.91,1001.25,776.02,899.37,-2.798548,-2.528202,-0.282333,-0.286253,0.742900,91.42,1
32389,0,52972,56501,52191.55,55579.47,717.91,1001.25,780.45,921.53,-2.798578,-2.528235,-0.282200,-0.286120,0.742978,91.42,1
32429,0,52985,56523,52193.14,55581.36,717.91,1001.25,791.86,941.64,-2.798608,-2.528269,-0.282067,-0.285989,0.743058,91.42,1
32470,0,52990,56539,52194.73,55583.28,717.91,1001.25,795.27,955.72,-2.798639,-2.528304,-0.281935,-0.285858,0.743140,91.42,1
32510,0,52990,56468,52196.33,55585.05,717.91,1001.25,793.67,882.95,-2.798669,-2.528335,-0.281803,-0.285724,0.743225,91.42,1
32549,0,52908,56244,52197.75,55586.37,717.91,1001.25,710.25,657.63,-2.798697,-2.528359,-0.281667,-0.285583,0.743313,91.42,1
32590,0,52838,56137,52199.04,55587.47,717.91,1001.25,638.96,549.53,-2.798721,-2.528379,-0.281529,-0.285437,0.743404,91.42,1
32630,0,52823,56138,52200.29,55588.57,717.91,1001.25,622.71,549.43,-2.798745,-2.528399,-0.281390,-0.285292,0.743498,91.42,1
32671,0,52833,56154,52201.55,55589.70,717.91,1001.25,631.45,564.30,-2.798769,-2.528419,-0.281252,-0.285147,0.743595,91.42,1
32710,0,52838,56148,52202.82,55590.82,717.91,1001.25,635.18,557.18,-2.798794,-2.528439,-0.281114,-0.285002,0.743695,91.42,1
32750,0,52830,56152,52204.08,55591.95,717.91,1001.25,625.92,560.05,-2.798818,-2.528460,-0.280976,-0.284858,0.743798,91.42,1
32789,0,52841,56193,52205.35,55593.15,717.91,1001.25,635.65,599.85,-2.798842,-2.528481,-0.280838,-0.284714,0.743904,91.42,1
32830,0,52857,56224,52206.66,55594.41,717.91,1001.25,650.34,629.59,-2.798867,-2.528504,-0.280701,-0.284573,0.744012,91.42,1
32870,0,52870,56242,52207.98,55595.71,717.91,1001.25,662.02,646.29,-2.798892,-2.528527,-0.280564,-0.284431,0.744123,91.42,1
32909,0,52875,56256,52209.32,55597.03,717.91,1001.25,665.68,658.97,-2.798918,-2.528551,-0.280428,-0.284291,0.744237,91.42,1
32949,0,52885,56276,52210.67,55598.39,717.91,1001.25,674.33,677.61,-2.798944,-2.528575,-0.280292,-0.284151,0.744354,91.42,1
32990,0,52892,56297,52212.04,55599.79,717.91,1001.25,679.96,697.21,-2.798970,-2.528600,-0.280157,-0.284011,0.744473,91.41,1
33029,0,52903,56331,52213.42,55601.25,717.91,1001.25,689.58,729.75,-2.798997,-2.528627,-0.280021,-0.283874,0.744594,91.41,1
33069,0,52915,56365,52214.82,55602.78,717.91,1001.25,700.18,762.22,-2.799023,-2.528654,-0.279887,-0.283737,0.744718,91.41,1
33109,0,52922,56385,52216.24,55604.34,717.91,1001.25,705.76,780.66,-2.799051,-2.528682,-0.279752,-0.283601,0.744844,91.41,1
33149,0,52930,56406,52217.67,55605.95,717.91,1001.25,712.33,800.05,-2.799078,-2.528711,-0.279618,-0.283466,0.744971,91.41,1
33189,0,52936,56417,52219.11,55607.57,717.91,1001.25,716.89,809.43,-2.799105,-2.528741,-0.279485,-0.283331,0.745101,91.41,1
33229,0,52936,56435,52220.54,55609.23,717.91,1001.25,715.46,825.77,-2.799133,-2.528770,-0.279351,-0.283197,0.745233,91.41,1
33269,0,52943,56418,52221.98,55610.85,717.91,1001.25,721.02,807.15,-2.799161,-2.528800,-0.279217,-0.283063,0.745366,91.41,1
33310,0,52892,56208,52223.32,55612.04,717.91,1001.25,668.68,595.96,-2.799186,-2.528821,-0.279082,-0.282921,0.745503,91.41,1
33351,0,52802,56067,52224.48,55612.95,717.91,1001.25,577.52,454.05,-2.799208,-2.528837,-0.278943,-0.282774,0.745643,91.40,1
33390,0,52775,56048,52225.59,55613.82,717.91,1001.25,549.41,434.18,-2.799230,-2.528853,-0.278803,-0.282626,0.745785,91.40,1
33430,0,52777,56071,52226.69,55614.74,717.91,1001.25,550.31,456.26,-2.799251,-2.528869,-0.278664,-0.282479,0.745930,91.40,1
33470,0,52786,56073,52227.81,55615.66,717.91,1001.25,558.19,457.34,-2.799272,-2.528886,-0.278525,-0.282332,0.746078,91.40,1
33509,0,52785,56099,52228.93,55616.62,717.91,1001.25,556.07,482.37,-2.799294,-2.528903,-0.278386,-0.282187,0.746228,91.40,1
33547,0,52803,56140,52230.08,55617.67,717.91,1001.25,572.92,522.33,-2.799315,-2.528922,-0.278247,-0.282043,0.746380,91.40,1
33593,0,52811,56156,52231.24,55618.75,717.91,1001.25,579.76,537.25,-2.799338,-2.528942,-0.278109,-0.281899,0.746535,91.39,1
33631,0,52822,56164,52232.43,55619.84,717.91,1001.25,589.57,544.16,-2.799361,-2.528961,-0.277971,-0.281756,0.746692,91.39,1
33671,0,52827,56181,52233.62,55620.97,717.91,1001.25,593.38,560.03,-2.799383,-2.528981,-0.277834,-0.281614,0.746851,91.39,1
33710,0,52828,56214,52234.81,55622.16,717.91,1001.25,593.19,591.84,-2.799406,-2.529003,-0.277697,-0.281472,0.747013,91.39,1
33750,0,52848,56250,52236.04,55623.41,717.91,1001.25,611.96,626.59,-2.799430,-2.529026,-0.277560,-0.281332,0.747176,91.39,1
33791,0,52861,56277,52237.29,55624.72,717.91,1001.25,623.71,652.28,-2.799453,-2.529049,-0.277424,-0.281193,0.747342,91.38,1
33830,0,52874,56304,52238.56,55626.08,717.91,1001.25,635.44,677.92,-2.799478,-2.529073,-0.277289,-0.281056,0.747509,91.38,1
33871,0,52885,56325,52239.85,55627.48,717.91,1001.25,645.15,697.52,-2.799503,-2.529099,-0.277154,-0.280919,0.747678,91.38,1
33910,0,52894,56351,52241.16,55628.93,717.91,1001.25,652.84,722.07,-2.799528,-2.529124,-0.277019,-0.280782,0.747849,91.38,1
33951,0,52900,56377,52242.48,55630.43,717.91,1001.25,657.52,746.57,-2.799553,-2.529151,-0.276885,-0.280647,0.748021,91.38,1
33990,0,52896,56264,52243.79,55631.70,717.91,1001.25,652.21,632.30,-2.799578,-2.529174,-0.276750,-0.280508,0.748196,91.37,1
34030,0,52811,56064,52244.93,55632.56,717.91,1001.25,566.07,431.44,-2.799600,-2.529190,-0.276613,-0.280362,0.748374,91.37,1
34071,0,52747,55986,52245.93,55633.27,717.91,1001.25,501.07,352.73,-2.799619,-2.529203,-0.276473,-0.280213,0.748555,91.37,1
34110,0,52738,55991,52246.91,55633.99,717.91,1001.25,491.09,357.01,-2.799638,-2.529216,-0.276332,-0.280064,0.748738,91.37,1
34152,0,52741,55993,52247.90,55634.71,717.91,1001.25,493.10,358.29,-2.799657,-2.529228,-0.276192,-0.279915,0.748924,91.36,1
34191,0,52743,55999,52248.89,55635.44,717.91,1001.25,494.11,363.56,-2.799676,-2.529242,-0.276052,-0.279767,0.749111,91.36,1
34230,0,52742,56026,52249.88,55636.22,717.91,1001.25,492.12,389.78,-2.799695,-2.529256,-0.275912,-0.279620,0.749301,91.36,1
34271,0,52765,56078,52250.91,55637.11,717.91,1001.25,514.09,440.89,-2.799714,-2.529272,-0.275773,-0.279474,0.749493,91.35,1
34311,0,52773,56096,52251.96,55638.02,717.91,1001.25,521.04,457.98,-2.799735,-2.529288,-0.275634,-0.279330,0.749688,91.35,1
34352,0,52785,56113,52253.03,55638.98,717.91,1001.25,531.97,474.02,-2.799755,-2.529305,-0.275496,-0.279186,0.749884,91.35,1
34391,0,52791,56144,52254.11,55639.99,717.91,1001.25,536.89,504.01,-2.799776,-2.529323,-0.275358,-0.279043,0.750082,91.35,1
34431,0,52812,56181,52255.22,55641.07,717.91,1001.25,556.78,539.93,-2.799797,-2.529343,-0.275221,-0.278901,0.750283,91.34,1
34471,0,52822,56224,52256.36,55642.24,717.91,1001.25,565.64,581.76,-2.799819,-2.529364,-0.275084,-0.278762,0.750484,91.34,1
34511,0,52842,56264,52257.53,55643.48,717.91,1001.25,584.47,620.52,-2.799841,-2.529386,-0.274948,-0.278623,0.750688,91.34,1
34554,0,52859,56303,52258.73,55644.80,717.91,1001.25,600.27,658.20,-2.799864,-2.529410,-0.274813,-0.278486,0.750893,91.33,1
34591,0,52880,56335,52259.98,55646.19,717.91,1001.25,620.02,688.81,-2.799888,-2.529435,-0.274679,-0.278351,0.751099,91.33,1
34631,0,52892,56374,52261.24,55647.64,717.91,1001.25,630.76,726.36,-2.799912,-2.529461,-0.274545,-0.278216,0.751306,91.33,1
34672,0,52895,56306,52262.51,55648.96,717.91,1001.25,632.49,657.04,-2.799936,-2.529485,-0.274411,-0.278080,0.751515,91.32,1
34711,0,52824,56103,52263.64,55649.87,717.91,1001.25,560.36,453.13,-2.799958,-2.529501,-0.274275,-0.277936,0.751727,91.32,1
34751,0,52756,56001,52264.62,55650.57,717.91,1001.25,491.38,350.43,-2.799977,-2.529514,-0.274136,-0.277788,0.751942,91.32,1
34792,0,52739,55994,52265.57,55651.26,717.91,1001.25,473.43,342.74,-2.799995,-2.529526,-0.273996,-0.277640,0.752159,91.31,1
34831,0,52747,55991,52266.54,55651.94,717.91,1001.25,480.46,339.06,-2.800013,-2.529538,-0.273857,-0.277493,0.752378,91.31,1
34871,0,52748,55993,52267.50,55652.62,717.91,1001.25,480.50,340.37,-2.800032,-2.529551,-0.273718,-0.277345,0.752600,91.30,1
34911,0,52749,56021,52268.46,55653.36,717.91,1001.25,480.54,367.64,-2.800050,-2.529564,-0.273579,-0.277198,0.752825,91.30,1
34952,0,52774,56083,52269.48,55654.22,717.91,1001.25,504.52,428.78,-2.800070,-2.529579,-0.273441,-0.277054,0.753051,91.30,1
34991,0,52792,56118,52270.52,55655.15,717.91,1001.25,521.48,462.85,-2.800090,-2.529596,-0.273304,-0.276911,0.753280,91.29,1
35031,0,52806,56140,52271.60,55656.12,717.91,1001.25,534.40,483.87,-2.800110,-2.529613,-0.273168,-0.276769,0.753511,91.29,1
35071,0,52815,56172,52272.69,55657.16,717.91,1001.25,542.31,514.84,-2.800131,-2.529632,-0.273031,-0.276628,0.753744,91.29,1
35111,0,52833,56202,52273.81,55658.25,717.91,1001.25,559.19,543.75,-2.800153,-2.529651,-0.272896,-0.276489,0.753979,91.28,1
35152,0,52846,56231,52274.95,55659.39,717.91,1001.25,571.05,571.61,-2.800174,-2.529672,-0.272761,-0.276350,0.754216,91.28,1
35192,0,52859,56272,52276.12,55660.62,717.91,1001.25,582.88,611.38,-2.800197,-2.529694,-0.272626,-0.276213,0.754454,91.27,1
35232,0,52870,56290,52277.31,55661.88,717.91,1001.25,592.69,628.12,-2.800220,-2.529717,-0.272492,-0.276077,0.754694,91.27,1
35272,0,52881,56326,52278.52,55663.21,717.91,1001.25,602.48,662.79,-2.800242,-2.529741,-0.272359,-0.275942,0.754936,91.26,1
35312,0,52893,56366,52279.75,55664.62,717.91,1001.25,613.25,701.38,-2.800266,-2.529766,-0.272226,-0.275808,0.755178,91.26,1
35354,0,52909,56362,52281.01,55666.01,717.91,1001.25,627.99,695.99,-2.800290,-2.529791,-0.272094,-0.275674,0.755421,91.26,1
35393,0,52865,56185,52282.18,55667.05,717.91,1001.25,582.82,517.95,-2.800313,-2.529809,-0.271960,-0.275534,0.755667,91.25,1
35433,0,52783,56066,52283.18,55667.85,717.91,1001.25,499.82,398.15,-2.800332,-2.529824,-0.271823,-0.275390,0.755916,91.25,1
35472,0,52753,56046,52284.12,55668.61,717.91,1001.25,468.88,377.39,-2.800350,-2.529838,-0.271685,-0.275245,0.756167,91.24,1
35513,0,52760,56067,52285.07,55669.41,717.91,1001.25,474.93,397.59,-2.800368,-2.529852,-0.271547,-0.275101,0.756420,91.24,1
35553,0,52764,56055,52286.04,55670.18,717.91,1001.25,477.96,384.82,-2.800386,-2.529866,-0.271409,-0.274957,0.756675,91.23,1
35593,0,52757,56089,52286.98,55671.02,717.91,1001.25,470.02,417.98,-2.800404,-2.529881,-0.271271,-0.274813,0.756932,91.23,1
35632,0,52792,56145,52287.99,55671.97,717.91,1001.25,504.01,473.03,-2.800424,-2.529898,-0.271135,-0.274672,0.757190,91.22,1
35695,0,52804,56192,52289.02,55673.01,717.91,1001.25,514.98,518.99,-2.800444,-2.529917,-0.270999,-0.274533,0.757450,91.22,1
35712,0,52825,56216,52290.10,55674.10,717.91,1001.25,534.90,541.90,-2.800464,-2.529936,-0.270864,-0.274395,0.757712,91.21,1
35752,0,52832,56245,52291.18,55675.24,717.91,1001.25,540.82,569.76,-2.800485,-2.529957,-0.270729,-0.274257,0.757974,91.21,1
35793,0,52847,56278,52292.30,55676.45,717.91,1001.25,554.70,601.55,-2.800506,-2.529979,-0.270595,-0.274121,0.758238,91.20,1
35832,0,52863,56319,52293.44,55677.73,717.91,1001.25,569.56,641.27,-2.800528,-2.530001,-0.270461,-0.273987,0.758502,91.20,1
35872,0,52881,56356,52294.62,55679.09,717.91,1001.25,586.38,676.91,-2.800550,-2.530026,-0.270329,-0.273854,0.758767,91.19,1
35912,0,52892,56385,52295.81,55680.51,717.91,1001.25,596.19,704.49,-2.800573,-2.530051,-0.270196,-0.273721,0.759032,91.19,1
35953,0,52906,56410,52297.04,55681.97,717.91,1001.25,608.96,728.03,-2.800597,-2.530077,-0.270065,-0.273590,0.759297,91.18,1
35993,0,52910,56433,52298.26,55683.47,717.91,1001.25,611.74,749.53,-2.800620,-2.530105,-0.269933,-0.273460,0.759561,91.18,1
36032,0,52925,56454,52299.52,55685.02,717.91,1001.25,625.48,768.98,-2.800644,-2.530132,-0.269802,-0.273330,0.759826,91.17,1
36072,0,52929,56471,52300.78,55686.59,717.91,1001.25,628.22,784.41,-2.800668,-2.530161,-0.269671,-0.273202,0.760089,91.17,1
36113,0,52912,56354,52302.00,55687.93,717.91,1001.25,610.00,666.07,-2.800692,-2.530185,-0.269540,-0.273068,0.760354,91.16,1
36153,0,52830,56197,52303.06,55688.95,717.91,1001.25,526.94,508.05,-2.800712,-2.530203,-0.269406,-0.272930,0.760621,91.16,1
36192,0,52775,56141,52304.00,55689.85,717.91,1001.25,471.00,451.15,-2.800730,-2.530219,-0.269269,-0.272789,0.760889,91.15,1
36235,0,52773,56155,52304.94,55690.79,717.91,1001.25,468.06,464.21,-2.800748,-2.530236,-0.269133,-0.272649,0.761158,91.15,1
36273,0,52768,56143,52305.87,55691.69,717.91,1001.25,462.13,451.31,-2.800766,-2.530252,-0.268996,-0.272509,0.761429,91.14,1
36313,0,52772,56144,52306.80,55692.60,717.91,1001.25,465.20,451.40,-2.800783,-2.530268,-0.268859,-0.272368,0.761700,91.14,1
36354,0,52760,56161,52307.71,55693.54,717.91,1001.25,452.29,467.46,-2.800801,-2.530285,-0.268723,-0.272229,0.761973,91.13,1
36392,0,52785,56217,52308.66,55694.58,717.91,1001.25,476.34,522.42,-2.800819,-2.530304,-0.268587,-0.272091,0.762246,91.12,1
36433,0,52790,56230,52309.63,55695.66,717.91,1001.25,480.37,534.34,-2.800838,-2.530323,-0.268451,-0.271954,0.762519,91.12,1
36473,0,52802,56268,52310.61,55696.80,717.91,1001.25,491.39,571.20,-2.800856,-2.530344,-0.268316,-0.271818,0.762792,91.11,1
36513,0,52813,56305,52311.62,55698.02,717.91,1001.25,501.38,606.98,-2.800876,-2.530366,-0.268181,-0.271684,0.763065,91.11,1
36551,0,52828,56339,52312.66,55699.30,717.91,1001.25,515.34,639.70,-2.800895,-2.530389,-0.268047,-0.271551,0.763337,91.10,1
36593,0,52838,56373,52313.71,55700.65,717.91,1001.25,524.29,672.35,-2.800915,-2.530413,-0.267914,-0.271419,0.763608,91.10,1
36633,0,52842,56408,52314.77,55702.07,717.91,1001.25,527.23,705.93,-2.800936,-2.530438,-0.267780,-0.271289,0.763877,91.09,1
36673,0,52863,56442,52315.86,55703.55,717.91,1001.25,547.14,738.45,-2.800957,-2.530465,-0.267648,-0.271160,0.764144,91.08,1
36713,0,52862,56476,52316.96,55705.10,717.91,1001.25,545.04,770.90,-2.800978,-2.530493,-0.267515,-0.271032,0.764408,91.08,1
36754,0,52890,56509,52318.11,55706.71,717.91,1001.25,571.89,802.29,-2.801000,-2.530522,-0.267384,-0.270905,0.764669,91.07,1
36793,0,52893,56545,52319.26,55708.39,717.91,1001.25,573.74,836.61,-2.801022,-2.530552,-0.267253,-0.270780,0.764926,91.07,1
36833,0,52908,56499,52320.44,55709.97,717.91,1001.25,587.56,789.03,-2.801044,-2.530580,-0.267122,-0.270653,0.765181,91.06,1
36873,0,52837,56358,52321.47,55711.27,717.91,1001.25,515.53,646.73,-2.801064,-2.530604,-0.266989,-0.270520,0.765436,91.06,1
36913,0,52791,56283,52322.41,55712.41,717.91,1001.25,468.59,570.59,-2.801082,-2.530624,-0.266854,-0.270386,0.765689,91.05,1
36954,0,52767,56291,52323.30,55713.57,717.91,1001.25,443.70,577.43,-2.801099,-2.530645,-0.266718,-0.270251,0.765942,91.04,1
36993,0,52773,56283,52324.21,55714.71,717.91,1001.25,448.79,568.29,-2.801116,-2.530665,-0.266583,-0.270117,0.766194,91.04,1
37034,0,52769,56299,52325.10,55715.88,717.91,1001.25,443.90,583.12,-2.801133,-2.530686,-0.266447,-0.269983,0.766445,91.03,1
37074,0,52787,56336,52326.02,55717.12,717.91,1001.25,460.98,618.87,-2.801151,-2.530709,-0.266312,-0.269850,0.766694,91.03,1
37113,0,52782,56389,52326.94,55718.47,717.91,1001.25,455.06,670.53,-2.801168,-2.530733,-0.266177,-0.269719,0.766940,91.02,1
37155,0,52816,56392,52327.92,55719.82,717.91,1001.25,488.08,672.18,-2.801187,-2.530757,-0.266043,-0.269589,0.767184,91.01,1
37194,0,52796,56409,52328.86,55721.20,717.91,1001.25,467.14,687.80,-2.801205,-2.530782,-0.265909,-0.269459,0.767426,91.01,1
37234,0,52808,56424,52329.82,55722.60,717.91,1001.25,478.18,701.40,-2.801223,-2.530807,-0.265775,-0.269329,0.767664,91.00,1
37274,0,52815,56461,52330.79,55724.08,717.91,1001.25,484.21,736.92,-2.801242,-2.530833,-0.265641,-0.269201,0.767899,91.00,1
37314,0,52829,56498,52331.79,55725.63,717.91,1001.25,497.21,772.37,-2.801261,-2.530861,-0.265508,-0.269075,0.768129,90.99,1
37354,0,52834,56518,52332.79,55727.21,717.91,1001.25,501.21,790.79,-2.801280,-2.530890,-0.265375,-0.268949,0.768355,90.98,1
37395,0,52843,56553,52333.81,55728.87,717.91,1001.25,509.19,824.13,-2.801300,-2.530920,-0.265243,-0.268824,0.768576,90.98,1
37434,0,52857,56572,52334.86,55730.55,717.91,1001.25,522.14,841.45,-2.801320,-2.530950,-0.265111,-0.268700,0.768792,90.97,1
37474,0,52858,56604,52335.91,55732.30,717.91,1001.25,522.09,871.70,-2.801340,-2.530981,-0.264979,-0.268578,0.769001,90.97,1
37514,0,52868,56641,52336.97,55734.12,717.91,1001.25,531.03,906.87,-2.801360,-2.531014,-0.264848,-0.268456,0.769204,90.96,1
37555,0,52877,56673,52338.05,55736.00,717.91,1001.25,538.95,937.00,-2.801381,-2.531048,-0.264717,-0.268336,0.769399,90.95,1
37594,0,52874,56592,52339.13,55737.72,717.91,1001.25,534.87,854.28,-2.801401,-2.531078,-0.264586,-0.268213,0.769589,90.95,1
37635,0,52810,56475,52340.07,55739.20,717.91,1001.25,469.93,735.80,-2.801419,-2.531105,-0.264453,-0.268085,0.769776,90.94,1
37674,0,52773,56429,52340.94,55740.58,717.91,1001.25,432.06,688.42,-2.801436,-2.531130,-0.264318,-0.267957,0.769959,90.94,1
37714,0,52767,56422,52341.79,55741.94,717.91,1001.25,425.21,680.06,-2.801452,-2.531154,-0.264183,-0.267827,0.770139,90.93,1
37755,0,52766,56416,52342.64,55743.29,717.91,1001.25,423.36,672.71,-2.801468,-2.531178,-0.264048,-0.267698,0.770315,90.93,1
37794,0,52757,56405,52343.47,55744.61,717.91,1001.25,413.53,660.39,-2.801484,-2.531202,-0.263913,-0.267568,0.770489,90.92,1
37836,0,52758,56435,52344.30,55746.00,717.91,1001.25,413.70,689.00,-2.801500,-2.531227,-0.263778,-0.267440,0.770658,90.91,1
37874,0,52776,56468,52345.16,55747.44,717.91,1001.25,430.84,720.56,-2.801517,-2.531253,-0.263643,-0.267312,0.770824,90.91,1
37914,0,52785,56488,52346.05,55748.93,717.91,1001.25,438.95,739.07,-2.801533,-2.531279,-0.263509,-0.267186,0.770985,90.90,1
37951,0,52786,56481,52346.93,55750.39,717.91,1001.25,439.07,730.61,-2.801550,-2.531306,-0.263375,-0.267059,0.771142,90.90,1
37994,0,52786,56501,52347.81,55751.89,717.91,1001.25,438.19,749.11,-2.801567,-2.531332,-0.263242,-0.266933,0.771295,90.89,1
38034,0,52789,56512,52348.69,55753.42,717.91,1001.25,440.31,758.58,-2.801584,-2.531360,-0.263108,-0.266807,0.771443,90.89,1
38075,0,52790,56521,52349.57,55754.95,717.91,1001.25,440.43,766.05,-2.801601,-2.531387,-0.262974,-0.266682,0.771586,90.88,1
38115,0,52793,56550,52350.46,55756.54,717.91,1001.25,442.54,793.46,-2.801618,-2.531416,-0.262841,-0.266558,0.771723,90.88,1
38155,0,52802,56572,52351.37,55758.18,717.91,1001.25,450.63,813.82,-2.801635,-2.531445,-0.262708,-0.266434,0.771855,90.87,1
38195,0,52808,56600,52352.28,55759.86,717.91,1001.25,455.72,840.14,-2.801653,-2.531476,-0.262575,-0.266312,0.771980,90.87,1
38235,0,52815,56619,52353.21,55761.58,717.91,1001.25,461.79,857.42,-2.801670,-2.531506,-0.262443,-0.266190,0.772099,90.86,1
38275,0,52823,56653,52354.15,55763.36,717.91,1001.25,468.85,889.64,-2.801688,-2.531538,-0.262311,-0.266070,0.772210,90.86,1
38315,0,52836,56672,52355.11,55765.18,717.91,1001.25,480.89,906.82,-2.801707,-2.531571,-0.262179,-0.265950,0.772314,90.85,1
38355,0,52840,56702,52356.09,55767.06,717.91,1001.25,483.91,934.94,-2.801725,-2.531605,-0.262048,-0.265831,0.772409,90.85,1
38395,0,52848,56660,52357.07,55768.85,717.91,1001.25,490.93,891.15,-2.801744,-2.531637,-0.261917,-0.265711,0.772498,90.84,1
38437,0,52800,56548,52357.96,55770.41,717.91,1001.25,442.04,777.59,-2.801761,-2.531665,-0.261784,-0.265587,0.772583,90.84,1
38475,0,52763,56495,52358.77,55771.86,717.91,1001.25,404.23,723.14,-2.801776,-2.531691,-0.261650,-0.265461,0.772663,90.83,1
