timestamp,sensor1_smoothed,sensor1_bpm,sensor2_smoothed,sensor2_bpm,delta,status
2025-08-12 14:30,256.31,0,341.62,0,0,SKIP
2025-08-12 14:30,496.85,0,663.74,0,0,SKIP
2025-08-12 14:30,721.74,0,965.87,0,0,SKIP
2025-08-12 14:30,929.96,0,1245.65,0,0,SKIP
2025-08-12 14:30,1120.55,0,1502.75,0,0,SKIP
2025-08-12 14:30,1037.82,0,1397.53,0,0,SKIP
2025-08-12 14:30,954.07,0,1288.82,0,0,SKIP
2025-08-12 14:30,871.68,0,1177.42,0,0,SKIP
2025-08-12 14:30,791.01,0,1069.61,0,0,SKIP
2025-08-12 14:30,713.16,0,962.99,0,0,SKIP
2025-08-12 14:30,638.03,0,859.27,0,0,SKIP
2025-08-12 14:30,563.81,0,758.17,0,0,SKIP
2025-08-12 14:30,488.78,0,661.32,0,0,SKIP
2025-08-12 14:30,414.92,0,565.89,0,0,SKIP
2025-08-12 14:30,341.64,0,472.8,0,0,SKIP
2025-08-12 14:30,267.81,0,380.26,0,0,SKIP
2025-08-12 14:30,194.83,0,289.99,0,0,SKIP
2025-08-12 14:30,121.18,0,198.87,0,0,SKIP
2025-08-12 14:30,47.51,0,107.74,0,0,SKIP
2025-08-12 14:30,-27.84,0,18.16,0,0,SKIP
2025-08-12 14:30,-86.49,0,-54.21,0,0,SKIP
2025-08-12 14:30,-130.76,0,-108.61,0,0,SKIP
2025-08-12 14:30,-158.68,0,-143.4,0,0,SKIP
2025-08-12 14:30,-171.68,0,-159.44,0,0,SKIP
2025-08-12 14:30,-169.29,0,-157.78,0,0,SKIP
2025-08-12 14:30,-167.78,0,-153.9,0,0,SKIP
2025-08-12 14:30,-165.31,0,-150.05,0,0,SKIP
2025-08-12 14:30,-163.25,0,-145.88,0,0,SKIP
2025-08-12 14:30,-164.21,0,-142.84,0,0,SKIP
2025-08-12 14:30,-163.19,0,-139.19,0,0,SKIP
2025-08-12 14:30,-161.9,0,-137.37,0,0,SKIP
2025-08-12 14:30,-160.15,0,-135.52,0,0,SKIP
2025-08-12 14:30,-158.42,0,-133.11,0,0,SKIP
2025-08-12 14:30,-154.41,0,-128.63,0,0,SKIP
2025-08-12 14:30,-147.49,0,-122.5,0,0,SKIP
2025-08-12 14:30,-139.03,0,-112.93,0,0,SKIP
2025-08-12 14:30,-126.09,0,-98.9,0,0,SKIP
2025-08-12 14:30,-106.92,0,-76.95,0,0,SKIP
2025-08-12 14:30,-82.7,0,-50.43,0,0,SKIP
2025-08-12 14:30,-57.13,0,-18.66,0,0,SKIP
2025-08-12 14:30,-26.46,0,19.63,0,0,SKIP
2025-08-12 14:30,4.77,0,57.49,0,0,SKIP
2025-08-12 14:30,33.49,0,92.39,0,0,SKIP
2025-08-12 14:30,59.96,0,123.42,0,-10,SKIP
2025-08-12 14:30,85.04,0,146.07,0,-10,SKIP
2025-08-12 14:30,105.05,0,160.58,0,-10,SKIP
2025-08-12 14:30,118.12,0,168.81,0,-10,SKIP
2025-08-12 14:30,129.64,0,165.35,0,-10,SKIP
2025-08-12 14:30,137.18,0,155.27,0,-10,SKIP
2025-08-12 14:30,138.3,0,140.26,0,-10,SKIP
2025-08-12 14:30,133.84,0,116.68,0,-10,SKIP
2025-08-12 14:30,128.42,0,91.06,0,-10,SKIP
2025-08-12 14:30,115.2,0,65.07,0,-10,SKIP
2025-08-12 14:30,100.36,0,35.82,0,-10,SKIP
2025-08-12 14:30,85.26,0,7.59,0,-10,SKIP
2025-08-12 14:30,69.62,0,-17.16,0,-10,SKIP
2025-08-12 14:30,49.92,0,-42.49,0,-10,SKIP
2025-08-12 14:30,31.88,0,-65.01,0,-10,SKIP
2025-08-12 14:30,12.17,0,-82.58,0,-10,SKIP
2025-08-12 14:30,-7.01,0,-96.72,0,-10,SKIP
2025-08-12 14:30,-25.45,0,-107.06,0,-10,SKIP
2025-08-12 14:30,-40.87,0,-113.57,0,-10,SKIP
2025-08-12 14:30,-53.16,0,-115.21,0,-10,SKIP
2025-08-12 14:30,-64.11,0,-113.9,0,-10,SKIP
2025-08-12 14:30,-74.62,0,-109.05,0,-10,SKIP
2025-08-12 14:30,-81.93,0,-103.55,0,-10,SKIP
2025-08-12 14:30,-83.16,0,-92.48,0,-10,SKIP
2025-08-12 14:30,-82.93,0,-81.37,0,-10,SKIP
2025-08-12 14:30,-79.1,0,-68.04,0,-10,SKIP
2025-08-12 14:30,-70.74,0,-53.79,0,-10,SKIP
2025-08-12 14:30,-61.33,0,-37.22,0,-10,SKIP
2025-08-12 14:30,-53.2,0,-22.6,0,-10,SKIP
2025-08-12 14:30,-42.08,0,-8.78,0,-10,SKIP
2025-08-12 14:30,-29.34,0,5.93,0,-10,SKIP
2025-08-12 14:30,-18.32,0,18.77,0,-10,SKIP
2025-08-12 14:30,-5.37,0,30.28,0,-10,SKIP
2025-08-12 14:30,6.31,0,40.76,0,-10,SKIP
2025-08-12 14:30,14.51,0,50.26,0,-10,SKIP
2025-08-12 14:30,21.89,0,55.89,0,-10,SKIP
2025-08-12 14:30,27.46,0,59.58,0,-10,SKIP
2025-08-12 14:30,29.51,0,58.61,0,-10,SKIP
2025-08-12 14:30,31.85,0,55.92,0,-10,SKIP
2025-08-12 14:30,32.98,0,48.86,0,-10,SKIP
2025-08-12 14:30,31.39,0,39.97,0,-10,SKIP
2025-08-12 14:30,31.11,0,31.91,0,-10,SKIP
2025-08-12 14:30,30.41,0,24.42,0,-10,SKIP
2025-08-12 14:30,26.68,0,15.24,0,-10,SKIP
2025-08-12 14:30,22.93,0,9.97,0,-10,SKIP
2025-08-12 14:30,19.1,0,6.64,0,-10,SKIP
2025-08-12 14:30,13.12,0,1.24,0,-10,SKIP
2025-08-12 14:30,6.87,0,-1.57,0,-10,SKIP
2025-08-12 14:30,2.02,0,-4.22,0,-10,SKIP
2025-08-12 14:30,-3.03,0,-6.3,0,-10,SKIP
2025-08-12 14:30,-5.29,0,-8.84,0,-10,SKIP
2025-08-12 14:30,-5.51,0,-9.53,0,-10,SKIP
2025-08-12 14:30,-3.27,0,-8.06,0,-10,SKIP
2025-08-12 14:30,3.01,0,-0.7,0,-10,SKIP
2025-08-12 14:30,15.08,0,14.37,0,-10,SKIP
2025-08-12 14:30,33.39,0,34.71,0,-10,SKIP
2025-08-12 14:30,56.59,0,66.62,0,-10,SKIP
2025-08-12 14:30,84.05,0,103.17,0,-10,SKIP
2025-08-12 14:30,114.39,0,143.02,0,-10,SKIP
2025-08-12 14:30,143.74,0,180.36,0,-10,SKIP
2025-08-12 14:30,167.2,0,218.52,0,-10,SKIP
2025-08-12 14:30,186.79,19.67,247.1,19.35,-10,OK
2025-08-12 14:30,201.5,19.67,268.58,19.35,-10,OK
2025-08-12 14:30,207.19,19.67,281.21,19.35,-10,OK
2025-08-12 14:30,208.83,19.67,283.82,19.35,-10,OK
2025-08-12 14:30,206.58,19.67,275.42,19.35,-10,OK
2025-08-12 14:30,199.34,19.67,259.26,19.35,-10,OK
2025-08-12 14:30,186.73,19.67,235.44,19.35,-10,OK
2025-08-12 14:30,173.62,19.67,204.91,19.35,-10,OK
2025-08-12 14:30,156.38,19.67,171.46,19.35,-10,OK
2025-08-12 14:30,136.85,19.67,134.65,19.35,-10,OK
2025-08-12 14:30,116.19,19.67,94.19,19.35,-10,OK
2025-08-12 14:30,98,19.67,54.02,19.35,-10,OK
2025-08-12 14:30,77.81,19.67,15.43,19.35,-10,OK
2025-08-12 14:30,59.48,19.67,-22.32,19.35,-10,OK
2025-08-12 14:30,42.36,19.67,-54.69,19.35,-10,OK
2025-08-12 14:30,25.61,19.67,-81.57,19.35,-10,OK
2025-08-12 14:30,8.06,19.67,-103.72,19.35,-10,OK
2025-08-12 14:30,-4.6,19.67,-122.66,19.35,-10,OK
2025-08-12 14:30,-15.13,19.67,-134.02,19.35,-10,OK
2025-08-12 14:30,-24.69,19.67,-145.64,19.35,-10,OK
2025-08-12 14:30,-29.36,19.67,-150.86,19.35,-10,OK
2025-08-12 14:30,-30.43,19.67,-151.44,19.35,-10,OK
2025-08-12 14:30,-32.59,19.67,-145.75,19.35,-10,OK
2025-08-12 14:30,-34.18,19.67,-138.06,19.35,-10,OK
2025-08-12 14:30,-34.2,19.67,-124.36,19.35,-10,OK
2025-08-12 14:30,-35.19,19.67,-110.42,19.35,-10,OK
2025-08-12 14:30,-36.18,19.67,-93.21,19.35,-10,OK
2025-08-12 14:30,-36.02,19.67,-80.11,19.35,-10,OK
2025-08-12 14:30,-34,19.67,-64.09,19.35,-10,OK
2025-08-12 14:30,-30.33,19.67,-48.97,19.35,-10,OK
2025-08-12 14:30,-26.12,19.67,-35.38,19.35,-10,OK
2025-08-12 14:30,-22.06,19.67,-24.12,19.35,-10,OK
2025-08-12 14:30,-16.19,19.67,-10.58,19.35,-10,OK
2025-08-12 14:30,-11.61,19.67,-0.9,19.35,-10,OK
2025-08-12 14:30,-9.6,19.67,5.39,19.35,-10,OK
2025-08-12 14:30,-7.82,19.67,12.53,19.35,-10,OK
2025-08-12 14:30,-5.65,19.67,15.95,19.35,-10,OK
2025-08-12 14:30,-4.89,19.67,19.02,19.35,-10,OK
2025-08-12 14:30,-6.62,19.67,16.62,19.35,-10,OK
2025-08-12 14:30,-4.88,19.67,15.28,19.35,-10,OK
2025-08-12 14:30,-4.07,19.67,12.43,19.35,-10,OK
2025-08-12 14:30,-4.42,19.67,10.13,19.35,-10,OK
2025-08-12 14:30,-4.65,19.67,6.46,19.35,-10,OK
2025-08-12 14:30,-3.46,19.67,7.4,19.35,-10,OK
2025-08-12 14:30,-4.69,19.67,9.36,19.35,-10,OK
2025-08-12 14:30,-5.26,19.67,11.52,19.35,-10,OK
2025-08-12 14:30,-5.99,19.67,10.62,19.35,-10,OK
2025-08-12 14:30,-6.65,19.67,10.63,19.35,-10,OK
2025-08-12 14:30,-6.78,19.67,11.31,19.35,-10,OK
2025-08-12 14:30,-4.04,19.67,12.45,19.35,-10,OK
2025-08-12 14:30,2.22,19.67,14.78,19.35,-10,OK
2025-08-12 14:30,11.62,19.67,25.6,19.35,-10,OK
2025-08-12 14:30,26.37,19.67,40.66,19.35,-10,OK
2025-08-12 14:30,47.45,19.67,63.02,19.35,-10,OK
2025-08-12 14:30,69.81,19.67,94.05,19.35,-10,OK
2025-08-12 14:30,94.65,19.67,128.77,19.35,-10,OK
2025-08-12 14:30,122,19.67,164.67,19.35,-10,OK
2025-08-12 14:30,145.32,19.67,200.85,19.35,-10,OK
2025-08-12 14:30,163.66,19.67,229.52,40.04,580,OK
2025-08-12 14:30,178.14,40.01,250.84,40.04,580,OK
2025-08-12 14:30,185.62,40.01,264.65,40.04,580,OK
2025-08-12 14:30,186.15,40.01,266.54,40.04,580,OK
2025-08-12 14:30,181.95,40.01,259.65,40.04,580,OK
2025-08-12 14:30,171.79,40.01,244.44,40.04,580,OK
2025-08-12 14:30,158.31,40.01,217.96,40.04,580,OK
2025-08-12 14:30,140,40.01,185.76,40.04,580,OK
2025-08-12 14:30,119.77,40.01,150.67,40.04,580,OK
2025-08-12 14:30,98.88,40.01,111.03,40.04,580,OK
2025-08-12 14:30,76.65,40.01,70.01,40.04,580,OK
2025-08-12 14:30,54.65,40.01,32.33,40.04,580,OK
2025-08-12 14:30,35.18,40.01,-5.47,40.04,580,OK
2025-08-12 14:30,15.48,40.01,-40.2,40.04,580,OK
2025-08-12 14:30,-3.9,40.01,-71.87,40.04,580,OK
2025-08-12 14:30,-17.03,40.01,-99.16,40.04,580,OK
2025-08-12 14:30,-32.76,40.01,-123.17,40.04,580,OK
2025-08-12 14:30,-47.06,40.01,-142.31,40.04,580,OK
2025-08-12 14:30,-59.12,40.01,-156.31,40.04,580,OK
2025-08-12 14:30,-68.49,40.01,-165.33,40.04,580,OK
2025-08-12 14:30,-80.5,40.01,-170.1,40.04,580,OK
2025-08-12 14:30,-86.3,40.01,-171.15,40.04,580,OK
2025-08-12 14:30,-87.74,40.01,-167.5,40.04,580,OK
2025-08-12 14:30,-88.13,40.01,-162.86,40.04,580,OK
2025-08-12 14:30,-86.35,40.01,-152.28,40.04,580,OK
2025-08-12 14:30,-79.34,40.01,-141.17,40.04,580,OK
2025-08-12 14:30,-71.31,40.01,-128.22,40.04,580,OK
2025-08-12 14:30,-63.7,40.01,-112.72,40.04,580,OK
2025-08-12 14:30,-55.28,40.01,-96.54,40.04,580,OK
2025-08-12 14:30,-46.73,40.01,-84.23,40.04,580,OK
2025-08-12 14:30,-39.12,40.01,-68.57,40.04,580,OK
2025-08-12 14:30,-32.07,40.01,-54.45,40.04,580,OK
2025-08-12 14:30,-28.72,40.01,-42.89,40.04,580,OK
2025-08-12 14:30,-24.78,40.01,-32.44,40.04,580,OK
2025-08-12 14:30,-22.06,40.01,-22.49,40.04,580,OK
2025-08-12 14:30,-21.23,40.01,-16.4,40.04,580,OK
2025-08-12 14:30,-21.85,40.01,-14.2,40.04,580,OK
2025-08-12 14:30,-20.85,40.01,-12.23,40.04,580,OK
2025-08-12 14:30,-21.18,40.01,-12.32,40.04,580,OK
2025-08-12 14:30,-20.1,40.01,-14.5,40.04,580,OK
2025-08-12 14:30,-21.93,40.01,-16.72,40.04,580,OK
2025-08-12 14:30,-21.01,40.01,-17.8,40.04,580,OK
2025-08-12 14:30,-20.39,40.01,-22.63,40.04,580,OK
2025-08-12 14:30,-20.64,40.01,-26.31,40.04,580,OK
2025-08-12 14:30,-22.99,40.01,-29.61,40.04,580,OK
2025-08-12 14:30,-22.72,40.01,-33.12,40.04,580,OK
2025-08-12 14:30,-24.28,40.01,-34.45,40.04,580,OK
2025-08-12 14:30,-27.39,40.01,-35.07,40.04,580,OK
2025-08-12 14:30,-28.29,40.01,-34.74,40.04,580,OK
2025-08-12 14:30,-27.24,40.01,-33.45,40.04,580,OK
2025-08-12 14:30,-23.97,40.01,-30.06,40.04,580,OK
2025-08-12 14:30,-16.69,40.01,-23.54,40.04,580,OK
2025-08-12 14:30,-3.5,40.01,-12.02,40.04,580,OK
2025-08-12 14:30,14.56,40.01,5.76,40.04,580,OK
2025-08-12 14:30,38.68,40.01,30.63,40.04,580,OK
2025-08-12 14:30,67.45,40.01,61.85,40.04,580,OK
2025-08-12 14:30,96.69,40.01,96.02,40.04,580,OK
2025-08-12 14:30,127.14,40.01,132.54,40.04,580,OK
2025-08-12 14:30,154.22,40.01,164.84,40.04,580,OK
2025-08-12 14:30,177.71,60.7,192.56,60.38,580,OK
2025-08-12 14:30,193.97,60.7,211.09,60.38,580,OK
2025-08-12 14:30,204.77,60.7,220.12,60.38,580,OK
2025-08-12 14:30,207.28,60.7,220.26,60.38,580,OK
2025-08-12 14:30,204.69,60.7,210.64,60.38,580,OK
2025-08-12 14:30,195.03,60.7,193.45,60.38,580,OK
2025-08-12 14:30,181.99,60.7,170.38,60.38,580,OK
2025-08-12 14:30,165.25,60.7,141.46,60.38,580,OK
2025-08-12 14:30,147.37,60.7,111.03,60.38,580,OK
2025-08-12 14:30,127.74,60.7,80.57,60.38,580,OK
2025-08-12 14:30,107.49,60.7,48.27,60.38,580,OK
2025-08-12 14:30,87.34,60.7,17.22,60.38,580,OK
2025-08-12 14:30,66.75,60.7,-11.86,60.38,580,OK
2025-08-12 14:30,44.58,60.7,-40.07,60.38,580,OK
2025-08-12 14:30,24.29,60.7,-65.51,60.38,580,OK
2025-08-12 14:30,4.13,60.7,-87.25,60.38,580,OK
2025-08-12 14:30,-12.65,60.7,-106.11,60.38,580,OK
2025-08-12 14:30,-26.19,60.7,-121.1,60.38,580,OK
2025-08-12 14:30,-36.01,60.7,-132.43,60.38,580,OK
2025-08-12 14:30,-43.78,60.7,-138.72,60.38,580,OK
2025-08-12 14:30,-47.88,60.7,-141.54,60.38,580,OK
2025-08-12 14:30,-50.39,60.7,-140.74,60.38,580,OK
2025-08-12 14:30,-49.43,60.7,-134.91,60.38,580,OK
2025-08-12 14:30,-44.34,60.7,-126.52,60.38,580,OK
2025-08-12 14:30,-37.6,60.7,-117.06,60.38,580,OK
2025-08-12 14:30,-27.13,60.7,-104.27,60.38,580,OK
2025-08-12 14:30,-17.27,60.7,-90.9,60.38,580,OK
2025-08-12 14:30,-8.94,60.7,-77.89,60.38,580,OK
2025-08-12 14:30,0.91,60.7,-65.37,60.38,580,OK
2025-08-12 14:30,9.43,60.7,-52.64,60.38,580,OK
2025-08-12 14:30,14.53,60.7,-42.94,60.38,580,OK
2025-08-12 14:30,20.34,60.7,-34.45,60.38,580,OK
2025-08-12 14:30,24.47,60.7,-26.55,60.38,580,OK
2025-08-12 14:30,25.14,60.7,-20.81,60.38,580,OK
2025-08-12 14:30,25.95,60.7,-16.17,60.38,580,OK
2025-08-12 14:30,22.04,60.7,-12.73,60.38,580,OK
2025-08-12 14:30,16.74,60.7,-9.5,60.38,580,OK
2025-08-12 14:30,15.68,60.7,-9.11,60.38,580,OK
2025-08-12 14:30,15.67,60.7,-8.94,60.38,580,OK
2025-08-12 14:30,15.88,60.7,-10.03,60.38,580,OK
2025-08-12 14:30,19.22,60.7,-11.72,60.38,580,OK
2025-08-12 14:30,21.14,60.7,-14.49,60.38,580,OK
2025-08-12 14:30,22.56,60.7,-17.36,60.38,580,OK
2025-08-12 14:30,20.05,60.7,-20.63,60.38,580,OK
2025-08-12 14:30,17.29,60.7,-24.44,60.38,580,OK
2025-08-12 14:30,17.15,60.7,-28.97,60.38,580,OK
2025-08-12 14:30,18.16,60.7,-34.5,60.38,580,OK
2025-08-12 14:30,14.89,60.7,-39.04,60.38,580,OK
2025-08-12 14:30,16.79,60.7,-42.98,60.38,580,OK
2025-08-12 14:30,18.44,60.7,-46.46,60.38,580,OK
2025-08-12 14:30,19.9,60.7,-46.35,60.38,580,OK
2025-08-12 14:30,23.71,60.7,-40.74,60.38,580,OK
2025-08-12 14:30,34.63,60.7,-26.28,60.38,580,OK
2025-08-12 14:30,49.09,60.7,-2.17,60.38,580,OK
2025-08-12 14:30,67.66,60.7,30.09,60.38,580,OK
2025-08-12 14:30,92.14,60.7,69.61,60.38,580,OK
2025-08-12 14:30,118.67,60.7,114.24,60.38,580,OK
2025-08-12 14:30,143.86,60.7,156.27,60.38,580,OK
2025-08-12 14:30,167.76,60.7,193.44,60.38,580,OK
2025-08-12 14:30,189.62,60.7,224.5,80.72,580,OK
2025-08-12 14:30,207.55,80.7,245.83,80.72,-10,OK
2025-08-12 14:30,219.92,80.7,257.4,80.72,-10,OK
2025-08-12 14:30,226.18,80.7,257.91,80.72,-10,OK
2025-08-12 14:30,223.92,80.7,248.22,80.72,-10,OK
2025-08-12 14:30,214.84,80.7,230.68,80.72,-10,OK
2025-08-12 14:30,199.57,80.7,205.81,80.72,-10,OK
2025-08-12 14:30,179.23,80.7,174.67,80.72,-10,OK
2025-08-12 14:30,158.42,80.7,139.33,80.72,-10,OK
2025-08-12 14:30,134.95,80.7,103.08,80.72,-10,OK
2025-08-12 14:30,111.24,80.7,64.29,80.72,-10,OK
2025-08-12 14:30,85.23,80.7,27.48,80.72,-10,OK
2025-08-12 14:30,62.13,80.7,-8.64,80.72,-10,OK
2025-08-12 14:30,36.7,80.7,-40.34,80.72,-10,OK
2025-08-12 14:30,15.61,80.7,-70.26,80.72,-10,OK
2025-08-12 14:30,-4.26,80.7,-95.99,80.72,-10,OK
2025-08-12 14:30,-22.89,80.7,-118.85,80.72,-10,OK
2025-08-12 14:30,-39.28,80.7,-136.74,80.72,-10,OK
2025-08-12 14:30,-53.98,80.7,-151.07,80.72,-10,OK
2025-08-12 14:30,-67.32,80.7,-160.64,80.72,-10,OK
2025-08-12 14:30,-77.56,80.7,-165.53,80.72,-10,OK
2025-08-12 14:30,-82.97,80.7,-166.22,80.72,-10,OK
2025-08-12 14:30,-85.62,80.7,-162.64,80.72,-10,OK
2025-08-12 14:30,-84.3,80.7,-155.98,80.72,-10,OK
2025-08-12 14:30,-82,80.7,-145.86,80.72,-10,OK
2025-08-12 14:30,-76.76,80.7,-134.32,80.72,-10,OK
2025-08-12 14:30,-69.01,80.7,-119.89,80.72,-10,OK
2025-08-12 14:30,-62.94,80.7,-106.67,80.72,-10,OK
2025-08-12 14:30,-54.7,80.7,-90.69,80.72,-10,OK
2025-08-12 14:30,-45.71,80.7,-74.88,80.72,-10,OK
2025-08-12 14:30,-39.49,80.7,-59.84,80.72,-10,OK
2025-08-12 14:30,-35.88,80.7,-47.07,80.72,-10,OK
2025-08-12 14:30,-29.91,80.7,-34.84,80.72,-10,OK
2025-08-12 14:30,-26.84,80.7,-26.09,80.72,-10,OK
2025-08-12 14:30,-22.79,80.7,-19.39,80.72,-10,OK
2025-08-12 14:30,-17.66,80.7,-12.9,80.72,-10,OK
2025-08-12 14:30,-13.09,80.7,-9.71,80.72,-10,OK
2025-08-12 14:30,-11.17,80.7,-7.72,80.72,-10,OK
2025-08-12 14:30,-8.78,80.7,-4.81,80.72,-10,OK
2025-08-12 14:30,-8.87,80.7,-3.46,80.72,-10,OK
2025-08-12 14:30,-10.73,80.7,-3.54,80.72,-10,OK
2025-08-12 14:30,-12.82,80.7,-1.5,80.72,-10,OK
2025-08-12 14:30,-14.71,80.7,-0.02,80.72,-10,OK
2025-08-12 14:30,-17.05,80.7,-1.48,80.72,-10,OK
2025-08-12 14:30,-20.01,80.7,-1.43,80.72,-10,OK
2025-08-12 14:30,-22.49,80.7,-0.28,80.72,-10,OK
2025-08-12 14:30,-26.1,80.7,-0.22,80.72,-10,OK
2025-08-12 14:30,-27.43,80.7,0.1,80.72,-10,OK
2025-08-12 14:30,-29.7,80.7,1.42,80.72,-10,OK
2025-08-12 14:30,-29.75,80.7,2.6,80.72,-10,OK
2025-08-12 14:30,-29.32,80.7,4.44,80.72,-10,OK
2025-08-12 14:30,-24.55,80.7,8.38,80.72,-10,OK
2025-08-12 14:30,-17.62,80.7,15.68,80.72,-10,OK
2025-08-12 14:30,-4.59,80.7,28.51,80.72,-10,OK
2025-08-12 14:30,12.56,80.7,47.65,80.72,-10,OK
2025-08-12 14:30,36.32,80.7,73.15,80.72,-10,OK
2025-08-12 14:30,64.21,80.7,105.64,80.72,-10,OK
2025-08-12 14:30,92.04,80.7,142.37,80.72,-10,OK
2025-08-12 14:30,120.35,80.7,178.54,80.72,-10,OK
2025-08-12 14:30,144.94,80.7,212.5,80.72,-10,OK
2025-08-12 14:30,164.89,101.04,239.07,100.72,-10,OK
2025-08-12 14:30,177.31,101.04,256.75,100.72,-10,OK
2025-08-12 14:30,184.05,101.04,265.33,100.72,-10,OK
2025-08-12 14:30,183.61,101.04,265.26,100.72,-10,OK
2025-08-12 14:30,176.47,101.04,255.87,100.72,-10,OK
2025-08-12 14:30,164.1,101.04,237.86,100.72,-10,OK
2025-08-12 14:30,146.68,101.04,213.51,100.72,-10,OK
2025-08-12 14:30,127.99,101.04,185.26,100.72,-10,OK
2025-08-12 14:30,107.85,101.04,153.95,100.72,-10,OK
2025-08-12 14:30,89.1,101.04,118.43,100.72,-10,OK
2025-08-12 14:30,69.23,101.04,85.07,100.72,-10,OK
2025-08-12 14:30,50.44,101.04,51.83,100.72,-10,OK
2025-08-12 14:30,32.25,101.04,20.84,100.72,-10,OK
2025-08-12 14:30,13.48,101.04,-7.64,100.72,-10,OK
2025-08-12 14:30,-6.11,101.04,-31.77,100.72,-10,OK
2025-08-12 14:30,-24.5,101.04,-53.95,100.72,-10,OK
2025-08-12 14:30,-40.81,101.04,-72.01,100.72,-10,OK
2025-08-12 14:30,-56.1,101.04,-87.98,100.72,-10,OK
2025-08-12 14:30,-67.92,101.04,-100.78,100.72,-10,OK
2025-08-12 14:30,-76.62,101.04,-107.37,100.72,-10,OK
2025-08-12 14:30,-81.45,101.04,-110.08,100.72,-10,OK
2025-08-12 14:30,-83.58,101.04,-107.44,100.72,-10,OK
2025-08-12 14:30,-82.73,101.04,-101.53,100.72,-10,OK
2025-08-12 14:30,-80.64,101.04,-93.96,100.72,-10,OK
2025-08-12 14:30,-75.93,101.04,-85.01,100.72,-10,OK
2025-08-12 14:30,-72,101.04,-73.25,100.72,-10,OK
2025-08-12 14:30,-68.29,101.04,-62.38,100.72,-10,OK
2025-08-12 14:30,-63.72,101.04,-51.64,100.72,-10,OK
2025-08-12 14:30,-61.65,101.04,-38.96,100.72,-10,OK
2025-08-12 14:30,-59.62,101.04,-29.68,100.72,-10,OK
2025-08-12 14:30,-56.18,101.04,-20.39,100.72,-10,OK
2025-08-12 14:30,-54.61,101.04,-13.47,100.72,-10,OK
2025-08-12 14:30,-55.77,101.04,-7.09,100.72,-10,OK
2025-08-12 14:30,-55.04,101.04,-1.98,100.72,-10,OK
2025-08-12 14:30,-54.72,101.04,3.91,100.72,-10,OK
2025-08-12 14:30,-55.97,101.04,6.31,100.72,-10,OK
2025-08-12 14:30,-56.25,101.04,9.05,100.72,-10,OK
2025-08-12 14:30,-56.44,101.04,9.95,100.72,-10,OK
2025-08-12 14:30,-57.26,101.04,9.46,100.72,-10,OK
2025-08-12 14:30,-58.45,101.04,6.27,100.72,-10,OK
2025-08-12 14:30,-60.85,101.04,4.18,100.72,-10,OK
2025-08-12 14:30,-61.68,101.04,-1.27,100.72,-10,OK
2025-08-12 14:30,-63.02,101.04,-6.21,100.72,-10,OK
2025-08-12 14:30,-63.87,101.04,-12.53,100.72,-10,OK
2025-08-12 14:30,-65.47,101.04,-14.22,100.72,-10,OK
2025-08-12 14:30,-65.54,101.04,-17.45,100.72,-10,OK
2025-08-12 14:30,-67.96,101.04,-18.17,100.72,-10,OK
2025-08-12 14:30,-67.42,101.04,-18.95,100.72,-10,OK
2025-08-12 14:30,-68.93,101.04,-16.41,100.72,-10,OK
2025-08-12 14:30,-68.39,101.04,-17.86,100.72,-10,OK
2025-08-12 14:30,-66.2,101.04,-17.15,100.72,-10,OK
2025-08-12 14:30,-63.67,101.04,-13.5,100.72,-10,OK
2025-08-12 14:30,-61.15,101.04,-6.85,100.72,-10,OK
2025-08-12 14:30,-52.66,101.04,-0.04,100.72,-10,OK
2025-08-12 14:30,-41.76,101.04,14.02,100.72,-10,OK
2025-08-12 14:30,-26.96,101.04,34.42,100.72,-10,OK
2025-08-12 14:30,-5.59,101.04,61.03,100.72,-10,OK
2025-08-12 14:30,21.98,101.04,92.65,100.72,-10,OK
2025-08-12 14:30,51.16,101.04,132.32,100.72,-10,OK
2025-08-12 14:30,82.34,101.04,171.99,100.72,-10,OK
2025-08-12 14:30,111.08,101.04,209.32,100.72,-10,OK
2025-08-12 14:30,136.91,101.04,240.33,101.04,610,OK
2025-08-12 14:30,156.43,101.04,265.42,101.04,610,OK
2025-08-12 14:30,169.7,101.04,278.99,101.04,610,OK
2025-08-12 14:30,174.44,101.04,281.94,101.04,610,OK
2025-08-12 14:30,173.75,101.04,274.65,101.04,610,OK
2025-08-12 14:30,166.97,101.04,258.09,101.04,610,OK
2025-08-12 14:30,154.13,101.04,232.7,101.04,610,OK
2025-08-12 14:30,138.07,101.04,200.99,101.04,610,OK
2025-08-12 14:30,120.37,101.04,164.81,101.04,610,OK
2025-08-12 14:30,100.05,101.04,126.42,101.04,610,OK
2025-08-12 14:30,78.22,101.04,90.12,101.04,610,OK
2025-08-12 14:30,56.5,101.04,53.55,101.04,610,OK
2025-08-12 14:30,34.27,101.04,20.04,101.04,610,OK
2025-08-12 14:30,14.21,101.04,-10.11,101.04,610,OK
2025-08-12 14:30,-4.65,101.04,-38.33,101.04,610,OK
2025-08-12 14:30,-20.79,101.04,-65.76,101.04,610,OK
2025-08-12 14:30,-35.98,101.04,-86.47,101.04,610,OK
2025-08-12 14:30,-50.39,101.04,-104.14,101.04,610,OK
2025-08-12 14:30,-64.33,101.04,-118.83,101.04,610,OK
2025-08-12 14:30,-74.5,101.04,-127.48,101.04,610,OK
2025-08-12 14:30,-83.5,101.04,-129.86,101.04,610,OK
2025-08-12 14:30,-89.8,101.04,-130.7,101.04,610,OK
2025-08-12 14:30,-91.97,101.04,-128.53,101.04,610,OK
2025-08-12 14:30,-91.65,101.04,-121.59,101.04,610,OK
2025-08-12 14:30,-89.52,101.04,-112.04,101.04,610,OK
2025-08-12 14:30,-84.95,101.04,-101.56,101.04,610,OK
2025-08-12 14:30,-80.23,101.04,-90.25,101.04,610,OK
2025-08-12 14:30,-74.37,101.04,-77.75,101.04,610,OK
2025-08-12 14:30,-69.98,101.04,-65.93,101.04,610,OK
2025-08-12 14:30,-64.85,101.04,-54.96,101.04,610,OK
2025-08-12 14:30,-61.4,101.04,-45.75,101.04,610,OK
2025-08-12 14:30,-58.24,101.04,-37.58,101.04,610,OK
2025-08-12 14:30,-55.43,101.04,-29.98,101.04,610,OK
2025-08-12 14:30,-53.47,101.04,-23.07,101.04,610,OK
2025-08-12 14:30,-53.46,101.04,-18.38,101.04,610,OK
2025-08-12 14:30,-52.2,101.04,-14.21,101.04,610,OK
2025-08-12 14:30,-52.08,101.04,-11.7,101.04,610,OK
2025-08-12 14:30,-51.21,101.04,-11.18,101.04,610,OK
2025-08-12 14:30,-50.49,101.04,-13.16,101.04,610,OK
2025-08-12 14:30,-49.09,101.04,-16.63,101.04,610,OK
2025-08-12 14:30,-48.44,101.04,-20.97,101.04,610,OK
2025-08-12 14:30,-47.34,101.04,-25.62,101.04,610,OK
2025-08-12 14:30,-48.17,101.04,-28.24,101.04,610,OK
2025-08-12 14:30,-47.54,101.04,-29.34,101.04,610,OK
2025-08-12 14:30,-48.9,101.04,-28.72,101.04,610,OK
2025-08-12 14:30,-51.67,101.04,-28.91,101.04,610,OK
2025-08-12 14:30,-52.35,101.04,-28.11,101.04,610,OK
2025-08-12 14:30,-52.69,101.04,-28.37,101.04,610,OK
2025-08-12 14:30,-54.29,101.04,-29.05,101.04,610,OK
2025-08-12 14:30,-52.28,101.04,-29.92,101.04,610,OK
2025-08-12 14:30,-48.81,101.04,-28.53,101.04,610,OK
2025-08-12 14:30,-45.86,101.04,-26.32,101.04,610,OK
2025-08-12 14:30,-43.79,101.04,-23.88,101.04,610,OK
2025-08-12 14:30,-37.08,101.04,-20.83,101.04,610,OK
2025-08-12 14:30,-31.01,101.04,-15.75,101.04,610,OK
2025-08-12 14:30,-23.98,101.04,-7.02,101.04,610,OK
2025-08-12 14:30,-13.83,101.04,4.73,101.04,610,OK
2025-08-12 14:30,2.53,101.04,21.53,101.04,610,OK
2025-08-12 14:30,22.47,101.04,44.12,101.04,610,OK
2025-08-12 14:30,45.61,101.04,75.12,101.04,610,OK
2025-08-12 14:30,73.03,101.04,108.27,101.04,610,OK
2025-08-12 14:30,101.05,101.04,145.24,101.04,610,OK
2025-08-12 14:30,126.23,101.04,181.83,101.04,610,OK
2025-08-12 14:30,148.32,99.75,217.06,99.4,610,OK
2025-08-12 14:30,166.34,99.75,243.17,99.4,610,OK
2025-08-12 14:30,178.81,99.75,262.75,99.4,610,OK
2025-08-12 14:30,187.74,99.75,270.95,99.4,610,OK
2025-08-12 14:30,190.21,99.75,269.54,99.4,610,OK
2025-08-12 14:30,186.99,99.75,259.68,99.4,610,OK
2025-08-12 14:30,179.07,99.75,241.55,99.4,610,OK
2025-08-12 14:30,165.79,99.75,215.85,99.4,610,OK
2025-08-12 14:30,148.72,99.75,186.43,99.4,610,OK
2025-08-12 14:30,128.96,99.75,153.7,99.4,610,OK
2025-08-12 14:30,107.09,99.75,119.22,99.4,610,OK
2025-08-12 14:30,84.94,99.75,84.56,99.4,610,OK
2025-08-12 14:30,64.71,99.75,49.98,99.4,610,OK
2025-08-12 14:30,43.67,99.75,17.62,99.4,610,OK
2025-08-12 14:30,26.25,99.75,-12.64,99.4,610,OK
2025-08-12 14:30,9.52,99.75,-40.46,99.4,610,OK
2025-08-12 14:30,-5.69,99.75,-65.34,99.4,610,OK
2025-08-12 14:30,-18.32,99.75,-85.37,99.4,610,OK
2025-08-12 14:30,-29.05,99.75,-102.43,99.4,610,OK
2025-08-12 14:30,-39.45,99.75,-114.51,99.4,610,OK
2025-08-12 14:30,-48.18,99.75,-123.17,99.4,610,OK
2025-08-12 14:30,-54.4,99.75,-127.45,99.4,610,OK
2025-08-12 14:30,-60.82,99.75,-129.95,99.4,610,OK
2025-08-12 14:30,-65.18,99.75,-127.72,99.4,610,OK
2025-08-12 14:30,-67.59,99.75,-121.72,99.4,610,OK
2025-08-12 14:30,-67.95,99.75,-114.56,99.4,610,OK
2025-08-12 14:30,-67.48,99.75,-107.8,99.4,610,OK
2025-08-12 14:30,-64.55,99.75,-96.47,99.4,610,OK
2025-08-12 14:30,-62.31,99.75,-85.58,99.4,610,OK
2025-08-12 14:30,-58.58,99.75,-77.99,99.4,610,OK
2025-08-12 14:30,-52.62,99.75,-68.75,99.4,610,OK
2025-08-12 14:30,-48.21,99.75,-58.23,99.4,610,OK
2025-08-12 14:30,-42.37,99.75,-49.64,99.4,610,OK
2025-08-12 14:30,-36.98,99.75,-41.18,99.4,610,OK
2025-08-12 14:30,-30.77,99.75,-32.68,99.4,610,OK
2025-08-12 14:30,-27.82,99.75,-26.83,99.4,610,OK
2025-08-12 14:30,-25.13,99.75,-23.9,99.4,610,OK
2025-08-12 14:30,-25.89,99.75,-23.48,99.4,610,OK
2025-08-12 14:30,-25.56,99.75,-25.47,99.4,610,OK
2025-08-12 14:30,-26.94,99.75,-30.05,99.4,610,OK
2025-08-12 14:30,-27.11,99.75,-35.56,99.4,610,OK
2025-08-12 14:30,-27.24,99.75,-39.97,99.4,610,OK
2025-08-12 14:30,-25.91,99.75,-43.94,99.4,610,OK
2025-08-12 14:30,-26.03,99.75,-48.49,99.4,610,OK
2025-08-12 14:30,-27.69,99.75,-50.04,99.4,610,OK
2025-08-12 14:30,-30.38,99.75,-51.57,99.4,610,OK
2025-08-12 14:30,-33.66,99.75,-52.74,99.4,610,OK
2025-08-12 14:30,-38.53,99.75,-53.14,99.4,610,OK
2025-08-12 14:30,-42.09,99.75,-52.99,99.4,610,OK
2025-08-12 14:30,-44.32,99.75,-53.78,99.4,610,OK
2025-08-12 14:30,-46.29,99.75,-54.58,99.4,610,OK
2025-08-12 14:30,-45.4,99.75,-55.27,99.4,610,OK
2025-08-12 14:30,-44.36,99.75,-57.03,99.4,610,OK
2025-08-12 14:30,-42.79,99.75,-59.56,99.4,610,OK
2025-08-12 14:30,-39.13,99.75,-61.42,99.4,610,OK
2025-08-12 14:30,-35.15,99.75,-60.62,99.4,610,OK
2025-08-12 14:30,-34.1,99.75,-59.86,99.4,610,OK
2025-08-12 14:30,-31.44,99.75,-57.52,99.4,610,OK
2025-08-12 14:30,-27.2,99.75,-53.02,99.4,610,OK
2025-08-12 14:30,-22.12,99.75,-47.74,99.4,610,OK
2025-08-12 14:30,-12.96,99.75,-38.55,99.4,610,OK
2025-08-12 14:30,1.01,99.75,-23.91,99.4,610,OK
2025-08-12 14:30,20.74,99.75,-3.35,99.4,610,OK
2025-08-12 14:30,43.93,99.75,26.16,99.4,610,OK
2025-08-12 14:30,69.89,99.75,62.9,99.4,610,OK
2025-08-12 14:30,98.54,99.75,100.32,99.4,610,OK
2025-08-12 14:30,127.91,99.75,139.05,99.4,610,OK
2025-08-12 14:30,152.45,99.75,174.18,96.97,670,OK
2025-08-12 14:30,172.17,96.71,201.23,96.97,670,OK
2025-08-12 14:30,185.95,96.71,220.26,96.97,670,OK
2025-08-12 14:30,190.21,96.71,229.67,96.97,670,OK
2025-08-12 14:30,188.17,96.71,230.05,96.97,670,OK
2025-08-12 14:30,181.63,96.71,220.97,96.97,670,OK
2025-08-12 14:30,171.19,96.71,202.24,96.97,670,OK
2025-08-12 14:30,156.94,96.71,176.05,96.97,670,OK
2025-08-12 14:30,141.56,96.71,144.23,96.97,670,OK
2025-08-12 14:30,124.01,96.71,108.6,96.97,670,OK
2025-08-12 14:30,104.11,96.71,70.99,96.97,670,OK
2025-08-12 14:30,86.07,96.71,34.14,96.97,670,OK
2025-08-12 14:30,67.78,96.71,-2.63,96.97,670,OK
2025-08-12 14:30,48.93,96.71,-35.42,96.97,670,OK
2025-08-12 14:30,32.71,96.71,-68.41,96.97,670,OK
2025-08-12 14:30,17.66,96.71,-98.67,96.97,670,OK
2025-08-12 14:30,0.79,96.71,-123.22,96.97,670,OK
2025-08-12 14:30,-12.95,96.71,-143.65,96.97,670,OK
2025-08-12 14:30,-24.54,96.71,-159.68,96.97,670,OK
2025-08-12 14:30,-35.75,96.71,-170.05,96.97,670,OK
2025-08-12 14:30,-43.59,96.71,-175.14,96.97,670,OK
2025-08-12 14:30,-48.09,96.71,-178.6,96.97,670,OK
2025-08-12 14:30,-52.02,96.71,-178.6,96.97,670,OK
2025-08-12 14:30,-52.71,96.71,-175.23,96.97,670,OK
2025-08-12 14:30,-52.83,96.71,-168.59,96.97,670,OK
2025-08-12 14:30,-52.76,96.71,-159.6,96.97,670,OK
2025-08-12 14:30,-52.47,96.71,-148.24,96.97,670,OK
2025-08-12 14:30,-51.95,96.71,-135.38,96.97,670,OK
2025-08-12 14:30,-51.07,96.71,-123.89,96.97,670,OK
2025-08-12 14:30,-50.71,96.71,-112.44,96.97,670,OK
2025-08-12 14:30,-49.26,96.71,-102.36,96.97,670,OK
2025-08-12 14:30,-46.32,96.71,-91.56,96.97,670,OK
2025-08-12 14:30,-44.28,96.71,-83.42,96.97,670,OK
2025-08-12 14:30,-42.4,96.71,-75.45,96.97,670,OK
2025-08-12 14:30,-38.69,96.71,-69.12,96.97,670,OK
2025-08-12 14:30,-34.77,96.71,-62.85,96.97,670,OK
2025-08-12 14:30,-33.87,96.71,-59.57,96.97,670,OK
2025-08-12 14:30,-30.65,96.71,-57.21,96.97,670,OK
2025-08-12 14:30,-30.74,96.71,-56.07,96.97,670,OK
2025-08-12 14:30,-32.55,96.71,-55.61,96.97,670,OK
2025-08-12 14:30,-35.74,96.71,-57.79,96.97,670,OK
2025-08-12 14:30,-36.93,96.71,-60.45,96.97,670,OK
2025-08-12 14:30,-41.02,96.71,-61.81,96.97,670,OK
2025-08-12 14:30,-42.62,96.71,-64.34,96.97,670,OK
2025-08-12 14:30,-43.95,96.71,-66.56,96.97,670,OK
2025-08-12 14:30,-42.76,96.71,-66.89,96.97,670,OK
2025-08-12 14:30,-43.37,96.71,-69.12,96.97,670,OK
2025-08-12 14:30,-42.65,96.71,-72.3,96.97,670,OK
2025-08-12 14:30,-44.08,96.71,-72.8,96.97,670,OK
2025-08-12 14:30,-43.21,96.71,-73.94,96.97,670,OK
2025-08-12 14:30,-44.66,96.71,-75.7,96.97,670,OK
2025-08-12 14:30,-44.24,96.71,-73.2,96.97,670,OK
2025-08-12 14:30,-42.46,96.71,-70.72,96.97,670,OK
2025-08-12 14:30,-37.68,96.71,-68.22,96.97,670,OK
2025-08-12 14:30,-34.9,96.71,-64.02,96.97,670,OK
2025-08-12 14:30,-29.82,96.71,-59.11,96.97,670,OK
2025-08-12 14:30,-23.27,96.71,-54.59,96.97,670,OK
2025-08-12 14:30,-19.01,96.71,-48.75,96.97,670,OK
2025-08-12 14:30,-14.05,96.71,-43.41,96.97,670,OK
2025-08-12 14:30,-9.85,96.71,-38.76,96.97,670,OK
2025-08-12 14:30,-6.84,96.71,-31.48,96.97,670,OK
2025-08-12 14:30,-4.31,96.71,-23.83,96.97,670,OK
2025-08-12 14:30,2.16,96.71,-13.31,96.97,670,OK
2025-08-12 14:30,9.61,96.71,1.94,96.97,670,OK
2025-08-12 14:30,22.15,96.71,22.98,96.97,670,OK
2025-08-12 14:30,39.42,96.71,49.17,96.97,670,OK
2025-08-12 14:30,61.04,96.71,81.59,96.97,670,OK
2025-08-12 14:30,83.37,96.71,117.48,96.97,670,OK
2025-08-12 14:30,105.81,96.71,152.87,96.97,670,OK
2025-08-12 14:30,128.2,96.71,187.24,94.02,680,OK
2025-08-12 14:30,147.11,96.71,216.48,94.02,680,OK
2025-08-12 14:30,160.25,93.85,238.27,94.02,680,OK
2025-08-12 14:30,170,93.85,249.65,94.02,680,OK
2025-08-12 14:30,175.68,93.85,252.39,94.02,680,OK
2025-08-12 14:30,175.07,93.85,244.29,94.02,680,OK
2025-08-12 14:30,167.62,93.85,228.18,94.02,680,OK
2025-08-12 14:30,157.17,93.85,201.97,94.02,680,OK
2025-08-12 14:30,142.81,93.85,173.48,94.02,680,OK
2025-08-12 14:30,124.22,93.85,139.04,94.02,680,OK
2025-08-12 14:30,105.22,93.85,103.53,94.02,680,OK
2025-08-12 14:30,84.67,93.85,63.6,94.02,680,OK
2025-08-12 14:30,64.18,93.85,25.67,94.02,680,OK
2025-08-12 14:30,44.76,93.85,-11.25,94.02,680,OK
2025-08-12 14:30,27.61,93.85,-43.42,94.02,680,OK
2025-08-12 14:30,10.1,93.85,-73.48,94.02,680,OK
2025-08-12 14:30,-3.99,93.85,-97.86,94.02,680,OK
2025-08-12 14:30,-17.9,93.85,-118.21,94.02,680,OK
2025-08-12 14:30,-30.88,93.85,-133.92,94.02,680,OK
2025-08-12 14:30,-41.66,93.85,-148.02,94.02,680,OK
2025-08-12 14:30,-48.85,93.85,-155.8,94.02,680,OK
2025-08-12 14:30,-54.72,93.85,-160.41,94.02,680,OK
2025-08-12 14:30,-59.09,93.85,-161.38,94.02,680,OK
2025-08-12 14:30,-60.36,93.85,-160.54,94.02,680,OK
2025-08-12 14:30,-61.44,93.85,-153.5,94.02,680,OK
2025-08-12 14:30,-63.13,93.85,-147.66,94.02,680,OK
2025-08-12 14:30,-61.88,93.85,-138.17,94.02,680,OK
2025-08-12 14:30,-57.96,93.85,-125.71,94.02,680,OK
2025-08-12 14:30,-55.3,93.85,-112.67,94.02,680,OK
2025-08-12 14:30,-52.16,93.85,-101.15,94.02,680,OK
2025-08-12 14:30,-47.85,93.85,-88.17,94.02,680,OK
2025-08-12 14:30,-44.63,93.85,-77.18,94.02,680,OK
2025-08-12 14:30,-42.48,93.85,-68.68,94.02,680,OK
2025-08-12 14:30,-37.73,93.85,-59.97,94.02,680,OK
2025-08-12 14:30,-33.49,93.85,-54.2,94.02,680,OK
2025-08-12 14:30,-30.2,93.85,-50.13,94.02,680,OK
2025-08-12 14:30,-26.96,93.85,-46.79,94.02,680,OK
2025-08-12 14:30,-25.75,93.85,-44.11,94.02,680,OK
2025-08-12 14:30,-26.52,93.85,-44.66,94.02,680,OK
2025-08-12 14:30,-26.5,93.85,-44.38,94.02,680,OK
2025-08-12 14:30,-28.69,93.85,-46.02,94.02,680,OK
2025-08-12 14:30,-31.48,93.85,-48.15,94.02,680,OK
2025-08-12 14:30,-35.03,93.85,-50.89,94.02,680,OK
2025-08-12 14:30,-38.64,93.85,-52.71,94.02,680,OK
2025-08-12 14:30,-42.73,93.85,-55.33,94.02,680,OK
2025-08-12 14:30,-45.64,93.85,-55.4,94.02,680,OK
2025-08-12 14:30,-46.17,93.85,-57.65,94.02,680,OK
2025-08-12 14:30,-44.32,93.85,-58.58,94.02,680,OK
2025-08-12 14:30,-44.65,93.85,-57.82,94.02,680,OK
2025-08-12 14:30,-44.17,93.85,-57.96,94.02,680,OK
2025-08-12 14:30,-42.28,93.85,-57.31,94.02,680,OK
2025-08-12 14:30,-42.89,93.85,-53.85,94.02,680,OK
2025-08-12 14:30,-41.73,93.85,-50.45,94.02,680,OK
2025-08-12 14:30,-37.79,93.85,-47.99,94.02,680,OK
2025-08-12 14:30,-35.78,93.85,-43.48,94.02,680,OK
2025-08-12 14:30,-33.35,93.85,-37.83,94.02,680,OK
2025-08-12 14:30,-28.8,93.85,-32.44,94.02,680,OK
2025-08-12 14:30,-25.37,93.85,-26.55,94.02,680,OK
2025-08-12 14:30,-22.34,93.85,-19.01,94.02,680,OK
2025-08-12 14:30,-18.32,93.85,-11.38,94.02,680,OK
2025-08-12 14:30,-15.57,93.85,-6.24,94.02,680,OK
2025-08-12 14:30,-15.97,93.85,-0.65,94.02,680,OK
2025-08-12 14:30,-16.75,93.85,4.94,94.02,680,OK
2025-08-12 14:30,-14.3,93.85,9.99,94.02,680,OK
2025-08-12 14:30,-10.35,93.85,17.31,94.02,680,OK
2025-08-12 14:30,-3.99,93.85,30.31,94.02,680,OK
2025-08-12 14:30,9.88,93.85,46.65,94.02,680,OK
2025-08-12 14:30,30.39,93.85,67.87,94.02,680,OK
2025-08-12 14:30,50.77,93.85,93.92,94.02,680,OK
2025-08-12 14:30,74.04,93.85,124.99,94.02,680,OK
2025-08-12 14:30,99.29,93.85,158.47,94.02,680,OK
2025-08-12 14:30,121.08,93.85,190.65,94.02,680,OK
2025-08-12 14:30,137.88,93.85,221.1,90.69,700,OK
2025-08-12 14:30,151.34,90.41,244.99,90.69,700,OK
2025-08-12 14:30,161.09,90.41,259.04,90.69,700,OK
2025-08-12 14:30,165.38,90.41,261.64,90.69,700,OK
2025-08-12 14:30,163.79,90.41,257.87,90.69,700,OK
2025-08-12 14:30,155.97,90.41,243.49,90.69,700,OK
2025-08-12 14:30,144.3,90.41,221.98,90.69,700,OK
2025-08-12 14:30,129.79,90.41,195.26,90.69,700,OK
2025-08-12 14:30,111.4,90.41,163.33,90.69,700,OK
2025-08-12 14:30,89.76,90.41,126.35,90.69,700,OK
2025-08-12 14:30,70.55,90.41,88.46,90.69,700,OK
2025-08-12 14:30,50.04,90.41,53.19,90.69,700,OK
2025-08-12 14:30,28.61,90.41,19.29,90.69,700,OK
2025-08-12 14:30,8.01,90.41,-12.91,90.69,700,OK
2025-08-12 14:30,-7.54,90.41,-40.33,90.69,700,OK
2025-08-12 14:30,-24.12,90.41,-64.13,90.69,700,OK
2025-08-12 14:30,-36.03,90.41,-84.82,90.69,700,OK
2025-08-12 14:30,-46.63,90.41,-101.13,90.69,700,OK
2025-08-12 14:30,-54.39,90.41,-111.96,90.69,700,OK
2025-08-12 14:30,-60.21,90.41,-118.54,90.69,700,OK
2025-08-12 14:30,-65.23,90.41,-122.06,90.69,700,OK
2025-08-12 14:30,-70.28,90.41,-121.81,90.69,700,OK
2025-08-12 14:30,-72.75,90.41,-118.46,90.69,700,OK
2025-08-12 14:30,-73.69,90.41,-113.16,90.69,700,OK
2025-08-12 14:30,-73.96,90.41,-107.36,90.69,700,OK
2025-08-12 14:30,-70.05,90.41,-98.32,90.69,700,OK
2025-08-12 14:30,-67.09,90.41,-90.16,90.69,700,OK
2025-08-12 14:30,-62.51,90.41,-81.79,90.69,700,OK
2025-08-12 14:30,-58.12,90.41,-72.96,90.69,700,OK
2025-08-12 14:30,-53.72,90.41,-63.84,90.69,700,OK
2025-08-12 14:30,-50.93,90.41,-55.17,90.69,700,OK
2025-08-12 14:30,-47.3,90.41,-46.91,90.69,700,OK
2025-08-12 14:30,-45.06,90.41,-39.28,90.69,700,OK
2025-08-12 14:30,-44.16,90.41,-32.87,90.69,700,OK
2025-08-12 14:30,-44.54,90.41,-26.57,90.69,700,OK
2025-08-12 14:30,-45.7,90.41,-24.52,90.69,700,OK
2025-08-12 14:30,-45.55,90.41,-23.65,90.69,700,OK
2025-08-12 14:30,-45.13,90.41,-23.27,90.69,700,OK
2025-08-12 14:30,-43.08,90.41,-22.67,90.69,700,OK
2025-08-12 14:30,-42.52,90.41,-25.41,90.69,700,OK
2025-08-12 14:30,-41.52,90.41,-25.8,90.69,700,OK
2025-08-12 14:30,-42.47,90.41,-26.18,90.69,700,OK
2025-08-12 14:30,-44.08,90.41,-28.21,90.69,700,OK
2025-08-12 14:30,-47.82,90.41,-31.97,90.69,700,OK
2025-08-12 14:30,-48.84,90.41,-35.12,90.69,700,OK
2025-08-12 14:30,-50.51,90.41,-38.12,90.69,700,OK
2025-08-12 14:30,-53.8,90.41,-41.78,90.69,700,OK
2025-08-12 14:30,-55.69,90.41,-43.76,90.69,700,OK
2025-08-12 14:30,-54.53,90.41,-45.23,90.69,700,OK
2025-08-12 14:30,-55.2,90.41,-44.82,90.69,700,OK
2025-08-12 14:30,-55.58,90.41,-46.2,90.69,700,OK
2025-08-12 14:30,-50.68,90.41,-44.68,90.69,700,OK
2025-08-12 14:30,-48.04,90.41,-43.23,90.69,700,OK
2025-08-12 14:30,-46.08,90.41,-40.52,90.69,700,OK
2025-08-12 14:30,-42.74,90.41,-36,90.69,700,OK
2025-08-12 14:30,-39.27,90.41,-29.56,90.69,700,OK
2025-08-12 14:30,-39.8,90.41,-25.52,90.69,700,OK
2025-08-12 14:30,-39.93,90.41,-20.54,90.69,700,OK
2025-08-12 14:30,-37.5,90.41,-15.98,90.69,700,OK
2025-08-12 14:30,-37.08,90.41,-13.7,90.69,700,OK
2025-08-12 14:30,-36.07,90.41,-9.1,90.69,700,OK
2025-08-12 14:30,-33.45,90.41,-4.58,90.69,700,OK
2025-08-12 14:30,-31.05,90.41,-0.61,90.69,700,OK
2025-08-12 14:30,-28.98,90.41,3.3,90.69,700,OK
2025-08-12 14:30,-24.82,90.41,9.44,90.69,700,OK
2025-08-12 14:30,-18.92,90.41,13.68,90.69,700,OK
2025-08-12 14:30,-10.72,90.41,23.27,90.69,700,OK
2025-08-12 14:30,2.16,90.41,37.6,90.69,700,OK
2025-08-12 14:30,17.5,90.41,57.73,90.69,700,OK
2025-08-12 14:30,37.5,90.41,83.96,90.69,700,OK
2025-08-12 14:30,60.54,90.41,117.51,90.69,700,OK
2025-08-12 14:30,84.95,90.41,152.72,90.69,700,OK
2025-08-12 14:30,108.2,90.41,185.39,90.69,700,OK
2025-08-12 14:30,130.05,90.41,218.63,87.45,720,OK
2025-08-12 14:30,146.77,87.18,244.59,87.45,720,OK
2025-08-12 14:30,158.19,87.18,261.36,87.45,720,OK
2025-08-12 14:30,163.75,87.18,269.21,87.45,720,OK
2025-08-12 14:30,166.18,87.18,268.58,87.45,720,OK
2025-08-12 14:30,160.78,87.18,255.28,87.45,720,OK
2025-08-12 14:30,150.86,87.18,234.96,87.45,720,OK
2025-08-12 14:30,136.28,87.18,207.91,87.45,720,OK
2025-08-12 14:30,120.59,87.18,175.45,87.45,720,OK
2025-08-12 14:30,100.05,87.18,139.97,87.45,720,OK
2025-08-12 14:30,78.91,87.18,100.74,87.45,720,OK
2025-08-12 14:30,59.24,87.18,61.95,87.45,720,OK
2025-08-12 14:30,40.15,87.18,25.29,87.45,720,OK
2025-08-12 14:30,22.36,87.18,-9.54,87.45,720,OK
2025-08-12 14:30,4.98,87.18,-45.68,87.45,720,OK
2025-08-12 14:30,-8.37,87.18,-70.82,87.45,720,OK
2025-08-12 14:30,-22.29,87.18,-93.57,87.45,720,OK
2025-08-12 14:30,-32.84,87.18,-112.12,87.45,720,OK
2025-08-12 14:30,-44.15,87.18,-127.48,87.45,720,OK
2025-08-12 14:30,-52.27,87.18,-131.69,87.45,720,OK
2025-08-12 14:30,-60.11,87.18,-138.9,87.45,720,OK
2025-08-12 14:30,-66.26,87.18,-140.71,87.45,720,OK
2025-08-12 14:30,-72.45,87.18,-140.68,87.45,720,OK
2025-08-12 14:30,-75.23,87.18,-135.75,87.45,720,OK
2025-08-12 14:30,-78.24,87.18,-128.74,87.45,720,OK
2025-08-12 14:30,-78.74,87.18,-118.41,87.45,720,OK
2025-08-12 14:30,-76.65,87.18,-108.86,87.45,720,OK
2025-08-12 14:30,-72.5,87.18,-97.93,87.45,720,OK
2025-08-12 14:30,-66.45,87.18,-86.01,87.45,720,OK
2025-08-12 14:30,-60,87.18,-76.42,87.45,720,OK
2025-08-12 14:30,-54.19,87.18,-66.29,87.45,720,OK
2025-08-12 14:30,-46.87,87.18,-55.37,87.45,720,OK
2025-08-12 14:30,-42.32,87.18,-45.43,87.45,720,OK
2025-08-12 14:30,-38.68,87.18,-38.18,87.45,720,OK
2025-08-12 14:30,-34.81,87.18,-32,87.45,720,OK
2025-08-12 14:30,-31.54,87.18,-28.54,87.45,720,OK
2025-08-12 14:30,-29.71,87.18,-24.66,87.45,720,OK
2025-08-12 14:30,-27.08,87.18,-22.82,87.45,720,OK
2025-08-12 14:30,-28.58,87.18,-21.99,87.45,720,OK
2025-08-12 14:30,-29.19,87.18,-23.43,87.45,720,OK
2025-08-12 14:30,-31.13,87.18,-23.91,87.45,720,OK
2025-08-12 14:30,-34.34,87.18,-27.16,87.45,720,OK
2025-08-12 14:30,-37.89,87.18,-30.6,87.45,720,OK
2025-08-12 14:30,-38.81,87.18,-34.07,87.45,720,OK
2025-08-12 14:30,-41.3,87.18,-34.87,87.45,720,OK
2025-08-12 14:30,-43.3,87.18,-35.47,87.45,720,OK
2025-08-12 14:30,-45.3,87.18,-34.79,87.45,720,OK
2025-08-12 14:30,-46.06,87.18,-35.1,87.45,720,OK
2025-08-12 14:30,-48.96,87.18,-35.13,87.45,720,OK
2025-08-12 14:30,-48.33,87.18,-35.54,87.45,720,OK
2025-08-12 14:30,-49.29,87.18,-36.42,87.45,720,OK
2025-08-12 14:30,-50.89,87.18,-38.02,87.45,720,OK
2025-08-12 14:30,-52.63,87.18,-36.48,87.45,720,OK
2025-08-12 14:30,-51.48,87.18,-33.93,87.45,720,OK
2025-08-12 14:30,-51.35,87.18,-31.36,87.45,720,OK
2025-08-12 14:30,-51.44,87.18,-27.92,87.45,720,OK
2025-08-12 14:30,-47.61,87.18,-23.03,87.45,720,OK
2025-08-12 14:30,-44.76,87.18,-18.55,87.45,720,OK
2025-08-12 14:30,-42.66,87.18,-14.68,87.45,720,OK
2025-08-12 14:30,-42.56,87.18,-9.8,87.45,720,OK
2025-08-12 14:30,-38.34,87.18,-5.05,87.45,720,OK
2025-08-12 14:30,-38.45,87.18,-1.33,87.45,720,OK
2025-08-12 14:30,-37.18,87.18,2.91,87.45,720,OK
2025-08-12 14:30,-35.61,87.18,7.24,87.45,720,OK
2025-08-12 14:30,-32.88,87.18,10.82,87.45,720,OK
2025-08-12 14:30,-29.6,87.18,15.39,87.45,720,OK
2025-08-12 14:30,-22.58,87.18,20.76,87.45,720,OK
2025-08-12 14:30,-11.4,87.18,30.05,87.45,720,OK
2025-08-12 14:30,2.63,87.18,43.42,87.45,720,OK
2025-08-12 14:30,22.53,87.18,63.64,87.45,720,OK
2025-08-12 14:30,45.58,87.18,89.7,87.45,720,OK
2025-08-12 14:30,71.31,87.18,122.69,87.45,720,OK
2025-08-12 14:30,95.87,87.18,155.84,87.45,720,OK
2025-08-12 14:30,120.13,87.18,189.84,87.45,720,OK
2025-08-12 14:30,140.35,87.18,219.97,84.62,730,OK
2025-08-12 14:30,156.25,84.35,244.65,84.62,730,OK
2025-08-12 14:30,165.51,84.35,259.38,84.62,730,OK
2025-08-12 14:30,168.36,84.35,266.47,84.62,730,OK
2025-08-12 14:30,165.24,84.35,264.7,84.62,730,OK
2025-08-12 14:30,155.56,84.35,252.26,84.62,730,OK
2025-08-12 14:30,141.94,84.35,230.25,84.62,730,OK
2025-08-12 14:30,124.94,84.35,202.55,84.62,730,OK
2025-08-12 14:30,108.99,84.35,168.95,84.62,730,OK
2025-08-12 14:30,90.83,84.35,132.29,84.62,730,OK
2025-08-12 14:30,74.64,84.35,94.47,84.62,730,OK
2025-08-12 14:30,55.62,84.35,56.25,84.62,730,OK
2025-08-12 14:30,37.75,84.35,18.73,84.62,730,OK
2025-08-12 14:30,18.58,84.35,-15.35,84.62,730,OK
2025-08-12 14:30,-0.26,84.35,-48.49,84.62,730,OK
2025-08-12 14:30,-16.29,84.35,-78.14,84.62,730,OK
2025-08-12 14:30,-28.21,84.35,-100.75,84.62,730,OK
2025-08-12 14:30,-38.21,84.35,-119.7,84.62,730,OK
2025-08-12 14:30,-47.79,84.35,-134.53,84.62,730,OK
2025-08-12 14:30,-53.2,84.35,-144.38,84.62,730,OK
2025-08-12 14:30,-58.48,84.35,-148.86,84.62,730,OK
2025-08-12 14:30,-64.07,84.35,-152.26,84.62,730,OK
2025-08-12 14:30,-66.54,84.35,-152.83,84.62,730,OK
2025-08-12 14:30,-67.59,84.35,-149.78,84.62,730,OK
2025-08-12 14:30,-68.65,84.35,-143.03,84.62,730,OK
2025-08-12 14:30,-69.99,84.35,-133.79,84.62,730,OK
2025-08-12 14:30,-68.92,84.35,-121.5,84.62,730,OK
2025-08-12 14:30,-68.19,84.35,-107,84.62,730,OK
2025-08-12 14:30,-62.98,84.35,-93.42,84.62,730,OK
2025-08-12 14:30,-58.01,84.35,-79.63,84.62,730,OK
2025-08-12 14:30,-51.86,84.35,-67.14,84.62,730,OK
2025-08-12 14:30,-46.85,84.35,-56.41,84.62,730,OK
2025-08-12 14:30,-41.39,84.35,-47.45,84.62,730,OK
2025-08-12 14:30,-37.91,84.35,-38.24,84.62,730,OK
2025-08-12 14:30,-35.8,84.35,-33.65,84.62,730,OK
2025-08-12 14:30,-34.75,84.35,-31.73,84.62,730,OK
2025-08-12 14:30,-32.88,84.35,-30.83,84.62,730,OK
2025-08-12 14:30,-34.22,84.35,-30.51,84.62,730,OK
2025-08-12 14:30,-36.21,84.35,-33.94,84.62,730,OK
2025-08-12 14:30,-36.42,84.35,-34.58,84.62,730,OK
2025-08-12 14:30,-36.54,84.35,-35.31,84.62,730,OK
2025-08-12 14:30,-37.06,84.35,-36.6,84.62,730,OK
2025-08-12 14:30,-35.79,84.35,-39.93,84.62,730,OK
2025-08-12 14:30,-35.28,84.35,-40.75,84.62,730,OK
2025-08-12 14:30,-34.02,84.35,-42.88,84.62,730,OK
2025-08-12 14:30,-34.57,84.35,-45.6,84.62,730,OK
2025-08-12 14:30,-35.41,84.35,-46.26,84.62,730,OK
2025-08-12 14:30,-35.98,84.35,-47.49,84.62,730,OK
2025-08-12 14:30,-36.64,84.35,-47.74,84.62,730,OK
2025-08-12 14:30,-38.52,84.35,-47.18,84.62,730,OK
2025-08-12 14:30,-40.15,84.35,-45.66,84.62,730,OK
2025-08-12 14:30,-41.57,84.35,-44.58,84.62,730,OK
2025-08-12 14:30,-43.69,84.35,-39.95,84.62,730,OK
2025-08-12 14:30,-44.26,84.35,-36.82,84.62,730,OK
2025-08-12 14:30,-44.35,84.35,-34.15,84.62,730,OK
2025-08-12 14:30,-43.07,84.35,-29.16,84.62,730,OK
2025-08-12 14:30,-41.77,84.35,-26.18,84.62,730,OK
2025-08-12 14:30,-39.66,84.35,-20.94,84.62,730,OK
2025-08-12 14:30,-38.72,84.35,-15.26,84.62,730,OK
2025-08-12 14:30,-34.82,84.35,-10.74,84.62,730,OK
2025-08-12 14:30,-30.2,84.35,-6.38,84.62,730,OK
2025-08-12 14:30,-25.11,84.35,-1.25,84.62,730,OK
2025-08-12 14:30,-21.77,84.35,2.03,84.62,730,OK
2025-08-12 14:30,-18.23,84.35,5.38,84.62,730,OK
2025-08-12 14:30,-17.12,84.35,9.29,84.62,730,OK
2025-08-12 14:30,-16.5,84.35,12.35,84.62,730,OK
2025-08-12 14:30,-14.08,84.35,16.77,84.62,730,OK
2025-08-12 14:30,-8.23,84.35,24.7,84.62,730,OK
2025-08-12 14:30,1.8,84.35,36.92,84.62,730,OK
2025-08-12 14:30,14.75,84.35,57,84.62,730,OK
2025-08-12 14:30,32.52,84.35,84.33,84.62,730,OK
2025-08-12 14:30,51.01,84.35,118.43,84.62,730,OK
2025-08-12 14:30,73.11,84.35,152.57,84.62,730,OK
2025-08-12 14:30,92.74,84.35,189.79,84.62,730,OK
2025-08-12 14:30,113.39,84.35,222.95,84.62,730,OK
2025-08-12 14:30,128.16,84.35,248.08,82.71,740,OK
2025-08-12 14:30,139.75,82.7,264.63,82.71,740,OK
2025-08-12 14:30,144.7,82.7,274.21,82.71,740,OK
2025-08-12 14:30,145.91,82.7,271.26,82.71,740,OK
2025-08-12 14:30,139.7,82.7,258.04,82.71,740,OK
2025-08-12 14:30,130.47,82.7,239.24,82.71,740,OK
2025-08-12 14:30,117.65,82.7,213.3,82.71,740,OK
2025-08-12 14:30,104.39,82.7,180.91,82.71,740,OK
2025-08-12 14:30,89.22,82.7,147.01,82.71,740,OK
2025-08-12 14:30,72.89,82.7,111.77,82.71,740,OK
2025-08-12 14:30,57.73,82.7,74.72,82.71,740,OK
2025-08-12 14:30,44.55,82.7,37.43,82.71,740,OK
2025-08-12 14:30,29.46,82.7,3.04,82.71,740,OK
2025-08-12 14:30,15.29,82.7,-29.02,82.71,740,OK
2025-08-12 14:30,4.31,82.7,-55.85,82.71,740,OK
2025-08-12 14:30,-7.29,82.7,-78.49,82.71,740,OK
2025-08-12 14:30,-19.7,82.7,-95.44,82.71,740,OK
2025-08-12 14:30,-29.32,82.7,-107.88,82.71,740,OK
2025-08-12 14:30,-37.59,82.7,-118.85,82.71,740,OK
2025-08-12 14:30,-44.56,82.7,-125.31,82.71,740,OK
2025-08-12 14:30,-48.92,82.7,-127.83,82.71,740,OK
2025-08-12 14:30,-52.35,82.7,-126.63,82.71,740,OK
2025-08-12 14:30,-55.31,82.7,-124.16,82.71,740,OK
2025-08-12 14:30,-56.78,82.7,-116.23,82.71,740,OK
2025-08-12 14:30,-58.86,82.7,-108.69,82.71,740,OK
2025-08-12 14:30,-59.55,82.7,-99.3,82.71,740,OK
2025-08-12 14:30,-57.57,82.7,-89.28,82.71,740,OK
2025-08-12 14:30,-55.36,82.7,-77.51,82.71,740,OK
2025-08-12 14:30,-52.66,82.7,-67.27,82.71,740,OK
2025-08-12 14:30,-48.24,82.7,-56.93,82.71,740,OK
2025-08-12 14:30,-43.1,82.7,-47.83,82.71,740,OK
2025-08-12 14:30,-38.72,82.7,-40.42,82.71,740,OK
2025-08-12 14:30,-34.81,82.7,-33.46,82.71,740,OK
2025-08-12 14:30,-30.59,82.7,-29.04,82.71,740,OK
2025-08-12 14:30,-26.92,82.7,-25.78,82.71,740,OK
2025-08-12 14:30,-24.06,82.7,-23.38,82.71,740,OK
2025-08-12 14:30,-22.09,82.7,-23.39,82.71,740,OK
2025-08-12 14:30,-20.54,82.7,-25.43,82.71,740,OK
2025-08-12 14:30,-19.6,82.7,-26.26,82.71,740,OK
2025-08-12 14:30,-20.79,82.7,-30.06,82.71,740,OK
2025-08-12 14:30,-23.19,82.7,-33.58,82.71,740,OK
2025-08-12 14:30,-27.71,82.7,-36.38,82.71,740,OK
2025-08-12 14:30,-30.66,82.7,-38.72,82.71,740,OK
2025-08-12 14:30,-35.32,82.7,-41.74,82.71,740,OK
2025-08-12 14:30,-40.52,82.7,-43.74,82.71,740,OK
2025-08-12 14:30,-46.75,82.7,-47.73,82.71,740,OK
2025-08-12 14:30,-49.45,82.7,-51.66,82.71,740,OK
2025-08-12 14:30,-53.72,82.7,-53.69,82.71,740,OK
2025-08-12 14:30,-57.16,82.7,-54.32,82.71,740,OK
2025-08-12 14:30,-58.18,82.7,-53.75,82.71,740,OK
2025-08-12 14:30,-57.22,82.7,-50.33,82.71,740,OK
2025-08-12 14:30,-56.3,82.7,-44.42,82.71,740,OK
2025-08-12 14:30,-55.04,82.7,-38.21,82.71,740,OK
2025-08-12 14:30,-51.52,82.7,-31.99,82.71,740,OK
2025-08-12 14:30,-48.53,82.7,-24.84,82.71,740,OK
2025-08-12 14:30,-45.69,82.7,-19.11,82.71,740,OK
2025-08-12 14:30,-42.26,82.7,-12.18,82.71,740,OK
2025-08-12 14:30,-38.28,82.7,-5.74,82.71,740,OK
2025-08-12 14:30,-35.32,82.7,0.29,82.71,740,OK
2025-08-12 14:30,-30.77,82.7,8.43,82.71,740,OK
2025-08-12 14:30,-25.92,82.7,21.03,82.71,740,OK
2025-08-12 14:30,-23.95,82.7,32.54,82.71,740,OK
2025-08-12 14:30,-18.95,82.7,46.99,82.71,740,OK
2025-08-12 14:30,-14.41,82.7,63.19,82.71,740,OK
2025-08-12 14:30,-10.17,82.7,77.81,82.71,740,OK
2025-08-12 14:30,-4.4,82.7,90.19,82.71,740,OK
2025-08-12 14:30,6.57,82.7,102.46,82.71,740,OK
2025-08-12 14:30,16.84,82.7,114.45,82.71,740,OK
2025-08-12 14:30,33.46,82.7,126.36,82.71,740,OK
2025-08-12 14:30,53.31,82.7,144.45,82.71,740,OK
2025-08-12 14:30,76.44,82.7,163.34,82.71,740,OK
2025-08-12 14:30,98.23,82.7,183.8,82.71,740,OK
2025-08-12 14:30,121.91,82.7,203.03,82.71,740,OK
2025-08-12 14:30,142.85,82.7,220.26,81.76,720,OK
2025-08-12 14:30,157.85,81.99,230.06,81.76,720,OK
2025-08-12 14:30,167.89,81.99,233.25,81.76,720,OK
2025-08-12 14:30,174.33,81.99,229.24,81.76,720,OK
2025-08-12 14:30,174.67,81.99,217.22,81.76,720,OK
2025-08-12 14:30,165.71,81.99,198.72,81.76,720,OK
2025-08-12 14:30,155.21,81.99,172.5,81.76,720,OK
2025-08-12 14:30,140.99,81.99,142.86,81.76,720,OK
2025-08-12 14:30,124.25,81.99,110.4,81.76,720,OK
2025-08-12 14:30,105.86,81.99,76.29,81.76,720,OK
2025-08-12 14:30,87.44,81.99,42.94,81.76,720,OK
2025-08-12 14:30,68.45,81.99,12.67,81.76,720,OK
2025-08-12 14:30,49.05,81.99,-15.2,81.76,720,OK
2025-08-12 14:30,30.92,81.99,-41.02,81.76,720,OK
2025-08-12 14:30,13.1,81.99,-65.51,81.76,720,OK
2025-08-12 14:30,-1.53,81.99,-86.11,81.76,720,OK
2025-08-12 14:30,-14.17,81.99,-102.72,81.76,720,OK
2025-08-12 14:30,-24.42,81.99,-117.4,81.76,720,OK
2025-08-12 14:30,-33.26,81.99,-126.17,81.76,720,OK
2025-08-12 14:30,-41.26,81.99,-129.95,81.76,720,OK
2025-08-12 14:30,-48.05,81.99,-130.42,81.76,720,OK
2025-08-12 14:30,-53.64,81.99,-129.66,81.76,720,OK
2025-08-12 14:30,-58.77,81.99,-124.5,81.76,720,OK
2025-08-12 14:30,-63.52,81.99,-118.08,81.76,720,OK
2025-08-12 14:30,-66.4,81.99,-109.28,81.76,720,OK
2025-08-12 14:30,-67.71,81.99,-99.85,81.76,720,OK
2025-08-12 14:30,-68.33,81.99,-89.09,81.76,720,OK
2025-08-12 14:30,-68.65,81.99,-77.69,81.76,720,OK
2025-08-12 14:30,-66.9,81.99,-68.77,81.76,720,OK
2025-08-12 14:30,-66.13,81.99,-58.23,81.76,720,OK
2025-08-12 14:30,-65.17,81.99,-48.92,81.76,720,OK
2025-08-12 14:30,-61.99,81.99,-40.2,81.76,720,OK
2025-08-12 14:30,-58.85,81.99,-32.82,81.76,720,OK
2025-08-12 14:30,-56.12,81.99,-24.28,81.76,720,OK
2025-08-12 14:30,-52.3,81.99,-21.75,81.76,720,OK
2025-08-12 14:30,-49.26,81.99,-18.03,81.76,720,OK
2025-08-12 14:30,-46.94,81.99,-16.74,81.76,720,OK
2025-08-12 14:30,-43.94,81.99,-16.29,81.76,720,OK
2025-08-12 14:30,-42.59,81.99,-18.39,81.76,720,OK
2025-08-12 14:30,-40.39,81.99,-18.42,81.76,720,OK
2025-08-12 14:30,-36.85,81.99,-22.33,81.76,720,OK
2025-08-12 14:30,-34.73,81.99,-25.78,81.76,720,OK
2025-08-12 14:30,-31.93,81.99,-31.69,81.76,720,OK
2025-08-12 14:30,-28.93,81.99,-34.6,81.76,720,OK
2025-08-12 14:30,-28.19,81.99,-37.23,81.76,720,OK
2025-08-12 14:30,-27.09,81.99,-39,81.76,720,OK
2025-08-12 14:30,-28.5,81.99,-40.06,81.76,720,OK
2025-08-12 14:30,-30.02,81.99,-38.48,81.76,720,OK
2025-08-12 14:30,-33.83,81.99,-39.61,81.76,720,OK
2025-08-12 14:30,-35.11,81.99,-39,81.76,720,OK
2025-08-12 14:30,-38.73,81.99,-39.4,81.76,720,OK
2025-08-12 14:30,-41.22,81.99,-38.45,81.76,720,OK
2025-08-12 14:30,-44.52,81.99,-36.42,81.76,720,OK
2025-08-12 14:30,-45.93,81.99,-30.97,81.76,720,OK
2025-08-12 14:30,-47.75,81.99,-28.23,81.76,720,OK
2025-08-12 14:30,-48.46,81.99,-21.7,81.76,720,OK
2025-08-12 14:30,-47.76,81.99,-13.57,81.76,720,OK
2025-08-12 14:30,-47.01,81.99,-6.23,81.76,720,OK
2025-08-12 14:30,-44.39,81.99,0.23,81.76,720,OK
2025-08-12 14:30,-41.85,81.99,8.8,81.76,720,OK
2025-08-12 14:30,-39.5,81.99,14.22,81.76,720,OK
2025-08-12 14:30,-36.82,81.99,19.5,81.76,720,OK
2025-08-12 14:30,-34.92,81.99,24.11,81.76,720,OK
2025-08-12 14:30,-32.97,81.99,27.06,81.76,720,OK
2025-08-12 14:30,-30.31,81.99,30.51,81.76,720,OK
2025-08-12 14:30,-25.81,81.99,35.97,81.76,720,OK
2025-08-12 14:30,-22.16,81.99,39.35,81.76,720,OK
2025-08-12 14:30,-13.82,81.99,45.23,81.76,720,OK
2025-08-12 14:30,-2.12,81.99,55.41,81.76,720,OK
2025-08-12 14:30,14.19,81.99,71.23,81.76,720,OK
2025-08-12 14:30,32.81,81.99,93.43,81.76,720,OK
2025-08-12 14:30,56.27,81.99,122.05,81.76,720,OK
2025-08-12 14:30,80.02,81.99,152.73,81.76,720,OK
2025-08-12 14:30,103.67,81.99,185.81,81.76,720,OK
2025-08-12 14:30,122.74,81.99,215.42,81.76,720,OK
2025-08-12 14:30,139.33,81.31,240.3,81.09,740,OK
2025-08-12 14:30,151.28,81.31,257.27,81.09,740,OK
2025-08-12 14:30,157.43,81.31,266.82,81.09,740,OK
2025-08-12 14:30,156.79,81.31,266.01,81.09,740,OK
2025-08-12 14:30,155.37,81.31,257.35,81.09,740,OK
2025-08-12 14:30,149.18,81.31,239,81.09,740,OK
2025-08-12 14:30,139.6,81.31,216.41,81.09,740,OK
2025-08-12 14:30,127.51,81.31,187.72,81.09,740,OK
2025-08-12 14:30,113.98,81.31,156.82,81.09,740,OK
2025-08-12 14:30,95.89,81.31,123.15,81.09,740,OK
2025-08-12 14:30,77.38,81.31,89.12,81.09,740,OK
2025-08-12 14:30,57.32,81.31,53.59,81.09,740,OK
2025-08-12 14:30,57.32,81.31,53.59,81.09,740,Start
2025-08-12 14:30,36.45,81.31,21.98,81.09,740,OK
2025-08-12 14:30,16.77,81.31,-7.29,81.09,740,OK
2025-08-12 14:30,-2.21,81.31,-34.11,81.09,740,OK
2025-08-12 14:30,-19.9,81.31,-57.16,81.09,740,OK
2025-08-12 14:30,-33.5,81.31,-74.77,81.09,740,OK
2025-08-12 14:30,-42.84,81.31,-91.06,81.09,740,OK
2025-08-12 14:30,-51.96,81.31,-103.26,81.09,740,OK
2025-08-12 14:30,-57.7,81.31,-110.73,81.09,740,OK
2025-08-12 14:30,-62.29,81.31,-114.47,81.09,740,OK
2025-08-12 14:30,-65.5,81.31,-114.67,81.09,740,OK
2025-08-12 14:30,-68.33,81.31,-110,81.09,740,OK
2025-08-12 14:30,-67.06,81.31,-103,81.09,740,OK
2025-08-12 14:30,-65.48,81.31,-92.59,81.09,740,OK
2025-08-12 14:30,-61.89,81.31,-81.11,81.09,740,OK
2025-08-12 14:30,-56.91,81.31,-69.03,81.09,740,OK
2025-08-12 14:30,-52.43,81.31,-56.73,81.09,740,OK
2025-08-12 14:30,-48.49,81.31,-44.21,81.09,740,OK
2025-08-12 14:30,-43.59,81.31,-32.28,81.09,740,OK
2025-08-12 14:30,-38.4,81.31,-21.61,81.09,740,OK
2025-08-12 14:30,-34.95,81.31,-12.9,81.09,740,OK
2025-08-12 14:30,-30.02,81.31,-7.88,81.09,740,OK
2025-08-12 14:30,-24.84,81.31,-5.23,81.09,740,OK
2025-08-12 14:30,-20.62,81.31,-7.69,81.09,740,OK
2025-08-12 14:30,-17.92,81.31,-12.86,81.09,740,OK
2025-08-12 14:30,-16.38,81.31,-21.23,81.09,740,OK
2025-08-12 14:30,-13.55,81.31,-30.62,81.09,740,OK
2025-08-12 14:30,-14.34,81.31,-41.3,81.09,740,OK
2025-08-12 14:30,-14.69,81.31,-54.05,81.09,740,OK
2025-08-12 14:30,-14.46,81.31,-66.6,81.09,740,OK
2025-08-12 14:30,-16.73,81.31,-80.01,81.09,740,OK
2025-08-12 14:30,-20.47,81.31,-92.34,81.09,740,OK
2025-08-12 14:30,-22.97,81.31,-106.4,81.09,740,OK
2025-08-12 14:30,-26.78,81.31,-118.5,81.09,740,OK
2025-08-12 14:30,-32.51,81.31,-129.59,81.09,740,OK
2025-08-12 14:30,-36.76,81.31,-138.11,81.09,740,OK
2025-08-12 14:30,-40.76,81.31,-147.9,81.09,740,OK
2025-08-12 14:30,-43.97,81.31,-158.03,81.09,740,OK
2025-08-12 14:30,-45.22,81.31,-167.64,81.09,740,OK
2025-08-12 14:30,-44.76,81.31,-176.51,81.09,740,OK
2025-08-12 14:30,-44.07,81.31,-185.03,81.09,740,OK
2025-08-12 14:30,-41.54,81.31,-191.96,81.09,740,OK
2025-08-12 14:30,-39.5,81.31,-194.55,81.09,740,OK
2025-08-12 14:30,-35.28,81.31,-193.39,81.09,740,OK
2025-08-12 14:30,-31.51,81.31,-190.09,81.09,740,OK
2025-08-12 14:30,-27.26,81.31,-185.47,81.09,740,OK
2025-08-12 14:30,-24.95,81.31,-178.5,81.09,740,OK
2025-08-12 14:30,-21.61,81.31,-170.89,81.09,740,OK
2025-08-12 14:30,-21.45,81.31,-166.03,81.09,740,OK
2025-08-12 14:30,-20.85,81.31,-159.62,81.09,740,OK
2025-08-12 14:30,-19.38,81.31,-154.29,81.09,740,OK
2025-08-12 14:30,-18.68,81.31,-148.46,81.09,740,OK
2025-08-12 14:30,-18.47,81.31,-142.68,81.09,740,OK
2025-08-12 14:30,-15.38,81.31,-135.97,81.09,740,OK
2025-08-12 14:30,-9.87,81.31,-131.25,81.09,740,OK
2025-08-12 14:30,-4.31,81.31,-122.66,81.09,740,OK
2025-08-12 14:30,6.02,81.31,-111.87,81.09,740,OK
2025-08-12 14:30,21.63,81.31,-96.26,81.09,740,OK
2025-08-12 14:30,38.3,81.31,-73.32,81.09,740,OK
2025-08-12 14:30,56.95,81.31,-45.62,81.09,740,OK
2025-08-12 14:30,81.61,81.31,-13.74,81.09,740,OK
2025-08-12 14:30,104.01,81.31,21.44,81.09,740,OK
2025-08-12 14:30,124.73,81.31,54.47,81.09,740,OK
2025-08-12 14:30,144.08,81.31,84.92,80.87,740,OK
2025-08-12 14:30,158.81,80.87,109.66,80.87,-10,OK
2025-08-12 14:30,166.27,80.87,125.13,80.87,-10,OK
2025-08-12 14:30,170.29,80.87,132.78,80.87,-10,OK
2025-08-12 14:30,168.59,80.87,130.7,80.87,-10,OK
2025-08-12 14:30,162.79,80.87,118.64,80.87,-10,OK
2025-08-12 14:30,152.9,80.87,101.92,80.87,-10,OK
2025-08-12 14:30,139.35,80.87,79.97,80.87,-10,OK
2025-08-12 14:30,124.95,80.87,53.48,80.87,-10,OK
2025-08-12 14:30,108.77,80.87,24.62,80.87,-10,OK
2025-08-12 14:30,90.68,80.87,-4.68,80.87,-10,OK
2025-08-12 14:30,73.22,80.87,-34.06,80.87,-10,OK
2025-08-12 14:30,57.93,80.87,-63.45,80.87,-10,OK
2025-08-12 14:30,41.2,80.87,-89.8,80.87,-10,OK
2025-08-12 14:30,28.21,80.87,-112.34,80.87,-10,OK
2025-08-12 14:30,15.13,80.87,-132.84,80.87,-10,OK
2025-08-12 14:30,3.89,80.87,-151.55,80.87,-10,OK
2025-08-12 14:30,-5.35,80.87,-164.9,80.87,-10,OK
2025-08-12 14:30,-9.61,80.87,-175.22,80.87,-10,OK
2025-08-12 14:30,-14.4,80.87,-180.43,80.87,-10,OK
2025-08-12 14:30,-15.06,80.87,-182.58,80.87,-10,OK
2025-08-12 14:30,-12.28,80.87,-180.18,80.87,-10,OK
2025-08-12 14:30,-7.83,80.87,-176.02,80.87,-10,OK
2025-08-12 14:30,-1.7,80.87,-169.3,80.87,-10,OK
2025-08-12 14:30,10.92,80.87,-160.54,80.87,-10,OK
2025-08-12 14:30,26.29,80.87,-151.05,80.87,-10,OK
2025-08-12 14:30,46.91,80.87,-138.24,80.87,-10,OK
2025-08-12 14:30,73.81,80.87,-122.94,80.87,-10,OK
2025-08-12 14:30,104.09,80.87,-107.84,80.87,-10,OK
2025-08-12 14:30,139.11,80.87,-93.7,80.87,-10,OK
2025-08-12 14:30,180.69,80.87,-76.79,80.87,-10,OK
2025-08-12 14:30,226.85,80.87,-63.63,80.87,-10,OK
2025-08-12 14:30,276.72,80.87,-53.77,80.87,-10,OK
2025-08-12 14:30,330.59,80.87,-44.35,80.87,-10,OK
2025-08-12 14:30,386.87,80.87,-36.61,80.87,-10,OK
2025-08-12 14:30,440.8,99.95,-31.64,80.87,-10,OK
2025-08-12 14:30,491.93,99.95,-27.65,80.87,-10,OK
2025-08-12 14:30,536.4,99.95,-23.53,80.87,-10,OK
2025-08-12 14:30,572.8,99.95,-22.53,80.87,-10,OK
2025-08-12 14:30,594.97,99.95,-22.87,80.87,-10,OK
2025-08-12 14:30,608.34,99.95,-24.09,80.87,-10,OK
2025-08-12 14:30,609.33,99.95,-24.33,80.87,-10,OK
2025-08-12 14:30,599.63,99.95,-26.88,80.87,-10,OK
2025-08-12 14:30,578.79,99.95,-27.96,80.87,-10,OK
2025-08-12 14:30,555.23,99.95,-25.69,80.87,-10,OK
2025-08-12 14:30,525.78,99.95,-25.17,80.87,-10,OK
2025-08-12 14:30,491.02,99.95,-25.96,80.87,-10,OK
2025-08-12 14:30,454.84,99.95,-23.47,80.87,-10,OK
2025-08-12 14:30,418.17,99.95,-20.87,80.87,-10,OK
2025-08-12 14:30,375.16,99.95,-19.49,80.87,-10,OK
2025-08-12 14:30,325.54,99.95,-14.69,80.87,-10,OK
2025-08-12 14:30,269.97,99.95,-10.18,80.87,-10,OK
2025-08-12 14:30,207.95,99.95,-4.91,80.87,-10,OK
2025-08-12 14:30,136.43,99.95,-0.22,80.87,-10,OK
2025-08-12 14:30,59.15,99.95,3.31,80.87,-10,OK
2025-08-12 14:30,-22.23,99.95,6.59,80.87,-10,OK
2025-08-12 14:30,-107.26,99.95,10.95,80.87,-10,OK
2025-08-12 14:30,-192.64,99.95,15.8,80.87,-10,OK
2025-08-12 14:30,-278.54,99.95,19.84,80.87,-10,OK
2025-08-12 14:30,-366.39,99.95,23.43,80.87,-10,OK
2025-08-12 14:30,-455.4,99.95,23.7,80.87,-10,OK
2025-08-12 14:30,-542.93,99.95,22.77,80.87,-10,OK
2025-08-12 14:30,-629.65,99.95,18.69,80.87,-10,OK
2025-08-12 14:30,-708.08,99.95,14.93,80.87,-10,OK
2025-08-12 14:30,-771.12,99.95,11.85,80.87,-10,OK
2025-08-12 14:30,-815.65,99.95,14.48,80.87,-10,OK
2025-08-12 14:30,-839.51,99.95,23.41,80.87,-10,OK
2025-08-12 14:30,-838.82,99.95,39.22,80.87,-10,OK
2025-08-12 14:30,-814.29,99.95,66.28,80.87,-10,OK
2025-08-12 14:30,-770.21,99.95,100.47,80.87,-10,OK
2025-08-12 14:30,-708.88,99.95,140.55,80.87,-10,OK
2025-08-12 14:30,-633.32,99.95,184.39,80.87,-10,OK
2025-08-12 14:30,-549.76,99.95,229.06,80.87,-10,OK
2025-08-12 14:30,-462.48,99.95,268.09,81.09,380,OK
2025-08-12 14:30,-376.03,99.95,302.15,81.09,380,OK
2025-08-12 14:30,-295.29,113.95,325.66,81.09,380,OK
2025-08-12 14:30,-221.7,113.95,335.88,81.09,380,OK
2025-08-12 14:30,-157.83,113.95,334.39,81.09,380,OK
2025-08-12 14:30,-102.92,113.95,320,81.09,380,OK
2025-08-12 14:30,-58.99,113.95,294.48,81.09,380,OK
2025-08-12 14:30,-23.19,113.95,263,81.09,380,OK
2025-08-12 14:30,4.27,113.95,227.35,81.09,380,OK
2025-08-12 14:30,24.1,113.95,187.05,81.09,380,OK
2025-08-12 14:30,37.55,113.95,147.33,81.09,380,OK
2025-08-12 14:30,43.53,113.95,108.99,81.09,380,OK
2025-08-12 14:30,45.03,113.95,72.11,81.09,380,OK
2025-08-12 14:30,42.04,113.95,38.73,81.09,380,OK
2025-08-12 14:30,33.7,113.95,11.79,81.09,380,OK
2025-08-12 14:30,19.84,113.95,-10.22,81.09,380,OK
2025-08-12 14:30,7.43,113.95,-26.61,81.09,380,OK
2025-08-12 14:30,-7.18,113.95,-39.04,81.09,380,OK
2025-08-12 14:30,-21.04,113.95,-47.45,81.09,380,OK
2025-08-12 14:30,-33.85,113.95,-52.48,81.09,380,OK
2025-08-12 14:30,-43.18,113.95,-55.25,81.09,380,OK
2025-08-12 14:30,-53.74,113.95,-57.94,81.09,380,OK
2025-08-12 14:30,-60.52,113.95,-59.5,81.09,380,OK
2025-08-12 14:30,-66.04,113.95,-58.93,81.09,380,OK
2025-08-12 14:30,-68.83,113.95,-58.3,81.09,380,OK
2025-08-12 14:30,-72.21,113.95,-56.84,81.09,380,OK
2025-08-12 14:30,-73.16,113.95,-54.17,81.09,380,OK
2025-08-12 14:30,-73.8,113.95,-50.85,81.09,380,OK
2025-08-12 14:30,-73.87,113.95,-48.87,81.09,380,OK
2025-08-12 14:30,-74.79,113.95,-44.84,81.09,380,OK
2025-08-12 14:30,-74.81,113.95,-40.81,81.09,380,OK
2025-08-12 14:30,-75.39,113.95,-36.98,81.09,380,OK
2025-08-12 14:30,-74.76,113.95,-32.6,81.09,380,OK
2025-08-12 14:30,-73.75,113.95,-27.44,81.09,380,OK
2025-08-12 14:30,-72.87,113.95,-25.13,81.09,380,OK
2025-08-12 14:30,-72.68,113.95,-25.02,81.09,380,OK
2025-08-12 14:30,-71.51,113.95,-22.85,81.09,380,OK
2025-08-12 14:30,-73.32,113.95,-21.89,81.09,380,OK
2025-08-12 14:30,-77.39,113.95,-23.73,81.09,380,OK
2025-08-12 14:30,-80.76,113.95,-25.35,81.09,380,OK
2025-08-12 14:30,-86.21,113.95,-25.83,81.09,380,OK
2025-08-12 14:30,-92.44,113.95,-29.54,81.09,380,OK
2025-08-12 14:30,-102.71,113.95,-32.58,81.09,380,OK
2025-08-12 14:30,-111.67,113.95,-35.35,81.09,380,OK
2025-08-12 14:30,-119.28,113.95,-38.88,81.09,380,OK
2025-08-12 14:30,-124.14,113.95,-42.56,81.09,380,OK
2025-08-12 14:30,-129.89,113.95,-45.19,81.09,380,OK
2025-08-12 14:30,-128.87,113.95,-47.54,81.09,380,OK
2025-08-12 14:30,-125.77,113.95,-50.43,81.09,380,OK
2025-08-12 14:30,-123.6,113.95,-51.98,81.09,380,OK
2025-08-12 14:30,-120.19,113.95,-55.82,81.09,380,OK
2025-08-12 14:30,-113.74,113.95,-60.65,81.09,380,OK
2025-08-12 14:30,-107.21,113.95,-65.76,81.09,380,OK
2025-08-12 14:30,-101.36,113.95,-68.75,81.09,380,OK
2025-08-12 14:30,-92.37,113.95,-67.92,81.09,380,OK
2025-08-12 14:30,-82.91,113.95,-61.08,81.09,380,OK
2025-08-12 14:30,-73.73,113.95,-47.86,81.09,380,OK
2025-08-12 14:30,-64.03,113.95,-29.23,81.09,380,OK
2025-08-12 14:30,-51.89,113.95,-1.85,81.09,380,OK
2025-08-12 14:30,-42,113.95,29.21,81.09,380,OK
2025-08-12 14:30,-32.31,113.95,64.68,81.09,380,OK
2025-08-12 14:30,-22.71,113.95,102.55,81.09,380,OK
2025-08-12 14:30,-14.23,113.95,146.22,81.09,380,OK
2025-08-12 14:30,-9.3,113.95,189.19,84.14,610,OK
2025-08-12 14:30,-4.9,113.95,234.54,84.14,610,OK
2025-08-12 14:30,-2.26,113.95,280.27,84.14,610,OK
2025-08-12 14:30,2.21,113.95,327.38,84.14,610,OK
2025-08-12 14:30,6.23,113.95,372.78,84.14,610,OK
2025-08-12 14:30,13.31,113.95,418.62,84.14,610,OK
2025-08-12 14:30,22.83,113.95,462.08,84.14,610,OK
2025-08-12 14:30,35.06,113.95,504.66,84.14,610,OK
2025-08-12 14:30,46.74,113.95,546.12,84.14,610,OK
2025-08-12 14:30,60.52,113.95,582.64,84.14,610,OK
2025-08-12 14:30,72.98,113.95,613.37,84.14,610,OK
2025-08-12 14:30,82.4,113.95,636.28,84.14,610,OK
2025-08-12 14:30,89.88,113.95,646.36,84.14,610,OK
2025-08-12 14:30,92.25,113.95,643.29,84.14,610,OK
2025-08-12 14:30,91.12,113.95,625.64,84.14,610,OK
2025-08-12 14:30,84.72,113.95,596.48,84.14,610,OK
2025-08-12 14:30,75.9,113.95,554.55,84.14,610,OK
2025-08-12 14:30,63.68,113.95,505.21,84.14,610,OK
2025-08-12 14:30,53.23,113.95,448.95,84.14,610,OK
2025-08-12 14:30,38.78,113.95,389.88,84.14,610,OK
2025-08-12 14:30,22.9,113.95,327.82,84.14,610,OK
2025-08-12 14:30,7.99,113.95,267.73,84.14,610,OK
2025-08-12 14:30,-6.21,113.95,209.5,84.14,610,OK
2025-08-12 14:30,-23.56,113.95,155.19,84.14,610,OK
2025-08-12 14:30,-36.63,113.95,106.05,84.14,610,OK
2025-08-12 14:30,-47.31,113.95,63.58,84.14,610,OK
2025-08-12 14:30,-55.7,113.95,27.93,84.14,610,OK
2025-08-12 14:30,-63.96,113.95,0.66,84.14,610,OK
2025-08-12 14:30,-67.27,113.95,-18.46,84.14,610,OK
2025-08-12 14:30,-68.71,113.95,-28.89,84.14,610,OK
2025-08-12 14:30,-66.81,113.95,-32.84,84.14,610,OK
2025-08-12 14:30,-65.6,113.95,-29.5,84.14,610,OK
2025-08-12 14:30,-60.31,113.95,-16.89,84.14,610,OK
2025-08-12 14:30,-55.9,113.95,2.21,84.14,610,OK
2025-08-12 14:30,-50.94,113.95,29.75,84.14,610,OK
2025-08-12 14:30,-44,113.95,64.4,84.14,610,OK
2025-08-12 14:30,-36.26,113.95,105.88,84.14,610,OK
2025-08-12 14:30,-28.15,113.95,152.01,84.14,610,OK
2025-08-12 14:30,-19.07,113.95,201.62,84.14,610,OK
2025-08-12 14:30,-8.37,113.95,252.02,98.47,610,OK
2025-08-12 14:30,1.26,113.95,299.65,98.47,610,OK
2025-08-12 14:30,14.03,113.95,339.06,98.47,610,OK
2025-08-12 14:30,28.98,113.95,360.5,98.47,610,OK
2025-08-12 14:30,46.31,113.95,357.11,98.47,610,OK
2025-08-12 14:30,61.44,113.95,317.93,98.47,610,OK
2025-08-12 14:30,78.29,113.95,238.41,98.47,610,OK
2025-08-12 14:30,93.35,113.95,117.77,98.47,610,OK
2025-08-12 14:30,105.45,113.95,-42.44,98.47,610,OK
2025-08-12 14:30,115.25,113.95,-234.74,98.47,610,OK
2025-08-12 14:30,126.08,113.95,-452.63,98.47,610,OK
2025-08-12 14:30,136.62,113.95,-689.17,98.47,610,OK
2025-08-12 14:30,145.99,113.95,-940.09,98.47,610,OK
2025-08-12 14:30,157.02,113.95,-1191.04,98.47,610,OK
2025-08-12 14:30,168.36,113.95,-1432.04,98.47,610,OK
2025-08-12 14:30,178.61,113.95,-1649.63,98.47,610,OK
2025-08-12 14:30,187.1,113.95,-1830.66,98.47,610,OK
2025-08-12 14:30,193.72,113.95,-1959.4,98.47,610,OK
2025-08-12 14:30,198.17,113.95,-2034.73,98.47,610,OK
2025-08-12 14:30,197.35,113.95,-2040.87,98.47,610,OK
2025-08-12 14:30,195.41,113.95,-1986.82,98.47,610,OK
2025-08-12 14:30,190.66,113.95,-1883.5,98.47,610,OK
2025-08-12 14:30,182.67,113.95,-1745.66,98.47,610,OK
2025-08-12 14:30,172.34,113.95,-1581.46,98.47,610,OK
2025-08-12 14:30,163.23,113.95,-1416.25,98.47,610,OK
2025-08-12 14:30,150.89,113.95,-1251.82,98.47,610,OK
2025-08-12 14:30,135.1,113.95,-1075.1,98.47,610,OK
2025-08-12 14:30,118.53,113.95,-883.67,98.47,610,OK
2025-08-12 14:30,96.25,113.95,-675.64,98.47,610,OK
2025-08-12 14:30,69.31,113.95,-451.23,98.47,610,OK
2025-08-12 14:30,40.03,113.95,-214.79,98.47,610,OK
2025-08-12 14:30,6.57,113.95,16.15,98.47,610,OK
2025-08-12 14:30,-31.51,113.95,226.09,98.47,610,OK
2025-08-12 14:30,-71.05,113.95,402.03,98.47,610,OK
2025-08-12 14:30,-110.04,113.95,530.37,117.77,610,OK
2025-08-12 14:30,-151,113.95,604.99,117.77,610,OK
2025-08-12 14:30,-186.09,113.95,617.83,117.77,610,OK
2025-08-12 14:30,-211.49,113.95,576.7,117.77,610,OK
2025-08-12 14:30,-227.41,113.95,492.97,117.77,610,OK
2025-08-12 14:30,-231.2,113.95,382.92,117.77,610,OK
2025-08-12 14:30,-219.99,113.95,264.93,117.77,610,OK
2025-08-12 14:30,-198.78,113.95,157.31,117.77,610,OK
2025-08-12 14:30,-166.31,113.95,71.76,117.77,610,OK
2025-08-12 14:30,-125.19,113.95,14.17,117.77,610,OK
2025-08-12 14:30,-82.89,113.95,-16.21,117.77,610,OK
2025-08-12 14:30,-40.47,113.95,-21.87,117.77,610,OK
2025-08-12 14:30,1.59,113.95,-10.71,117.77,610,OK
2025-08-12 14:30,37.25,113.95,11.76,117.77,610,OK
2025-08-12 14:30,67.17,105.62,38.71,117.77,-480,OK
2025-08-12 14:30,90.87,105.62,66.92,117.77,-480,OK
2025-08-12 14:30,108.94,105.62,93.74,117.77,-480,OK
2025-08-12 14:30,118.98,105.62,123.01,117.77,-480,OK
2025-08-12 14:30,123.42,105.62,150.31,117.77,-480,OK
2025-08-12 14:30,121.47,105.62,176.33,117.77,-480,OK
2025-08-12 14:30,116.46,105.62,200.41,117.77,-480,OK
2025-08-12 14:30,106.85,105.62,222.6,117.77,-480,OK
2025-08-12 14:30,95.18,105.62,240.97,117.77,-480,OK
2025-08-12 14:30,81.8,105.62,255.29,117.77,-480,OK
2025-08-12 14:30,69.54,105.62,263.53,117.77,-480,OK
2025-08-12 14:30,57.66,105.62,269.99,117.77,-480,OK
2025-08-12 14:30,45.28,105.62,270.53,117.77,-480,OK
2025-08-12 14:30,33.28,105.62,265.45,117.77,-480,OK
2025-08-12 14:30,21.67,105.62,255.24,117.77,-480,OK
2025-08-12 14:30,10.96,105.62,243.57,117.77,-480,OK
2025-08-12 14:30,-0.61,105.62,229.27,117.77,-480,OK
2025-08-12 14:30,-9.61,105.62,213.71,117.77,-480,OK
2025-08-12 14:30,-18.68,105.62,199.2,117.77,-480,OK
2025-08-12 14:30,-26.45,105.62,189.96,117.77,-480,OK
2025-08-12 14:30,-35.2,105.62,180.31,117.77,-480,OK
2025-08-12 14:30,-40.66,105.62,173.18,117.77,-480,OK
2025-08-12 14:30,-44.46,105.62,172.46,117.77,-480,OK
2025-08-12 14:30,-45.24,105.62,172.28,117.77,-480,OK
2025-08-12 14:30,-46.35,105.62,171.38,117.77,-480,OK
2025-08-12 14:30,-45.51,105.62,174.87,117.77,-480,OK
2025-08-12 14:30,-44.2,105.62,178.86,117.77,-480,OK
2025-08-12 14:30,-42,105.62,178.96,117.77,-480,OK
2025-08-12 14:30,-40.49,105.62,181.84,117.77,-480,OK
2025-08-12 14:30,-37.94,105.62,183.65,117.77,-480,OK
2025-08-12 14:30,-34.86,105.62,183.94,117.77,-480,OK
2025-08-12 14:30,-34.45,105.62,183.51,117.77,-480,OK
2025-08-12 14:30,-33.93,105.62,182.75,117.77,-480,OK
2025-08-12 14:30,-33.11,105.62,179.36,117.77,-480,OK
2025-08-12 14:30,-31.65,105.62,175.5,117.77,-480,OK
2025-08-12 14:30,-29.99,105.62,169.92,117.77,-480,OK
2025-08-12 14:30,-28.27,105.62,163.97,117.77,-480,OK
2025-08-12 14:30,-27.6,105.62,157.98,117.77,-480,OK
2025-08-12 14:30,-27.27,105.62,150.43,117.77,-480,OK
2025-08-12 14:30,-27.1,105.62,141.59,117.77,-480,OK
2025-08-12 14:30,-27.79,105.62,135.23,117.77,-480,OK
2025-08-12 14:30,-28.45,105.62,128.23,117.77,-480,OK
2025-08-12 14:30,-29.63,105.62,122.22,117.77,-480,OK
2025-08-12 14:30,-30.24,105.62,115.81,117.77,-480,OK
2025-08-12 14:30,-32.82,105.62,112,117.77,-480,OK
2025-08-12 14:30,-38.51,105.62,106.69,117.77,-480,OK
2025-08-12 14:30,-41.61,105.62,103.8,117.77,-480,OK
2025-08-12 14:30,-47.32,105.62,100.18,117.77,-480,OK
2025-08-12 14:30,-50.77,105.62,100.21,117.77,-480,OK
2025-08-12 14:30,-54.66,105.62,101.02,117.77,-480,OK
2025-08-12 14:30,-55.69,105.62,104.23,117.77,-480,OK
2025-08-12 14:30,-56.6,105.62,106.65,117.77,-480,OK
2025-08-12 14:30,-53.21,105.62,110.4,117.77,-480,OK
2025-08-12 14:30,-52.95,105.62,113.57,117.77,-480,OK
2025-08-12 14:30,-50.88,105.62,117.11,117.77,-480,OK
2025-08-12 14:30,-48.6,105.62,119.38,117.77,-480,OK
2025-08-12 14:30,-44.59,105.62,124.21,117.77,-480,OK
2025-08-12 14:30,-44.69,105.62,127.84,117.77,-480,OK
2025-08-12 14:30,-43,105.62,131.56,117.77,-480,OK
2025-08-12 14:30,-40.18,105.62,133.74,117.77,-480,OK
2025-08-12 14:30,-37.84,105.62,137.4,117.77,-480,OK
2025-08-12 14:30,-36.14,105.62,137.65,117.77,-480,OK
2025-08-12 14:30,-31.65,105.62,141.32,117.77,-480,OK
2025-08-12 14:30,-24.49,105.62,145.51,117.77,-480,OK
2025-08-12 14:30,-15.1,105.62,154.65,117.77,-480,OK
2025-08-12 14:30,-3.41,105.62,168.54,117.77,-480,OK
2025-08-12 14:30,14.15,105.62,188.69,117.77,-480,OK
2025-08-12 14:30,34.04,105.62,216.37,117.77,-480,OK
2025-08-12 14:30,54.84,105.62,247.47,117.77,-480,OK
2025-08-12 14:30,78.67,105.62,278.7,117.77,-480,OK
2025-08-12 14:30,101.81,105.62,310.82,117.77,-480,OK
2025-08-12 14:30,118.51,105.62,337.55,115.67,-480,OK
2025-08-12 14:30,133.23,106.07,354.56,115.67,-10,OK
2025-08-12 14:30,143.76,106.07,364.7,115.67,-10,OK
2025-08-12 14:30,144.45,106.07,367.89,115.67,-10,OK
2025-08-12 14:30,141.85,106.07,357.15,115.67,-10,OK
2025-08-12 14:30,135.05,106.07,339.19,115.67,-10,OK
2025-08-12 14:30,121.95,106.07,316.23,115.67,-10,OK
2025-08-12 14:30,105.8,106.07,287.04,115.67,-10,OK
2025-08-12 14:30,88.91,106.07,252.67,115.67,-10,OK
2025-08-12 14:30,69.03,106.07,218.46,115.67,-10,OK
2025-08-12 14:30,51.24,106.07,182.4,115.67,-10,OK
2025-08-12 14:30,35.22,106.07,146.16,115.67,-10,OK
2025-08-12 14:30,19.53,106.07,111.58,115.67,-10,OK
2025-08-12 14:30,6.79,106.07,80.26,115.67,-10,OK
2025-08-12 14:30,-3.72,106.07,51.65,115.67,-10,OK
2025-08-12 14:30,-14.96,106.07,27.42,115.67,-10,OK
2025-08-12 14:30,-25.7,106.07,5.08,115.67,-10,OK
2025-08-12 14:30,-35.59,106.07,-13.54,115.67,-10,OK
2025-08-12 14:30,-45.69,106.07,-28.94,115.67,-10,OK
2025-08-12 14:30,-52.24,106.07,-40.6,115.67,-10,OK
2025-08-12 14:30,-58.81,106.07,-48.34,115.67,-10,OK
2025-08-12 14:30,-63.46,106.07,-54.14,115.67,-10,OK
2025-08-12 14:30,-68.07,106.07,-55.78,115.67,-10,OK
2025-08-12 14:30,-71.32,106.07,-55.56,115.67,-10,OK
2025-08-12 14:30,-75.27,106.07,-53.97,115.67,-10,OK
2025-08-12 14:30,-76.43,106.07,-51.2,115.67,-10,OK
2025-08-12 14:30,-74.08,106.07,-44.5,115.67,-10,OK
2025-08-12 14:30,-69.31,106.07,-38.39,115.67,-10,OK
2025-08-12 14:30,-64.01,106.07,-30.87,115.67,-10,OK
2025-08-12 14:30,-58.77,106.07,-23.22,115.67,-10,OK
2025-08-12 14:30,-53.71,106.07,-14.67,115.67,-10,OK
2025-08-12 14:30,-50.29,106.07,-7.66,115.67,-10,OK
2025-08-12 14:30,-46.55,106.07,0.14,115.67,-10,OK
2025-08-12 14:30,-42.59,106.07,3.22,115.67,-10,OK
2025-08-12 14:30,-37.78,106.07,3.73,115.67,-10,OK
2025-08-12 14:30,-32.83,106.07,2.46,115.67,-10,OK
2025-08-12 14:30,-27.99,106.07,0.02,115.67,-10,OK
2025-08-12 14:30,-26.15,106.07,-4.83,115.67,-10,OK
2025-08-12 14:30,-24.61,106.07,-9.3,115.67,-10,OK
2025-08-12 14:30,-25.56,106.07,-12.24,115.67,-10,OK
2025-08-12 14:30,-26.49,106.07,-15.77,115.67,-10,OK
2025-08-12 14:30,-28.34,106.07,-21.03,115.67,-10,OK
2025-08-12 14:30,-27.91,106.07,-24.41,115.67,-10,OK
2025-08-12 14:30,-28.92,106.07,-25.81,115.67,-10,OK
2025-08-12 14:30,-27.97,106.07,-29.31,115.67,-10,OK
2025-08-12 14:30,-29.44,106.07,-33.45,115.67,-10,OK
2025-08-12 14:30,-31.34,106.07,-35.35,115.67,-10,OK
2025-08-12 14:30,-33.14,106.07,-37.99,115.67,-10,OK
2025-08-12 14:30,-33.28,106.07,-40.85,115.67,-10,OK
2025-08-12 14:30,-34.86,106.07,-42.73,115.67,-10,OK
2025-08-12 14:30,-34.75,106.07,-42.82,115.67,-10,OK
2025-08-12 14:30,-33.67,106.07,-41.8,115.67,-10,OK
2025-08-12 14:30,-32.21,106.07,-40.96,115.67,-10,OK
2025-08-12 14:30,-31.32,106.07,-38.77,115.67,-10,OK
2025-08-12 14:30,-29.02,106.07,-35.78,115.67,-10,OK
2025-08-12 14:30,-25.93,106.07,-31.54,115.67,-10,OK
2025-08-12 14:30,-23.98,106.07,-27.88,115.67,-10,OK
2025-08-12 14:30,-21.35,106.07,-26.04,115.67,-10,OK
2025-08-12 14:30,-18.65,106.07,-22.69,115.67,-10,OK
2025-08-12 14:30,-15.63,106.07,-19.74,115.67,-10,OK
2025-08-12 14:30,-13.64,106.07,-16.45,115.67,-10,OK
2025-08-12 14:30,-10.78,106.07,-13.32,115.67,-10,OK
2025-08-12 14:30,-8.5,106.07,-9.32,115.67,-10,OK
2025-08-12 14:30,-6.46,106.07,-5.93,115.67,-10,OK
2025-08-12 14:30,-4.73,106.07,-3.24,115.67,-10,OK
2025-08-12 14:30,-0.37,106.07,-0.89,115.67,-10,OK
2025-08-12 14:30,5.12,106.07,2.74,115.67,-10,OK
2025-08-12 14:30,13.56,106.07,12.46,115.67,-10,OK
2025-08-12 14:30,26.56,106.07,26.38,115.67,-10,OK
2025-08-12 14:30,41.49,106.07,46.74,115.67,-10,OK
2025-08-12 14:30,59.8,106.07,74.55,115.67,-10,OK
2025-08-12 14:30,82.07,106.07,106.92,115.67,-10,OK
2025-08-12 14:30,104.44,106.07,140.83,115.67,-10,OK
2025-08-12 14:30,126.61,106.07,172.73,115.67,-10,OK
2025-08-12 14:30,147.06,106.07,202.65,115.44,-10,OK
2025-08-12 14:30,162.23,106.29,223.24,115.44,-10,OK
2025-08-12 14:30,171.5,106.29,235.05,115.44,-10,OK
2025-08-12 14:30,175.72,106.29,238.75,115.44,-10,OK
2025-08-12 14:30,171.5,106.29,230.98,115.44,-10,OK
2025-08-12 14:30,164.4,106.29,215.89,115.44,-10,OK
2025-08-12 14:30,152.8,106.29,195.2,115.44,-10,OK
2025-08-12 14:30,138.12,106.29,169.59,115.44,-10,OK
2025-08-12 14:30,121.26,106.29,136.73,115.44,-10,OK
2025-08-12 14:30,105.57,106.29,105.56,115.44,-10,OK
2025-08-12 14:30,86.62,106.29,72.41,115.44,-10,OK
2025-08-12 14:30,69.87,106.29,37.43,115.44,-10,OK
2025-08-12 14:30,53.03,106.29,4.84,115.44,-10,OK
2025-08-12 14:30,36.5,106.29,-24.7,115.44,-10,OK
2025-08-12 14:30,20,106.29,-52.15,115.44,-10,OK
2025-08-12 14:30,7.34,106.29,-77.9,115.44,-10,OK
2025-08-12 14:30,-6.33,106.29,-97.67,115.44,-10,OK
2025-08-12 14:30,-17.01,106.29,-116.44,115.44,-10,OK
2025-08-12 14:30,-27.35,106.29,-130.7,115.44,-10,OK
2025-08-12 14:30,-34.17,106.29,-142.23,115.44,-10,OK
2025-08-12 14:30,-39.66,106.29,-148.54,115.44,-10,OK
2025-08-12 14:30,-43.05,106.29,-152.03,115.44,-10,OK
2025-08-12 14:30,-47.84,106.29,-151.76,115.44,-10,OK
2025-08-12 14:30,-49.16,106.29,-149.69,115.44,-10,OK
2025-08-12 14:30,-50.57,106.29,-146.76,115.44,-10,OK
2025-08-12 14:30,-51.02,106.29,-143.7,115.44,-10,OK
2025-08-12 14:30,-51.32,106.29,-140.01,115.44,-10,OK
2025-08-12 14:30,-48.2,106.29,-133.88,115.44,-10,OK
2025-08-12 14:30,-44.8,106.29,-128.12,115.44,-10,OK
2025-08-12 14:30,-43.37,106.29,-120.03,115.44,-10,OK
2025-08-12 14:30,-43.23,106.29,-112.18,115.44,-10,OK
2025-08-12 14:30,-42.9,106.29,-102.84,115.44,-10,OK
2025-08-12 14:30,-42.23,106.29,-95.49,115.44,-10,OK
2025-08-12 14:30,-42.97,106.29,-89.04,115.44,-10,OK
2025-08-12 14:30,-41.49,106.29,-84.03,115.44,-10,OK
2025-08-12 14:30,-39.29,106.29,-79.11,115.44,-10,OK
2025-08-12 14:30,-37.48,106.29,-77.17,115.44,-10,OK
2025-08-12 14:30,-36.17,106.29,-76.46,115.44,-10,OK
2025-08-12 14:30,-35.22,106.29,-74.77,115.44,-10,OK
2025-08-12 14:30,-33.58,106.29,-75.79,115.44,-10,OK
2025-08-12 14:30,-33.78,106.29,-79.09,115.44,-10,OK
2025-08-12 14:30,-31.33,106.29,-83.4,115.44,-10,OK
2025-08-12 14:30,-29.55,106.29,-87.06,115.44,-10,OK
2025-08-12 14:30,-27.16,106.29,-90.66,115.44,-10,OK
2025-08-12 14:30,-27.47,106.29,-93.83,115.44,-10,OK
2025-08-12 14:30,-25.58,106.29,-95.29,115.44,-10,OK
2025-08-12 14:30,-26.18,106.29,-95.69,115.44,-10,OK
2025-08-12 14:30,-27.27,106.29,-95.16,115.44,-10,OK
2025-08-12 14:30,-28.23,106.29,-96.03,115.44,-10,OK
2025-08-12 14:30,-28.4,106.29,-94.67,115.44,-10,OK
2025-08-12 14:30,-27.88,106.29,-92.31,115.44,-10,OK
2025-08-12 14:30,-28.03,106.29,-89.83,115.44,-10,OK
2025-08-12 14:30,-25.76,106.29,-87.67,115.44,-10,OK
2025-08-12 14:30,-23.74,106.29,-81.07,115.44,-10,OK
2025-08-12 14:30,-21.85,106.29,-76.57,115.44,-10,OK
2025-08-12 14:30,-20.62,106.29,-72.33,115.44,-10,OK
2025-08-12 14:30,-20.22,106.29,-64.48,115.44,-10,OK
2025-08-12 14:30,-22.15,106.29,-56.68,115.44,-10,OK
2025-08-12 14:30,-23.45,106.29,-49.83,115.44,-10,OK
2025-08-12 14:30,-23.16,106.29,-40.22,115.44,-10,OK
2025-08-12 14:30,-22.97,106.29,-30.79,115.44,-10,OK
2025-08-12 14:30,-22.17,106.29,-26.18,115.44,-10,OK
2025-08-12 14:30,-20.43,106.29,-20.45,115.44,-10,OK
2025-08-12 14:30,-18.33,106.29,-16.73,115.44,-10,OK
2025-08-12 14:30,-16.78,106.29,-15.12,115.44,-10,OK
2025-08-12 14:30,-15.26,106.29,-14.31,115.44,-10,OK
2025-08-12 14:30,-11.8,106.29,-11.18,115.44,-10,OK
2025-08-12 14:30,-7.49,106.29,-7.91,115.44,-10,OK
2025-08-12 14:30,-0.68,106.29,-4.03,115.44,-10,OK
2025-08-12 14:30,9.28,106.29,4.5,115.44,-10,OK
2025-08-12 14:30,23.57,106.29,20.31,115.44,-10,OK
2025-08-12 14:30,40.38,106.29,42.79,115.44,-10,OK
2025-08-12 14:30,61.94,106.29,71.51,115.44,-10,OK
2025-08-12 14:30,84.15,106.29,106.67,115.44,-10,OK
2025-08-12 14:30,108.24,106.29,144.51,115.44,-10,OK
2025-08-12 14:30,130.4,106.29,178.49,115.44,-10,OK
2025-08-12 14:30,150.04,106.29,208.5,112.19,-10,OK
2025-08-12 14:30,164.43,86.78,230.66,112.19,-10,OK
2025-08-12 14:30,173.22,86.78,242.96,112.19,-10,OK
2025-08-12 14:30,172.91,86.78,244.47,112.19,-10,OK
2025-08-12 14:30,168.86,86.78,239.71,112.19,-10,OK
2025-08-12 14:30,160.31,86.78,223.44,112.19,-10,OK
2025-08-12 14:30,148.47,86.78,201.45,112.19,-10,OK
2025-08-12 14:30,135.23,86.78,173.97,112.19,-10,OK
2025-08-12 14:30,122.16,86.78,142.93,112.19,-10,OK
2025-08-12 14:30,107.73,86.78,107,112.19,-10,OK
2025-08-12 14:30,93.07,86.78,71.55,112.19,-10,OK
2025-08-12 14:30,78.83,86.78,35.69,112.19,-10,OK
2025-08-12 14:30,63.82,86.78,0.32,112.19,-10,OK
2025-08-12 14:30,49.24,86.78,-30.64,112.19,-10,OK
2025-08-12 14:30,32.7,86.78,-60.72,112.19,-10,OK
2025-08-12 14:30,18.71,86.78,-84.71,112.19,-10,OK
2025-08-12 14:30,4.65,86.78,-104.11,112.19,-10,OK
2025-08-12 14:30,-7.21,86.78,-118.6,112.19,-10,OK
2025-08-12 14:30,-16.54,86.78,-131.26,112.19,-10,OK
2025-08-12 14:30,-23.97,86.78,-138.11,112.19,-10,OK
2025-08-12 14:30,-30.7,86.78,-144.14,112.19,-10,OK
2025-08-12 14:30,-34.21,86.78,-147.65,112.19,-10,OK
2025-08-12 14:30,-38.42,86.78,-148.87,112.19,-10,OK
2025-08-12 14:30,-41.56,86.78,-146.6,112.19,-10,OK
2025-08-12 14:30,-43.61,86.78,-141.8,112.19,-10,OK
2025-08-12 14:30,-47.65,86.78,-133.97,112.19,-10,OK
2025-08-12 14:30,-52.19,86.78,-124.87,112.19,-10,OK
2025-08-12 14:30,-54.59,86.78,-113.34,112.19,-10,OK
2025-08-12 14:30,-56.64,86.78,-103.53,112.19,-10,OK
2025-08-12 14:30,-55.94,86.78,-94.72,112.19,-10,OK
2025-08-12 14:30,-53.4,86.78,-85.22,112.19,-10,OK
2025-08-12 14:30,-49.48,86.78,-77.28,112.19,-10,OK
2025-08-12 14:30,-44.12,86.78,-72.62,112.19,-10,OK
2025-08-12 14:30,-38.55,86.78,-67.93,112.19,-10,OK
2025-08-12 14:30,-35.03,86.78,-62.73,112.19,-10,OK
2025-08-12 14:30,-30.74,86.78,-61.07,112.19,-10,OK
2025-08-12 14:30,-30.37,86.78,-60.41,112.19,-10,OK
2025-08-12 14:30,-28.95,86.78,-59.47,112.19,-10,OK
2025-08-12 14:30,-30.87,86.78,-57.39,112.19,-10,OK
2025-08-12 14:30,-31.39,86.78,-58.47,112.19,-10,OK
2025-08-12 14:30,-33.29,86.78,-59.81,112.19,-10,OK
2025-08-12 14:30,-32.8,86.78,-60.08,112.19,-10,OK
2025-08-12 14:30,-35.46,86.78,-61.43,112.19,-10,OK
2025-08-12 14:30,-36.16,86.78,-62.58,112.19,-10,OK
2025-08-12 14:30,-39.16,86.78,-61.2,112.19,-10,OK
2025-08-12 14:30,-41.43,86.78,-60.53,112.19,-10,OK
2025-08-12 14:30,-43.63,86.78,-62,112.19,-10,OK
2025-08-12 14:30,-45.68,86.78,-62.7,112.19,-10,OK
2025-08-12 14:30,-47.59,86.78,-64.81,112.19,-10,OK
2025-08-12 14:30,-48.67,86.78,-66.17,112.19,-10,OK
2025-08-12 14:30,-48.87,86.78,-67.3,112.19,-10,OK
2025-08-12 14:30,-48.16,86.78,-66.52,112.19,-10,OK
2025-08-12 14:30,-46.5,86.78,-63.85,112.19,-10,OK
2025-08-12 14:30,-41.44,86.78,-60.11,112.19,-10,OK
2025-08-12 14:30,-36.28,86.78,-55.48,112.19,-10,OK
2025-08-12 14:30,-31.17,86.78,-49.4,112.19,-10,OK
2025-08-12 14:30,-27.44,86.78,-43.32,112.19,-10,OK
2025-08-12 14:30,-24.02,86.78,-37.42,112.19,-10,OK
2025-08-12 14:30,-23.54,86.78,-32.77,112.19,-10,OK
2025-08-12 14:30,-20.85,86.78,-28.14,112.19,-10,OK
2025-08-12 14:30,-18.42,86.78,-22.6,112.19,-10,OK
2025-08-12 14:30,-15.56,86.78,-18.05,112.19,-10,OK
2025-08-12 14:30,-10.94,86.78,-13.55,112.19,-10,OK
2025-08-12 14:30,-7.42,86.78,-8.34,112.19,-10,OK
2025-08-12 14:30,-5.65,86.78,-5,112.19,-10,OK
2025-08-12 14:30,-3.24,86.78,-1.39,112.19,-10,OK
2025-08-12 14:30,-1.56,86.78,1.21,112.19,-10,OK
2025-08-12 14:30,0.75,86.78,5.52,112.19,-10,OK
2025-08-12 14:30,2.13,86.78,9.26,112.19,-10,OK
2025-08-12 14:30,5.5,86.78,15.12,112.19,-10,OK
2025-08-12 14:30,13.63,86.78,22.39,112.19,-10,OK
2025-08-12 14:30,24.39,86.78,36.37,112.19,-10,OK
2025-08-12 14:30,35.94,86.78,55.63,112.19,-10,OK
2025-08-12 14:30,56.54,86.78,81.42,112.19,-10,OK
2025-08-12 14:30,78.28,86.78,112.81,112.19,-10,OK
2025-08-12 14:30,97.43,86.78,148.75,112.19,-10,OK
2025-08-12 14:30,117.99,86.78,185.31,112.19,-10,OK
2025-08-12 14:30,136.01,86.78,217.98,112.19,-10,OK
2025-08-12 14:30,147.8,86.78,244.13,96.8,-10,OK
2025-08-12 14:30,158.48,72.17,260.77,96.8,-10,OK
2025-08-12 14:30,165.77,72.17,268.55,96.8,-10,OK
2025-08-12 14:30,165.07,72.17,266.3,96.8,-10,OK
2025-08-12 14:30,159.33,72.17,254.31,96.8,-10,OK
2025-08-12 14:30,149.7,72.17,236.15,96.8,-10,OK
2025-08-12 14:30,134.59,72.17,211.29,96.8,-10,OK
2025-08-12 14:30,119.08,72.17,180.49,96.8,-10,OK
2025-08-12 14:30,103.75,72.17,145.19,96.8,-10,OK
2025-08-12 14:30,90.36,72.17,109.19,96.8,-10,OK
2025-08-12 14:30,75.94,72.17,72.01,96.8,-10,OK
2025-08-12 14:30,60.67,72.17,36.95,96.8,-10,OK
2025-08-12 14:30,42.79,72.17,4.08,96.8,-10,OK
2025-08-12 14:30,25.87,72.17,-24.73,96.8,-10,OK
2025-08-12 14:30,9.23,72.17,-51.55,96.8,-10,OK
2025-08-12 14:30,-5.44,72.17,-75.02,96.8,-10,OK
2025-08-12 14:30,-17.28,72.17,-93.67,96.8,-10,OK
2025-08-12 14:30,-26.42,72.17,-108.6,96.8,-10,OK
2025-08-12 14:30,-33.35,72.17,-121.6,96.8,-10,OK
2025-08-12 14:30,-38.73,72.17,-129.65,96.8,-10,OK
2025-08-12 14:30,-43.38,72.17,-133.26,96.8,-10,OK
2025-08-12 14:30,-45.56,72.17,-135.38,96.8,-10,OK
2025-08-12 14:30,-48.49,72.17,-135.78,96.8,-10,OK
2025-08-12 14:30,-49.78,72.17,-130.54,96.8,-10,OK
2025-08-12 14:30,-49.9,72.17,-124.15,96.8,-10,OK
2025-08-12 14:30,-48.12,72.17,-116.94,96.8,-10,OK
2025-08-12 14:30,-46.7,72.17,-109.47,96.8,-10,OK
2025-08-12 14:30,-42.99,72.17,-99.23,96.8,-10,OK
2025-08-12 14:30,-38.82,72.17,-91.78,96.8,-10,OK
2025-08-12 14:30,-35.46,72.17,-83.49,96.8,-10,OK
2025-08-12 14:30,-30.65,72.17,-76.08,96.8,-10,OK
2025-08-12 14:30,-25.48,72.17,-66.85,96.8,-10,OK
2025-08-12 14:30,-20.91,72.17,-61.03,96.8,-10,OK
2025-08-12 14:30,-18.83,72.17,-54.95,96.8,-10,OK
2025-08-12 14:30,-16.51,72.17,-51.51,96.8,-10,OK
2025-08-12 14:30,-16.43,72.17,-49.04,96.8,-10,OK
2025-08-12 14:30,-19.19,72.17,-49.31,96.8,-10,OK
2025-08-12 14:30,-22.88,72.17,-50.45,96.8,-10,OK
2025-08-12 14:30,-26.28,72.17,-52.3,96.8,-10,OK
2025-08-12 14:30,-28.26,72.17,-54.74,96.8,-10,OK
2025-08-12 14:30,-33.67,72.17,-58.61,96.8,-10,OK
2025-08-12 14:30,-35.62,72.17,-62.17,96.8,-10,OK
2025-08-12 14:30,-37.23,72.17,-64.12,96.8,-10,OK
2025-08-12 14:30,-38.86,72.17,-66.61,96.8,-10,OK
2025-08-12 14:30,-43.33,72.17,-67.88,96.8,-10,OK
2025-08-12 14:30,-45.09,72.17,-65.88,96.8,-10,OK
2025-08-12 14:30,-49.61,72.17,-65.52,96.8,-10,OK
2025-08-12 14:30,-52.63,72.17,-65.42,96.8,-10,OK
2025-08-12 14:30,-54.75,72.17,-63.39,96.8,-10,OK
2025-08-12 14:30,-56.42,72.17,-58.88,96.8,-10,OK
2025-08-12 14:30,-57.57,72.17,-56.96,96.8,-10,OK
2025-08-12 14:30,-57.61,72.17,-52.61,96.8,-10,OK
2025-08-12 14:30,-56.78,72.17,-48.17,96.8,-10,OK
2025-08-12 14:30,-56.93,72.17,-42.84,96.8,-10,OK
2025-08-12 14:30,-54.93,72.17,-41.52,96.8,-10,OK
2025-08-12 14:30,-51.74,72.17,-36.24,96.8,-10,OK
2025-08-12 14:30,-46.99,72.17,-31.89,96.8,-10,OK
2025-08-12 14:30,-40.82,72.17,-27.71,96.8,-10,OK
2025-08-12 14:30,-35.4,72.17,-23.73,96.8,-10,OK
2025-08-12 14:30,-31.02,72.17,-16.75,96.8,-10,OK
2025-08-12 14:30,-26.87,72.17,-14.05,96.8,-10,OK
2025-08-12 14:30,-23.55,72.17,-10.29,96.8,-10,OK
2025-08-12 14:30,-22.34,72.17,-5.84,96.8,-10,OK
2025-08-12 14:30,-20.86,72.17,-1.36,96.8,-10,OK
2025-08-12 14:30,-18.33,72.17,0.33,96.8,-10,OK
2025-08-12 14:30,-16.02,72.17,4.46,96.8,-10,OK
2025-08-12 14:30,-15.41,72.17,6.63,96.8,-10,OK
2025-08-12 14:30,-16.37,72.17,9.18,96.8,-10,OK
2025-08-12 14:30,-15.76,72.17,11.03,96.8,-10,OK
2025-08-12 14:30,-16.13,72.17,13.47,96.8,-10,OK
2025-08-12 14:30,-13.82,72.17,16.9,96.8,-10,OK
2025-08-12 14:30,-8.37,72.17,24.6,96.8,-10,OK
2025-08-12 14:30,2.73,72.17,37.1,96.8,-10,OK
2025-08-12 14:30,17.58,72.17,53.6,96.8,-10,OK
2025-08-12 14:30,37.56,72.17,79.35,96.8,-10,OK
2025-08-12 14:30,57.47,72.17,109.26,96.8,-10,OK
2025-08-12 14:30,82.09,72.17,144.52,96.8,-10,OK
2025-08-12 14:30,104.17,72.17,177.54,96.8,-10,OK
2025-08-12 14:30,124.51,72.17,209.66,96.8,-10,OK
2025-08-12 14:30,140.62,72.17,233.2,76.7,-10,OK
2025-08-12 14:30,152.28,79.25,248.69,76.7,-10,OK
2025-08-12 14:30,156.78,79.25,254.63,76.7,-10,OK
2025-08-12 14:30,156.62,79.25,253.78,76.7,-10,OK
2025-08-12 14:30,150.12,79.25,241.91,76.7,-10,OK
2025-08-12 14:30,139.36,79.25,222.29,76.7,-10,OK
2025-08-12 14:30,124.93,79.25,198.11,76.7,-10,OK
2025-08-12 14:30,106.19,79.25,167.83,76.7,-10,OK
2025-08-12 14:30,85.58,79.25,132.21,76.7,-10,OK
2025-08-12 14:30,64.63,79.25,97.63,76.7,-10,OK
2025-08-12 14:30,45.43,79.25,62.99,76.7,-10,OK
2025-08-12 14:30,28.44,79.25,28.42,76.7,-10,OK
2025-08-12 14:30,14.13,79.25,-1.22,76.7,-10,OK
2025-08-12 14:30,-0.33,79.25,-27.92,76.7,-10,OK
2025-08-12 14:30,-11.42,79.25,-53.4,76.7,-10,OK
2025-08-12 14:30,-24.07,79.25,-73.28,76.7,-10,OK
2025-08-12 14:30,-35.41,79.25,-89.14,76.7,-10,OK
2025-08-12 14:30,-44.17,79.25,-103.91,76.7,-10,OK
2025-08-12 14:30,-50.45,79.25,-113.32,76.7,-10,OK
2025-08-12 14:30,-56.02,79.25,-117.81,76.7,-10,OK
2025-08-12 14:30,-60.41,79.25,-121.63,76.7,-10,OK
2025-08-12 14:30,-63.2,79.25,-120.83,76.7,-10,OK
2025-08-12 14:30,-64.91,79.25,-115.58,76.7,-10,OK
2025-08-12 14:30,-65.55,79.25,-109.18,76.7,-10,OK
2025-08-12 14:30,-66,79.25,-101.22,76.7,-10,OK
2025-08-12 14:30,-63.03,79.25,-89.48,76.7,-10,OK
2025-08-12 14:30,-60.22,79.25,-77.63,76.7,-10,OK
2025-08-12 14:30,-58.17,79.25,-66.41,76.7,-10,OK
2025-08-12 14:30,-54.3,79.25,-55.57,76.7,-10,OK
2025-08-12 14:30,-49.9,79.25,-44.76,76.7,-10,OK
2025-08-12 14:30,-46.85,79.25,-35.04,76.7,-10,OK
2025-08-12 14:30,-43.87,79.25,-27.61,76.7,-10,OK
2025-08-12 14:30,-39.53,79.25,-22.61,76.7,-10,OK
2025-08-12 14:30,-35.67,79.25,-18.56,76.7,-10,OK
2025-08-12 14:30,-33.87,79.25,-15.29,76.7,-10,OK
2025-08-12 14:30,-32.28,79.25,-15.1,76.7,-10,OK
2025-08-12 14:30,-31.48,79.25,-15.5,76.7,-10,OK
2025-08-12 14:30,-32.73,79.25,-16.38,76.7,-10,OK
2025-08-12 14:30,-34.94,79.25,-18.18,76.7,-10,OK
2025-08-12 14:30,-36.4,79.25,-22.28,76.7,-10,OK
2025-08-12 14:30,-40.4,79.25,-24.86,76.7,-10,OK
2025-08-12 14:30,-42.05,79.25,-28.54,76.7,-10,OK
2025-08-12 14:30,-46.41,79.25,-33.31,76.7,-10,OK
2025-08-12 14:30,-49.91,79.25,-37.59,76.7,-10,OK
2025-08-12 14:30,-53.37,79.25,-40.78,76.7,-10,OK
2025-08-12 14:30,-53.97,79.25,-44.83,76.7,-10,OK
2025-08-12 14:30,-55.28,79.25,-46.43,76.7,-10,OK
2025-08-12 14:30,-55.01,79.25,-44.36,76.7,-10,OK
2025-08-12 14:30,-53.89,79.25,-42.76,76.7,-10,OK
2025-08-12 14:30,-51.91,79.25,-40.41,76.7,-10,OK
2025-08-12 14:30,-51.44,79.25,-35.63,76.7,-10,OK
2025-08-12 14:30,-49.92,79.25,-31.83,76.7,-10,OK
2025-08-12 14:30,-48.08,79.25,-29.23,76.7,-10,OK
2025-08-12 14:30,-47.65,79.25,-24.55,76.7,-10,OK
2025-08-12 14:30,-47.51,79.25,-20.18,76.7,-10,OK
2025-08-12 14:30,-44.03,79.25,-16.81,76.7,-10,OK
2025-08-12 14:30,-42.16,79.25,-11.75,76.7,-10,OK
2025-08-12 14:30,-40.4,79.25,-7.19,76.7,-10,OK
2025-08-12 14:30,-35.95,79.25,-3.91,76.7,-10,OK
2025-08-12 14:30,-32.72,79.25,1.07,76.7,-10,OK
2025-08-12 14:30,-31.17,79.25,6.78,76.7,-10,OK
2025-08-12 14:30,-28.07,79.25,10.26,76.7,-10,OK
2025-08-12 14:30,-24.22,79.25,13.25,76.7,-10,OK
2025-08-12 14:30,-22.49,79.25,17.48,76.7,-10,OK
2025-08-12 14:30,-18.99,79.25,19.11,76.7,-10,OK
2025-08-12 14:30,-15.02,79.25,19.9,76.7,-10,OK
2025-08-12 14:30,-11.8,79.25,22.07,76.7,-10,OK
2025-08-12 14:30,-6.95,79.25,26.85,76.7,-10,OK
2025-08-12 14:30,0.23,79.25,32.92,76.7,-10,OK
2025-08-12 14:30,10.02,79.25,42.5,76.7,-10,OK
2025-08-12 14:30,23.7,79.25,58.73,76.7,-10,OK
2025-08-12 14:30,39.75,79.25,81.75,76.7,-10,OK
2025-08-12 14:30,59.53,79.25,109.19,76.7,-10,OK
2025-08-12 14:30,78.53,79.25,142.37,76.7,-10,OK
2025-08-12 14:30,99.36,79.25,176.9,76.7,-10,OK
2025-08-12 14:30,115.94,79.25,208.76,76.7,-10,OK
2025-08-12 14:30,130.05,79.25,236.36,78.37,-10,OK
2025-08-12 14:30,137.57,78.37,257.14,78.37,-10,OK
2025-08-12 14:30,143.49,78.37,269.4,78.37,-10,OK
2025-08-12 14:30,141.91,78.37,273.79,78.37,-10,OK
2025-08-12 14:30,135.77,78.37,267.86,78.37,-10,OK
2025-08-12 14:30,126.51,78.37,250.68,78.37,-10,OK
2025-08-12 14:30,115.67,78.37,225.85,78.37,-10,OK
2025-08-12 14:30,99.63,78.37,194.81,78.37,-10,OK
2025-08-12 14:30,85.04,78.37,158.37,78.37,-10,OK
2025-08-12 14:30,70.74,78.37,121.58,78.37,-10,OK
2025-08-12 14:30,56.9,78.37,84.98,78.37,-10,OK
2025-08-12 14:30,42.28,78.37,49.91,78.37,-10,OK
2025-08-12 14:30,31.45,78.37,17.02,78.37,-10,OK
2025-08-12 14:30,20.79,78.37,-11.62,78.37,-10,OK
2025-08-12 14:30,10.75,78.37,-39,78.37,-10,OK
2025-08-12 14:30,-0.2,78.37,-62.59,78.37,-10,OK
2025-08-12 14:30,-9.24,78.37,-82.73,78.37,-10,OK
2025-08-12 14:30,-17.89,78.37,-99.27,78.37,-10,OK
2025-08-12 14:30,-26.69,78.37,-114.73,78.37,-10,OK
2025-08-12 14:30,-33.99,78.37,-124.47,78.37,-10,OK
2025-08-12 14:30,-39.85,78.37,-128.55,78.37,-10,OK
2025-08-12 14:30,-44.17,78.37,-129.84,78.37,-10,OK
2025-08-12 14:30,-50.24,78.37,-129.66,78.37,-10,OK
2025-08-12 14:30,-54.65,78.37,-123,78.37,-10,OK
2025-08-12 14:30,-57.84,78.37,-115.35,78.37,-10,OK
2025-08-12 14:30,-59.99,78.37,-107.65,78.37,-10,OK
2025-08-12 14:30,-61.02,78.37,-97.62,78.37,-10,OK
2025-08-12 14:30,-60.48,78.37,-86.49,78.37,-10,OK
2025-08-12 14:30,-59.34,78.37,-75.42,78.37,-10,OK
2025-08-12 14:30,-58.01,78.37,-62.81,78.37,-10,OK
2025-08-12 14:30,-54.97,78.37,-51.88,78.37,-10,OK
2025-08-12 14:30,-52.46,78.37,-42.59,78.37,-10,OK
2025-08-12 14:30,-48.77,78.37,-34.49,78.37,-10,OK
2025-08-12 14:30,-44.93,78.37,-29.52,78.37,-10,OK
2025-08-12 14:30,-40.96,78.37,-28.16,78.37,-10,OK
2025-08-12 14:30,-39.63,78.37,-28.47,78.37,-10,OK
2025-08-12 14:30,-38.12,78.37,-29.77,78.37,-10,OK
2025-08-12 14:30,-37.06,78.37,-33.13,78.37,-10,OK
2025-08-12 14:30,-38.8,78.37,-36.47,78.37,-10,OK
2025-08-12 14:30,-42.06,78.37,-41.38,78.37,-10,OK
2025-08-12 14:30,-43.91,78.37,-44.98,78.37,-10,OK
2025-08-12 14:30,-47.82,78.37,-49.03,78.37,-10,OK
2025-08-12 14:30,-52.88,78.37,-52.21,78.37,-10,OK
2025-08-12 14:30,-57.09,78.37,-55.84,78.37,-10,OK
2025-08-12 14:30,-60.65,78.37,-59.32,78.37,-10,OK
2025-08-12 14:30,-64.7,78.37,-64.38,78.37,-10,OK
2025-08-12 14:30,-68.03,78.37,-67.39,78.37,-10,OK
2025-08-12 14:30,-70.4,78.37,-71.97,78.37,-10,OK
2025-08-12 14:30,-72.77,78.37,-74.75,78.37,-10,OK
2025-08-12 14:30,-74.17,78.37,-74.34,78.37,-10,OK
2025-08-12 14:30,-75.88,78.37,-72.05,78.37,-10,OK
2025-08-12 14:30,-76.56,78.37,-69.7,78.37,-10,OK
2025-08-12 14:30,-76.19,78.37,-64.25,78.37,-10,OK
2025-08-12 14:30,-73.85,78.37,-57.87,78.37,-10,OK
2025-08-12 14:30,-70.38,78.37,-52.47,78.37,-10,OK
2025-08-12 14:30,-67.1,78.37,-44.46,78.37,-10,OK
2025-08-12 14:30,-61.9,78.37,-37.06,78.37,-10,OK
2025-08-12 14:30,-57.75,78.37,-29.21,78.37,-10,OK
2025-08-12 14:30,-56.64,78.37,-21.32,78.37,-10,OK
2025-08-12 14:30,-54.51,78.37,-11.4,78.37,-10,OK
2025-08-12 14:30,-54.01,78.37,-3.89,78.37,-10,OK
2025-08-12 14:30,-53.65,78.37,3.37,78.37,-10,OK
2025-08-12 14:30,-52.73,78.37,11.17,78.37,-10,OK
2025-08-12 14:30,-48.78,78.37,19.23,78.37,-10,OK
2025-08-12 14:30,-44.79,78.37,27.5,78.37,-10,OK
2025-08-12 14:30,-34.54,78.37,40.02,78.37,-10,OK
2025-08-12 14:30,-21.39,78.37,59.84,78.37,-10,OK
2025-08-12 14:30,-3.21,78.37,82.62,78.37,-10,OK
2025-08-12 14:30,19.3,78.37,111.99,78.37,-10,OK
2025-08-12 14:30,45.32,78.37,146.7,78.37,-10,OK
2025-08-12 14:30,71.71,78.37,183.4,78.37,-10,OK
2025-08-12 14:30,97.45,78.37,217.67,79.05,-10,OK
2025-08-12 14:30,120.81,78.37,251.17,79.05,-10,OK
2025-08-12 14:30,139.82,78.82,278.92,79.05,-20,OK
2025-08-12 14:30,155.05,78.82,298.01,79.05,-20,OK
2025-08-12 14:30,164.9,78.82,311.96,79.05,-20,OK
2025-08-12 14:30,167.97,78.82,317.89,79.05,-20,OK
2025-08-12 14:30,165.65,78.82,316.37,79.05,-20,OK
2025-08-12 14:30,160.12,78.82,308.89,79.05,-20,OK
2025-08-12 14:30,148.15,78.82,299.84,79.05,-20,OK
2025-08-12 14:30,136.43,78.82,289.37,79.05,-20,OK
2025-08-12 14:30,123.6,78.82,280.77,79.05,-20,OK
2025-08-12 14:30,109.93,78.82,278.15,79.05,-20,OK
2025-08-12 14:30,96.19,78.82,281.78,79.05,-20,OK
2025-08-12 14:30,85.44,78.82,293.04,79.05,-20,OK
2025-08-12 14:30,73.12,78.82,306.41,79.05,-20,OK
2025-08-12 14:30,65.4,78.82,329.93,79.05,-20,OK
2025-08-12 14:30,59.52,78.82,356.97,79.05,-20,OK
2025-08-12 14:30,56.08,78.82,385.99,79.05,-20,OK
2025-08-12 14:30,55.44,78.82,415.49,79.05,-20,OK
2025-08-12 14:30,58.94,78.82,449.41,79.05,-20,OK
2025-08-12 14:30,66.28,78.82,477.97,79.05,-20,OK
2025-08-12 14:30,77.84,78.82,505.65,79.05,-20,OK
2025-08-12 14:30,91.39,78.82,537.02,79.05,-20,OK
2025-08-12 14:30,109.57,78.82,573.39,79.05,-20,OK
2025-08-12 14:30,126.99,78.82,618.6,79.05,-20,OK
2025-08-12 14:30,143.18,78.82,669.07,79.05,-20,OK
2025-08-12 14:30,158.88,78.82,724.22,79.05,-20,OK
2025-08-12 14:30,174.13,78.82,783.14,79.05,-20,OK
2025-08-12 14:30,183.46,78.82,833.74,79.05,-20,OK
2025-08-12 14:30,191.13,78.82,854.67,79.05,-20,OK
2025-08-12 14:30,194.47,78.82,850.96,79.05,-20,OK
2025-08-12 14:30,197.04,78.82,821.97,79.05,-20,OK
2025-08-12 14:30,194.27,78.82,765.49,79.05,-20,OK
2025-08-12 14:30,189.97,78.82,692.52,79.05,-20,OK
2025-08-12 14:30,184.86,78.82,620.9,79.05,-20,OK
2025-08-12 14:30,178.22,78.82,552.23,79.05,-20,OK
2025-08-12 14:30,166.57,78.82,486.78,79.05,-20,OK
2025-08-12 14:30,154.43,78.82,424.73,79.05,-20,OK
2025-08-12 14:30,141.74,78.82,366.17,79.05,-20,OK
2025-08-12 14:30,126.81,78.82,311.39,79.05,-20,OK
2025-08-12 14:30,109.94,78.82,260.18,79.05,-20,OK
2025-08-12 14:30,96.21,78.82,212.55,79.05,-20,OK
2025-08-12 14:30,81.61,78.82,168.76,79.05,-20,OK
2025-08-12 14:30,67.05,78.82,129.17,79.05,-20,OK
2025-08-12 14:30,55.81,78.82,94.37,79.05,-20,OK
2025-08-12 14:30,46.81,78.82,64.81,79.05,-20,OK
2025-08-12 14:30,38.31,78.82,40.95,79.05,-20,OK
2025-08-12 14:30,33.99,78.82,23.24,79.05,-20,OK
2025-08-12 14:30,31.94,78.82,11.52,79.05,-20,OK
2025-08-12 14:30,29.4,78.82,4.5,79.05,-20,OK
2025-08-12 14:30,30.26,78.82,1.08,79.05,-20,OK
2025-08-12 14:30,30.59,78.82,0.05,79.05,-20,OK
2025-08-12 14:30,31.74,78.82,0,79.05,-20,OK
2025-08-12 14:30,32.12,78.82,0,79.05,-20,OK
2025-08-12 14:30,33.11,78.82,0,79.05,-20,OK
2025-08-12 14:30,32.74,78.82,0,79.05,-20,OK
2025-08-12 14:30,31.04,78.82,0,79.05,-20,OK
2025-08-12 14:30,28.82,78.82,0,79.05,-20,OK
2025-08-12 14:30,26.08,78.82,0,79.05,-20,OK
2025-08-12 14:30,23.1,78.82,0,79.05,-20,OK
2025-08-12 14:30,19.38,78.82,0,79.05,-20,OK
2025-08-12 14:30,16.21,78.82,0,79.05,-20,OK
2025-08-12 14:30,11.95,78.82,0,79.05,-20,OK
2025-08-12 14:30,7.35,78.82,0,79.05,-20,OK
2025-08-12 14:30,2.34,78.82,0,79.05,-20,OK
2025-08-12 14:30,-4.14,78.82,0,79.05,-20,OK
2025-08-12 14:30,-10.52,78.82,0,79.05,-20,OK
2025-08-12 14:30,-14.74,78.82,0,79.05,-20,OK
2025-08-12 14:30,-15.11,78.82,0,79.05,-20,OK
2025-08-12 14:30,-10.36,78.82,0,79.05,-20,OK
2025-08-12 14:30,-0.8,78.82,0,79.05,-20,OK
2025-08-12 14:30,14.4,78.82,0,79.05,-20,OK
2025-08-12 14:30,31.91,78.82,0,79.05,-20,OK
2025-08-12 14:30,48.86,78.82,0,79.05,-20,OK
2025-08-12 14:30,64.3,78.82,-15.96,79.05,-20,OK
2025-08-12 14:30,77.99,78.82,-54.64,79.05,-20,OK
2025-08-12 14:30,86.1,78.82,-121.26,79.05,-20,OK
2025-08-12 14:30,89.98,78.82,-214.62,79.05,-20,OK
2025-08-12 14:30,90.54,78.82,-331.98,79.05,-20,OK
2025-08-12 14:30,85.25,78.82,-457.74,79.05,-20,OK
2025-08-12 14:30,75.31,78.82,-583.31,79.05,-20,OK
2025-08-12 14:30,63.45,78.82,-700.89,79.05,-20,OK
2025-08-12 14:30,46.68,78.82,-808.39,79.05,-20,OK
2025-08-12 14:30,29.81,78.82,-908.01,79.05,-20,OK
2025-08-12 14:30,12.08,78.82,-996.71,79.05,-20,OK
2025-08-12 14:30,-6.72,78.82,-1076.93,79.05,-20,OK
2025-08-12 14:30,-25.57,78.82,-1145.86,79.05,-20,OK
2025-08-12 14:30,-43.4,78.82,-1205.59,79.05,-20,OK
2025-08-12 14:30,-62.33,78.82,-1253.55,79.05,-20,OK
2025-08-12 14:30,-78.96,78.82,-1290.73,79.05,-20,OK
2025-08-12 14:30,-94.81,78.82,-1314.66,79.05,-20,OK
2025-08-12 14:30,-108.02,78.82,-1328.33,79.05,-20,OK
2025-08-12 14:30,-118.68,78.82,-1325.09,79.05,-20,OK
2025-08-12 14:30,-128.53,78.82,-1307.2,79.05,-20,OK
2025-08-12 14:30,-137.94,78.82,-1276.91,79.05,-20,OK
2025-08-12 14:30,-143.47,78.82,-1233.78,79.05,-20,OK
2025-08-12 14:30,-150.23,78.82,-1179.34,79.05,-20,OK
2025-08-12 14:30,-154.47,78.82,-1121.63,79.05,-20,OK
2025-08-12 14:30,-157.16,78.82,-1057.87,79.05,-20,OK
2025-08-12 14:30,-161.08,78.82,-991.24,79.05,-20,OK
2025-08-12 14:30,-163.89,78.82,-921.94,75.27,-20,OK
2025-08-12 14:30,-165.91,78.82,-853.61,75.27,-20,OK
2025-08-12 14:30,-165.9,78.82,-783.91,75.27,-20,OK
2025-08-12 14:30,-166.26,78.82,-717.58,75.27,-20,OK
2025-08-12 14:30,-162.66,78.82,-651.56,75.27,-20,OK
2025-08-12 14:30,-159.75,78.82,-588.2,75.27,-20,OK
2025-08-12 14:30,-155.82,78.82,-526.17,75.27,-20,OK
2025-08-12 14:30,-153.76,78.82,-467.35,75.27,-20,OK
2025-08-12 14:30,-151.87,78.82,-412.82,75.27,-20,OK
2025-08-12 14:30,-150.66,78.82,-361.93,75.27,-20,OK
2025-08-12 14:30,-149.75,78.82,-316.58,75.27,-20,OK
2025-08-12 14:30,-148.13,78.82,-276.42,75.27,-20,OK
2025-08-12 14:30,-145.61,78.82,-242.46,75.27,-20,OK
2025-08-12 14:30,-144.38,78.82,-211.73,75.27,-20,OK
2025-08-12 14:30,-142.36,78.82,-185.81,75.27,-20,OK
2025-08-12 14:30,-139.68,78.82,-164.74,75.27,-20,OK
2025-08-12 14:30,-137.47,78.82,-146.98,75.27,-20,OK
2025-08-12 14:30,-135.09,78.82,-131.54,75.27,-20,OK
2025-08-12 14:30,-131.02,78.82,-120.46,75.27,-20,OK
2025-08-12 14:30,-128.51,78.82,-113.28,75.27,-20,OK
2025-08-12 14:30,-127.48,78.82,-106.09,75.27,-20,OK
2025-08-12 14:30,-125.96,78.82,-101.79,75.27,-20,OK
2025-08-12 14:30,-125.61,78.82,-99,75.27,-20,OK
2025-08-12 14:30,-126.03,78.82,-97.38,75.27,-20,OK
2025-08-12 14:30,-126.61,78.82,-94.16,75.27,-20,OK
2025-08-12 14:30,-126.99,78.82,-93.27,75.27,-20,OK
2025-08-12 14:30,-127.88,78.82,-91.9,75.27,-20,OK
2025-08-12 14:30,-126.3,78.82,-89.74,75.27,-20,OK
2025-08-12 14:30,-123.71,78.82,-86.36,75.27,-20,OK
2025-08-12 14:30,-121.15,78.82,-83.6,75.27,-20,OK
2025-08-12 14:30,-116.55,78.82,-81.03,75.27,-20,OK
2025-08-12 14:30,-113.22,78.82,-76.9,75.27,-20,OK
2025-08-12 14:30,-110.11,78.82,-71.53,75.27,-20,OK
2025-08-12 14:30,-106.71,78.82,-68.71,75.27,-20,OK
2025-08-12 14:30,-99.58,78.82,-65.29,75.27,-20,OK
2025-08-12 14:30,-93.26,78.82,-59.07,75.27,-20,OK
2025-08-12 14:30,-86.79,78.82,-53.43,75.27,-20,OK
2025-08-12 14:30,-80.75,78.82,-47.74,75.27,-20,OK
2025-08-12 14:30,-74.85,78.82,-39.06,75.27,-20,OK
2025-08-12 14:30,-73.15,78.82,-29.93,75.27,-20,OK
2025-08-12 14:30,-70.19,78.82,-21.07,75.27,-20,OK
2025-08-12 14:30,-65.63,78.82,-11.23,75.27,-20,OK
2025-08-12 14:30,-61.14,78.82,-1.27,75.27,-20,OK
2025-08-12 14:30,-53.92,78.82,11.99,75.27,-20,OK
2025-08-12 14:30,-42.63,78.82,29.03,75.27,-20,OK
2025-08-12 14:30,-29.22,78.82,51.61,75.27,-20,OK
2025-08-12 14:30,-11.6,78.82,81.7,75.27,-20,OK
2025-08-12 14:30,9.13,78.82,117.55,75.27,-20,OK
2025-08-12 14:30,31.85,78.82,155.79,75.27,-20,OK
2025-08-12 14:30,54.49,78.82,197.1,84.37,-20,OK
2025-08-12 14:30,76.33,78.82,235.1,84.37,-20,OK
2025-08-12 14:30,95.57,78.82,267.62,84.37,-20,OK
2025-08-12 14:30,108.08,71.03,291.46,84.37,-520,OK
2025-08-12 14:30,117.2,71.03,306.82,84.37,-520,OK
2025-08-12 14:30,122.3,71.03,311.21,84.37,-520,OK
2025-08-12 14:30,123.14,71.03,307.92,84.37,-520,OK
2025-08-12 14:30,117.08,71.03,296.89,84.37,-520,OK
2025-08-12 14:30,109.2,71.03,279.82,84.37,-520,OK
2025-08-12 14:30,97.12,71.03,258.12,84.37,-520,OK
2025-08-12 14:30,81.8,71.03,233.03,84.37,-520,OK
2025-08-12 14:30,65.19,71.03,207.03,84.37,-520,OK
2025-08-12 14:30,50.12,71.03,179.32,84.37,-520,OK
2025-08-12 14:30,37.49,71.03,155.57,84.37,-520,OK
2025-08-12 14:30,22.6,71.03,132.97,84.37,-520,OK
2025-08-12 14:30,10.96,71.03,110.22,84.37,-520,OK
2025-08-12 14:30,-0.83,71.03,90.39,84.37,-520,OK
2025-08-12 14:30,-12.07,71.03,73.3,84.37,-520,OK
2025-08-12 14:30,-24.41,71.03,56.45,84.37,-520,OK
2025-08-12 14:30,-32.99,71.03,43.22,84.37,-520,OK
2025-08-12 14:30,-43.17,71.03,34.22,84.37,-520,OK
2025-08-12 14:30,-52.66,71.03,25.73,84.37,-520,OK
2025-08-12 14:30,-60.13,71.03,19.99,84.37,-520,OK
2025-08-12 14:30,-64.92,71.03,16.66,84.37,-520,OK
2025-08-12 14:30,-70.06,71.03,16.73,84.37,-520,OK
2025-08-12 14:30,-73.92,71.03,18.69,84.37,-520,OK
2025-08-12 14:30,-75.93,71.03,22.93,84.37,-520,OK
2025-08-12 14:30,-75.9,71.03,29.78,84.37,-520,OK
2025-08-12 14:30,-74.94,71.03,36.94,84.37,-520,OK
2025-08-12 14:30,-73.67,71.03,42.07,84.37,-520,OK
2025-08-12 14:30,-70.17,71.03,47.36,84.37,-520,OK
2025-08-12 14:30,-66.34,71.03,53.1,84.37,-520,OK
2025-08-12 14:30,-63.09,71.03,55.9,84.37,-520,OK
2025-08-12 14:30,-61.99,71.03,57.58,84.37,-520,OK
2025-08-12 14:30,-57.93,71.03,57.64,84.37,-520,OK
2025-08-12 14:30,-55.87,71.03,58.57,84.37,-520,OK
2025-08-12 14:30,-51.95,71.03,57.17,84.37,-520,OK
2025-08-12 14:30,-48.76,71.03,57.41,84.37,-520,OK
2025-08-12 14:30,-45.82,71.03,55.69,84.37,-520,OK
2025-08-12 14:30,-43.2,71.03,54.26,84.37,-520,OK
2025-08-12 14:30,-41.43,71.03,52.62,84.37,-520,OK
2025-08-12 14:30,-40.53,71.03,49.92,84.37,-520,OK
2025-08-12 14:30,-44.06,71.03,46.04,84.37,-520,OK
2025-08-12 14:30,-45.65,71.03,42.96,84.37,-520,OK
2025-08-12 14:30,-49.09,71.03,40.16,84.37,-520,OK
2025-08-12 14:30,-50.48,71.03,35.96,84.37,-520,OK
2025-08-12 14:30,-53.11,71.03,34.51,84.37,-520,OK
2025-08-12 14:30,-52.09,71.03,32.38,84.37,-520,OK
2025-08-12 14:30,-52.71,71.03,30.78,84.37,-520,OK
2025-08-12 14:30,-52.6,71.03,29.61,84.37,-520,OK
2025-08-12 14:30,-52.25,71.03,27.75,84.37,-520,OK
2025-08-12 14:30,-51.64,71.03,24.54,84.37,-520,OK
2025-08-12 14:30,-50.61,71.03,23.37,84.37,-520,OK
2025-08-12 14:30,-49.86,71.03,21.07,84.37,-520,OK
2025-08-12 14:30,-48.08,71.03,18.78,84.37,-520,OK
2025-08-12 14:30,-47.51,71.03,18.09,84.37,-520,OK
2025-08-12 14:30,-44.38,71.03,19.77,84.37,-520,OK
2025-08-12 14:30,-42.84,71.03,18.85,84.37,-520,OK
2025-08-12 14:30,-38.63,71.03,20.32,84.37,-520,OK
2025-08-12 14:30,-34.18,71.03,24.84,84.37,-520,OK
2025-08-12 14:30,-28.4,71.03,27.3,84.37,-520,OK
2025-08-12 14:30,-25.58,71.03,26.8,84.37,-520,OK
2025-08-12 14:30,-20.1,71.03,30.46,84.37,-520,OK
2025-08-12 14:30,-15.63,71.03,32.59,84.37,-520,OK
2025-08-12 14:30,-13.75,71.03,30.8,84.37,-520,OK
2025-08-12 14:30,-11.2,71.03,28.63,84.37,-520,OK
2025-08-12 14:30,-10.94,71.03,27.37,84.37,-520,OK
2025-08-12 14:30,-10.59,71.03,24.27,84.37,-520,OK
2025-08-12 14:30,-8.72,71.03,22.67,84.37,-520,OK
2025-08-12 14:30,-3.67,71.03,22.32,84.37,-520,OK
2025-08-12 14:30,3.63,71.03,25.01,84.37,-520,OK
2025-08-12 14:30,16.47,71.03,32.39,84.37,-520,OK
2025-08-12 14:30,34.74,71.03,44.48,84.37,-520,OK
2025-08-12 14:30,55.63,71.03,61.89,84.37,-520,OK
2025-08-12 14:30,79.56,71.03,86.19,84.37,-520,OK
2025-08-12 14:30,105.1,71.03,114.18,84.37,-520,OK
2025-08-12 14:30,131.07,71.03,143.81,84.37,-520,OK
2025-08-12 14:30,152.34,71.03,175.91,84.37,-520,OK
2025-08-12 14:30,171.67,71.65,203.91,84.37,-520,OK
2025-08-12 14:30,185.11,71.65,225.42,84.37,10,OK
2025-08-12 14:30,193.16,71.65,239.83,84.37,10,OK
2025-08-12 14:30,194.76,71.65,247.66,84.37,10,OK
2025-08-12 14:30,189.97,71.65,242.37,84.37,10,OK
2025-08-12 14:30,179.44,71.65,230.42,84.37,10,OK
2025-08-12 14:30,165.62,71.65,210.8,84.37,10,OK
2025-08-12 14:30,148.34,71.65,187.49,84.37,10,OK
2025-08-12 14:30,129.77,71.65,157.5,84.37,10,OK
2025-08-12 14:30,112.08,71.65,127.75,84.37,10,OK
2025-08-12 14:30,91.9,71.65,97,84.37,10,OK
2025-08-12 14:30,72.97,71.65,65.78,84.37,10,OK
2025-08-12 14:30,55.01,71.65,34.51,84.37,10,OK
2025-08-12 14:30,38.32,71.65,9.02,84.37,10,OK
2025-08-12 14:30,23.02,71.65,-15.78,84.37,10,OK
2025-08-12 14:30,12.72,71.65,-36.11,84.37,10,OK
2025-08-12 14:30,1.57,71.65,-49.6,84.37,10,OK
2025-08-12 14:30,-10.52,71.65,-57.94,84.37,10,OK
2025-08-12 14:30,-19.88,71.65,-65.11,84.37,10,OK
2025-08-12 14:30,-28.22,71.65,-69.12,84.37,10,OK
2025-08-12 14:30,-37.04,71.65,-69.55,84.37,10,OK
2025-08-12 14:30,-42.84,71.65,-66.72,84.37,10,OK
2025-08-12 14:30,-45.34,71.65,-62.89,84.37,10,OK
2025-08-12 14:30,-48.34,71.65,-56.59,84.37,10,OK
2025-08-12 14:30,-49.78,71.65,-45.67,84.37,10,OK
2025-08-12 14:30,-48.84,71.65,-34.09,84.37,10,OK
2025-08-12 14:30,-47.68,71.65,-23.6,84.37,10,OK
2025-08-12 14:30,-43.44,71.65,-9.8,84.37,10,OK
2025-08-12 14:30,-37.68,71.65,2.18,84.37,10,OK
2025-08-12 14:30,-32.16,71.65,14.07,84.37,10,OK
2025-08-12 14:30,-26.83,71.65,25.92,84.37,10,OK
2025-08-12 14:30,-20.14,71.65,35.51,84.37,10,OK
2025-08-12 14:30,-14.44,71.65,41.31,84.37,10,OK
2025-08-12 14:30,-6.64,71.65,47.67,84.37,10,OK
2025-08-12 14:30,3.52,71.65,52,84.37,10,OK
2025-08-12 14:30,12.85,71.65,52.59,84.37,10,OK
2025-08-12 14:30,21.82,71.65,53.45,84.37,10,OK
2025-08-12 14:30,30.47,71.65,54.51,84.37,10,OK
2025-08-12 14:30,38.06,71.65,53.6,84.37,10,OK
2025-08-12 14:30,42.1,71.65,51.03,84.37,10,OK
2025-08-12 14:30,45.66,71.65,49.41,84.37,10,OK
2025-08-12 14:30,46.33,71.65,49.89,84.37,10,OK
2025-08-12 14:30,45.85,71.65,49.09,84.37,10,OK
2025-08-12 14:30,41.33,71.65,46.93,84.37,10,OK
2025-08-12 14:30,38.89,71.65,44.82,84.37,10,OK
2025-08-12 14:30,34.9,71.65,41.65,84.37,10,OK
2025-08-12 14:30,30.76,71.65,37.06,84.37,10,OK
2025-08-12 14:30,25.11,71.65,32.28,84.37,10,OK
2025-08-12 14:30,21.16,71.65,29.77,84.37,10,OK
2025-08-12 14:30,14.46,71.65,26.44,84.37,10,OK
2025-08-12 14:30,6.88,71.65,23.74,84.37,10,OK
2025-08-12 14:30,1.04,71.65,20.47,84.37,10,OK
2025-08-12 14:30,-4.11,71.65,20.16,84.37,10,OK
2025-08-12 14:30,-10.17,71.65,19.33,84.37,10,OK
2025-08-12 14:30,-15.02,71.65,19.68,84.37,10,OK
2025-08-12 14:30,-18.33,71.65,20.82,84.37,10,OK
2025-08-12 14:30,-19.95,71.65,24.46,84.37,10,OK
2025-08-12 14:30,-21.63,71.65,25.94,84.37,10,OK
2025-08-12 14:30,-22.6,71.65,29.47,84.37,10,OK
2025-08-12 14:30,-22.26,71.65,32.59,84.37,10,OK
2025-08-12 14:30,-22.17,71.65,35.75,84.37,10,OK
2025-08-12 14:30,-22.42,71.65,37.35,84.37,10,OK
2025-08-12 14:30,-22.83,71.65,39.89,84.37,10,OK
2025-08-12 14:30,-20.91,71.65,40.6,84.37,10,OK
2025-08-12 14:30,-19.89,71.65,42.04,84.37,10,OK
2025-08-12 14:30,-18.84,71.65,42.59,84.37,10,OK
2025-08-12 14:30,-16.05,71.65,43.16,84.37,10,OK
2025-08-12 14:30,-8.65,71.65,46.18,84.37,10,OK
2025-08-12 14:30,0.72,71.65,52.18,84.37,10,OK
2025-08-12 14:30,14.83,71.65,62.07,84.37,10,OK
2025-08-12 14:30,33.34,71.65,78.29,84.37,10,OK
2025-08-12 14:30,54.71,71.65,100.04,84.37,10,OK
2025-08-12 14:30,77.23,71.65,127.3,84.37,10,OK
2025-08-12 14:30,98.99,71.65,158.72,84.37,10,OK
2025-08-12 14:30,118.46,71.65,191.95,84.37,10,OK
2025-08-12 14:30,137.63,71.65,222.65,84.37,10,OK
2025-08-12 14:30,151.56,72.25,249.83,84.58,10,OK
2025-08-12 14:30,159.47,72.25,268.71,84.58,10,OK
2025-08-12 14:30,163.14,72.25,277.45,84.58,10,OK
2025-08-12 14:30,161.46,72.25,276.49,84.58,10,OK
2025-08-12 14:30,153.12,72.25,266.1,84.58,10,OK
2025-08-12 14:30,140.69,72.25,247.23,84.58,10,OK
2025-08-12 14:30,125.11,72.25,222.07,84.58,10,OK
2025-08-12 14:30,108.37,72.25,190.3,84.58,10,OK
2025-08-12 14:30,89.73,72.25,155.56,84.58,10,OK
2025-08-12 14:30,69.49,72.25,120.86,84.58,10,OK
2025-08-12 14:30,50.5,72.25,86.26,84.58,10,OK
2025-08-12 14:30,32.4,72.25,51.57,84.58,10,OK
2025-08-12 14:30,13.97,72.25,22.54,84.58,10,OK
2025-08-12 14:30,-1.22,72.25,-5.95,84.58,10,OK
2025-08-12 14:30,-12.81,72.25,-30.63,84.58,10,OK
2025-08-12 14:30,-23.94,72.25,-53.34,84.58,10,OK
2025-08-12 14:30,-34.81,72.25,-71.43,84.58,10,OK
2025-08-12 14:30,-43.79,72.25,-89.45,84.58,10,OK
2025-08-12 14:30,-52.45,72.25,-99.65,84.58,10,OK
2025-08-12 14:30,-58.19,72.25,-108.95,84.58,10,OK
2025-08-12 14:30,-61.84,72.25,-112.39,84.58,10,OK
2025-08-12 14:30,-62.54,72.25,-113.5,84.58,10,OK
2025-08-12 14:30,-61.69,72.25,-107.22,84.58,10,OK
2025-08-12 14:30,-57.66,72.25,-100.75,84.58,10,OK
2025-08-12 14:30,-55.46,72.25,-90.7,84.58,10,OK
2025-08-12 14:30,-51.76,72.25,-80.5,84.58,10,OK
2025-08-12 14:30,-48.12,72.25,-68.97,84.58,10,OK
2025-08-12 14:30,-43.85,72.25,-58.65,84.58,10,OK
2025-08-12 14:30,-42.52,72.25,-47.43,84.58,10,OK
2025-08-12 14:30,-39.34,72.25,-38.49,84.58,10,OK
2025-08-12 14:30,-38.37,72.25,-30.1,84.58,10,OK
2025-08-12 14:30,-36.46,72.25,-22.54,84.58,10,OK
2025-08-12 14:30,-35.06,72.25,-17.31,84.58,10,OK
2025-08-12 14:30,-33.48,72.25,-13.62,84.58,10,OK
2025-08-12 14:30,-34.28,72.25,-9.81,84.58,10,OK
2025-08-12 14:30,-35.87,72.25,-7.26,84.58,10,OK
2025-08-12 14:30,-37.9,72.25,-7.54,84.58,10,OK
2025-08-12 14:30,-41.67,72.25,-8.58,84.58,10,OK
2025-08-12 14:30,-45.45,72.25,-11.64,84.58,10,OK
2025-08-12 14:30,-50.32,72.25,-14.64,84.58,10,OK
2025-08-12 14:30,-54.48,72.25,-19.53,84.58,10,OK
2025-08-12 14:30,-58.44,72.25,-22.42,84.58,10,OK
2025-08-12 14:30,-62.93,72.25,-25.6,84.58,10,OK
2025-08-12 14:30,-65.69,72.25,-28.15,84.58,10,OK
2025-08-12 14:30,-67.47,72.25,-31.47,84.58,10,OK
2025-08-12 14:30,-68.05,72.25,-33.04,84.58,10,OK
2025-08-12 14:30,-69.38,72.25,-35.9,84.58,10,OK
2025-08-12 14:30,-69.47,72.25,-37.34,84.58,10,OK
2025-08-12 14:30,-71.36,72.25,-37.14,84.58,10,OK
2025-08-12 14:30,-70.09,72.25,-36.77,84.58,10,OK
2025-08-12 14:30,-67.24,72.25,-35.26,84.58,10,OK
2025-08-12 14:30,-64.73,72.25,-33.03,84.58,10,OK
2025-08-12 14:30,-59.7,72.25,-30.19,84.58,10,OK
2025-08-12 14:30,-53.02,72.25,-27.57,84.58,10,OK
2025-08-12 14:30,-46.8,72.25,-24.74,84.58,10,OK
2025-08-12 14:30,-41.45,72.25,-21.55,84.58,10,OK
2025-08-12 14:30,-35.63,72.25,-18.14,84.58,10,OK
2025-08-12 14:30,-31.94,72.25,-14.54,84.58,10,OK
2025-08-12 14:30,-26.87,72.25,-11.05,84.58,10,OK
2025-08-12 14:30,-22.47,72.25,-6.33,84.58,10,OK
2025-08-12 14:30,-18.13,72.25,-3.4,84.58,10,OK
2025-08-12 14:30,-10.45,72.25,-0.37,84.58,10,OK
2025-08-12 14:30,0.33,72.25,4.81,84.58,10,OK
2025-08-12 14:30,14.46,72.25,12.42,84.58,10,OK
2025-08-12 14:30,33.85,72.25,22.26,84.58,10,OK
2025-08-12 14:30,57.27,72.25,40.72,84.58,10,OK
2025-08-12 14:30,83.06,72.25,66.85,84.58,10,OK
2025-08-12 14:30,109.73,72.25,95.3,84.58,10,OK
2025-08-12 14:30,134.95,72.25,129.54,84.58,10,OK
2025-08-12 14:30,155.04,73.85,166.32,84.58,10,OK
2025-08-12 14:30,170.44,73.85,198.22,84.58,10,OK
2025-08-12 14:30,177.49,73.85,224.07,84.58,710,OK
2025-08-12 14:30,178.39,73.85,243.91,84.58,710,OK
2025-08-12 14:30,172.74,73.85,251.86,84.58,710,OK
2025-08-12 14:30,161.41,73.85,248.65,84.58,710,OK
2025-08-12 14:30,144.65,73.85,235.58,84.58,710,OK
2025-08-12 14:30,126.39,73.85,213.91,84.58,710,OK
2025-08-12 14:30,105.87,73.85,185.81,84.58,710,OK
2025-08-12 14:30,83.88,73.85,153.35,84.58,710,OK
2025-08-12 14:30,62.03,73.85,117.82,84.58,710,OK
2025-08-12 14:30,40.55,73.85,81.64,84.58,710,OK
2025-08-12 14:30,22.88,73.85,45.11,84.58,710,OK
2025-08-12 14:30,4.69,73.85,9.58,84.58,710,OK
2025-08-12 14:30,-11.07,73.85,-24.21,84.58,710,OK
2025-08-12 14:30,-22.24,73.85,-53.65,84.58,710,OK
2025-08-12 14:30,-32.51,73.85,-80.48,84.58,710,OK
2025-08-12 14:30,-42.21,73.85,-103.5,84.58,710,OK
2025-08-12 14:30,-48.29,73.85,-121.81,84.58,710,OK
2025-08-12 14:30,-55.56,73.85,-135.5,84.58,710,OK
2025-08-12 14:30,-60.61,73.85,-144.79,84.58,710,OK
2025-08-12 14:30,-63.62,73.85,-148.36,84.58,710,OK
2025-08-12 14:30,-64.4,73.85,-146.37,84.58,710,OK
2025-08-12 14:30,-64.03,73.85,-141.66,84.58,710,OK
2025-08-12 14:30,-59.41,73.85,-132.7,84.58,710,OK
2025-08-12 14:30,-56.9,73.85,-123,84.58,710,OK
2025-08-12 14:30,-51.53,73.85,-112.84,84.58,710,OK
2025-08-12 14:30,-50.38,73.85,-99.81,84.58,710,OK
2025-08-12 14:30,-45.58,73.85,-85.55,84.58,710,OK
2025-08-12 14:30,-42.37,73.85,-72.12,84.58,710,OK
2025-08-12 14:30,-38.81,73.85,-57.26,84.58,710,OK
2025-08-12 14:30,-36.66,73.85,-43.09,84.58,710,OK
2025-08-12 14:30,-32.29,73.85,-32.38,84.58,710,OK
2025-08-12 14:30,-31.41,73.85,-22.57,84.58,710,OK
2025-08-12 14:30,-32.84,73.85,-15.76,84.58,710,OK
2025-08-12 14:30,-34.78,73.85,-10.77,84.58,710,OK
2025-08-12 14:30,-36.09,73.85,-5.63,84.58,710,OK
2025-08-12 14:30,-38.76,73.85,-2.61,84.58,710,OK
2025-08-12 14:30,-41.49,73.85,-2.3,84.58,710,OK
2025-08-12 14:30,-39.87,73.85,-4.13,84.58,710,OK
2025-08-12 14:30,-39.81,73.85,-6.24,84.58,710,OK
2025-08-12 14:30,-39.89,73.85,-11.53,84.58,710,OK
2025-08-12 14:30,-39.3,73.85,-15.89,84.58,710,OK
2025-08-12 14:30,-39.02,73.85,-21.62,84.58,710,OK
2025-08-12 14:30,-41.51,73.85,-25.66,84.58,710,OK
2025-08-12 14:30,-41.04,73.85,-30.57,84.58,710,OK
2025-08-12 14:30,-45.59,73.85,-35.54,84.58,710,OK
2025-08-12 14:30,-46.36,73.85,-40.6,84.58,710,OK
2025-08-12 14:30,-46.95,73.85,-43.36,84.58,710,OK
2025-08-12 14:30,-49.13,73.85,-44.68,84.58,710,OK
2025-08-12 14:30,-52.39,73.85,-47.34,84.58,710,OK
2025-08-12 14:30,-49.49,73.85,-47.23,84.58,710,OK
2025-08-12 14:30,-49.92,73.85,-46.86,84.58,710,OK
2025-08-12 14:30,-49.48,73.85,-45.26,84.58,710,OK
2025-08-12 14:30,-45.47,73.85,-44.85,84.58,710,OK
2025-08-12 14:30,-40.39,73.85,-41.99,84.58,710,OK
2025-08-12 14:30,-37.13,73.85,-37.69,84.58,710,OK
2025-08-12 14:30,-32.45,73.85,-31.89,84.58,710,OK
2025-08-12 14:30,-30.82,73.85,-27.05,84.58,710,OK
2025-08-12 14:30,-28.83,73.85,-21.88,84.58,710,OK
2025-08-12 14:30,-25.81,73.85,-14.69,84.58,710,OK
2025-08-12 14:30,-20.49,73.85,-10.31,84.58,710,OK
2025-08-12 14:30,-13.34,73.85,-7.62,84.58,710,OK
2025-08-12 14:30,-0.11,73.85,-3.2,84.58,710,OK
2025-08-12 14:30,16.62,73.85,3.49,84.58,710,OK
2025-08-12 14:30,37.34,73.85,9.6,84.58,710,OK
2025-08-12 14:30,62.28,73.85,21.39,84.58,710,OK
2025-08-12 14:30,87.72,73.85,39.65,84.58,710,OK
2025-08-12 14:30,113.17,73.85,62.57,84.58,710,OK
2025-08-12 14:30,137.12,73.85,92.37,84.58,710,OK
2025-08-12 14:30,155.3,74.32,128.14,84.58,710,OK
2025-08-12 14:30,165.75,74.32,165.59,84.58,710,OK
2025-08-12 14:30,172.23,74.32,200.14,84.58,710,OK
2025-08-12 14:30,172.26,74.32,230.91,89.48,30,OK
2025-08-12 14:30,165.93,74.32,252.77,89.48,30,OK
2025-08-12 14:30,153.61,74.32,264.47,89.48,30,OK
2025-08-12 14:30,140.65,74.32,266.51,89.48,30,OK
2025-08-12 14:30,123.18,74.32,259.59,89.48,30,OK
2025-08-12 14:30,104.72,74.32,242,89.48,30,OK
2025-08-12 14:30,83.07,74.32,217.72,89.48,30,OK
2025-08-12 14:30,63.98,74.32,187.41,89.48,30,OK
2025-08-12 14:30,43.48,74.32,153.76,89.48,30,OK
2025-08-12 14:30,25.77,74.32,116.91,89.48,30,OK
2025-08-12 14:30,7.47,74.32,81.17,89.48,30,OK
2025-08-12 14:30,-5.79,74.32,45.73,89.48,30,OK
2025-08-12 14:30,-17.75,74.32,13.11,89.48,30,OK
2025-08-12 14:30,-26.97,74.32,-19.29,89.48,30,OK
2025-08-12 14:30,-36.63,74.32,-47.21,89.48,30,OK
2025-08-12 14:30,-41.59,74.32,-71.04,89.48,30,OK
2025-08-12 14:30,-47.68,74.32,-89.68,89.48,30,OK
2025-08-12 14:30,-52.29,74.32,-103.8,89.48,30,OK
2025-08-12 14:30,-57.64,74.32,-113.85,89.48,30,OK
2025-08-12 14:30,-60.91,74.32,-120.48,89.48,30,OK
2025-08-12 14:30,-66.6,74.32,-123.98,89.48,30,OK
2025-08-12 14:30,-68.75,74.32,-126.04,89.48,30,OK
2025-08-12 14:30,-70.84,74.32,-125.71,89.48,30,OK
2025-08-12 14:30,-70.22,74.32,-123.44,89.48,30,OK
2025-08-12 14:30,-69.15,74.32,-118.34,89.48,30,OK
2025-08-12 14:30,-66,74.32,-111.98,89.48,30,OK
2025-08-12 14:30,-61.06,74.32,-104.75,89.48,30,OK
2025-08-12 14:30,-55.28,74.32,-98.36,89.48,30,OK
2025-08-12 14:30,-51.1,74.32,-90.71,89.48,30,OK
2025-08-12 14:30,-47.59,74.32,-84.38,89.48,30,OK
2025-08-12 14:30,-42.34,74.32,-78.58,89.48,30,OK
2025-08-12 14:30,-42.29,74.32,-73.56,89.48,30,OK
2025-08-12 14:30,-42.05,74.32,-67.53,89.48,30,OK
2025-08-12 14:30,-41.19,74.32,-61.03,89.48,30,OK
2025-08-12 14:30,-40.8,74.32,-55.71,89.48,30,OK
2025-08-12 14:30,-43.56,74.32,-50.31,89.48,30,OK
2025-08-12 14:30,-45.65,74.32,-43.02,89.48,30,OK
2025-08-12 14:30,-47.87,74.32,-38.06,89.48,30,OK
2025-08-12 14:30,-50.7,74.32,-33.95,89.48,30,OK
2025-08-12 14:30,-54.07,74.32,-30.07,89.48,30,OK
2025-08-12 14:30,-56.99,74.32,-28.31,89.48,30,OK
2025-08-12 14:30,-58.59,74.32,-29.01,89.48,30,OK
2025-08-12 14:30,-59.53,74.32,-29.76,89.48,30,OK
2025-08-12 14:30,-61.44,74.32,-30.36,89.48,30,OK
2025-08-12 14:30,-61.21,74.32,-31.69,89.48,30,OK
2025-08-12 14:30,-59.6,74.32,-31.4,89.48,30,OK
2025-08-12 14:30,-56.38,74.32,-31.82,89.48,30,OK
2025-08-12 14:30,-55.37,74.32,-30.29,89.48,30,OK
2025-08-12 14:30,-50.43,74.32,-29.49,89.48,30,OK
2025-08-12 14:30,-47.48,74.32,-27.71,89.48,30,OK
2025-08-12 14:30,-44.22,74.32,-25.19,89.48,30,OK
2025-08-12 14:30,-40.92,74.32,-21.79,89.48,30,OK
2025-08-12 14:30,-37.58,74.32,-20.9,89.48,30,OK
2025-08-12 14:30,-36.08,74.32,-19.1,89.48,30,OK
2025-08-12 14:30,-32.93,74.32,-15.13,89.48,30,OK
2025-08-12 14:30,-30.86,74.32,-13.06,89.48,30,OK
2025-08-12 14:30,-30.75,74.32,-11.15,89.48,30,OK
2025-08-12 14:30,-28.72,74.32,-7.01,89.48,30,OK
2025-08-12 14:30,-24.34,74.32,-1.16,89.48,30,OK
2025-08-12 14:30,-18.54,74.32,1.18,89.48,30,OK
2025-08-12 14:30,-7.78,74.32,5.22,89.48,30,OK
2025-08-12 14:30,6.01,74.32,10.75,89.48,30,OK
2025-08-12 14:30,24.76,74.32,14.64,89.48,30,OK
2025-08-12 14:30,45.26,74.32,17.35,89.48,30,OK
2025-08-12 14:30,69.93,74.32,23.26,89.48,30,OK
2025-08-12 14:30,93.61,74.32,29.04,89.48,30,OK
2025-08-12 14:30,119.77,74.32,38.25,89.48,30,OK
2025-08-12 14:30,142.19,74.32,53.07,89.48,30,OK
2025-08-12 14:30,159.27,83.23,73.52,89.48,30,OK
2025-08-12 14:30,172.63,83.23,100.26,89.48,30,OK
2025-08-12 14:30,178.6,83.23,130.09,89.48,30,OK
2025-08-12 14:30,178.46,83.23,160.73,89.48,30,OK
2025-08-12 14:30,172.87,83.23,188.88,89.48,30,OK
2025-08-12 14:30,162.56,83.23,208.53,81.43,50,OK
2025-08-12 14:30,147.08,83.23,221.09,81.43,50,OK
2025-08-12 14:30,129.88,83.23,226.76,81.43,50,OK
2025-08-12 14:30,109.82,83.23,221.45,81.43,50,OK
2025-08-12 14:30,89.63,83.23,207.32,81.43,50,OK
2025-08-12 14:30,70.99,83.23,187.95,81.43,50,OK
2025-08-12 14:30,52.04,83.23,162.31,81.43,50,OK
2025-08-12 14:30,37.29,83.23,132.74,81.43,50,OK
2025-08-12 14:30,21.44,83.23,103.76,81.43,50,OK
2025-08-12 14:30,6.99,83.23,75.9,81.43,50,OK
2025-08-12 14:30,-6.29,83.23,47.97,81.43,50,OK
2025-08-12 14:30,-17.72,83.23,19.64,81.43,50,OK
2025-08-12 14:30,-32.03,83.23,-5.57,81.43,50,OK
2025-08-12 14:30,-42.5,83.23,-31.54,81.43,50,OK
2025-08-12 14:30,-51.79,83.23,-57.26,81.43,50,OK
2025-08-12 14:30,-59.87,83.23,-78.31,81.43,50,OK
2025-08-12 14:30,-67.4,83.23,-95.37,81.43,50,OK
2025-08-12 14:30,-70.27,83.23,-110.93,81.43,50,OK
2025-08-12 14:30,-70.44,83.23,-121.18,81.43,50,OK
2025-08-12 14:30,-69.2,83.23,-126.46,81.43,50,OK
2025-08-12 14:30,-66.05,83.23,-129.89,81.43,50,OK
2025-08-12 14:30,-60,83.23,-130.6,81.43,50,OK
2025-08-12 14:30,-54.9,83.23,-127.97,81.43,50,OK
2025-08-12 14:30,-49.72,83.23,-123.37,81.43,50,OK
2025-08-12 14:30,-47.16,83.23,-118.62,81.43,50,OK
2025-08-12 14:30,-44.19,83.23,-111.7,81.43,50,OK
2025-08-12 14:30,-43.16,83.23,-103.43,81.43,50,OK
2025-08-12 14:30,-39.81,83.23,-95.27,81.43,50,OK
2025-08-12 14:30,-38.92,83.23,-88.02,81.43,50,OK
2025-08-12 14:30,-35.8,83.23,-79.75,81.43,50,OK
2025-08-12 14:30,-34.19,83.23,-71.16,81.43,50,OK
2025-08-12 14:30,-33.63,83.23,-64.47,81.43,50,OK
2025-08-12 14:30,-34.12,83.23,-57.43,81.43,50,OK
2025-08-12 14:30,-34.01,83.23,-49.25,81.43,50,OK
2025-08-12 14:30,-34.9,83.23,-42.01,81.43,50,OK
2025-08-12 14:30,-35.07,83.23,-36.53,81.43,50,OK
2025-08-12 14:30,-35.39,83.23,-30.59,81.43,50,OK
2025-08-12 14:30,-35.32,83.23,-25.07,81.43,50,OK
2025-08-12 14:30,-37.08,83.23,-21.19,81.43,50,OK
2025-08-12 14:30,-40.35,83.23,-16.12,81.43,50,OK
2025-08-12 14:30,-42.69,83.23,-10.92,81.43,50,OK
2025-08-12 14:30,-43.23,83.23,-5.02,81.43,50,OK
2025-08-12 14:30,-46.27,83.23,0.46,81.43,50,OK
2025-08-12 14:30,-44.43,83.23,7.08,81.43,50,OK
2025-08-12 14:30,-40.54,83.23,12.45,81.43,50,OK
2025-08-12 14:30,-37.91,83.23,17.65,81.43,50,OK
2025-08-12 14:30,-36.95,83.23,23.31,81.43,50,OK
2025-08-12 14:30,-34.23,83.23,27.12,81.43,50,OK
2025-08-12 14:30,-34.33,83.23,29.32,81.43,50,OK
