t_ms,phase,red_raw,ir_raw,red_dc,ir_dc,red_ac,ir_ac,OD_red,OD_ir,R,spo2,spo2_valid
43,0,52086,52791,52070.25,52911.92,15.75,-120.92,-1.365461,-1.392283,0.571522,95.91,1
85,0,52032,52716,52070.18,52911.53,-38.18,-195.53,-1.365459,-1.392276,0.571680,95.90,1
122,0,51989,52619,52070.02,52910.95,-81.02,-291.95,-1.365456,-1.392265,0.571825,95.90,1
166,0,51948,52563,52069.78,52910.25,-121.78,-347.25,-1.365452,-1.392252,0.571953,95.89,1
206,0,51939,52586,52069.52,52909.60,-130.52,-323.60,-1.365447,-1.392239,0.572070,95.89,1
246,0,51962,52628,52069.30,52909.04,-107.30,-281.04,-1.365443,-1.392229,0.572178,95.88,1
286,0,51984,52670,52069.13,52908.56,-85.13,-238.56,-1.365439,-1.392220,0.572278,95.87,1
326,0,52003,52700,52069.00,52908.15,-66.00,-208.15,-1.365437,-1.392212,0.572373,95.87,1
366,0,52013,52721,52068.89,52907.78,-55.89,-186.78,-1.365435,-1.392205,0.572462,95.86,1
406,0,52017,52767,52068.79,52907.50,-51.79,-140.50,-1.365433,-1.392200,0.572549,95.86,1
447,0,52049,52833,52068.75,52907.35,-19.75,-74.35,-1.365432,-1.392197,0.572635,95.85,1
486,0,52068,52866,52068.75,52907.27,-0.75,-41.27,-1.365432,-1.392195,0.572720,95.85,1
526,0,52070,52864,52068.75,52907.18,1.25,-43.18,-1.365432,-1.392194,0.572804,95.84,1
567,0,52068,52875,52068.75,52907.12,-0.75,-32.12,-1.365432,-1.392192,0.572888,95.84,1
608,0,52076,52902,52068.77,52907.11,7.23,-5.11,-1.365432,-1.392192,0.572972,95.83,1
648,0,52082,52927,52068.80,52907.15,13.20,19.85,-1.365433,-1.392193,0.573056,95.83,1
688,0,52075,52924,52068.81,52907.19,6.19,16.81,-1.365433,-1.392194,0.573139,95.82,1
728,0,52076,52910,52068.83,52907.20,7.17,2.80,-1.365433,-1.392194,0.573222,95.82,1
768,0,52035,52734,52068.76,52906.85,-33.76,-172.85,-1.365432,-1.392187,0.573300,95.81,1
807,0,51959,52622,52068.54,52906.29,-109.54,-284.29,-1.365428,-1.392177,0.573368,95.81,1
845,0,51941,52668,52068.29,52905.81,-127.29,-237.81,-1.365423,-1.392168,0.573434,95.81,1
886,0,51980,52776,52068.11,52905.55,-88.11,-129.55,-1.365420,-1.392163,0.573501,95.80,1
927,0,52030,52853,52068.04,52905.45,-38.04,-52.45,-1.365418,-1.392161,0.573568,95.80,1
967,0,52064,52917,52068.03,52905.47,-4.03,11.53,-1.365418,-1.392161,0.573634,95.79,1
1007,0,52087,52982,52068.07,52905.62,18.93,76.37,-1.365419,-1.392164,0.573700,95.79,1
1048,0,52108,53024,52068.15,52905.86,39.85,118.14,-1.365421,-1.392169,0.573763,95.78,1
1087,0,52147,53149,52068.31,52906.35,78.69,242.65,-1.365424,-1.392178,0.573818,95.78,1
1126,0,52189,53189,52068.55,52906.92,120.45,282.08,-1.365428,-1.392189,0.573866,95.78,1
1166,0,52201,53234,52068.82,52907.57,132.18,326.43,-1.365433,-1.392201,0.573902,95.77,1
1207,0,52225,53299,52069.13,52908.36,155.87,390.64,-1.365439,-1.392216,0.573923,95.77,1
1247,0,52249,53317,52069.49,52909.18,179.51,407.82,-1.365446,-1.392231,0.573931,95.77,1
1288,0,52242,53292,52069.84,52909.95,172.16,382.05,-1.365453,-1.392246,0.573929,95.76,1
1329,0,52218,53254,52070.14,52910.64,147.86,343.36,-1.365459,-1.392259,0.573919,95.76,1
1368,0,52200,53253,52070.40,52911.32,129.60,341.68,-1.365464,-1.392272,0.573898,95.76,1
1408,0,52206,53271,52070.67,52912.05,135.33,358.95,-1.365469,-1.392286,0.573864,95.75,1
1448,0,52214,53237,52070.96,52912.70,143.04,324.30,-1.365474,-1.392298,0.573825,95.75,1
1487,0,52156,53070,52071.13,52913.02,84.87,156.98,-1.365478,-1.392304,0.573785,95.75,1
1528,0,52107,53064,52071.21,52913.32,35.79,150.68,-1.365479,-1.392310,0.573742,95.74,1
1568,0,52139,53143,52071.34,52913.78,67.66,229.22,-1.365482,-1.392318,0.573694,95.74,1
1608,0,52193,53256,52071.59,52914.47,121.41,341.53,-1.365487,-1.392331,0.573634,95.74,1
1648,0,52236,53319,52071.92,52915.28,164.08,403.72,-1.365493,-1.392347,0.573563,95.74,1
1688,0,52280,53453,52072.34,52916.36,207.66,536.64,-1.365501,-1.392367,0.573470,95.73,1
1728,0,52324,53487,52072.84,52917.50,251.16,569.50,-1.365511,-1.392389,0.573363,95.73,1
1767,0,52324,53463,52073.35,52918.59,250.65,544.41,-1.365520,-1.392409,0.573247,95.73,1
1808,0,52313,53458,52073.83,52919.68,239.17,538.32,-1.365530,-1.392430,0.573120,95.73,1
1848,0,52321,53520,52074.32,52920.88,246.68,599.12,-1.365539,-1.392453,0.572976,95.73,1
1888,0,52370,53684,52074.92,52922.41,295.08,761.59,-1.365551,-1.392481,0.572804,95.73,1
1928,0,52451,53821,52075.67,52924.20,375.33,896.80,-1.365565,-1.392515,0.572607,95.72,1
1969,0,52493,53900,52076.51,52926.16,416.49,973.84,-1.365581,-1.392552,0.572387,95.72,1
2008,0,52525,53958,52077.41,52928.22,447.59,1029.78,-1.365598,-1.392591,0.572151,95.72,1
2049,0,52536,53992,52078.32,52930.35,457.68,1061.65,-1.365616,-1.392632,0.571898,95.72,1
2089,0,52546,54022,52079.26,52932.54,466.74,1089.46,-1.365634,-1.392673,0.571630,95.72,1
2128,0,52559,53988,52080.22,52934.65,478.78,1053.35,-1.365652,-1.392713,0.571359,95.72,1
2169,0,52496,53736,52081.05,52936.25,414.95,799.75,-1.365668,-1.392743,0.571095,95.72,1
2208,0,52384,53545,52081.66,52937.47,302.34,607.53,-1.365680,-1.392766,0.570833,95.72,1
2248,0,52337,53523,52082.17,52938.64,254.83,584.36,-1.365690,-1.392788,0.570570,95.72,1
2290,0,52360,53570,52082.73,52939.91,277.27,630.09,-1.365700,-1.392812,0.570305,95.72,1
2328,0,52387,53620,52083.34,52941.27,303.66,678.73,-1.365712,-1.392838,0.570037,95.72,1
2370,0,52413,53680,52084.00,52942.75,329.00,737.25,-1.365725,-1.392866,0.569768,95.72,1
2409,0,52439,53735,52084.71,52944.34,354.29,790.66,-1.365739,-1.392896,0.569496,95.73,1
2450,0,52458,53762,52085.46,52945.98,372.54,816.02,-1.365753,-1.392927,0.569224,95.73,1
2489,0,52466,53759,52086.22,52947.61,379.78,811.39,-1.365767,-1.392957,0.568951,95.73,1
2530,0,52469,53782,52086.98,52949.28,382.02,832.72,-1.365782,-1.392989,0.568678,95.73,1
2570,0,52475,53807,52087.76,52951.00,387.24,856.00,-1.365797,-1.393021,0.568404,95.73,1
2611,0,52488,53843,52088.56,52952.78,399.44,890.22,-1.365812,-1.393055,0.568128,95.73,1
2650,0,52504,53874,52089.39,52954.62,414.61,919.37,-1.365828,-1.393090,0.567850,95.74,1
2690,0,52510,53905,52090.24,52956.53,419.76,948.47,-1.365845,-1.393126,0.567570,95.74,1
2730,0,52520,53945,52091.10,52958.50,428.90,986.50,-1.365861,-1.393163,0.567286,95.74,1
2770,0,52541,53990,52092.00,52960.57,449.00,1029.43,-1.365878,-1.393202,0.566998,95.74,1
2810,0,52568,54032,52092.95,52962.71,475.05,1069.29,-1.365897,-1.393243,0.566708,95.75,1
2850,0,52549,53866,52093.87,52964.52,455.13,901.48,-1.365914,-1.393277,0.566424,95.75,1
2890,0,52445,53640,52094.57,52965.87,350.43,674.13,-1.365928,-1.393302,0.566145,95.75,1
2930,0,52375,53563,52095.13,52967.07,279.87,595.93,-1.365939,-1.393325,0.565866,95.75,1
2969,0,52379,53593,52095.70,52968.32,283.30,624.68,-1.365950,-1.393349,0.565588,95.76,1
3010,0,52392,53621,52096.30,52969.63,295.70,651.37,-1.365961,-1.393373,0.565310,95.76,1
3050,0,52405,53659,52096.91,52971.01,308.09,687.99,-1.365973,-1.393399,0.565032,95.76,1
3091,0,52429,53725,52097.58,52972.52,331.42,752.48,-1.365986,-1.393428,0.564753,95.77,1
3130,0,52454,53738,52098.29,52974.05,355.71,763.95,-1.365999,-1.393457,0.564475,95.77,1
3170,0,52448,53726,52098.99,52975.55,349.01,750.45,-1.366013,-1.393485,0.564198,95.78,1
3209,0,52441,53737,52099.68,52977.07,341.32,759.93,-1.366026,-1.393514,0.563920,95.78,1
3250,0,52443,53753,52100.36,52978.63,342.64,774.37,-1.366039,-1.393543,0.563642,95.78,1
3290,0,52441,53747,52101.05,52980.17,339.95,766.83,-1.366052,-1.393572,0.563364,95.79,1
3330,0,52440,53755,52101.73,52981.72,338.27,773.28,-1.366065,-1.393601,0.563084,95.79,1
3369,0,52437,53778,52102.40,52983.31,334.60,794.69,-1.366078,-1.393632,0.562803,95.80,1
3410,0,52450,53825,52103.09,52985.00,346.91,840.00,-1.366091,-1.393663,0.562518,95.80,1
3449,0,52467,53856,52103.82,52986.74,363.18,869.26,-1.366105,-1.393696,0.562231,95.80,1
3490,0,52484,53906,52104.59,52988.58,379.41,917.42,-1.366120,-1.393731,0.561941,95.81,1
3529,0,52494,53876,52105.37,52990.36,388.63,885.64,-1.366135,-1.393764,0.561650,95.81,1
3569,0,52436,53666,52106.03,52991.71,329.97,674.29,-1.366148,-1.393790,0.561362,95.82,1
3610,0,52363,53547,52106.55,52992.82,256.45,554.18,-1.366158,-1.393811,0.561075,95.82,1
3650,0,52340,53552,52107.02,52993.94,232.98,558.06,-1.366167,-1.393832,0.560787,95.83,1
3692,0,52352,53585,52107.51,52995.12,244.49,589.87,-1.366176,-1.393855,0.560499,95.83,1
3732,0,52354,53605,52108.00,52996.35,246.00,608.65,-1.366186,-1.393878,0.560209,95.84,1
3771,0,52370,53638,52108.53,52997.63,261.47,640.37,-1.366196,-1.393902,0.559919,95.84,1
3812,0,52385,53660,52109.08,52998.96,275.92,661.04,-1.366206,-1.393927,0.559627,95.85,1
3851,0,52391,53670,52109.65,53000.30,281.35,669.70,-1.366217,-1.393952,0.559335,95.85,1
3888,0,52390,53692,52110.21,53001.69,279.79,690.31,-1.366228,-1.393978,0.559042,95.86,1
3931,0,52400,53707,52110.79,53003.10,289.21,703.90,-1.366239,-1.394005,0.558747,95.86,1
3971,0,52404,53731,52111.38,53004.55,292.62,726.45,-1.366250,-1.394032,0.558451,95.87,1
4010,0,52410,53754,52111.98,53006.05,298.02,747.95,-1.366262,-1.394061,0.558153,95.87,1
4049,0,52415,53799,52112.58,53007.64,302.42,791.36,-1.366273,-1.394091,0.557851,95.88,1
4088,0,52434,53815,52113.23,53009.26,320.77,805.74,-1.366286,-1.394121,0.557547,95.88,1
4129,0,52438,53834,52113.88,53010.91,324.12,823.09,-1.366298,-1.394152,0.557241,95.89,1
4168,0,52447,53871,52114.55,53012.63,332.45,858.37,-1.366311,-1.394185,0.556932,95.89,1
4209,0,52439,53764,52115.20,53014.14,323.80,749.86,-1.366324,-1.394213,0.556623,95.90,1
4249,0,52356,53532,52115.68,53015.17,240.32,516.83,-1.366333,-1.394233,0.556315,95.91,1
4293,0,52277,53423,52116.00,53015.99,161.00,407.01,-1.366339,-1.394248,0.556007,95.91,1
4329,0,52272,53437,52116.32,53016.83,155.68,420.17,-1.366345,-1.394264,0.555699,95.92,1
4368,0,52282,53501,52116.65,53017.80,165.35,483.20,-1.366351,-1.394282,0.555390,95.92,1
4408,0,52317,53571,52117.05,53018.91,199.95,552.09,-1.366359,-1.394303,0.555080,95.93,1
4448,0,52354,53660,52117.53,53020.20,236.47,639.80,-1.366368,-1.394328,0.554768,95.94,1
4488,0,52390,53708,52118.07,53021.57,271.93,686.43,-1.366379,-1.394354,0.554455,95.94,1
4528,0,52401,53727,52118.64,53022.99,282.36,704.01,-1.366390,-1.394380,0.554141,95.95,1
4569,0,52404,53732,52119.21,53024.41,284.79,707.59,-1.366401,-1.394407,0.553826,95.95,1
4609,0,52406,53760,52119.79,53025.88,286.21,734.12,-1.366412,-1.394435,0.553509,95.96,1
4650,0,52420,53808,52120.39,53027.45,299.61,780.55,-1.366423,-1.394464,0.553190,95.97,1
4689,0,52440,53873,52121.03,53029.14,318.97,843.86,-1.366436,-1.394496,0.552869,95.97,1
4730,0,52469,53929,52121.73,53030.94,347.27,898.06,-1.366449,-1.394530,0.552545,95.98,1
4769,0,52491,53985,52122.46,53032.85,368.54,952.15,-1.366463,-1.394566,0.552218,95.99,1
4809,0,52514,54032,52123.25,53034.85,390.75,997.15,-1.366478,-1.394604,0.551888,95.99,1
4849,0,52531,54082,52124.07,53036.94,406.93,1045.06,-1.366494,-1.394643,0.551555,96.00,1
4889,0,52545,54010,52124.91,53038.89,420.09,971.11,-1.366510,-1.394680,0.551224,96.01,1
4929,0,52467,53782,52125.59,53040.38,341.41,741.62,-1.366523,-1.394708,0.550894,96.01,1
4970,0,52392,53670,52126.13,53041.64,265.87,628.36,-1.366533,-1.394732,0.550565,96.02,1
5009,0,52380,53670,52126.64,53042.90,253.36,627.10,-1.366543,-1.394756,0.550237,96.03,1
5049,0,52387,53700,52127.16,53044.21,259.84,655.79,-1.366553,-1.394780,0.549908,96.03,1
5090,0,52392,53700,52127.69,53045.53,264.31,654.47,-1.366563,-1.394805,0.549578,96.04,1
5129,0,52405,53727,52128.25,53046.89,276.75,680.11,-1.366574,-1.394831,0.549249,96.05,1
5169,0,52412,53740,52128.82,53048.28,283.18,691.72,-1.366585,-1.394857,0.548921,96.05,1
5209,0,52407,53740,52129.37,53049.66,277.62,690.34,-1.366596,-1.394883,0.548591,96.06,1
5250,0,52416,53784,52129.95,53051.13,286.05,732.87,-1.366607,-1.394911,0.548262,96.07,1
5290,0,52441,53829,52130.57,53052.69,310.43,776.31,-1.366619,-1.394940,0.547931,96.07,1
5330,0,52461,53874,52131.24,53054.34,329.76,819.66,-1.366631,-1.394971,0.547600,96.08,1
5371,0,52477,53927,52131.93,53056.08,345.07,870.92,-1.366645,-1.395004,0.547269,96.09,1
5410,0,52504,53987,52132.68,53057.95,371.32,929.05,-1.366659,-1.395039,0.546936,96.10,1
5450,0,52527,54032,52133.46,53059.89,393.54,972.11,-1.366674,-1.395076,0.546602,96.10,1
5490,0,52549,54086,52134.30,53061.95,414.70,1024.05,-1.366690,-1.395115,0.546268,96.11,1
5530,0,52566,54137,52135.16,53064.10,430.84,1072.90,-1.366707,-1.395155,0.545933,96.12,1
5570,0,52588,54133,52136.07,53066.24,451.93,1066.76,-1.366724,-1.395196,0.545598,96.12,1
5615,0,52545,53929,52136.89,53067.97,408.11,861.03,-1.366740,-1.395228,0.545267,96.13,1
5655,0,52459,53762,52137.53,53069.36,321.47,692.64,-1.366752,-1.395254,0.544938,96.14,1
5694,0,52422,53755,52138.10,53070.73,283.90,684.27,-1.366763,-1.395280,0.544610,96.15,1
5734,0,52433,53786,52138.69,53072.16,294.31,713.84,-1.366774,-1.395307,0.544283,96.15,1
5775,0,52452,53803,52139.32,53073.63,312.68,729.37,-1.366786,-1.395335,0.543956,96.16,1
5810,0,52464,53837,52139.97,53075.16,324.03,761.84,-1.366799,-1.395364,0.543630,96.17,1
5850,0,52480,53877,52140.65,53076.76,339.35,800.24,-1.366812,-1.395394,0.543306,96.18,1
5891,0,52493,53902,52141.36,53078.41,351.64,823.59,-1.366825,-1.395425,0.542982,96.18,1
5931,0,52498,53919,52142.07,53080.10,355.93,838.90,-1.366839,-1.395457,0.542659,96.19,1
5971,0,52511,53951,52142.81,53081.84,368.19,869.16,-1.366853,-1.395489,0.542336,96.20,1
6011,0,52525,53991,52143.58,53083.66,381.42,907.34,-1.366868,-1.395524,0.542015,96.21,1
6051,0,52541,54035,52144.37,53085.56,396.62,949.44,-1.366883,-1.395560,0.541693,96.21,1
6091,0,52556,54070,52145.20,53087.53,410.80,982.47,-1.366899,-1.395597,0.541372,96.22,1
6131,0,52574,54115,52146.06,53089.59,427.94,1025.41,-1.366916,-1.395635,0.541052,96.23,1
6171,0,52590,54149,52146.95,53091.71,443.05,1057.29,-1.366933,-1.395675,0.540732,96.24,1
6211,0,52606,54180,52147.87,53093.89,458.13,1086.11,-1.366950,-1.395716,0.540412,96.24,1
6251,0,52616,54213,52148.80,53096.12,467.20,1116.88,-1.366968,-1.395759,0.540093,96.25,1
6291,0,52635,54207,52149.78,53098.35,485.22,1108.65,-1.366987,-1.395800,0.539775,96.26,1
6331,0,52593,54008,52150.66,53100.17,442.34,907.83,-1.367004,-1.395835,0.539463,96.27,1
6371,0,52500,53843,52151.36,53101.66,348.64,741.34,-1.367017,-1.395863,0.539152,96.27,1
6416,0,52463,53823,52151.99,53103.10,311.01,719.90,-1.367029,-1.395890,0.538843,96.28,1
6455,0,52475,53857,52152.64,53104.61,322.36,752.39,-1.367042,-1.395918,0.538534,96.29,1
6495,0,52488,53881,52153.31,53106.16,334.69,774.84,-1.367055,-1.395948,0.538227,96.30,1
6531,0,52502,53928,52154.01,53107.81,347.99,820.19,-1.367068,-1.395979,0.537920,96.31,1
6572,0,52526,53959,52154.75,53109.51,371.25,849.49,-1.367082,-1.396011,0.537615,96.31,1
6612,0,52534,53986,52155.52,53111.27,378.48,874.73,-1.367097,-1.396044,0.537311,96.32,1
6652,0,52540,53997,52156.29,53113.04,383.71,883.96,-1.367112,-1.396077,0.537008,96.33,1
6695,0,52544,54022,52157.06,53114.86,386.94,907.14,-1.367127,-1.396111,0.536706,96.34,1
6736,0,52556,54060,52157.86,53116.75,398.14,943.25,-1.367142,-1.396147,0.536405,96.34,1
6773,0,52573,54094,52158.70,53118.71,414.30,975.29,-1.367158,-1.396184,0.536104,96.35,1
6816,0,52591,54140,52159.56,53120.75,431.44,1019.25,-1.367175,-1.396222,0.535804,96.36,1
6858,0,52611,54183,52160.46,53122.87,450.54,1060.13,-1.367192,-1.396262,0.535505,96.37,1
6893,0,52626,54218,52161.40,53125.07,464.60,1092.93,-1.367210,-1.396303,0.535206,96.37,1
6934,0,52645,54247,52162.37,53127.31,482.63,1119.69,-1.367228,-1.396346,0.534909,96.38,1
6972,0,52658,54279,52163.36,53129.62,494.64,1149.38,-1.367247,-1.396389,0.534612,96.39,1
7013,0,52665,54216,52164.36,53131.79,500.64,1084.21,-1.367267,-1.396430,0.534319,96.40,1
7052,0,52601,54024,52165.24,53133.58,435.76,890.42,-1.367283,-1.396464,0.534030,96.40,1
7094,0,52534,53924,52165.98,53135.16,368.02,788.84,-1.367298,-1.396493,0.533743,96.41,1
7136,0,52525,53939,52166.70,53136.77,358.30,802.23,-1.367311,-1.396524,0.533457,96.42,1
7173,0,52541,53984,52167.45,53138.46,373.55,845.54,-1.367326,-1.396556,0.533172,96.43,1
7213,0,52559,54011,52168.23,53140.21,390.77,870.79,-1.367341,-1.396588,0.532890,96.43,1
7254,0,52572,54058,52169.04,53142.05,402.96,915.95,-1.367356,-1.396623,0.532608,96.44,1
7293,0,52585,54064,52169.87,53143.89,415.13,920.11,-1.367372,-1.396658,0.532329,96.45,1
7333,0,52587,54083,52170.71,53145.77,416.29,937.23,-1.367388,-1.396693,0.532051,96.46,1
7373,0,52593,54107,52171.55,53147.70,421.45,959.30,-1.367404,-1.396729,0.531774,96.46,1
7413,0,52608,54145,52172.43,53149.69,435.57,995.31,-1.367421,-1.396767,0.531498,96.47,1
7454,0,52627,54189,52173.34,53151.77,453.66,1037.23,-1.367439,-1.396806,0.531223,96.48,1
7498,0,52654,54240,52174.30,53153.95,479.70,1086.05,-1.367457,-1.396847,0.530950,96.49,1
7536,0,52666,54282,52175.29,53156.21,490.71,1125.79,-1.367476,-1.396889,0.530678,96.49,1
7575,0,52690,54318,52176.32,53158.53,513.68,1159.47,-1.367496,-1.396933,0.530408,96.50,1
7614,0,52708,54345,52177.38,53160.91,530.62,1184.09,-1.367516,-1.396978,0.530140,96.51,1
7654,0,52720,54379,52178.47,53163.34,541.53,1215.66,-1.367537,-1.397024,0.529873,96.52,1
7693,0,52736,54400,52179.59,53165.82,556.41,1234.18,-1.367558,-1.397070,0.529609,96.52,1
7734,0,52706,54221,52180.64,53167.93,525.36,1053.07,-1.367579,-1.397110,0.529349,96.53,1
7773,0,52620,54024,52181.52,53169.65,438.48,854.35,-1.367595,-1.397142,0.529093,96.54,1
7814,0,52562,53973,52182.28,53171.26,379.72,801.74,-1.367610,-1.397173,0.528839,96.55,1
7853,0,52567,53992,52183.05,53172.90,383.95,819.10,-1.367625,-1.397203,0.528587,96.55,1
7894,0,52580,54014,52183.85,53174.59,396.15,839.41,-1.367640,-1.397235,0.528337,96.56,1
7934,0,52585,54032,52184.65,53176.30,400.35,855.70,-1.367656,-1.397267,0.528089,96.57,1
7974,0,52603,54067,52185.49,53178.08,417.51,888.92,-1.367672,-1.397301,0.527843,96.57,1
8014,0,52617,54099,52186.36,53179.93,430.64,919.07,-1.367688,-1.397336,0.527599,96.58,1
8054,0,52624,54126,52187.23,53181.82,436.77,944.18,-1.367705,-1.397371,0.527357,96.59,1
8094,0,52647,54165,52188.15,53183.79,458.85,981.21,-1.367723,-1.397408,0.527117,96.60,1
8134,0,52672,54218,52189.12,53185.86,482.88,1032.14,-1.367741,-1.397447,0.526879,96.60,1
8174,0,52689,54267,52190.12,53188.02,498.88,1078.98,-1.367760,-1.397488,0.526644,96.61,1
8214,0,52710,54308,52191.16,53190.27,518.84,1117.73,-1.367780,-1.397530,0.526410,96.62,1
8254,0,52736,54337,52192.25,53192.56,543.75,1144.44,-1.367801,-1.397573,0.526180,96.62,1
8294,0,52750,54370,52193.37,53194.91,556.63,1175.09,-1.367823,-1.397617,0.525952,96.63,1
8338,0,52768,54403,52194.52,53197.33,573.48,1205.67,-1.367845,-1.397663,0.525727,96.64,1
8374,0,52781,54451,52195.70,53199.84,585.30,1251.16,-1.367867,-1.397710,0.525505,96.64,1
8414,0,52791,54407,52196.89,53202.25,594.11,1204.75,-1.367890,-1.397755,0.525287,96.65,1
8454,0,52737,54166,52197.97,53204.18,539.03,961.82,-1.367911,-1.397792,0.525075,96.66,1
8494,0,52631,53971,52198.84,53205.72,432.16,765.28,-1.367927,-1.397820,0.524867,96.66,1
8539,0,52577,53932,52199.60,53207.17,377.40,724.83,-1.367942,-1.397848,0.524661,96.67,1
8578,0,52585,53946,52200.37,53208.65,384.63,737.35,-1.367957,-1.397876,0.524458,96.68,1
8618,0,52591,53950,52201.15,53210.14,389.85,739.86,-1.367972,-1.397903,0.524258,96.68,1
8658,0,52596,53979,52201.95,53211.68,394.05,767.32,-1.367987,-1.397932,0.524060,96.69,1
8699,0,52614,54013,52202.77,53213.28,411.23,799.72,-1.368003,-1.397963,0.523865,96.70,1
8739,0,52628,54032,52203.62,53214.92,424.38,817.08,-1.368019,-1.397993,0.523673,96.70,1
8777,0,52635,54039,52204.48,53216.57,430.52,822.43,-1.368035,-1.398024,0.523483,96.71,1
8816,0,52651,54064,52205.38,53218.27,445.62,845.73,-1.368053,-1.398056,0.523297,96.71,1
8859,0,52657,54101,52206.29,53220.03,450.71,880.97,-1.368070,-1.398089,0.523114,96.72,1
8898,0,52677,54143,52207.23,53221.88,469.77,921.12,-1.368088,-1.398124,0.522933,96.73,1
8939,0,52699,54180,52208.21,53223.80,490.79,956.20,-1.368107,-1.398160,0.522755,96.73,1
8979,0,52721,54216,52209.24,53225.78,511.76,990.22,-1.368127,-1.398197,0.522581,96.74,1
9019,0,52730,54241,52210.28,53227.81,519.72,1013.19,-1.368146,-1.398236,0.522410,96.75,1
9060,0,52744,54262,52211.35,53229.88,532.65,1032.12,-1.368167,-1.398275,0.522243,96.75,1
9099,0,52756,54297,52212.44,53232.02,543.56,1064.98,-1.368188,-1.398315,0.522079,96.76,1
9135,0,52751,54161,52213.52,53233.88,537.48,927.12,-1.368209,-1.398350,0.521920,96.76,1
9180,0,52653,53914,52214.40,53235.24,438.60,678.76,-1.368225,-1.398375,0.521767,96.77,1
9219,0,52566,53805,52215.10,53236.38,350.90,568.62,-1.368239,-1.398397,0.521616,96.77,1
9260,0,52567,53834,52215.81,53237.58,351.19,596.42,-1.368252,-1.398419,0.521468,96.78,1
9300,0,52580,53861,52216.54,53238.83,363.46,622.17,-1.368266,-1.398443,0.521323,96.79,1
9339,0,52596,53895,52217.30,53240.14,378.70,654.86,-1.368281,-1.398467,0.521181,96.79,1
9378,0,52615,53944,52218.10,53241.55,396.90,702.45,-1.368296,-1.398494,0.521042,96.80,1
9420,0,52630,53958,52218.92,53242.98,411.08,715.02,-1.368312,-1.398521,0.520905,96.80,1
9461,0,52643,53963,52219.77,53244.43,423.23,718.57,-1.368328,-1.398548,0.520773,96.81,1
9501,0,52649,53994,52220.63,53245.93,428.37,748.07,-1.368345,-1.398576,0.520644,96.81,1
9541,0,52665,54044,52221.52,53247.52,443.48,796.48,-1.368362,-1.398606,0.520518,96.82,1
9578,0,52689,54090,52222.46,53249.21,466.54,840.79,-1.368380,-1.398638,0.520395,96.82,1
9618,0,52710,54134,52223.43,53250.98,486.57,883.02,-1.368398,-1.398671,0.520275,96.83,1
9657,0,52733,54168,52224.45,53252.82,508.55,915.18,-1.368418,-1.398705,0.520160,96.83,1
9700,0,52753,54200,52225.51,53254.71,527.49,945.29,-1.368438,-1.398741,0.520048,96.84,1
9736,0,52768,54237,52226.60,53256.68,541.40,980.32,-1.368459,-1.398778,0.519941,96.84,1
9776,0,52777,54274,52227.70,53258.71,549.30,1015.29,-1.368480,-1.398816,0.519837,96.85,1
9816,0,52785,54189,52228.82,53260.57,556.18,928.43,-1.368501,-1.398851,0.519739,96.85,1
9856,0,52695,53917,52229.75,53261.89,465.25,655.11,-1.368519,-1.398876,0.519646,96.86,1
9896,0,52604,53790,52230.50,53262.95,373.50,527.05,-1.368534,-1.398896,0.519557,96.86,1
9936,0,52579,53795,52231.20,53264.01,347.80,530.99,-1.368547,-1.398916,0.519471,96.87,1
9977,0,52597,53825,52231.93,53265.14,365.07,559.86,-1.368561,-1.398937,0.519389,96.87,1
10017,0,52603,53841,52232.68,53266.29,370.32,574.71,-1.368575,-1.398958,0.519309,96.88,1
10057,0,52624,53897,52233.46,53267.55,390.54,629.45,-1.368590,-1.398982,0.519232,96.88,1
10097,0,52640,53923,52234.27,53268.86,405.73,654.14,-1.368606,-1.399006,0.519159,96.88,1
10137,0,52648,53938,52235.10,53270.20,412.90,667.80,-1.368622,-1.399032,0.519088,96.89,1
10177,0,52655,53965,52235.94,53271.59,419.06,693.41,-1.368638,-1.399058,0.519021,96.89,1
10217,0,52678,54013,52236.83,53273.08,441.17,739.92,-1.368655,-1.399086,0.518958,96.90,1
10260,0,52698,54066,52237.75,53274.66,460.25,791.34,-1.368672,-1.399116,0.518897,96.90,1
10297,0,52719,54119,52238.71,53276.36,480.29,842.64,-1.368691,-1.399147,0.518839,96.90,1
10337,0,52740,54163,52239.72,53278.13,500.28,884.87,-1.368710,-1.399180,0.518785,96.91,1
10377,0,52761,54202,52240.76,53279.98,520.24,922.02,-1.368730,-1.399215,0.518734,96.91,1
10417,0,52778,54228,52241.84,53281.87,536.16,946.12,-1.368751,-1.399251,0.518686,96.92,1
10457,0,52793,54267,52242.94,53283.85,550.06,983.15,-1.368772,-1.399288,0.518641,96.92,1
10497,0,52805,54299,52244.07,53285.88,560.93,1013.12,-1.368793,-1.399326,0.518600,96.92,1
10537,0,52801,54162,52245.18,53287.63,555.82,874.37,-1.368815,-1.399359,0.518564,96.93,1
10577,0,52701,53931,52246.09,53288.92,454.91,642.08,-1.368832,-1.399383,0.518533,96.93,1
10617,0,52634,53857,52246.87,53290.06,387.13,566.94,-1.368847,-1.399404,0.518505,96.93,1
10657,0,52626,53885,52247.63,53291.25,378.37,593.75,-1.368862,-1.399427,0.518480,96.94,1
10697,0,52639,53901,52248.41,53292.47,390.59,608.53,-1.368877,-1.399450,0.518458,96.94,1
10738,0,52648,53920,52249.21,53293.73,398.79,626.27,-1.368892,-1.399473,0.518439,96.94,1
10778,0,52672,53982,52250.06,53295.11,421.94,686.89,-1.368908,-1.399499,0.518422,96.94,1
10818,0,52689,54008,52250.94,53296.54,438.06,711.46,-1.368925,-1.399526,0.518409,96.95,1
10858,0,52699,54033,52251.84,53298.01,447.16,734.99,-1.368942,-1.399554,0.518398,96.95,1
10898,0,52706,54064,52252.75,53299.54,453.25,764.46,-1.368960,-1.399582,0.518390,96.95,1
10938,0,52722,54100,52253.69,53301.14,468.31,798.86,-1.368978,-1.399612,0.518385,96.96,1
10978,0,52743,54143,52254.67,53302.83,488.33,840.17,-1.368996,-1.399644,0.518382,96.96,1
11018,0,52758,54187,52255.68,53304.60,502.32,882.40,-1.369016,-1.399677,0.518382,96.96,1
11058,0,52774,54229,52256.72,53306.45,517.28,922.55,-1.369035,-1.399712,0.518383,96.96,1
11098,0,52789,54263,52257.79,53308.36,531.21,954.64,-1.369056,-1.399748,0.518387,96.97,1
11140,0,52808,54293,52258.89,53310.33,549.11,982.67,-1.369077,-1.399785,0.518394,96.97,1
11178,0,52823,54316,52260.02,53312.34,562.98,1003.66,-1.369099,-1.399822,0.518402,96.97,1
11218,0,52837,54354,52261.17,53314.43,575.83,1039.57,-1.369121,-1.399862,0.518413,96.97,1
11258,0,52838,54296,52262.33,53316.39,575.67,979.61,-1.369143,-1.399898,0.518428,96.97,1
11298,0,52768,54068,52263.34,53317.90,504.66,750.10,-1.369162,-1.399927,0.518447,96.98,1
11338,0,52688,53943,52264.19,53319.15,423.81,623.85,-1.369179,-1.399950,0.518469,96.98,1
11378,0,52671,53952,52265.01,53320.41,405.99,631.59,-1.369194,-1.399974,0.518494,96.98,1
11418,0,52680,53971,52265.84,53321.71,414.16,649.29,-1.369210,-1.399998,0.518522,96.98,1
11458,0,52686,53981,52266.68,53323.04,419.32,657.96,-1.369226,-1.400023,0.518552,96.98,1
11499,0,52699,54023,52267.55,53324.44,431.45,698.56,-1.369243,-1.400049,0.518584,96.98,1
11539,0,52720,54050,52268.45,53325.89,451.55,724.11,-1.369260,-1.400077,0.518619,96.99,1
11579,0,52726,54067,52269.37,53327.37,456.63,739.62,-1.369278,-1.400104,0.518657,96.99,1
11619,0,52731,54088,52270.30,53328.90,460.70,759.10,-1.369295,-1.400133,0.518697,96.99,1
11659,0,52739,54113,52271.23,53330.47,467.77,782.53,-1.369313,-1.400162,0.518739,96.99,1
11699,0,52750,54147,52272.19,53332.10,477.81,814.90,-1.369331,-1.400193,0.518784,96.99,1
11739,0,52770,54183,52273.19,53333.80,496.81,849.20,-1.369351,-1.400225,0.518830,96.99,1
11779,0,52778,54211,52274.20,53335.56,503.80,875.44,-1.369370,-1.400258,0.518878,96.99,1
11819,0,52791,54250,52275.23,53337.39,515.77,912.61,-1.369390,-1.400292,0.518928,96.99,1
11859,0,52804,54278,52276.29,53339.27,527.71,938.73,-1.369410,-1.400327,0.518979,97.00,1
11899,0,52816,54301,52277.37,53341.20,538.62,959.80,-1.369431,-1.400364,0.519032,97.00,1
11939,0,52833,54326,52278.49,53343.17,554.51,982.83,-1.369452,-1.400401,0.519086,97.00,1
11979,0,52841,54358,52279.61,53345.20,561.39,1012.80,-1.369473,-1.400439,0.519141,97.00,1
12019,0,52850,54338,52280.75,53347.19,569.25,990.81,-1.369495,-1.400476,0.519199,97.00,1
12060,0,52798,54130,52281.79,53348.76,516.21,781.24,-1.369515,-1.400505,0.519260,97.00,1
12099,0,52713,53990,52282.65,53350.04,430.35,639.96,-1.369532,-1.400529,0.519325,97.00,1
12139,0,52683,53987,52283.45,53351.32,399.55,635.68,-1.369547,-1.400553,0.519391,97.00,1
12179,0,52698,54018,52284.29,53352.65,413.71,665.35,-1.369563,-1.400578,0.519459,97.00,1
12219,0,52704,54029,52285.12,53354.01,418.87,674.99,-1.369579,-1.400604,0.519528,97.00,1
12260,0,52708,54068,52285.97,53355.44,422.03,712.56,-1.369595,-1.400630,0.519599,97.00,1
12300,0,52726,54089,52286.86,53356.91,439.14,732.09,-1.369612,-1.400658,0.519672,97.00,1
12340,0,52733,54106,52287.75,53358.41,445.25,747.59,-1.369629,-1.400686,0.519746,97.00,1
12380,0,52737,54121,52288.65,53359.93,448.35,761.07,-1.369646,-1.400715,0.519822,97.00,1
12420,0,52747,54165,52289.57,53361.55,457.43,803.45,-1.369664,-1.400745,0.519898,97.00,1
12460,0,52767,54205,52290.52,53363.23,476.48,841.77,-1.369682,-1.400777,0.519975,97.00,1
12500,0,52787,54257,52291.52,53365.02,495.48,891.98,-1.369701,-1.400810,0.520053,97.00,1
12545,0,52801,54298,52292.54,53366.89,508.46,931.11,-1.369721,-1.400845,0.520131,97.00,1
12584,0,52821,54336,52293.60,53368.83,527.40,967.17,-1.369741,-1.400882,0.520209,97.00,1
12624,0,52839,54369,52294.69,53370.83,544.31,998.17,-1.369762,-1.400919,0.520288,97.00,1
12664,0,52852,54395,52295.81,53372.88,556.19,1022.12,-1.369783,-1.400957,0.520366,97.00,1
12704,0,52867,54427,52296.95,53374.99,570.05,1052.01,-1.369805,-1.400997,0.520445,97.00,1
12744,0,52883,54467,52298.12,53377.18,584.87,1089.82,-1.369828,-1.401038,0.520524,97.00,1
12784,0,52886,54411,52299.30,53379.25,586.70,1031.75,-1.369850,-1.401077,0.520604,97.00,1
12824,0,52824,54201,52300.35,53380.89,523.65,820.11,-1.369870,-1.401107,0.520687,97.00,1
12865,0,52751,54088,52301.25,53382.30,449.75,705.70,-1.369887,-1.401134,0.520772,97.00,1
12904,0,52733,54111,52302.12,53383.76,430.88,727.24,-1.369904,-1.401161,0.520859,97.00,1
12945,0,52748,54135,52303.01,53385.27,444.99,749.73,-1.369921,-1.401189,0.520947,97.00,1
12985,0,52754,54153,52303.91,53386.80,450.09,766.20,-1.369938,-1.401218,0.521035,97.00,1
13025,0,52771,54194,52304.85,53388.42,466.15,805.58,-1.369956,-1.401248,0.521125,97.00,1
13066,0,52785,54221,52305.81,53390.09,479.19,830.91,-1.369974,-1.401280,0.521216,96.99,1
13105,0,52789,54238,52306.78,53391.78,482.22,846.22,-1.369993,-1.401311,0.521307,96.99,1
13145,0,52798,54263,52307.76,53393.52,490.24,869.48,-1.370012,-1.401344,0.521399,96.99,1
13186,0,52812,54299,52308.77,53395.34,503.23,903.66,-1.370031,-1.401378,0.521491,96.99,1
13225,0,52834,54350,52309.82,53397.25,524.18,952.75,-1.370051,-1.401414,0.521584,96.99,1
13266,0,52849,54397,52310.90,53399.25,538.10,997.75,-1.370072,-1.401451,0.521676,96.99,1
13305,0,52875,54441,52312.03,53401.33,562.97,1039.67,-1.370093,-1.401490,0.521768,96.99,1
13345,0,52892,54475,52313.19,53403.48,578.81,1071.52,-1.370116,-1.401531,0.521859,96.99,1
13385,0,52912,54502,52314.39,53405.68,597.61,1096.32,-1.370139,-1.401572,0.521951,96.99,1
13422,0,52917,54522,52315.60,53407.91,601.40,1114.09,-1.370162,-1.401614,0.522042,96.99,1
13464,0,52927,54551,52316.82,53410.20,610.18,1140.80,-1.370185,-1.401656,0.522133,96.98,1
13506,0,52934,54580,52318.05,53412.54,615.95,1167.46,-1.370209,-1.401700,0.522222,96.98,1
13545,0,52949,54564,52319.32,53414.85,629.68,1149.15,-1.370233,-1.401743,0.522312,96.98,1
13585,0,52900,54336,52320.48,53416.69,579.52,919.31,-1.370255,-1.401778,0.522405,96.98,1
13625,0,52797,54171,52321.43,53418.20,475.57,752.80,-1.370273,-1.401806,0.522500,96.98,1
13666,0,52764,54143,52322.32,53419.65,441.68,723.35,-1.370290,-1.401833,0.522597,96.98,1
13706,0,52769,54162,52323.21,53421.14,445.79,740.86,-1.370307,-1.401861,0.522694,96.98,1
13742,0,52773,54157,52324.12,53422.61,448.88,734.39,-1.370324,-1.401889,0.522793,96.98,1
13786,0,52770,54180,52325.01,53424.12,444.99,755.87,-1.370342,-1.401917,0.522893,96.97,1
13826,0,52795,54219,52325.95,53425.71,469.05,793.29,-1.370360,-1.401947,0.522993,96.97,1
13866,0,52808,54232,52326.92,53427.33,481.08,804.67,-1.370378,-1.401977,0.523095,96.97,1
13907,0,52809,54250,52327.88,53428.98,481.12,821.02,-1.370396,-1.402008,0.523198,96.97,1
13943,0,52826,54284,52328.88,53430.69,497.12,853.31,-1.370415,-1.402040,0.523302,96.97,1
13986,0,52841,54319,52329.91,53432.46,511.09,886.54,-1.370435,-1.402073,0.523407,96.97,1
14022,0,52862,54342,52330.97,53434.29,531.03,907.71,-1.370455,-1.402107,0.523512,96.96,1
14067,0,52872,54378,52332.05,53436.18,539.95,941.82,-1.370476,-1.402143,0.523619,96.96,1
14107,0,52885,54391,52333.16,53438.09,551.84,952.91,-1.370497,-1.402178,0.523726,96.96,1
14145,0,52888,54416,52334.27,53440.04,553.73,975.96,-1.370518,-1.402215,0.523834,96.96,1
14182,0,52896,54431,52335.39,53442.03,560.61,988.97,-1.370540,-1.402252,0.523942,96.96,1
14226,0,52905,54452,52336.54,53444.05,568.46,1007.95,-1.370562,-1.402290,0.524051,96.96,1
14266,0,52912,54474,52337.69,53446.11,574.31,1027.89,-1.370584,-1.402328,0.524160,96.95,1
14306,0,52922,54511,52338.86,53448.24,583.14,1062.76,-1.370606,-1.402368,0.524268,96.95,1
14347,0,52928,54473,52340.04,53450.29,587.96,1022.71,-1.370629,-1.402407,0.524378,96.95,1
14387,0,52867,54226,52341.09,53451.85,525.91,774.15,-1.370649,-1.402436,0.524490,96.95,1
14426,0,52764,54057,52341.94,53453.06,422.06,603.94,-1.370665,-1.402458,0.524605,96.95,1
14467,0,52728,54047,52342.71,53454.25,385.29,592.75,-1.370680,-1.402481,0.524721,96.95,1
14508,0,52743,54072,52343.52,53455.48,399.48,616.52,-1.370695,-1.402504,0.524839,96.94,1
14548,0,52752,54071,52344.33,53456.71,407.67,614.29,-1.370711,-1.402527,0.524958,96.94,1
14587,0,52760,54111,52345.16,53458.02,414.84,652.98,-1.370727,-1.402551,0.525078,96.94,1
14625,0,52777,54146,52346.03,53459.40,430.97,686.60,-1.370743,-1.402577,0.525200,96.94,1
14667,0,52793,54159,52346.92,53460.80,446.08,698.20,-1.370760,-1.402603,0.525323,96.93,1
14707,0,52804,54173,52347.84,53462.23,456.16,710.77,-1.370778,-1.402630,0.525448,96.93,1
14746,0,52820,54207,52348.78,53463.72,471.22,743.28,-1.370796,-1.402658,0.525575,96.93,1
14783,0,52834,54250,52349.75,53465.30,484.25,784.70,-1.370814,-1.402687,0.525702,96.93,1
14827,0,52847,54294,52350.75,53466.96,496.25,827.04,-1.370833,-1.402718,0.525831,96.93,1
14867,0,52865,54330,52351.78,53468.68,513.22,861.32,-1.370853,-1.402751,0.525961,96.92,1
14907,0,52882,54358,52352.84,53470.46,529.16,887.54,-1.370873,-1.402784,0.526092,96.92,1
14948,0,52890,54386,52353.92,53472.30,536.08,913.70,-1.370894,-1.402818,0.526223,96.92,1
14988,0,52901,54412,52355.01,53474.18,545.99,937.82,-1.370915,-1.402853,0.526355,96.92,1
15028,0,52910,54439,52356.12,53476.11,553.87,962.89,-1.370936,-1.402889,0.526487,96.91,1
15068,0,52919,54476,52357.25,53478.11,561.75,997.89,-1.370957,-1.402927,0.526620,96.91,1
15108,0,52934,54511,52358.41,53480.17,575.59,1030.83,-1.370980,-1.402966,0.526751,96.91,1
15148,0,52920,54355,52359.54,53481.92,560.46,873.08,-1.371001,-1.402998,0.526886,96.91,1
15188,0,52824,54119,52360.46,53483.20,463.54,635.80,-1.371019,-1.403022,0.527023,96.90,1
15225,0,52758,54050,52361.26,53484.34,396.74,565.66,-1.371034,-1.403043,0.527162,96.90,1
15270,0,52758,54085,52362.05,53485.54,395.95,599.46,-1.371049,-1.403066,0.527302,96.90,1
15309,0,52776,54099,52362.88,53486.77,413.12,612.23,-1.371065,-1.403089,0.527444,96.90,1
15346,0,52788,54126,52363.73,53488.05,424.27,637.95,-1.371081,-1.403113,0.527587,96.89,1
15388,0,52812,54174,52364.63,53489.42,447.37,684.58,-1.371098,-1.403139,0.527732,96.89,1
15428,0,52825,54187,52365.55,53490.82,459.45,696.18,-1.371116,-1.403165,0.527879,96.89,1
15469,0,52827,54197,52366.48,53492.23,460.52,704.77,-1.371134,-1.403191,0.528027,96.89,1
15507,0,52834,54229,52367.42,53493.71,466.58,735.29,-1.371152,-1.403219,0.528177,96.88,1
15547,0,52852,54266,52368.39,53495.26,483.61,770.74,-1.371170,-1.403248,0.528328,96.88,1
15586,0,52864,54315,52369.38,53496.90,494.62,818.10,-1.371189,-1.403278,0.528479,96.88,1
15628,0,52882,54357,52370.41,53498.62,511.59,858.38,-1.371209,-1.403311,0.528632,96.88,1
15667,0,52894,54391,52371.45,53500.41,522.55,890.59,-1.371229,-1.403344,0.528784,96.87,1
15709,0,52907,54416,52372.53,53502.24,534.47,913.76,-1.371249,-1.403378,0.528937,96.87,1
15749,0,52915,54442,52373.61,53504.12,541.39,937.88,-1.371270,-1.403413,0.529089,96.87,1
15791,0,52923,54474,52374.71,53506.06,548.29,967.94,-1.371291,-1.403450,0.529242,96.86,1
15829,0,52934,54503,52375.84,53508.06,558.16,994.94,-1.371312,-1.403487,0.529393,96.86,1
15869,0,52948,54531,52376.98,53510.11,571.02,1020.89,-1.371334,-1.403525,0.529544,96.86,1
15909,0,52963,54583,52378.15,53512.25,584.85,1070.75,-1.371357,-1.403565,0.529693,96.86,1
15946,0,52979,54571,52379.36,53514.37,599.64,1056.63,-1.371380,-1.403605,0.529842,96.85,1
15989,0,52925,54298,52380.45,53515.94,544.55,782.06,-1.371400,-1.403634,0.529994,96.85,1
16029,0,52809,54094,52381.31,53517.10,427.69,576.90,-1.371417,-1.403656,0.530148,96.85,1
16065,0,52769,54066,52382.09,53518.20,386.91,547.80,-1.371432,-1.403676,0.530304,96.84,1
16109,0,52777,54091,52382.88,53519.34,394.12,571.66,-1.371447,-1.403698,0.530462,96.84,1
16146,0,52777,54079,52383.67,53520.46,393.33,558.54,-1.371462,-1.403719,0.530621,96.84,1
16189,0,52781,54106,52384.46,53521.64,396.54,584.36,-1.371477,-1.403741,0.530781,96.83,1
16225,0,52802,54153,52385.30,53522.90,416.70,630.10,-1.371493,-1.403764,0.530943,96.83,1
16265,0,52814,54169,52386.16,53524.20,427.84,644.80,-1.371509,-1.403788,0.531106,96.83,1
16309,0,52816,54183,52387.02,53525.52,428.98,657.48,-1.371526,-1.403813,0.531270,96.82,1
16350,0,52822,54200,52387.89,53526.87,434.11,673.13,-1.371543,-1.403838,0.531435,96.82,1
16390,0,52830,54246,52388.78,53528.31,441.22,717.69,-1.371559,-1.403865,0.531601,96.82,1
16430,0,52846,54293,52389.69,53529.84,456.31,763.16,-1.371577,-1.403894,0.531766,96.81,1
16470,0,52864,54328,52390.64,53531.44,473.36,796.56,-1.371595,-1.403924,0.531932,96.81,1
16510,0,52882,54353,52391.62,53533.08,490.37,819.92,-1.371614,-1.403954,0.532098,96.81,1
16550,0,52895,54391,52392.63,53534.80,502.37,856.20,-1.371633,-1.403986,0.532265,96.80,1
16591,0,52906,54424,52393.66,53536.58,512.34,887.42,-1.371653,-1.404020,0.532430,96.80,1
16630,0,52917,54456,52394.71,53538.42,522.29,917.58,-1.371673,-1.404054,0.532595,96.80,1
16670,0,52929,54484,52395.78,53540.31,533.22,943.69,-1.371693,-1.404089,0.532759,96.79,1
16710,0,52946,54513,52396.88,53542.26,549.12,970.74,-1.371714,-1.404126,0.532923,96.79,1
16750,0,52957,54547,52398.00,53544.27,559.00,1002.73,-1.371735,-1.404163,0.533085,96.79,1
16790,0,52969,54581,52399.14,53546.34,569.86,1034.66,-1.371757,-1.404202,0.533245,96.78,1
16830,0,52954,54414,52400.25,53548.08,553.75,865.92,-1.371778,-1.404235,0.533407,96.78,1
16869,0,52848,54171,52401.15,53549.33,446.85,621.67,-1.371796,-1.404258,0.533572,96.78,1
16909,0,52775,54095,52401.90,53550.42,373.10,544.58,-1.371810,-1.404278,0.533738,96.77,1
16949,0,52771,54130,52402.64,53551.58,368.36,578.42,-1.371824,-1.404300,0.533904,96.77,1
16991,0,52782,54147,52403.40,53552.77,378.60,594.23,-1.371839,-1.404322,0.534070,96.76,1
17031,0,52779,54161,52404.16,53553.99,374.84,607.01,-1.371853,-1.404345,0.534237,96.76,1
17071,0,52800,54215,52404.95,53555.32,395.05,659.68,-1.371868,-1.404370,0.534404,96.76,1
17111,0,52812,54237,52405.77,53556.68,406.23,680.32,-1.371884,-1.404395,0.534571,96.75,1
17151,0,52817,54254,52406.59,53558.07,410.41,695.93,-1.371899,-1.404421,0.534738,96.75,1
17191,0,52828,54287,52407.43,53559.54,420.57,727.46,-1.371915,-1.404448,0.534904,96.75,1
17231,0,52841,54339,52408.30,53561.09,432.70,777.91,-1.371932,-1.404478,0.535069,96.74,1
17272,0,52867,54395,52409.22,53562.76,457.78,832.24,-1.371950,-1.404509,0.535232,96.74,1
17312,0,52886,54453,52410.17,53564.54,475.83,888.46,-1.371968,-1.404542,0.535394,96.74,1
17349,0,52912,54491,52411.18,53566.40,500.82,924.60,-1.371987,-1.404577,0.535554,96.73,1
17391,0,52930,54528,52412.21,53568.32,517.79,959.68,-1.372007,-1.404613,0.535713,96.73,1
17429,0,52937,54561,52413.27,53570.31,523.73,990.69,-1.372027,-1.404650,0.535868,96.72,1
17469,0,52944,54594,52414.33,53572.36,529.67,1021.64,-1.372047,-1.404688,0.536021,96.72,1
17510,0,52962,54631,52415.43,53574.48,546.57,1056.52,-1.372068,-1.404727,0.536171,96.72,1
17551,0,52976,54674,52416.55,53576.68,559.45,1097.32,-1.372089,-1.404768,0.536317,96.71,1
17591,0,52991,54713,52417.70,53578.95,573.30,1134.05,-1.372111,-1.404811,0.536459,96.71,1
17632,0,52986,54604,52418.83,53581.00,567.17,1023.00,-1.372133,-1.404849,0.536600,96.71,1
17672,0,52898,54398,52419.79,53582.64,478.21,815.36,-1.372151,-1.404880,0.536741,96.70,1
17712,0,52833,54337,52420.62,53584.15,412.38,752.85,-1.372167,-1.404908,0.536881,96.70,1
17752,0,52830,54375,52421.44,53585.73,408.56,789.27,-1.372183,-1.404937,0.537020,96.69,1
17791,0,52848,54412,52422.30,53587.38,425.70,824.62,-1.372199,-1.404968,0.537156,96.69,1
17832,0,52861,54435,52423.18,53589.08,437.82,845.92,-1.372216,-1.405000,0.537291,96.69,1
17872,0,52878,54493,52424.09,53590.89,453.91,902.11,-1.372233,-1.405034,0.537423,96.68,1
17912,0,52892,54505,52425.02,53592.71,466.98,912.29,-1.372251,-1.405068,0.537552,96.68,1
17952,0,52898,54520,52425.97,53594.57,472.03,925.43,-1.372269,-1.405102,0.537679,96.68,1
17993,0,52907,54539,52426.94,53596.46,480.06,942.54,-1.372288,-1.405138,0.537804,96.67,1
18028,0,52925,54592,52427.93,53598.45,497.07,993.55,-1.372307,-1.405175,0.537926,96.67,1
18073,0,52941,54631,52428.96,53600.52,512.04,1030.48,-1.372326,-1.405213,0.538044,96.67,1
18112,0,52954,54686,52430.01,53602.69,523.99,1083.31,-1.372346,-1.405254,0.538159,96.66,1
18153,0,52976,54727,52431.11,53604.94,544.89,1122.06,-1.372367,-1.405296,0.538269,96.66,1
18192,0,52997,54772,52432.24,53607.28,564.76,1164.72,-1.372389,-1.405339,0.538374,96.65,1
18232,0,53008,54811,52433.39,53609.69,574.61,1201.31,-1.372411,-1.405384,0.538475,96.65,1
18272,0,53023,54844,52434.57,53612.16,588.43,1231.84,-1.372433,-1.405430,0.538571,96.65,1
18313,0,53025,54825,52435.75,53614.58,589.25,1210.42,-1.372456,-1.405476,0.538663,96.64,1
18353,0,52999,54758,52436.88,53616.87,562.12,1141.13,-1.372477,-1.405518,0.538751,96.64,1
18392,0,52966,54736,52437.94,53619.11,528.06,1116.89,-1.372497,-1.405560,0.538835,96.64,1
18433,0,52960,54717,52438.99,53621.30,521.01,1095.70,-1.372517,-1.405601,0.538916,96.63,1
18473,0,52915,54507,52439.94,53623.08,475.06,883.92,-1.372536,-1.405634,0.538995,96.63,1
18513,0,52821,54348,52440.70,53624.53,380.30,723.47,-1.372550,-1.405661,0.539074,96.63,1
18553,0,52782,54305,52441.39,53625.89,340.61,679.11,-1.372563,-1.405687,0.539152,96.62,1
18593,0,52775,54300,52442.05,53627.24,332.95,672.76,-1.372576,-1.405712,0.539229,96.62,1
18633,0,52766,54238,52442.70,53628.46,323.30,609.54,-1.372588,-1.405735,0.539305,96.62,1
18673,0,52753,54255,52443.32,53629.72,309.68,625.28,-1.372600,-1.405758,0.539380,96.62,1
18713,0,52760,54259,52443.96,53630.98,316.04,628.02,-1.372612,-1.405782,0.539454,96.61,1
18752,0,52763,54253,52444.60,53632.23,318.40,620.77,-1.372624,-1.405805,0.539527,96.61,1
18793,0,52736,54185,52445.18,53633.33,290.82,551.67,-1.372636,-1.405825,0.539600,96.61,1
18834,0,52711,54134,52445.71,53634.34,265.29,499.66,-1.372646,-1.405844,0.539672,96.60,1
18875,0,52685,54095,52446.20,53635.26,238.80,459.74,-1.372655,-1.405861,0.539744,96.60,1
18909,0,52664,54070,52446.63,53636.13,217.37,433.87,-1.372663,-1.405877,0.539816,96.60,1
18950,0,52647,54028,52447.04,53636.91,199.96,391.09,-1.372671,-1.405892,0.539886,96.59,1
18994,0,52624,54009,52447.39,53637.66,176.61,371.34,-1.372678,-1.405906,0.539957,96.59,1
19034,0,52619,54034,52447.73,53638.45,171.27,395.55,-1.372684,-1.405921,0.540026,96.59,1
19070,0,52649,54141,52448.14,53639.46,200.86,501.54,-1.372692,-1.405940,0.540094,96.59,1
19110,0,52687,54204,52448.62,53640.59,238.38,563.41,-1.372701,-1.405961,0.540160,96.58,1
19150,0,52723,54299,52449.17,53641.91,273.83,657.09,-1.372712,-1.405985,0.540223,96.58,1
19190,0,52762,54383,52449.80,53643.39,312.20,739.61,-1.372723,-1.406013,0.540284,96.58,1
19231,0,52789,54425,52450.48,53644.96,338.52,780.04,-1.372736,-1.406042,0.540341,96.58,1
19272,0,52778,54305,52451.13,53646.28,326.87,658.72,-1.372749,-1.406067,0.540398,96.57,1
19314,0,52730,54197,52451.69,53647.38,278.31,549.62,-1.372760,-1.406087,0.540454,96.57,1
19351,0,52697,54150,52452.18,53648.39,244.82,501.61,-1.372769,-1.406106,0.540509,96.57,1
19392,0,52695,54202,52452.67,53649.50,242.33,552.50,-1.372778,-1.406127,0.540563,96.57,1
19432,0,52720,54255,52453.21,53650.71,266.79,604.29,-1.372789,-1.406149,0.540615,96.56,1
19471,0,52742,54297,52453.79,53652.00,288.21,645.00,-1.372800,-1.406173,0.540665,96.56,1
19511,0,52762,54329,52454.40,53653.36,307.60,675.64,-1.372811,-1.406199,0.540714,96.56,1
19552,0,52762,54322,52455.02,53654.70,306.98,667.30,-1.372823,-1.406224,0.540760,96.56,1
19593,0,52758,54332,52455.62,53656.05,302.37,675.95,-1.372835,-1.406249,0.540805,96.55,1
19631,0,52765,54370,52456.25,53657.48,308.75,712.52,-1.372846,-1.406276,0.540847,96.55,1
19673,0,52790,54420,52456.91,53659.01,333.09,760.99,-1.372859,-1.406304,0.540887,96.55,1
19713,0,52813,54476,52457.63,53660.64,355.37,815.36,-1.372873,-1.406334,0.540924,96.55,1
19755,0,52828,54520,52458.37,53662.36,369.63,857.64,-1.372887,-1.406366,0.540957,96.55,1
19794,0,52845,54571,52459.14,53664.18,385.86,906.82,-1.372902,-1.406400,0.540986,96.54,1
19835,0,52858,54589,52459.95,53666.04,398.05,922.96,-1.372917,-1.406435,0.541011,96.54,1
19875,0,52874,54640,52460.77,53667.98,413.23,972.02,-1.372933,-1.406471,0.541032,96.54,1
19915,0,52887,54676,52461.63,53670.00,425.37,1006.00,-1.372949,-1.406509,0.541049,96.54,1
19955,0,52900,54690,52462.51,53672.04,437.49,1017.96,-1.372966,-1.406547,0.541061,96.54,1
19995,0,52907,54674,52463.40,53674.05,443.60,999.95,-1.372983,-1.406584,0.541069,96.53,1
20033,0,52875,54503,52464.22,53675.71,410.78,827.29,-1.372998,-1.406615,0.541076,96.53,1
20071,0,52808,54405,52464.91,53677.17,343.09,727.83,-1.373012,-1.406642,0.541082,96.53,1
20115,0,52795,54448,52465.57,53678.71,329.43,769.29,-1.373024,-1.406671,0.541085,96.53,1
20152,0,52822,54495,52466.29,53680.34,355.71,814.66,-1.373038,-1.406701,0.541086,96.53,1
20194,0,52838,54518,52467.03,53682.02,370.97,835.98,-1.373052,-1.406733,0.541085,96.52,1
20233,0,52842,54540,52467.78,53683.74,374.22,856.26,-1.373066,-1.406765,0.541080,96.52,1
20276,0,52849,54557,52468.55,53685.48,380.45,871.52,-1.373081,-1.406797,0.541073,96.52,1
20313,0,52857,54537,52469.32,53687.19,387.68,849.81,-1.373096,-1.406829,0.541064,96.52,1
20353,0,52838,54540,52470.06,53688.89,367.94,851.11,-1.373110,-1.406861,0.541052,96.52,1
20392,0,52851,54598,52470.82,53690.71,380.18,907.29,-1.373124,-1.406895,0.541036,96.52,1
20434,0,52873,54642,52471.63,53692.62,401.37,949.38,-1.373140,-1.406930,0.541017,96.52,1
20480,0,52891,54646,52472.47,53694.52,418.53,951.48,-1.373156,-1.406966,0.540995,96.51,1
20514,0,52882,54643,52473.29,53696.42,408.71,946.58,-1.373171,-1.407001,0.540970,96.51,1
20554,0,52894,54688,52474.13,53698.41,419.87,989.59,-1.373187,-1.407038,0.540941,96.51,1
20594,0,52897,54693,52474.98,53700.40,422.02,992.60,-1.373204,-1.407075,0.540909,96.51,1
20635,0,52916,54717,52475.86,53702.43,440.14,1014.57,-1.373220,-1.407113,0.540873,96.51,1
20676,0,52909,54653,52476.73,53704.34,432.27,948.66,-1.373237,-1.407148,0.540835,96.51,1
20716,0,52876,54563,52477.53,53706.05,398.47,856.95,-1.373252,-1.407180,0.540796,96.51,1
20757,0,52804,54332,52478.18,53707.31,325.82,624.69,-1.373265,-1.407204,0.540756,96.51,1
20796,0,52683,54094,52478.59,53708.08,204.41,385.92,-1.373272,-1.407218,0.540717,96.51,1
20836,0,52620,54004,52478.88,53708.68,141.12,295.32,-1.373278,-1.407229,0.540678,96.51,1
20877,0,52601,53975,52479.12,53709.21,121.87,265.79,-1.373282,-1.407239,0.540639,96.51,1
20912,0,52592,53956,52479.35,53709.71,112.65,246.29,-1.373287,-1.407248,0.540600,96.51,1
20954,0,52572,53899,52479.54,53710.09,92.46,188.91,-1.373290,-1.407255,0.540561,96.50,1
20994,0,52550,53862,52479.68,53710.39,70.32,151.61,-1.373293,-1.407261,0.540522,96.50,1
21034,0,52529,53800,52479.78,53710.57,49.22,89.43,-1.373295,-1.407264,0.540484,96.50,1
21077,0,52493,53721,52479.81,53710.59,13.19,10.41,-1.373296,-1.407265,0.540445,96.50,1
21120,0,52455,53664,52479.76,53710.50,-24.76,-46.50,-1.373295,-1.407263,0.540407,96.50,1
21157,0,52451,53699,52479.71,53710.48,-28.71,-11.48,-1.373294,-1.407263,0.540368,96.50,1
21197,0,52470,53751,52479.69,53710.56,-9.69,40.44,-1.373293,-1.407264,0.540330,96.50,1
21237,0,52507,53851,52479.74,53710.84,27.26,140.16,-1.373294,-1.407269,0.540291,96.50,1
21276,0,52551,53910,52479.89,53711.24,71.11,198.76,-1.373297,-1.407277,0.540253,96.50,1
21313,0,52572,53954,52480.07,53711.73,91.93,242.27,-1.373301,-1.407286,0.540214,96.50,1
21356,0,52586,53966,52480.29,53712.24,105.71,253.76,-1.373305,-1.407295,0.540175,96.50,1
21397,0,52578,53961,52480.48,53712.74,97.52,248.26,-1.373308,-1.407305,0.540136,96.50,1
21438,0,52587,53994,52480.70,53713.30,106.30,280.70,-1.373312,-1.407315,0.540097,96.50,1
21476,0,52583,53914,52480.91,53713.70,102.09,200.30,-1.373317,-1.407323,0.540057,96.50,1
21516,0,52524,53800,52480.99,53713.88,43.01,86.12,-1.373318,-1.407326,0.540018,96.50,1
21555,0,52488,53741,52481.01,53713.93,6.99,27.07,-1.373318,-1.407327,0.539979,96.50,1
21599,0,52470,53750,52480.99,53714.01,-10.99,35.99,-1.373318,-1.407328,0.539940,96.50,1
21637,0,52486,53818,52481.00,53714.22,5.00,103.78,-1.373318,-1.407332,0.539901,96.50,1
21678,0,52524,53886,52481.09,53714.56,42.91,171.44,-1.373320,-1.407339,0.539862,96.50,1
21718,0,52546,53966,52481.22,53715.07,64.78,250.93,-1.373322,-1.407348,0.539822,96.50,1
21758,0,52589,54055,52481.44,53715.75,107.56,339.25,-1.373327,-1.407361,0.539781,96.50,1
21794,0,52619,54091,52481.71,53716.50,137.29,374.50,-1.373332,-1.407375,0.539740,96.50,1
21834,0,52618,54085,52481.99,53717.23,136.01,367.77,-1.373337,-1.407388,0.539698,96.50,1
21874,0,52615,54077,52482.25,53717.96,132.75,359.04,-1.373342,-1.407402,0.539654,96.50,1
21914,0,52600,54048,52482.49,53718.62,117.51,329.38,-1.373347,-1.407414,0.539611,96.50,1
21954,0,52589,53989,52482.71,53719.16,106.29,269.84,-1.373351,-1.407424,0.539567,96.50,1
21994,0,52546,53922,52482.84,53719.57,63.16,202.43,-1.373353,-1.407432,0.539522,96.50,1
22034,0,52523,53892,52482.92,53719.91,40.08,172.09,-1.373355,-1.407438,0.539478,96.50,1
22078,0,52492,53826,52482.94,53720.13,9.06,105.87,-1.373355,-1.407442,0.539433,96.50,1
22117,0,52472,53806,52482.92,53720.30,-10.92,85.70,-1.373355,-1.407446,0.539389,96.50,1
22158,0,52461,53755,52482.87,53720.37,-21.87,34.63,-1.373354,-1.407447,0.539344,96.50,1
22198,0,52410,53614,52482.73,53720.16,-72.73,-106.16,-1.373351,-1.407443,0.539300,96.50,1
22239,0,52355,53557,52482.48,53719.84,-127.48,-162.84,-1.373346,-1.407437,0.539257,96.50,1
22279,0,52355,53597,52482.22,53719.59,-127.22,-122.59,-1.373342,-1.407432,0.539214,96.51,1
22319,0,52398,53729,52482.05,53719.61,-84.05,9.39,-1.373338,-1.407433,0.539172,96.51,1
22360,0,52443,53809,52481.98,53719.79,-38.98,89.21,-1.373337,-1.407436,0.539130,96.51,1
22399,0,52478,53886,52481.97,53720.12,-3.97,165.88,-1.373337,-1.407442,0.539088,96.51,1
22439,0,52498,53892,52482.00,53720.46,16.00,171.54,-1.373337,-1.407449,0.539045,96.51,1
22479,0,52481,53852,52482.00,53720.73,-1.00,131.27,-1.373337,-1.407454,0.539003,96.51,1
22519,0,52463,53842,52481.97,53720.97,-18.97,121.03,-1.373337,-1.407458,0.538960,96.51,1
22560,0,52463,53860,52481.93,53721.25,-18.93,138.75,-1.373336,-1.407463,0.538917,96.51,1
22599,0,52479,53910,52481.93,53721.63,-2.93,188.37,-1.373336,-1.407470,0.538873,96.51,1
22639,0,52509,53965,52481.98,53722.12,27.02,242.88,-1.373337,-1.407479,0.538829,96.51,1
22680,0,52525,54004,52482.07,53722.69,42.93,281.31,-1.373339,-1.407490,0.538784,96.51,1
22719,0,52529,54012,52482.16,53723.27,46.84,288.73,-1.373340,-1.407501,0.538737,96.51,1
22759,0,52525,54037,52482.25,53723.89,42.75,313.11,-1.373342,-1.407512,0.538689,96.51,1
22799,0,52544,54085,52482.37,53724.62,61.63,360.38,-1.373344,-1.407526,0.538639,96.51,1
22839,0,52558,54117,52482.53,53725.40,75.47,391.60,-1.373347,-1.407540,0.538587,96.51,1
22880,0,52559,54064,52482.68,53726.08,76.32,337.92,-1.373350,-1.407553,0.538533,96.51,1
22920,0,52514,53947,52482.75,53726.52,31.25,220.48,-1.373351,-1.407561,0.538479,96.51,1
22956,0,52478,53915,52482.74,53726.90,-4.74,188.10,-1.373351,-1.407568,0.538424,96.52,1
23000,0,52471,53918,52482.71,53727.29,-11.71,190.71,-1.373351,-1.407576,0.538369,96.52,1
23039,0,52471,53916,52482.69,53727.66,-11.69,188.34,-1.373351,-1.407583,0.538313,96.52,1
23081,0,52456,53885,52482.64,53727.98,-26.64,157.02,-1.373350,-1.407589,0.538257,96.52,1
23120,0,52452,53892,52482.58,53728.31,-30.58,163.69,-1.373348,-1.407595,0.538201,96.52,1
23160,0,52444,53891,52482.51,53728.64,-38.51,162.36,-1.373347,-1.407601,0.538145,96.52,1
23199,0,52448,53898,52482.44,53728.98,-34.44,169.02,-1.373346,-1.407607,0.538088,96.52,1
23240,0,52451,53913,52482.38,53729.35,-31.38,183.65,-1.373345,-1.407614,0.538031,96.52,1
23280,0,52460,53928,52482.34,53729.75,-22.34,198.25,-1.373344,-1.407621,0.537973,96.52,1
23320,0,52464,53951,52482.30,53730.19,-18.30,220.81,-1.373343,-1.407630,0.537915,96.52,1
23360,0,52474,53966,52482.29,53730.66,-8.29,235.34,-1.373343,-1.407639,0.537855,96.52,1
23400,0,52466,53968,52482.25,53731.14,-16.25,236.86,-1.373342,-1.407647,0.537795,96.52,1
23436,0,52465,53945,52482.22,53731.57,-17.22,213.43,-1.373342,-1.407655,0.537734,96.53,1
23476,0,52448,53936,52482.16,53731.98,-34.16,204.02,-1.373340,-1.407663,0.537672,96.53,1
23516,0,52443,53959,52482.08,53732.44,-39.08,226.56,-1.373339,-1.407672,0.537610,96.53,1
23557,0,52451,53973,52482.02,53732.92,-31.02,240.08,-1.373338,-1.407681,0.537547,96.53,1
23604,0,52432,53868,52481.92,53733.20,-49.92,134.80,-1.373336,-1.407686,0.537483,96.53,1
23637,0,52374,53757,52481.70,53733.25,-107.70,23.75,-1.373332,-1.407686,0.537421,96.53,1
23677,0,52341,53733,52481.42,53733.25,-140.42,-0.25,-1.373326,-1.407686,0.537361,96.53,1
23717,0,52335,53720,52481.13,53733.22,-146.13,-13.22,-1.373321,-1.407686,0.537303,96.53,1
23757,0,52325,53681,52480.82,53733.12,-155.82,-52.12,-1.373315,-1.407684,0.537247,96.53,1
23797,0,52305,53680,52480.46,53733.02,-175.46,-53.02,-1.373308,-1.407682,0.537193,96.54,1
23837,0,52315,53702,52480.14,53732.95,-165.14,-30.95,-1.373302,-1.407681,0.537143,96.54,1
23877,0,52319,53706,52479.82,53732.90,-160.82,-26.90,-1.373296,-1.407680,0.537095,96.54,1
23917,0,52316,53692,52479.49,53732.82,-163.49,-40.82,-1.373289,-1.407679,0.537049,96.54,1
23959,0,52313,53687,52479.16,53732.73,-166.16,-45.73,-1.373283,-1.407677,0.537006,96.54,1
24000,0,52303,53695,52478.80,53732.66,-175.80,-37.66,-1.373276,-1.407676,0.536965,96.54,1
24040,0,52310,53706,52478.47,53732.61,-168.47,-26.61,-1.373270,-1.407675,0.536928,96.54,1
24081,0,52309,53718,52478.13,53732.58,-169.13,-14.58,-1.373264,-1.407674,0.536893,96.54,1
24121,0,52311,53733,52477.80,53732.58,-166.80,0.42,-1.373257,-1.407674,0.536861,96.54,1
24161,0,52306,53735,52477.46,53732.59,-171.46,2.41,-1.373251,-1.407674,0.536832,96.54,1
24201,0,52307,53739,52477.12,53732.61,-170.12,6.39,-1.373244,-1.407675,0.536806,96.55,1
24242,0,52297,53731,52476.76,53732.61,-179.76,-1.61,-1.373237,-1.407675,0.536782,96.55,1
24281,0,52291,53746,52476.39,53732.63,-185.39,13.37,-1.373230,-1.407675,0.536763,96.55,1
24323,0,52295,53757,52476.02,53732.68,-181.02,24.32,-1.373223,-1.407676,0.536746,96.55,1
24362,0,52272,53638,52475.62,53732.50,-203.62,-94.50,-1.373216,-1.407673,0.536733,96.55,1
24399,0,52213,53501,52475.09,53732.04,-262.09,-231.04,-1.373206,-1.407664,0.536726,96.55,1
24442,0,52175,53480,52474.50,53731.53,-299.50,-251.53,-1.373194,-1.407655,0.536726,96.55,1
24483,0,52180,53497,52473.91,53731.06,-293.91,-234.06,-1.373183,-1.407646,0.536733,96.55,1
24522,0,52190,53504,52473.34,53730.61,-283.34,-226.61,-1.373172,-1.407637,0.536746,96.55,1
24562,0,52196,53517,52472.79,53730.18,-276.79,-213.18,-1.373162,-1.407629,0.536766,96.55,1
24602,0,52209,53548,52472.26,53729.82,-263.26,-181.82,-1.373152,-1.407623,0.536792,96.56,1
24642,0,52218,53556,52471.75,53729.47,-253.75,-173.47,-1.373142,-1.407616,0.536823,96.56,1
24686,0,52217,53558,52471.25,53729.13,-254.25,-171.13,-1.373132,-1.407610,0.536860,96.56,1
24721,0,52215,53563,52470.73,53728.80,-255.73,-165.80,-1.373123,-1.407604,0.536903,96.56,1
24760,0,52221,53585,52470.23,53728.52,-249.23,-143.52,-1.373113,-1.407598,0.536951,96.56,1
24801,0,52226,53607,52469.75,53728.27,-243.75,-121.27,-1.373104,-1.407594,0.537005,96.56,1
24843,0,52235,53637,52469.28,53728.09,-234.28,-91.09,-1.373095,-1.407591,0.537064,96.56,1
24883,0,52246,53659,52468.83,53727.96,-222.83,-68.96,-1.373086,-1.407588,0.537128,96.56,1
24923,0,52250,53690,52468.39,53727.88,-218.39,-37.88,-1.373078,-1.407587,0.537197,96.56,1
24963,0,52258,53725,52467.98,53727.88,-209.98,-2.88,-1.373070,-1.407587,0.537271,96.56,1
25003,0,52267,53744,52467.57,53727.91,-200.57,16.09,-1.373062,-1.407587,0.537348,96.56,1
25043,0,52282,53777,52467.20,53728.01,-185.20,48.99,-1.373055,-1.407589,0.537429,96.56,1
25083,0,52289,53745,52466.85,53728.05,-177.85,16.95,-1.373049,-1.407590,0.537513,96.56,1
25123,0,52240,53581,52466.39,53727.75,-226.39,-146.75,-1.373040,-1.407584,0.537602,96.56,1
25163,0,52172,53468,52465.81,53727.23,-293.81,-259.23,-1.373029,-1.407575,0.537698,96.56,1
25204,0,52160,53457,52465.20,53726.70,-305.20,-269.70,-1.373017,-1.407565,0.537801,96.56,1
25243,0,52168,53470,52464.61,53726.18,-296.61,-256.18,-1.373006,-1.407555,0.537911,96.56,1
25284,0,52172,53459,52464.02,53725.65,-292.02,-266.65,-1.372995,-1.407545,0.538028,96.56,1
25323,0,52164,53469,52463.43,53725.14,-299.43,-256.14,-1.372983,-1.407536,0.538152,96.56,1
25363,0,52178,53498,52462.86,53724.69,-284.86,-226.69,-1.372972,-1.407527,0.538283,96.56,1
25403,0,52194,53528,52462.32,53724.30,-268.32,-196.30,-1.372962,-1.407520,0.538421,96.56,1
25443,0,52209,53565,52461.82,53723.98,-252.82,-158.98,-1.372953,-1.407514,0.538564,96.56,1
25484,0,52226,53599,52461.35,53723.73,-235.35,-124.73,-1.372944,-1.407509,0.538713,96.56,1
25523,0,52236,53599,52460.90,53723.48,-224.90,-124.48,-1.372935,-1.407505,0.538866,96.56,1
25564,0,52226,53570,52460.43,53723.18,-234.43,-153.18,-1.372926,-1.407499,0.539024,96.55,1
25604,0,52207,53543,52459.93,53722.82,-252.93,-179.82,-1.372917,-1.407492,0.539188,96.55,1
25643,0,52193,53533,52459.39,53722.44,-266.39,-189.44,-1.372906,-1.407485,0.539358,96.55,1
25680,0,52193,53533,52458.86,53722.06,-265.86,-189.06,-1.372896,-1.407478,0.539535,96.55,1
25724,0,52191,53507,52458.33,53721.63,-267.33,-214.63,-1.372886,-1.407470,0.539717,96.55,1
25764,0,52162,53494,52457.74,53721.18,-295.74,-227.18,-1.372875,-1.407462,0.539907,96.55,1
25804,0,52170,53505,52457.16,53720.75,-287.16,-215.75,-1.372864,-1.407454,0.540105,96.55,1
25845,0,52182,53532,52456.61,53720.37,-274.61,-188.37,-1.372854,-1.407447,0.540309,96.55,1
25885,0,52187,53456,52456.07,53719.84,-269.07,-263.84,-1.372843,-1.407437,0.540518,96.54,1
25924,0,52125,53269,52455.41,53718.95,-330.41,-449.95,-1.372831,-1.407420,0.540731,96.54,1
25965,0,52065,53150,52454.63,53717.81,-389.63,-567.81,-1.372816,-1.407399,0.540948,96.54,1
26005,0,52027,53094,52453.78,53716.56,-426.78,-622.56,-1.372799,-1.407376,0.541169,96.54,1
26044,0,52011,53026,52452.89,53715.18,-441.89,-689.18,-1.372783,-1.407350,0.541392,96.54,1
26084,0,51988,53000,52451.96,53713.75,-463.96,-713.75,-1.372765,-1.407324,0.541619,96.53,1
26124,0,51990,53036,52451.04,53712.40,-461.04,-676.40,-1.372747,-1.407298,0.541849,96.53,1
26164,0,52022,53099,52450.19,53711.17,-428.19,-612.17,-1.372731,-1.407276,0.542084,96.53,1
26204,0,52049,53167,52449.39,53710.09,-400.39,-543.09,-1.372716,-1.407255,0.542324,96.53,1
26245,0,52094,53233,52448.68,53709.13,-354.68,-476.13,-1.372702,-1.407238,0.542568,96.52,1
26286,0,52109,53276,52448.00,53708.27,-339.00,-432.27,-1.372689,-1.407222,0.542817,96.52,1
26325,0,52140,53315,52447.38,53707.48,-307.38,-392.48,-1.372677,-1.407207,0.543068,96.52,1
26365,0,52157,53320,52446.80,53706.71,-289.80,-386.71,-1.372666,-1.407192,0.543322,96.51,1
26404,0,52151,53315,52446.21,53705.93,-295.21,-390.93,-1.372655,-1.407178,0.543578,96.51,1
26445,0,52154,53345,52445.63,53705.21,-291.63,-360.21,-1.372644,-1.407165,0.543838,96.51,1
26484,0,52172,53378,52445.09,53704.56,-273.09,-326.56,-1.372634,-1.407152,0.544100,96.50,1
26525,0,52195,53403,52444.59,53703.96,-249.59,-300.96,-1.372624,-1.407141,0.544365,96.50,1
26565,0,52215,53434,52444.13,53703.42,-229.13,-269.42,-1.372615,-1.407131,0.544632,96.50,1
26604,0,52225,53476,52443.69,53702.96,-218.69,-226.96,-1.372607,-1.407123,0.544901,96.49,1
26644,0,52243,53515,52443.29,53702.59,-200.29,-187.59,-1.372599,-1.407116,0.545173,96.49,1
26686,0,52249,53459,52442.91,53702.11,-193.91,-243.11,-1.372592,-1.407107,0.545445,96.49,1
26724,0,52182,53226,52442.39,53701.16,-260.39,-475.16,-1.372582,-1.407089,0.545714,96.48,1
26765,0,52091,53097,52441.68,53699.95,-350.68,-602.95,-1.372569,-1.407067,0.545981,96.48,1
26806,0,52079,53097,52440.96,53698.75,-361.96,-601.75,-1.372555,-1.407044,0.546246,96.47,1
26845,0,52085,53098,52440.25,53697.55,-355.25,-599.55,-1.372541,-1.407022,0.546508,96.47,1
26885,0,52083,53067,52439.54,53696.29,-356.54,-629.29,-1.372528,-1.406999,0.546768,96.47,1
26925,0,52071,53054,52438.80,53695.01,-367.80,-641.01,-1.372514,-1.406975,0.547024,96.46,1
26963,0,52066,53034,52438.05,53693.69,-372.05,-659.69,-1.372500,-1.406950,0.547276,96.46,1
27006,0,52056,53008,52437.29,53692.32,-381.29,-684.32,-1.372485,-1.406925,0.547524,96.45,1
27044,0,52051,52996,52436.52,53690.93,-385.52,-694.93,-1.372470,-1.406899,0.547767,96.45,1
27087,0,52051,53008,52435.75,53689.56,-384.75,-681.56,-1.372456,-1.406873,0.548007,96.44,1
27126,0,52071,53052,52435.03,53688.29,-364.03,-636.29,-1.372442,-1.406850,0.548244,96.44,1
27164,0,52089,53060,52434.34,53687.04,-345.34,-627.04,-1.372429,-1.406826,0.548477,96.44,1
27202,0,52090,53046,52433.65,53685.75,-343.65,-639.75,-1.372416,-1.406802,0.548706,96.43,1
27242,0,52084,53028,52432.95,53684.44,-348.95,-656.44,-1.372402,-1.406778,0.548930,96.43,1
27282,0,52076,53052,52432.24,53683.18,-356.24,-631.18,-1.372389,-1.406754,0.549151,96.42,1
27324,0,52098,53094,52431.57,53682.00,-333.57,-588.00,-1.372376,-1.406732,0.549370,96.42,1
27366,0,52120,53138,52430.95,53680.92,-310.95,-542.92,-1.372364,-1.406712,0.549587,96.41,1
27406,0,52133,53179,52430.36,53679.91,-297.36,-500.91,-1.372353,-1.406693,0.549803,96.41,1
27446,0,52153,53243,52429.80,53679.04,-276.80,-436.04,-1.372342,-1.406677,0.550019,96.40,1
27487,0,52186,53319,52429.32,53678.32,-243.32,-359.32,-1.372333,-1.406664,0.550236,96.40,1
27528,0,52205,53246,52428.87,53677.46,-223.87,-431.46,-1.372324,-1.406648,0.550449,96.39,1
27568,0,52146,53115,52428.30,53676.34,-282.30,-561.34,-1.372314,-1.406627,0.550659,96.39,1
27608,0,52121,53119,52427.69,53675.22,-306.69,-556.22,-1.372302,-1.406606,0.550865,96.38,1
27647,0,52137,53139,52427.11,53674.15,-290.11,-535.15,-1.372291,-1.406586,0.551069,96.38,1
27685,0,52146,53140,52426.55,53673.09,-280.55,-533.09,-1.372280,-1.406566,0.551270,96.37,1
27723,0,52137,53153,52425.97,53672.05,-288.97,-519.05,-1.372269,-1.406547,0.551469,96.37,1
27764,0,52160,53182,52425.44,53671.07,-265.44,-489.07,-1.372259,-1.406529,0.551665,96.36,1
27804,0,52165,53182,52424.92,53670.09,-259.92,-488.09,-1.372249,-1.406510,0.551858,96.36,1
27846,0,52172,53191,52424.42,53669.13,-252.42,-478.13,-1.372239,-1.406493,0.552049,96.35,1
27885,0,52186,53241,52423.94,53668.28,-237.94,-427.28,-1.372230,-1.406477,0.552239,96.35,1
27923,0,52218,53305,52423.53,53667.55,-205.53,-362.55,-1.372223,-1.406463,0.552427,96.35,1
27967,0,52234,53347,52423.15,53666.91,-189.15,-319.91,-1.372215,-1.406451,0.552615,96.34,1
28005,0,52265,53413,52422.84,53666.40,-157.84,-253.40,-1.372209,-1.406442,0.552802,96.34,1
28047,0,52289,53441,52422.57,53665.95,-133.57,-224.95,-1.372204,-1.406433,0.552989,96.33,1
28087,0,52298,53483,52422.32,53665.59,-124.32,-182.59,-1.372200,-1.406427,0.553175,96.33,1
28128,0,52313,53525,52422.11,53665.31,-109.11,-140.31,-1.372195,-1.406421,0.553362,96.32,1
28168,0,52331,53557,52421.93,53665.09,-90.93,-108.09,-1.372192,-1.406417,0.553548,96.32,1
28208,0,52348,53608,52421.78,53664.98,-73.78,-56.98,-1.372189,-1.406415,0.553734,96.31,1
28248,0,52366,53644,52421.67,53664.94,-55.67,-20.94,-1.372187,-1.406415,0.553920,96.31,1
28287,0,52356,53557,52421.54,53664.73,-65.54,-107.73,-1.372185,-1.406410,0.554106,96.30,1
28328,0,52295,53381,52421.29,53664.16,-126.29,-283.16,-1.372180,-1.406400,0.554289,96.30,1
28365,0,52233,53298,52420.91,53663.43,-187.91,-365.43,-1.372173,-1.406386,0.554470,96.29,1
28405,0,52230,53352,52420.54,53662.81,-190.54,-310.81,-1.372165,-1.406375,0.554651,96.29,1
28449,0,52262,53405,52420.22,53662.29,-158.22,-257.29,-1.372159,-1.406365,0.554832,96.28,1
28488,0,52284,53449,52419.95,53661.87,-135.95,-212.87,-1.372154,-1.406357,0.555012,96.28,1
28525,0,52309,53490,52419.73,53661.52,-110.73,-171.52,-1.372150,-1.406351,0.555192,96.27,1
28571,0,52317,53493,52419.53,53661.19,-102.53,-168.19,-1.372146,-1.406345,0.555371,96.27,1
28606,0,52316,53501,52419.32,53660.87,-103.32,-159.87,-1.372142,-1.406339,0.555550,96.26,1
28646,0,52327,53511,52419.14,53660.57,-92.14,-149.57,-1.372139,-1.406333,0.555729,96.26,1
28687,0,52323,53510,52418.95,53660.27,-95.95,-150.27,-1.372135,-1.406327,0.555907,96.25,1
28725,0,52320,53521,52418.75,53659.99,-98.75,-138.99,-1.372131,-1.406322,0.556085,96.25,1
28770,0,52318,53516,52418.55,53659.71,-100.55,-143.71,-1.372128,-1.406317,0.556263,96.25,1
28808,0,52315,53531,52418.34,53659.45,-103.34,-128.45,-1.372124,-1.406312,0.556440,96.24,1
28848,0,52318,53556,52418.14,53659.24,-100.14,-103.24,-1.372120,-1.406308,0.556619,96.24,1
28888,0,52331,53589,52417.97,53659.10,-86.97,-70.10,-1.372117,-1.406306,0.556797,96.23,1
28931,0,52334,53615,52417.80,53659.02,-83.80,-44.02,-1.372113,-1.406304,0.556975,96.23,1
28969,0,52346,53634,52417.66,53658.97,-71.66,-24.97,-1.372111,-1.406303,0.557154,96.22,1
29010,0,52354,53672,52417.54,53659.00,-63.54,13.00,-1.372108,-1.406304,0.557333,96.22,1
29048,0,52364,53657,52417.43,53658.99,-53.43,-1.99,-1.372106,-1.406304,0.557511,96.21,1
29089,0,52320,53497,52417.24,53658.67,-97.24,-161.67,-1.372102,-1.406298,0.557689,96.21,1
29128,0,52267,53424,52416.94,53658.20,-149.94,-234.20,-1.372097,-1.406289,0.557867,96.20,1
29170,0,52258,53419,52416.62,53657.72,-158.62,-238.72,-1.372091,-1.406280,0.558044,96.20,1
29209,0,52252,53408,52416.29,53657.22,-164.29,-249.22,-1.372084,-1.406271,0.558222,96.19,1
29249,0,52255,53403,52415.97,53656.71,-160.97,-253.71,-1.372078,-1.406261,0.558400,96.19,1
29290,0,52241,53390,52415.62,53656.18,-174.62,-266.18,-1.372072,-1.406251,0.558578,96.18,1
29329,0,52243,53399,52415.28,53655.67,-172.28,-256.67,-1.372065,-1.406242,0.558756,96.18,1
29369,0,52228,53375,52414.91,53655.11,-186.91,-280.11,-1.372058,-1.406231,0.558934,96.18,1
29408,0,52229,53407,52414.54,53654.62,-185.54,-247.62,-1.372051,-1.406222,0.559114,96.17,1
29447,0,52245,53446,52414.20,53654.20,-169.20,-208.20,-1.372045,-1.406214,0.559295,96.17,1
29487,0,52260,53469,52413.89,53653.84,-153.89,-184.84,-1.372039,-1.406208,0.559477,96.16,1
29529,0,52261,53479,52413.59,53653.49,-152.59,-174.49,-1.372033,-1.406201,0.559660,96.16,1
29568,0,52253,53462,52413.27,53653.11,-160.27,-191.11,-1.372027,-1.406194,0.559844,96.15,1
29608,0,52247,53470,52412.93,53652.74,-165.93,-182.74,-1.372020,-1.406187,0.560030,96.15,1
29650,0,52248,53459,52412.61,53652.36,-164.61,-193.36,-1.372014,-1.406180,0.560217,96.14,1
29690,0,52240,53453,52412.26,53651.96,-172.26,-198.96,-1.372008,-1.406173,0.560407,96.14,1
29730,0,52234,53444,52411.91,53651.54,-177.91,-207.54,-1.372001,-1.406165,0.560597,96.13,1
29769,0,52231,53457,52411.55,53651.16,-180.55,-194.16,-1.371994,-1.406158,0.560791,96.13,1
29810,0,52240,53426,52411.21,53650.71,-171.21,-224.71,-1.371987,-1.406149,0.560985,96.12,1
29850,0,52194,53259,52410.77,53649.93,-216.77,-390.93,-1.371979,-1.406135,0.561177,96.12,1
29890,0,52129,53168,52410.21,53648.96,-281.21,-480.96,-1.371969,-1.406117,0.561367,96.12,1
29929,0,52111,53197,52409.61,53648.06,-298.61,-451.06,-1.371957,-1.406100,0.561559,96.11,1
29970,0,52150,53288,52409.09,53647.34,-259.09,-359.34,-1.371947,-1.406087,0.561753,96.11,1
30010,0,52187,53358,52408.65,53646.77,-221.65,-288.77,-1.371939,-1.406076,0.561949,96.10,1
30049,0,52214,53433,52408.27,53646.34,-194.27,-213.34,-1.371931,-1.406068,0.562148,96.10,1
30091,0,52237,53469,52407.93,53645.99,-170.93,-176.99,-1.371925,-1.406061,0.562348,96.09,1
30131,0,52242,53462,52407.59,53645.62,-165.59,-183.62,-1.371919,-1.406054,0.562551,96.09,1
30171,0,52233,53464,52407.25,53645.26,-174.25,-181.26,-1.371912,-1.406048,0.562755,96.08,1
30211,0,52238,53497,52406.91,53644.96,-168.91,-147.96,-1.371905,-1.406042,0.562963,96.08,1
30251,0,52252,53549,52406.60,53644.77,-154.60,-95.77,-1.371900,-1.406039,0.563172,96.07,1
30292,0,52283,53616,52406.36,53644.71,-123.36,-28.71,-1.371895,-1.406038,0.563384,96.07,1
30331,0,52301,53655,52406.14,53644.74,-105.14,10.26,-1.371891,-1.406038,0.563596,96.06,1
30371,0,52319,53726,52405.97,53644.90,-86.97,81.10,-1.371888,-1.406041,0.563809,96.06,1
30410,0,52350,53805,52405.86,53645.22,-55.86,159.78,-1.371886,-1.406047,0.564020,96.05,1
30448,0,52395,53894,52405.84,53645.72,-10.84,248.28,-1.371885,-1.406056,0.564227,96.05,1
30492,0,52423,53935,52405.88,53646.30,17.12,288.70,-1.371886,-1.406067,0.564428,96.04,1
30528,0,52436,53913,52405.94,53646.84,30.06,266.16,-1.371887,-1.406077,0.564624,96.04,1
30571,0,52381,53765,52405.89,53647.07,-24.89,117.93,-1.371886,-1.406082,0.564818,96.04,1
30610,0,52335,53721,52405.75,53647.22,-70.75,73.78,-1.371883,-1.406084,0.565013,96.03,1
30649,0,52344,53771,52405.63,53647.47,-61.63,123.53,-1.371881,-1.406089,0.565206,96.03,1
30690,0,52373,53860,52405.57,53647.90,-32.57,212.10,-1.371880,-1.406097,0.565396,96.02,1
30731,0,52425,53993,52405.61,53648.59,19.39,344.41,-1.371881,-1.406110,0.565578,96.02,1
30770,0,52492,54146,52405.79,53649.59,86.21,496.41,-1.371884,-1.406128,0.565745,96.01,1
30810,0,52551,54243,52406.08,53650.77,144.92,592.23,-1.371890,-1.406150,0.565893,96.01,1
30849,0,52578,54263,52406.42,53652.00,171.58,611.00,-1.371896,-1.406173,0.566022,96.00,1
30889,0,52566,54223,52406.74,53653.14,159.26,569.86,-1.371902,-1.406195,0.566135,96.00,1
30933,0,52533,54154,52407.00,53654.15,126.00,499.85,-1.371907,-1.406213,0.566236,95.99,1
30972,0,52506,54118,52407.20,53655.08,98.80,462.92,-1.371911,-1.406231,0.566326,95.99,1
31010,0,52492,54110,52407.37,53655.99,84.63,454.01,-1.371914,-1.406248,0.566404,95.98,1
31048,0,52483,54120,52407.52,53656.92,75.48,463.08,-1.371917,-1.406265,0.566471,95.98,1
31093,0,52490,54115,52407.69,53657.84,82.31,457.16,-1.371920,-1.406282,0.566527,95.97,1
31133,0,52489,54135,52407.85,53658.79,81.15,476.21,-1.371923,-1.406300,0.566571,95.97,1
31172,0,52500,54131,52408.04,53659.74,91.96,471.26,-1.371927,-1.406318,0.566604,95.97,1
31213,0,52493,54137,52408.21,53660.70,84.79,476.30,-1.371930,-1.406335,0.566626,95.96,1
31252,0,52475,54013,52408.35,53661.40,66.65,351.60,-1.371933,-1.406349,0.566642,95.96,1
31292,0,52389,53831,52408.31,53661.74,-19.31,169.26,-1.371932,-1.406355,0.566656,95.96,1
31331,0,52336,53757,52408.16,53661.93,-72.16,95.07,-1.371929,-1.406358,0.566670,95.95,1
31372,0,52319,53752,52407.99,53662.11,-88.99,89.89,-1.371926,-1.406362,0.566685,95.95,1
31412,0,52321,53758,52407.82,53662.30,-86.82,95.70,-1.371923,-1.406365,0.566702,95.94,1
31452,0,52322,53765,52407.64,53662.51,-85.64,102.49,-1.371920,-1.406369,0.566719,95.94,1
31495,0,52331,53801,52407.49,53662.79,-76.49,138.21,-1.371917,-1.406374,0.566735,95.94,1
31534,0,52345,53830,52407.37,53663.12,-62.37,166.87,-1.371914,-1.406381,0.566751,95.93,1
31570,0,52350,53847,52407.25,53663.49,-57.25,183.51,-1.371912,-1.406387,0.566766,95.93,1
31614,0,52362,53877,52407.16,53663.92,-45.16,213.08,-1.371910,-1.406396,0.566778,95.93,1
31654,0,52383,53940,52407.12,53664.48,-24.12,275.52,-1.371909,-1.406406,0.566786,95.93,1
31694,0,52405,53982,52407.11,53665.11,-2.11,316.89,-1.371909,-1.406418,0.566787,95.92,1
31732,0,52425,54017,52407.15,53665.82,17.85,351.18,-1.371910,-1.406431,0.566782,95.92,1
31773,0,52437,54048,52407.21,53666.59,29.79,381.41,-1.371911,-1.406445,0.566768,95.92,1
31813,0,52446,54033,52407.29,53667.32,38.71,365.68,-1.371913,-1.406459,0.566747,95.91,1
31853,0,52427,53991,52407.33,53667.97,19.67,323.03,-1.371914,-1.406471,0.566719,95.91,1
31892,0,52395,53917,52407.31,53668.47,-12.31,248.53,-1.371913,-1.406480,0.566688,95.91,1
31932,0,52360,53849,52407.21,53668.83,-47.21,180.17,-1.371911,-1.406487,0.566656,95.91,1
31973,0,52318,53706,52407.04,53668.91,-89.04,37.09,-1.371908,-1.406488,0.566625,95.91,1
32013,0,52231,53569,52406.69,53668.71,-175.69,-99.71,-1.371901,-1.406485,0.566600,95.90,1
32055,0,52206,53567,52406.29,53668.50,-200.29,-101.50,-1.371894,-1.406481,0.566583,95.90,1
32094,0,52232,53623,52405.94,53668.41,-173.94,-45.41,-1.371887,-1.406479,0.566572,95.90,1
32135,0,52256,53676,52405.64,53668.43,-149.64,7.57,-1.371881,-1.406479,0.566566,95.90,1
32174,0,52270,53701,52405.37,53668.50,-135.37,32.50,-1.371876,-1.406481,0.566563,95.90,1
32212,0,52282,53730,52405.13,53668.62,-123.13,61.38,-1.371871,-1.406483,0.566564,95.89,1
32253,0,52301,53744,52404.92,53668.77,-103.92,75.23,-1.371868,-1.406486,0.566566,95.89,1
32294,0,52292,53719,52404.70,53668.87,-112.70,50.13,-1.371863,-1.406488,0.566571,95.89,1
32334,0,52275,53676,52404.44,53668.89,-129.44,7.11,-1.371858,-1.406488,0.566580,95.89,1
32374,0,52263,53647,52404.16,53668.85,-141.16,-21.85,-1.371853,-1.406487,0.566592,95.89,1
32414,0,52249,53621,52403.85,53668.75,-154.85,-47.75,-1.371847,-1.406486,0.566610,95.89,1
32452,0,52240,53595,52403.52,53668.61,-163.52,-73.61,-1.371841,-1.406483,0.566634,95.88,1
32491,0,52225,53568,52403.17,53668.41,-178.17,-100.41,-1.371834,-1.406479,0.566663,95.88,1
32535,0,52208,53529,52402.78,53668.13,-194.78,-139.13,-1.371827,-1.406474,0.566700,95.88,1
32573,0,52188,53491,52402.35,53667.78,-214.35,-176.78,-1.371818,-1.406467,0.566745,95.88,1
32610,0,52166,53469,52401.87,53667.39,-235.87,-198.39,-1.371809,-1.406460,0.566799,95.88,1
32655,0,52159,53472,52401.39,53667.00,-242.39,-195.00,-1.371800,-1.406453,0.566863,95.88,1
32692,0,52156,53431,52400.90,53666.53,-244.90,-235.53,-1.371791,-1.406444,0.566937,95.88,1
32731,0,52105,53292,52400.31,53665.78,-295.31,-373.78,-1.371780,-1.406430,0.567019,95.87,1
32774,0,52066,53241,52399.64,53664.93,-333.64,-423.93,-1.371767,-1.406414,0.567113,95.87,1
32815,0,52067,53281,52398.98,53664.17,-331.98,-383.17,-1.371754,-1.406400,0.567219,95.87,1
32857,0,52099,53341,52398.38,53663.52,-299.38,-322.52,-1.371743,-1.406388,0.567336,95.87,1
32894,0,52125,53391,52397.84,53662.98,-272.84,-271.98,-1.371732,-1.406378,0.567464,95.87,1
32935,0,52151,53443,52397.34,53662.54,-246.34,-219.54,-1.371723,-1.406370,0.567601,95.87,1
32972,0,52175,53473,52396.90,53662.16,-221.90,-189.16,-1.371714,-1.406363,0.567745,95.86,1
33016,0,52182,53479,52396.47,53661.80,-214.47,-182.80,-1.371706,-1.406356,0.567897,95.86,1
33053,0,52194,53488,52396.07,53661.45,-202.07,-173.45,-1.371699,-1.406350,0.568054,95.86,1
33094,0,52203,53515,52395.68,53661.16,-192.68,-146.16,-1.371691,-1.406344,0.568217,95.86,1
33136,0,52217,53547,52395.33,53660.93,-178.33,-113.93,-1.371685,-1.406340,0.568386,95.86,1
33174,0,52229,53568,52395.00,53660.75,-166.00,-92.75,-1.371678,-1.406336,0.568560,95.85,1
33215,0,52232,53559,52394.67,53660.55,-162.67,-101.55,-1.371672,-1.406333,0.568738,95.85,1
33255,0,52225,53547,52394.33,53660.32,-169.33,-113.32,-1.371665,-1.406328,0.568921,95.85,1
33295,0,52211,53554,52393.96,53660.11,-182.96,-106.11,-1.371658,-1.406325,0.569111,95.85,1
33335,0,52222,53566,52393.62,53659.92,-171.62,-93.92,-1.371652,-1.406321,0.569305,95.84,1
33377,0,52219,53512,52393.27,53659.63,-174.27,-147.63,-1.371645,-1.406315,0.569504,95.84,1
33416,0,52157,53312,52392.80,53658.93,-235.80,-346.93,-1.371636,-1.406303,0.569705,95.84,1
33457,0,52073,53167,52392.16,53657.95,-319.16,-490.95,-1.371624,-1.406284,0.569907,95.84,1
33497,0,52040,53149,52391.46,53656.93,-351.46,-507.93,-1.371611,-1.406265,0.570114,95.83,1
33536,0,52048,53156,52390.77,53655.93,-342.77,-499.93,-1.371598,-1.406247,0.570324,95.83,1
33576,0,52063,53179,52390.12,53654.98,-327.12,-475.98,-1.371585,-1.406229,0.570538,95.83,1
33616,0,52078,53237,52389.50,53654.14,-311.50,-417.14,-1.371573,-1.406213,0.570757,95.83,1
33657,0,52111,53291,52388.95,53653.42,-277.95,-362.42,-1.371563,-1.406200,0.570981,95.82,1
33699,0,52137,53323,52388.44,53652.76,-251.44,-329.76,-1.371553,-1.406187,0.571209,95.82,1
33736,0,52154,53354,52387.97,53652.16,-233.97,-298.16,-1.371544,-1.406176,0.571440,95.82,1
33776,0,52174,53397,52387.55,53651.65,-213.55,-254.65,-1.371536,-1.406167,0.571674,95.81,1
33816,0,52201,53455,52387.18,53651.26,-186.18,-196.26,-1.371529,-1.406160,0.571912,95.81,1
33853,0,52219,53469,52386.84,53650.90,-167.84,-181.90,-1.371522,-1.406153,0.572153,95.81,1
33899,0,52229,53476,52386.53,53650.55,-157.53,-174.55,-1.371516,-1.406146,0.572395,95.80,1
33936,0,52225,53492,52386.21,53650.23,-161.21,-158.23,-1.371510,-1.406140,0.572640,95.80,1
33976,0,52236,53531,52385.91,53650.00,-149.91,-119.00,-1.371505,-1.406136,0.572888,95.80,1
34018,0,52257,53593,52385.65,53649.88,-128.65,-56.88,-1.371500,-1.406134,0.573139,95.79,1
34057,0,52289,53644,52385.46,53649.87,-96.46,-5.87,-1.371496,-1.406134,0.573391,95.79,1
34096,0,52290,53568,52385.27,53649.71,-95.27,-81.71,-1.371492,-1.406131,0.573644,95.78,1
34134,0,52229,53414,52384.95,53649.24,-155.95,-235.24,-1.371486,-1.406122,0.573896,95.78,1
34175,0,52185,53340,52384.55,53648.62,-199.55,-308.62,-1.371479,-1.406110,0.574148,95.78,1
34217,0,52178,53330,52384.14,53647.98,-206.14,-317.98,-1.371471,-1.406098,0.574399,95.77,1
34257,0,52179,53335,52383.73,53647.36,-204.73,-312.36,-1.371463,-1.406087,0.574650,95.77,1
34294,0,52183,53319,52383.34,53646.70,-200.34,-327.70,-1.371456,-1.406075,0.574899,95.76,1
34333,0,52186,53327,52382.94,53646.07,-196.94,-319.07,-1.371448,-1.406063,0.575146,95.76,1
34373,0,52189,53328,52382.55,53645.43,-193.55,-317.43,-1.371441,-1.406051,0.575392,95.76,1
34413,0,52194,53322,52382.18,53644.79,-188.18,-322.79,-1.371433,-1.406039,0.575635,95.75,1
34454,0,52190,53331,52381.80,53644.16,-191.80,-313.16,-1.371426,-1.406027,0.575877,95.75,1
34494,0,52198,53341,52381.43,53643.56,-183.43,-302.56,-1.371419,-1.406016,0.576117,95.74,1
34534,0,52204,53341,52381.08,53642.95,-177.08,-301.95,-1.371413,-1.406005,0.576355,95.74,1
34574,0,52197,53343,52380.71,53642.36,-183.71,-299.36,-1.371405,-1.405994,0.576592,95.73,1
34613,0,52198,53345,52380.35,53641.76,-182.35,-296.76,-1.371398,-1.405982,0.576827,95.73,1
34654,0,52205,53377,52380.00,53641.23,-175.00,-264.23,-1.371392,-1.405973,0.577062,95.72,1
34694,0,52216,53392,52379.67,53640.74,-163.67,-248.74,-1.371386,-1.405963,0.577297,95.72,1
34735,0,52219,53411,52379.35,53640.28,-160.35,-229.28,-1.371379,-1.405955,0.577532,95.71,1
34775,0,52215,53396,52379.02,53639.79,-164.02,-243.79,-1.371373,-1.405946,0.577767,95.71,1
34817,0,52189,53264,52378.64,53639.04,-189.64,-375.04,-1.371366,-1.405932,0.577996,95.70,1
34858,0,52130,53153,52378.15,53638.07,-248.15,-485.07,-1.371356,-1.405914,0.578216,95.70,1
34902,0,52119,53159,52377.63,53637.12,-258.63,-478.12,-1.371347,-1.405896,0.578430,95.70,1
34938,0,52129,53183,52377.14,53636.21,-248.14,-453.21,-1.371337,-1.405879,0.578639,95.69,1
34974,0,52140,53167,52376.66,53635.27,-236.66,-468.27,-1.371328,-1.405862,0.578840,95.69,1
35018,0,52131,53148,52376.18,53634.30,-245.18,-486.30,-1.371319,-1.405843,0.579032,95.68,1
35056,0,52130,53144,52375.68,53633.32,-245.68,-489.32,-1.371309,-1.405825,0.579216,95.68,1
35098,0,52126,53145,52375.19,53632.34,-249.19,-487.34,-1.371300,-1.405807,0.579393,95.67,1
35138,0,52126,53162,52374.69,53631.41,-248.69,-469.41,-1.371290,-1.405789,0.579565,95.67,1
35177,0,52146,53205,52374.23,53630.55,-228.23,-425.55,-1.371282,-1.405774,0.579732,95.66,1
35216,0,52164,53242,52373.82,53629.78,-209.82,-387.78,-1.371274,-1.405759,0.579895,95.66,1
35257,0,52167,53254,52373.40,53629.03,-206.40,-375.03,-1.371266,-1.405745,0.580055,95.65,1
35297,0,52167,53257,52372.99,53628.29,-205.99,-371.29,-1.371258,-1.405731,0.580213,95.65,1
35339,0,52167,53265,52372.58,53627.56,-205.58,-362.56,-1.371250,-1.405718,0.580369,95.64,1
35378,0,52168,53266,52372.18,53626.84,-204.18,-360.84,-1.371243,-1.405704,0.580522,95.64,1
35416,0,52166,53281,52371.77,53626.14,-205.77,-345.14,-1.371235,-1.405691,0.580674,95.63,1
35458,0,52172,53312,52371.37,53625.52,-199.37,-313.52,-1.371227,-1.405680,0.580826,95.63,1
35496,0,52185,53330,52371.00,53624.93,-186.00,-294.93,-1.371220,-1.405669,0.580978,95.62,1
35536,0,52172,53228,52370.60,53624.14,-198.60,-396.14,-1.371212,-1.405654,0.581126,95.62,1
35576,0,52112,53128,52370.08,53623.14,-258.08,-495.14,-1.371202,-1.405635,0.581267,95.61,1
35616,0,52099,53122,52369.54,53622.14,-270.54,-500.14,-1.371192,-1.405617,0.581403,95.61,1
35657,0,52114,53158,52369.04,53621.22,-255.04,-463.22,-1.371182,-1.405599,0.581535,95.61,1
35697,0,52139,53201,52368.58,53620.38,-229.58,-419.38,-1.371174,-1.405584,0.581665,95.60,1
35737,0,52157,53251,52368.16,53619.64,-211.16,-368.64,-1.371166,-1.405570,0.581793,95.60,1
35777,0,52176,53288,52367.77,53618.98,-191.77,-330.98,-1.371158,-1.405558,0.581919,95.59,1
35818,0,52187,53299,52367.41,53618.34,-180.41,-319.34,-1.371152,-1.405546,0.582044,95.59,1
35858,0,52193,53298,52367.07,53617.70,-174.07,-319.70,-1.371145,-1.405534,0.582167,95.58,1
35899,0,52191,53316,52366.71,53617.10,-175.71,-301.10,-1.371138,-1.405523,0.582289,95.58,1
35939,0,52199,53341,52366.38,53616.55,-167.38,-275.55,-1.371132,-1.405512,0.582411,95.58,1
35980,0,52204,53374,52366.05,53616.07,-162.05,-242.07,-1.371126,-1.405503,0.582533,95.57,1
36020,0,52217,53397,52365.76,53615.63,-148.76,-218.63,-1.371120,-1.405495,0.582656,95.57,1
36056,0,52226,53431,52365.48,53615.26,-139.48,-184.26,-1.371115,-1.405488,0.582780,95.56,1
36099,0,52234,53467,52365.22,53614.96,-131.22,-147.96,-1.371110,-1.405483,0.582905,95.56,1
36138,0,52251,53503,52364.99,53614.74,-113.99,-111.74,-1.371105,-1.405479,0.583032,95.56,1
36179,0,52260,53529,52364.79,53614.57,-104.79,-85.57,-1.371101,-1.405475,0.583161,95.55,1
36220,0,52273,53530,52364.60,53614.40,-91.60,-84.40,-1.371098,-1.405472,0.583290,95.55,1
36261,0,52244,53411,52364.36,53614.00,-120.36,-203.00,-1.371093,-1.405465,0.583419,95.54,1
36300,0,52198,53317,52364.03,53613.40,-166.03,-296.40,-1.371087,-1.405454,0.583546,95.54,1
36340,0,52191,53318,52363.69,53612.81,-172.69,-294.81,-1.371080,-1.405443,0.583672,95.54,1
36380,0,52200,53345,52363.36,53612.28,-163.36,-267.28,-1.371074,-1.405433,0.583798,95.53,1
36421,0,52212,53371,52363.06,53611.80,-151.06,-240.80,-1.371068,-1.405424,0.583924,95.53,1
36459,0,52221,53402,52362.78,53611.38,-141.78,-209.38,-1.371063,-1.405416,0.584050,95.52,1
36501,0,52234,53418,52362.52,53610.99,-128.52,-192.99,-1.371058,-1.405409,0.584177,95.52,1
36538,0,52241,53418,52362.28,53610.61,-121.28,-192.61,-1.371054,-1.405402,0.584303,95.52,1
36580,0,52237,53429,52362.03,53610.25,-125.03,-181.25,-1.371049,-1.405395,0.584429,95.51,1
36621,0,52240,53443,52361.79,53609.91,-121.79,-166.91,-1.371044,-1.405389,0.584557,95.51,1
36661,0,52244,53467,52361.55,53609.63,-117.55,-142.63,-1.371040,-1.405383,0.584685,95.50,1
36702,0,52260,53497,52361.35,53609.41,-101.35,-112.41,-1.371036,-1.405379,0.584814,95.50,1
36741,0,52265,53522,52361.16,53609.23,-96.16,-87.23,-1.371032,-1.405376,0.584945,95.50,1
36781,0,52275,53545,52360.99,53609.11,-85.99,-64.11,-1.371029,-1.405373,0.585076,95.49,1
36821,0,52282,53562,52360.83,53609.01,-78.83,-47.01,-1.371026,-1.405372,0.585209,95.49,1
36861,0,52290,53583,52360.69,53608.96,-70.69,-25.96,-1.371023,-1.405371,0.585342,95.49,1
36901,0,52294,53603,52360.56,53608.95,-66.56,-5.95,-1.371021,-1.405371,0.585476,95.48,1
36941,0,52304,53626,52360.45,53608.98,-56.45,17.02,-1.371019,-1.405371,0.585610,95.48,1
36980,0,52317,53608,52360.36,53608.98,-43.36,-0.98,-1.371017,-1.405371,0.585745,95.48,1
37017,0,52284,53457,52360.21,53608.68,-76.21,-151.68,-1.371014,-1.405366,0.585878,95.47,1
37061,0,52216,53351,52359.92,53608.17,-143.92,-257.17,-1.371009,-1.405356,0.586010,95.47,1
37101,0,52196,53337,52359.59,53607.63,-163.59,-270.63,-1.371002,-1.405346,0.586141,95.46,1
37141,0,52205,53356,52359.29,53607.13,-154.29,-251.13,-1.370996,-1.405337,0.586271,95.46,1
37181,0,52214,53362,52359.00,53606.64,-145.00,-244.64,-1.370991,-1.405328,0.586401,95.46,1
37221,0,52215,53378,52358.71,53606.18,-143.71,-228.18,-1.370985,-1.405319,0.586531,95.45,1
37261,0,52225,53402,52358.45,53605.78,-133.45,-203.78,-1.370980,-1.405311,0.586661,95.45,1
37302,0,52228,53403,52358.19,53605.37,-130.19,-202.37,-1.370975,-1.405304,0.586791,95.45,1
37341,0,52224,53410,52357.92,53604.98,-133.92,-194.98,-1.370970,-1.405297,0.586921,95.44,1
37382,0,52232,53431,52357.67,53604.64,-125.67,-173.64,-1.370965,-1.405290,0.587052,95.44,1
37421,0,52237,53459,52357.43,53604.35,-120.43,-145.35,-1.370961,-1.405285,0.587185,95.44,1
37462,0,52251,53483,52357.22,53604.11,-106.22,-121.11,-1.370957,-1.405280,0.587318,95.43,1
37502,0,52257,53501,52357.02,53603.90,-100.02,-102.90,-1.370953,-1.405276,0.587453,95.43,1
37543,0,52265,53526,52356.84,53603.75,-91.84,-77.75,-1.370950,-1.405274,0.587590,95.42,1
37582,0,52271,53551,52356.67,53603.64,-85.67,-52.64,-1.370946,-1.405272,0.587727,95.42,1
37622,0,52286,53580,52356.53,53603.59,-70.53,-23.59,-1.370944,-1.405271,0.587866,95.42,1
37661,0,52295,53601,52356.41,53603.59,-61.41,-2.59,-1.370941,-1.405271,0.588005,95.41,1
37703,0,52308,53624,52356.31,53603.63,-48.31,20.37,-1.370940,-1.405271,0.588144,95.41,1
37741,0,52317,53630,52356.23,53603.69,-39.23,26.31,-1.370938,-1.405272,0.588284,95.41,1
37781,0,52287,53515,52356.10,53603.51,-69.10,-88.51,-1.370935,-1.405269,0.588423,95.40,1
37821,0,52230,53398,52355.85,53603.10,-125.85,-205.10,-1.370931,-1.405262,0.588562,95.40,1
37862,0,52201,53366,52355.54,53602.63,-154.54,-236.63,-1.370925,-1.405253,0.588701,95.40,1
37902,0,52206,53401,52355.24,53602.23,-149.24,-201.23,-1.370919,-1.405245,0.588842,95.39,1
37943,0,52211,53405,52354.95,53601.83,-143.95,-196.83,-1.370914,-1.405238,0.588984,95.39,1
37982,0,52210,53415,52354.66,53601.46,-144.66,-186.46,-1.370908,-1.405231,0.589128,95.39,1
38023,0,52212,53421,52354.38,53601.10,-142.38,-180.10,-1.370903,-1.405224,0.589274,95.38,1
38063,0,52209,53431,52354.09,53600.76,-145.09,-169.76,-1.370897,-1.405218,0.589422,95.38,1
38104,0,52209,53436,52353.80,53600.43,-144.80,-164.43,-1.370892,-1.405212,0.589573,95.38,1
38142,0,52201,53445,52353.50,53600.12,-152.50,-155.12,-1.370886,-1.405206,0.589728,95.37,1
38183,0,52215,53462,52353.22,53599.85,-138.22,-137.85,-1.370880,-1.405201,0.589886,95.37,1
38223,0,52217,53478,52352.95,53599.61,-135.95,-121.61,-1.370875,-1.405196,0.590047,95.36,1
38263,0,52214,53491,52352.67,53599.39,-138.67,-108.39,-1.370870,-1.405192,0.590213,95.36,1
38302,0,52220,53510,52352.41,53599.22,-132.41,-89.22,-1.370865,-1.405189,0.590382,95.36,1
38343,0,52236,53534,52352.18,53599.09,-116.18,-65.09,-1.370860,-1.405187,0.590555,95.35,1
38382,0,52242,53556,52351.96,53599.00,-109.96,-43.00,-1.370856,-1.405185,0.590731,95.35,1
38423,0,52251,53577,52351.76,53598.96,-100.76,-21.96,-1.370852,-1.405184,0.590909,95.35,1
38464,0,52247,53594,52351.55,53598.95,-104.55,-4.95,-1.370849,-1.405184,0.591091,95.34,1
38503,0,52249,53601,52351.35,53598.96,-102.35,2.04,-1.370845,-1.405184,0.591275,95.34,1
38545,0,52243,53528,52351.13,53598.82,-108.13,-70.82,-1.370841,-1.405182,0.591462,95.34,1
38583,0,52184,53405,52350.80,53598.43,-166.80,-193.43,-1.370834,-1.405174,0.591653,95.33,1
38624,0,52149,53376,52350.40,53597.98,-201.40,-221.98,-1.370827,-1.405166,0.591849,95.33,1
38663,0,52152,53407,52350.00,53597.61,-198.00,-190.61,-1.370819,-1.405159,0.592053,95.32,1
38705,0,52166,53436,52349.64,53597.29,-183.64,-161.29,-1.370812,-1.405153,0.592265,95.32,1
38744,0,52169,53457,52349.28,53597.01,-180.28,-140.01,-1.370805,-1.405148,0.592483,95.32,1
38784,0,52175,53484,52348.93,53596.78,-173.93,-112.78,-1.370799,-1.405144,0.592709,95.31,1
38823,0,52180,53490,52348.59,53596.57,-168.59,-106.57,-1.370792,-1.405140,0.592943,95.31,1
38864,0,52175,53485,52348.25,53596.35,-173.25,-111.35,-1.370785,-1.405136,0.593184,95.30,1
38904,0,52177,53507,52347.91,53596.17,-170.91,-89.17,-1.370779,-1.405132,0.593433,95.30,1
38944,0,52186,53543,52347.58,53596.07,-161.58,-53.07,-1.370773,-1.405130,0.593690,95.30,1
38984,0,52199,53567,52347.29,53596.01,-148.29,-29.01,-1.370767,-1.405129,0.593953,95.29,1
39023,0,52209,53587,52347.01,53595.99,-138.01,-8.99,-1.370762,-1.405129,0.594222,95.29,1
39066,0,52218,53606,52346.75,53596.01,-128.75,9.99,-1.370757,-1.405129,0.594496,95.28,1
39100,0,52219,53623,52346.50,53596.07,-127.50,26.93,-1.370752,-1.405130,0.594775,95.28,1
39144,0,52221,53643,52346.25,53596.16,-125.25,46.84,-1.370747,-1.405132,0.595059,95.27,1
39184,0,52228,53660,52346.02,53596.29,-118.02,63.71,-1.370743,-1.405134,0.595345,95.27,1
39224,0,52233,53676,52345.79,53596.45,-112.79,79.55,-1.370739,-1.405137,0.595635,95.26,1
39263,0,52233,53664,52345.57,53596.59,-112.57,67.41,-1.370734,-1.405140,0.595927,95.26,1
39303,0,52204,53577,52345.29,53596.55,-141.29,-19.55,-1.370729,-1.405139,0.596226,95.25,1
39345,0,52159,53485,52344.91,53596.32,-185.91,-111.32,-1.370722,-1.405135,0.596534,95.25,1
39385,0,52135,53486,52344.50,53596.11,-209.50,-110.11,-1.370714,-1.405131,0.596855,95.24,1
39425,0,52143,53516,52344.09,53595.95,-201.09,-79.95,-1.370706,-1.405128,0.597189,95.24,1
39465,0,52152,53538,52343.71,53595.83,-191.71,-57.83,-1.370699,-1.405126,0.597535,95.23,1
39506,0,52153,53553,52343.33,53595.75,-190.33,-42.75,-1.370692,-1.405124,0.597893,95.23,1
39542,0,52162,53555,52342.97,53595.66,-180.97,-40.66,-1.370685,-1.405123,0.598261,95.22,1
39583,0,52157,53567,52342.60,53595.61,-185.60,-28.61,-1.370678,-1.405122,0.598641,95.22,1
39625,0,52159,53575,52342.23,53595.57,-183.23,-20.57,-1.370671,-1.405121,0.599033,95.21,1
39662,0,52165,53604,52341.88,53595.59,-176.88,8.41,-1.370664,-1.405121,0.599435,95.20,1
39705,0,52180,53629,52341.56,53595.66,-161.56,33.34,-1.370658,-1.405123,0.599845,95.20,1
39745,0,52192,53644,52341.26,53595.75,-149.26,48.25,-1.370652,-1.405124,0.600262,95.19,1
39786,0,52190,53661,52340.96,53595.89,-150.96,65.11,-1.370646,-1.405127,0.600686,95.19,1
39825,0,52195,53686,52340.67,53596.07,-145.67,89.93,-1.370641,-1.405130,0.601115,95.18,1
39865,0,52201,53696,52340.39,53596.27,-139.39,99.73,-1.370636,-1.405134,0.601548,95.17,1
39904,0,52203,53707,52340.12,53596.49,-137.12,110.51,-1.370630,-1.405138,0.601985,95.17,1
39945,0,52207,53725,52339.86,53596.75,-132.86,128.25,-1.370625,-1.405143,0.602423,95.16,1
39984,0,52213,53758,52339.60,53597.07,-126.60,160.93,-1.370620,-1.405149,0.602862,95.15,1
40026,0,52213,53741,52339.35,53597.36,-126.35,143.64,-1.370616,-1.405154,0.603301,95.15,1
40065,0,52181,53626,52339.04,53597.42,-158.04,28.58,-1.370610,-1.405156,0.603748,95.14,1
40107,0,52129,53541,52338.62,53597.31,-209.62,-56.31,-1.370602,-1.405154,0.604211,95.13,1
40147,0,52109,53540,52338.16,53597.20,-229.16,-57.20,-1.370593,-1.405151,0.604693,95.12,1
40184,0,52110,53560,52337.71,53597.12,-227.71,-37.12,-1.370584,-1.405150,0.605193,95.12,1
40226,0,52118,53562,52337.27,53597.05,-219.27,-35.05,-1.370576,-1.405149,0.605711,95.11,1
40266,0,52125,53585,52336.85,53597.03,-211.85,-12.03,-1.370568,-1.405148,0.606245,95.10,1
40305,0,52129,53599,52336.43,53597.03,-207.43,1.97,-1.370560,-1.405148,0.606795,95.09,1
40346,0,52131,53606,52336.02,53597.05,-205.02,8.95,-1.370552,-1.405149,0.607360,95.08,1
40385,0,52135,53607,52335.62,53597.07,-200.62,9.93,-1.370544,-1.405149,0.607940,95.08,1
40426,0,52140,53621,52335.23,53597.12,-195.23,23.88,-1.370537,-1.405150,0.608533,95.07,1
40466,0,52147,53630,52334.86,53597.19,-187.86,32.81,-1.370530,-1.405151,0.609139,95.06,1
40506,0,52146,53646,52334.48,53597.29,-188.48,48.71,-1.370522,-1.405153,0.609756,95.05,1
40546,0,52148,53657,52334.11,53597.41,-186.11,59.59,-1.370515,-1.405155,0.610385,95.04,1
40586,0,52147,53659,52333.74,53597.53,-186.74,61.47,-1.370508,-1.405158,0.611025,95.03,1
40626,0,52146,53664,52333.36,53597.66,-187.36,66.34,-1.370501,-1.405160,0.611677,95.02,1
40667,0,52143,53671,52332.98,53597.81,-189.98,73.19,-1.370494,-1.405163,0.612340,95.01,1
40706,0,52137,53666,52332.59,53597.95,-195.59,68.05,-1.370486,-1.405165,0.613016,95.00,1
40748,0,52137,53688,52332.20,53598.13,-195.20,89.87,-1.370479,-1.405169,0.613704,94.99,1
40786,0,52144,53693,52331.83,53598.32,-187.83,94.68,-1.370472,-1.405172,0.614401,94.98,1
40827,0,52121,53597,52331.41,53598.32,-210.41,-1.32,-1.370464,-1.405172,0.615116,94.97,1
40868,0,52071,53497,52330.89,53598.12,-259.89,-101.12,-1.370454,-1.405169,0.615853,94.96,1
40906,0,52042,53459,52330.31,53597.84,-288.31,-138.84,-1.370443,-1.405163,0.616617,94.95,1
40947,0,52046,53485,52329.74,53597.62,-283.74,-112.62,-1.370432,-1.405159,0.617408,94.94,1
40987,0,52050,53493,52329.18,53597.41,-279.18,-104.41,-1.370421,-1.405155,0.618226,94.92,1
41027,0,52056,53511,52328.64,53597.24,-272.64,-86.24,-1.370411,-1.405152,0.619070,94.91,1
41067,0,52072,53516,52328.12,53597.08,-256.12,-81.08,-1.370401,-1.405149,0.619936,94.90,1
41107,0,52072,53512,52327.61,53596.91,-255.61,-84.91,-1.370391,-1.405146,0.620824,94.89,1
41148,0,52067,53507,52327.09,53596.73,-260.09,-89.73,-1.370381,-1.405143,0.621734,94.87,1
41187,0,52063,53513,52326.57,53596.56,-263.57,-83.56,-1.370371,-1.405140,0.622668,94.86,1
41228,0,52070,53528,52326.05,53596.43,-256.05,-68.43,-1.370361,-1.405137,0.623625,94.85,1
41267,0,52075,53541,52325.55,53596.32,-250.55,-55.32,-1.370352,-1.405135,0.624603,94.83,1
41307,0,52077,53552,52325.06,53596.23,-248.06,-44.23,-1.370342,-1.405133,0.625603,94.82,1
41347,0,52079,53569,52324.57,53596.18,-245.57,-27.18,-1.370333,-1.405132,0.626625,94.80,1
41389,0,52078,53569,52324.07,53596.12,-246.07,-27.12,-1.370324,-1.405131,0.627668,94.79,1
41429,0,52078,53576,52323.58,53596.08,-245.58,-20.08,-1.370314,-1.405131,0.628733,94.77,1
41468,0,52076,53592,52323.09,53596.07,-247.09,-4.07,-1.370305,-1.405130,0.629820,94.76,1
41504,0,52080,53622,52322.61,53596.13,-242.61,25.87,-1.370296,-1.405131,0.630928,94.74,1
41548,0,52089,53611,52322.14,53596.16,-233.14,14.84,-1.370287,-1.405132,0.632055,94.73,1
41588,0,52065,53504,52321.63,53595.98,-256.63,-91.98,-1.370277,-1.405129,0.633203,94.71,1
41629,0,52018,53407,52321.02,53595.60,-303.02,-188.60,-1.370265,-1.405122,0.634371,94.69,1
41665,0,52001,53412,52320.38,53595.23,-319.38,-183.23,-1.370253,-1.405115,0.635563,94.68,1
41709,0,52020,53441,52319.79,53594.93,-299.79,-153.93,-1.370242,-1.405109,0.636778,94.66,1
41749,0,52043,53459,52319.23,53594.66,-276.23,-135.66,-1.370231,-1.405104,0.638013,94.64,1
41788,0,52054,53484,52318.71,53594.44,-264.71,-110.44,-1.370221,-1.405100,0.639268,94.62,1
41829,0,52062,53492,52318.20,53594.23,-256.20,-102.23,-1.370211,-1.405096,0.640541,94.60,1
41868,0,52057,53486,52317.68,53594.02,-260.68,-108.02,-1.370201,-1.405092,0.641832,94.58,1
41908,0,52056,53479,52317.15,53593.79,-261.15,-114.79,-1.370191,-1.405088,0.643142,94.56,1
41949,0,52061,53502,52316.64,53593.61,-255.64,-91.61,-1.370182,-1.405084,0.644470,94.54,1
41988,0,52074,53521,52316.16,53593.46,-242.16,-72.46,-1.370172,-1.405082,0.645816,94.52,1
42029,0,52074,53541,52315.67,53593.36,-241.67,-52.36,-1.370163,-1.405080,0.647180,94.50,1
42069,0,52088,53556,52315.22,53593.28,-227.22,-37.28,-1.370154,-1.405078,0.648561,94.48,1
42109,0,52095,53574,52314.78,53593.24,-219.78,-19.24,-1.370146,-1.405078,0.649957,94.46,1
42149,0,52097,53593,52314.35,53593.24,-217.35,-0.24,-1.370138,-1.405078,0.651369,94.44,1
42190,0,52102,53614,52313.93,53593.29,-211.93,20.71,-1.370130,-1.405078,0.652794,94.41,1
42229,0,52109,53631,52313.52,53593.36,-204.52,37.64,-1.370122,-1.405080,0.654232,94.39,1
42269,0,52124,53655,52313.14,53593.49,-189.14,61.51,-1.370115,-1.405082,0.655679,94.37,1
42309,0,52121,53594,52312.75,53593.49,-191.75,0.51,-1.370107,-1.405082,0.657137,94.34,1
42348,0,52075,53460,52312.28,53593.23,-237.28,-133.23,-1.370098,-1.405077,0.658605,94.32,1
42390,0,52036,53390,52311.73,53592.82,-275.73,-202.82,-1.370088,-1.405070,0.660079,94.29,1
42427,0,52036,53401,52311.18,53592.44,-275.18,-191.44,-1.370077,-1.405063,0.661560,94.27,1
42469,0,52058,53416,52310.68,53592.09,-252.68,-176.09,-1.370068,-1.405056,0.663048,94.24,1
42511,0,52065,53426,52310.19,53591.75,-245.19,-165.75,-1.370058,-1.405050,0.664541,94.22,1
42549,0,52078,53445,52309.72,53591.46,-231.72,-146.46,-1.370049,-1.405044,0.666041,94.19,1
42590,0,52084,53443,52309.27,53591.16,-225.27,-148.16,-1.370041,-1.405039,0.667545,94.16,1
42629,0,52084,53443,52308.82,53590.87,-224.82,-147.87,-1.370032,-1.405033,0.669054,94.14,1
42670,0,52086,53452,52308.38,53590.59,-222.38,-138.59,-1.370024,-1.405028,0.670569,94.11,1
42710,0,52097,53480,52307.96,53590.37,-210.96,-110.37,-1.370016,-1.405024,0.672091,94.08,1
42750,0,52110,53494,52307.56,53590.18,-197.56,-96.18,-1.370008,-1.405020,0.673620,94.06,1
42789,0,52118,53516,52307.18,53590.03,-189.18,-74.03,-1.370001,-1.405018,0.675156,94.03,1
42826,0,52122,53533,52306.82,53589.92,-184.82,-56.92,-1.369994,-1.405016,0.676700,94.00,1
42869,0,52127,53556,52306.46,53589.85,-179.46,-33.85,-1.369987,-1.405014,0.678253,93.97,1
42908,0,52140,53566,52306.12,53589.80,-166.12,-23.80,-1.369981,-1.405013,0.679812,93.94,1
42946,0,52143,53582,52305.80,53589.79,-162.80,-7.79,-1.369974,-1.405013,0.681378,93.91,1
42989,0,52148,53605,52305.49,53589.82,-157.49,15.18,-1.369968,-1.405014,0.682950,93.88,1
43029,0,52164,53630,52305.21,53589.90,-141.21,40.10,-1.369963,-1.405015,0.684525,93.85,1
43066,0,52162,53542,52304.92,53589.81,-142.92,-47.81,-1.369958,-1.405013,0.686103,93.82,1
43108,0,52113,53402,52304.54,53589.43,-191.54,-187.43,-1.369950,-1.405007,0.687671,93.79,1
43147,0,52079,53347,52304.09,53588.95,-225.09,-241.95,-1.369942,-1.404997,0.689221,93.76,1
43186,0,52083,53375,52303.65,53588.52,-220.65,-213.52,-1.369933,-1.404989,0.690760,93.73,1
43226,0,52095,53381,52303.23,53588.11,-208.23,-207.11,-1.369925,-1.404982,0.692287,93.70,1
43266,0,52103,53387,52302.84,53587.71,-199.84,-200.71,-1.369918,-1.404974,0.693803,93.67,1
43306,0,52112,53401,52302.46,53587.34,-190.46,-186.34,-1.369910,-1.404967,0.695310,93.64,1
43346,0,52111,53396,52302.07,53586.95,-191.07,-190.95,-1.369903,-1.404960,0.696807,93.61,1
43387,0,52110,53392,52301.69,53586.57,-191.69,-194.57,-1.369896,-1.404953,0.698292,93.57,1
43428,0,52114,53398,52301.32,53586.19,-187.32,-188.19,-1.369889,-1.404946,0.699768,93.54,1
43468,0,52119,53415,52300.95,53585.85,-181.95,-170.85,-1.369882,-1.404940,0.701237,93.51,1
43507,0,52126,53438,52300.61,53585.56,-174.61,-147.56,-1.369875,-1.404934,0.702701,93.48,1
43549,0,52133,53455,52300.27,53585.30,-167.27,-130.30,-1.369869,-1.404929,0.704164,93.44,1
43591,0,52141,53469,52299.96,53585.07,-158.96,-116.07,-1.369863,-1.404925,0.705625,93.41,1
43628,0,52144,53486,52299.64,53584.87,-155.64,-98.87,-1.369857,-1.404922,0.707087,93.38,1
43667,0,52157,53504,52299.36,53584.71,-142.36,-80.71,-1.369851,-1.404918,0.708549,93.35,1
43708,0,52167,53521,52299.10,53584.59,-132.10,-63.59,-1.369846,-1.404916,0.710012,93.31,1
43748,0,52178,53540,52298.86,53584.50,-120.86,-44.50,-1.369842,-1.404914,0.711477,93.28,1
43788,0,52190,53568,52298.64,53584.47,-108.64,-16.47,-1.369837,-1.404914,0.712942,93.25,1
43842,0,52196,53566,52298.44,53584.44,-102.44,-18.44,-1.369834,-1.404913,0.714407,93.21,1
43867,0,52171,53432,52298.18,53584.13,-127.18,-152.13,-1.369829,-1.404908,0.715861,93.18,1
43908,0,52118,53335,52297.82,53583.64,-179.82,-248.64,-1.369822,-1.404898,0.717287,93.15,1
43949,0,52097,53325,52297.43,53583.12,-200.43,-258.12,-1.369814,-1.404889,0.718685,93.11,1
43988,0,52109,53348,52297.05,53582.65,-188.05,-234.65,-1.369807,-1.404880,0.720063,93.08,1
44028,0,52115,53357,52296.69,53582.20,-181.69,-225.20,-1.369800,-1.404871,0.721420,93.05,1
44068,0,52116,53371,52296.33,53581.78,-180.33,-210.78,-1.369793,-1.404864,0.722763,93.01,1
44109,0,52129,53386,52296.00,53581.39,-167.00,-195.39,-1.369787,-1.404856,0.724091,92.98,1
44148,0,52127,53381,52295.66,53580.99,-168.66,-199.99,-1.369780,-1.404849,0.725405,92.95,1
44190,0,52122,53390,52295.31,53580.61,-173.31,-190.61,-1.369774,-1.404842,0.726707,92.91,1
44231,0,52132,53412,52294.99,53580.28,-162.99,-168.28,-1.369768,-1.404836,0.728001,92.88,1
44274,0,52145,53435,52294.69,53579.99,-149.69,-144.99,-1.369762,-1.404830,0.729289,92.85,1
44311,0,52153,53465,52294.41,53579.76,-141.41,-114.76,-1.369757,-1.404826,0.730575,92.81,1
44352,0,52158,53490,52294.14,53579.58,-136.14,-89.58,-1.369751,-1.404823,0.731861,92.78,1
44393,0,52178,53519,52293.91,53579.46,-115.91,-60.46,-1.369747,-1.404820,0.733147,92.75,1
44432,0,52189,53527,52293.70,53579.35,-104.70,-52.35,-1.369743,-1.404818,0.734432,92.71,1
44472,0,52202,53547,52293.52,53579.29,-91.52,-32.29,-1.369740,-1.404817,0.735717,92.68,1
44512,0,52204,53560,52293.34,53579.25,-89.34,-19.25,-1.369736,-1.404816,0.737002,92.65,1
44551,0,52210,53594,52293.18,53579.28,-83.18,14.72,-1.369733,-1.404817,0.738286,92.61,1
44592,0,52222,53601,52293.04,53579.32,-71.04,21.68,-1.369730,-1.404818,0.739569,92.58,1
44632,0,52204,53488,52292.86,53579.14,-88.86,-91.14,-1.369727,-1.404814,0.740846,92.55,1
44672,0,52141,53366,52292.56,53578.72,-151.56,-212.72,-1.369721,-1.404807,0.742102,92.51,1
44714,0,52117,53347,52292.21,53578.26,-175.21,-231.26,-1.369714,-1.404798,0.743336,92.48,1
44753,0,52126,53376,52291.88,53577.86,-165.88,-201.86,-1.369708,-1.404790,0.744554,92.45,1
44791,0,52136,53393,52291.57,53577.49,-155.57,-184.49,-1.369702,-1.404783,0.745761,92.42,1
44833,0,52150,53429,52291.29,53577.19,-141.29,-148.19,-1.369697,-1.404778,0.746959,92.38,1
44873,0,52151,53432,52291.01,53576.90,-140.01,-144.90,-1.369691,-1.404773,0.748151,92.35,1
44912,0,52153,53428,52290.74,53576.61,-137.74,-148.61,-1.369686,-1.404767,0.749335,92.32,1
44951,0,52154,53423,52290.46,53576.30,-136.46,-153.30,-1.369681,-1.404761,0.750511,92.29,1
44993,0,52153,53423,52290.19,53576.00,-137.19,-153.00,-1.369676,-1.404756,0.751678,92.25,1
45029,0,52159,53456,52289.93,53575.76,-130.93,-119.76,-1.369671,-1.404751,0.752841,92.22,1
45072,0,52176,53485,52289.70,53575.58,-113.70,-90.58,-1.369666,-1.404748,0.754002,92.19,1
45113,0,52196,53516,52289.52,53575.46,-93.52,-59.46,-1.369663,-1.404746,0.755161,92.16,1
45152,0,52203,53532,52289.34,53575.37,-86.34,-43.38,-1.369660,-1.404744,0.756320,92.13,1
45193,0,52209,53551,52289.18,53575.33,-80.18,-24.33,-1.369657,-1.404743,0.757478,92.09,1
45233,0,52216,53564,52289.04,53575.31,-73.04,-11.31,-1.369654,-1.404743,0.758636,92.06,1
45274,0,52224,53586,52288.91,53575.33,-64.91,10.67,-1.369651,-1.404743,0.759792,92.03,1
45310,0,52234,53611,52288.80,53575.41,-54.80,35.59,-1.369649,-1.404745,0.760945,92.00,1
45352,0,52242,53632,52288.71,53575.52,-46.71,56.48,-1.369648,-1.404747,0.762094,91.97,1
45394,0,52236,53552,52288.60,53575.47,-52.60,-23.47,-1.369645,-1.404746,0.763241,91.94,1
45434,0,52180,53406,52288.39,53575.14,-108.39,-169.14,-1.369641,-1.404740,0.764371,91.90,1
45474,0,52139,53349,52288.09,53574.69,-149.09,-225.69,-1.369636,-1.404731,0.765477,91.87,1
45514,0,52139,53375,52287.79,53574.29,-148.79,-199.29,-1.369630,-1.404724,0.766564,91.84,1
45554,0,52147,53384,52287.51,53573.91,-140.51,-189.91,-1.369625,-1.404717,0.767636,91.81,1
45594,0,52151,53390,52287.24,53573.54,-136.24,-183.54,-1.369619,-1.404710,0.768693,91.78,1
45635,0,52167,53423,52287.00,53573.24,-120.00,-150.24,-1.369615,-1.404704,0.769740,91.75,1
45674,0,52177,53438,52286.78,53572.97,-109.78,-134.97,-1.369611,-1.404699,0.770779,91.72,1
45714,0,52187,53448,52286.58,53572.72,-99.58,-124.72,-1.369607,-1.404695,0.771810,91.69,1
45754,0,52198,53454,52286.41,53572.49,-88.41,-118.49,-1.369603,-1.404690,0.772833,91.66,1
45794,0,52208,53477,52286.25,53572.30,-78.25,-95.30,-1.369601,-1.404687,0.773850,91.63,1
45834,0,52217,53498,52286.11,53572.15,-69.11,-74.15,-1.369598,-1.404684,0.774864,91.60,1
45874,0,52224,53517,52285.99,53572.04,-61.99,-55.04,-1.369596,-1.404682,0.775874,91.57,1
45913,0,52236,53545,52285.89,53571.99,-49.89,-26.99,-1.369594,-1.404681,0.776883,91.54,1
45954,0,52248,53550,52285.82,53571.95,-37.82,-21.95,-1.369592,-1.404680,0.777888,91.51,1
45993,0,52247,53566,52285.74,53571.93,-38.74,-5.93,-1.369591,-1.404680,0.778892,91.48,1
46034,0,52253,53581,52285.68,53571.95,-32.68,9.05,-1.369590,-1.404680,0.779893,91.45,1
46075,0,52259,53597,52285.63,53572.00,-26.63,25.00,-1.369589,-1.404681,0.780892,91.42,1
46115,0,52264,53616,52285.59,53572.09,-21.59,43.91,-1.369588,-1.404683,0.781886,91.39,1
46156,0,52272,53622,52285.56,53572.20,-13.56,49.80,-1.369587,-1.404685,0.782876,91.36,1
46195,0,52245,53482,52285.48,53572.02,-40.48,-90.02,-1.369586,-1.404681,0.783857,91.33,1
46235,0,52184,53359,52285.28,53571.59,-101.28,-212.59,-1.369582,-1.404673,0.784811,91.31,1
46275,0,52157,53335,52285.02,53571.12,-128.02,-236.12,-1.369577,-1.404665,0.785732,91.28,1
46314,0,52171,53363,52284.80,53570.70,-113.80,-207.70,-1.369573,-1.404657,0.786630,91.25,1
46355,0,52173,53364,52284.57,53570.29,-111.57,-206.29,-1.369568,-1.404649,0.787504,91.22,1
46395,0,52179,53382,52284.36,53569.92,-105.36,-187.92,-1.369564,-1.404642,0.788358,91.19,1
46434,0,52199,53402,52284.20,53569.58,-85.20,-167.58,-1.369561,-1.404636,0.789196,91.17,1
46475,0,52205,53398,52284.04,53569.24,-79.04,-171.24,-1.369558,-1.404630,0.790016,91.14,1
46515,0,52202,53400,52283.87,53568.91,-81.87,-168.91,-1.369555,-1.404623,0.790819,91.11,1
46551,0,52208,53414,52283.72,53568.60,-75.72,-154.60,-1.369552,-1.404618,0.791608,91.08,1
46594,0,52215,53428,52283.59,53568.32,-68.59,-140.32,-1.369550,-1.404612,0.792385,91.06,1
46636,0,52220,53442,52283.46,53568.07,-63.46,-126.07,-1.369547,-1.404608,0.793151,91.03,1
46675,0,52229,53461,52283.35,53567.86,-54.35,-106.86,-1.369545,-1.404604,0.793910,91.00,1
46714,0,52232,53473,52283.25,53567.67,-51.25,-94.67,-1.369543,-1.404600,0.794662,90.98,1
46756,0,52234,53484,52283.15,53567.50,-49.15,-83.50,-1.369541,-1.404597,0.795409,90.95,1
46796,0,52243,53498,52283.07,53567.37,-40.07,-69.37,-1.369540,-1.404595,0.796152,90.93,1
46837,0,52248,53518,52283.00,53567.27,-35.00,-49.27,-1.369538,-1.404593,0.796891,90.90,1
46876,0,52254,53542,52282.95,53567.22,-28.95,-25.22,-1.369537,-1.404592,0.797629,90.88,1
46916,0,52260,53568,52282.90,53567.22,-22.90,0.78,-1.369536,-1.404592,0.798364,90.85,1
46954,0,52273,53556,52282.88,53567.20,-9.88,-11.20,-1.369536,-1.404592,0.799097,90.83,1
46994,0,52236,53402,52282.79,53566.87,-46.79,-164.87,-1.369534,-1.404585,0.799811,90.80,1
47035,0,52173,53282,52282.57,53566.30,-109.57,-284.30,-1.369530,-1.404575,0.800477,90.78,1
47075,0,52147,53279,52282.30,53565.73,-135.30,-286.73,-1.369525,-1.404564,0.801101,90.75,1
47115,0,52168,53312,52282.07,53565.22,-114.07,-253.22,-1.369521,-1.404555,0.801691,90.73,1
47156,0,52185,53323,52281.88,53564.74,-96.88,-241.74,-1.369517,-1.404546,0.802250,90.70,1
47196,0,52188,53342,52281.70,53564.29,-93.70,-222.29,-1.369513,-1.404537,0.802783,90.68,1
47236,0,52202,53366,52281.54,53563.90,-79.54,-197.90,-1.369510,-1.404530,0.803297,90.66,1
47276,0,52204,53357,52281.39,53563.48,-77.39,-206.48,-1.369507,-1.404522,0.803788,90.64,1
47317,0,52205,53357,52281.23,53563.07,-76.23,-206.07,-1.369505,-1.404515,0.804257,90.61,1
47357,0,52207,53376,52281.09,53562.70,-74.09,-186.70,-1.369502,-1.404508,0.804709,90.59,1
47396,0,52213,53400,52280.95,53562.38,-67.95,-162.38,-1.369499,-1.404502,0.805147,90.57,1
47437,0,52225,53434,52280.84,53562.12,-55.84,-128.12,-1.369497,-1.404497,0.805577,90.55,1
47479,0,52238,53453,52280.75,53561.91,-42.75,-108.91,-1.369495,-1.404493,0.806001,90.53,1
47515,0,52244,53479,52280.68,53561.74,-36.68,-82.74,-1.369494,-1.404490,0.806420,90.51,1
47557,0,52246,53493,52280.62,53561.61,-34.62,-68.61,-1.369493,-1.404487,0.806836,90.49,1
47596,0,52260,53515,52280.58,53561.51,-20.58,-46.51,-1.369492,-1.404485,0.807250,90.47,1
47636,0,52266,53543,52280.55,53561.48,-14.55,-18.48,-1.369491,-1.404485,0.807662,90.45,1
47677,0,52279,53578,52280.55,53561.51,-1.55,16.49,-1.369491,-1.404485,0.808074,90.43,1
47717,0,52288,53562,52280.57,53561.52,7.43,0.48,-1.369492,-1.404485,0.808483,90.41,1
47757,0,52261,53420,52280.53,53561.23,-19.53,-141.23,-1.369491,-1.404480,0.808881,90.39,1
47797,0,52209,53327,52280.39,53560.77,-71.39,-233.77,-1.369488,-1.404471,0.809249,90.37,1
47838,0,52198,53353,52280.22,53560.35,-82.22,-207.35,-1.369485,-1.404464,0.809595,90.35,1
47880,0,52215,53390,52280.09,53560.01,-65.09,-170.01,-1.369483,-1.404457,0.809928,90.33,1
47917,0,52226,53405,52279.99,53559.70,-53.99,-154.70,-1.369481,-1.404452,0.810248,90.32,1
47958,0,52236,53430,52279.90,53559.45,-43.90,-129.45,-1.369479,-1.404447,0.810559,90.30,1
47998,0,52245,53432,52279.83,53559.19,-34.83,-127.19,-1.369478,-1.404442,0.810861,90.28,1
48037,0,52241,53437,52279.75,53558.95,-38.75,-121.95,-1.369476,-1.404438,0.811155,90.27,1
48078,0,52238,53443,52279.67,53558.72,-41.67,-115.72,-1.369475,-1.404433,0.811441,90.25,1
48118,0,52248,53477,52279.61,53558.56,-31.61,-81.56,-1.369473,-1.404430,0.811724,90.23,1
48157,0,52256,53501,52279.56,53558.45,-23.56,-57.45,-1.369473,-1.404428,0.812004,90.22,1
48197,0,52265,53533,52279.54,53558.39,-14.54,-25.39,-1.369472,-1.404427,0.812283,90.20,1
48235,0,52275,53552,52279.53,53558.38,-4.53,-6.38,-1.369472,-1.404427,0.812562,90.19,1
48277,0,52281,53572,52279.53,53558.41,1.47,13.59,-1.369472,-1.404427,0.812839,90.17,1
48315,0,52293,53603,52279.56,53558.50,13.44,44.50,-1.369473,-1.404429,0.813115,90.16,1
48357,0,52298,53622,52279.60,53558.63,18.40,63.37,-1.369473,-1.404432,0.813388,90.14,1
48396,0,52314,53655,52279.67,53558.82,34.33,96.18,-1.369475,-1.404435,0.813655,90.13,1
48438,0,52330,53680,52279.77,53559.07,50.23,120.93,-1.369477,-1.404440,0.813914,90.11,1
48477,0,52335,53639,52279.88,53559.23,55.12,79.77,-1.369479,-1.404443,0.814172,90.10,1
48514,0,52285,53482,52279.89,53559.07,5.11,-77.07,-1.369479,-1.404440,0.814425,90.08,1
48558,0,52235,53405,52279.80,53558.77,-44.80,-153.77,-1.369477,-1.404434,0.814664,90.07,1
48598,0,52220,53420,52279.69,53558.49,-59.69,-138.49,-1.369475,-1.404429,0.814894,90.06,1
48638,0,52236,53439,52279.60,53558.25,-43.60,-119.25,-1.369473,-1.404424,0.815116,90.04,1
48677,0,52233,53440,52279.51,53558.02,-46.51,-118.02,-1.369472,-1.404420,0.815331,90.03,1
48718,0,52242,53463,52279.43,53557.83,-37.43,-94.83,-1.369470,-1.404417,0.815541,90.02,1
48759,0,52246,53476,52279.37,53557.66,-33.37,-81.66,-1.369469,-1.404414,0.815747,90.01,1
48797,0,52250,53468,52279.31,53557.48,-29.31,-89.48,-1.369468,-1.404410,0.815948,89.99,1
48838,0,52244,53482,52279.24,53557.34,-35.24,-75.34,-1.369466,-1.404407,0.816146,89.98,1
48879,0,52251,53511,52279.18,53557.25,-28.18,-46.25,-1.369465,-1.404406,0.816343,89.97,1
48918,0,52266,53534,52279.16,53557.20,-13.16,-23.20,-1.369465,-1.404405,0.816539,89.96,1
48959,0,52274,53558,52279.15,53557.20,-5.15,0.80,-1.369465,-1.404405,0.816735,89.95,1
48998,0,52283,53583,52279.16,53557.26,3.84,25.74,-1.369465,-1.404406,0.816929,89.94,1
49040,0,52289,53599,52279.18,53557.34,9.82,41.66,-1.369465,-1.404408,0.817122,89.93,1
49079,0,52298,53619,52279.22,53557.47,18.78,61.53,-1.369466,-1.404410,0.817313,89.92,1
49119,0,52308,53632,52279.28,53557.62,28.72,74.38,-1.369467,-1.404413,0.817499,89.90,1
49160,0,52318,53647,52279.36,53557.80,38.64,89.20,-1.369469,-1.404416,0.817682,89.89,1
49197,0,52320,53675,52279.44,53558.04,40.56,116.96,-1.369470,-1.404420,0.817856,89.88,1
49238,0,52326,53663,52279.53,53558.25,46.47,104.75,-1.369472,-1.404424,0.818024,89.87,1
49278,0,52303,53519,52279.58,53558.17,23.42,-39.17,-1.369473,-1.404423,0.818192,89.86,1
49319,0,52235,53410,52279.49,53557.87,-44.49,-147.87,-1.369471,-1.404417,0.818346,89.85,1
49359,0,52210,53400,52279.36,53557.56,-69.36,-157.56,-1.369469,-1.404412,0.818487,89.84,1
49399,0,52220,53419,52279.24,53557.28,-59.24,-138.28,-1.369466,-1.404406,0.818619,89.84,1
49440,0,52220,53411,52279.12,53556.99,-59.12,-145.99,-1.369464,-1.404401,0.818740,89.83,1
49482,0,52221,53432,52279.01,53556.74,-58.01,-124.74,-1.369462,-1.404396,0.818853,89.82,1
49520,0,52223,53447,52278.90,53556.52,-55.90,-109.52,-1.369460,-1.404392,0.818961,89.81,1
49560,0,52227,53452,52278.80,53556.31,-51.80,-104.31,-1.369458,-1.404388,0.819064,89.80,1
49599,0,52232,53458,52278.70,53556.12,-46.70,-98.12,-1.369456,-1.404385,0.819163,89.79,1
49640,0,52238,53470,52278.62,53555.95,-40.63,-85.95,-1.369455,-1.404382,0.819258,89.78,1
49680,0,52240,53488,52278.55,53555.81,-38.55,-67.81,-1.369453,-1.404379,0.819351,89.78,1
49720,0,52247,53506,52278.49,53555.71,-31.49,-49.71,-1.369452,-1.404377,0.819443,89.77,1
49759,0,52259,53508,52278.45,53555.62,-19.45,-47.62,-1.369451,-1.404375,0.819534,89.76,1
49800,0,52260,53511,52278.41,53555.54,-18.41,-44.54,-1.369451,-1.404374,0.819623,89.75,1
49839,0,52261,53523,52278.38,53555.47,-17.38,-32.47,-1.369450,-1.404373,0.819712,89.75,1
49880,0,52266,53543,52278.36,53555.45,-12.36,-12.45,-1.369449,-1.404372,0.819800,89.74,1
49920,0,52271,53557,52278.34,53555.45,-7.34,1.55,-1.369449,-1.404372,0.819888,89.73,1
49960,0,52280,53579,52278.35,53555.50,1.65,23.50,-1.369449,-1.404373,0.819976,89.72,1
49999,0,52288,53596,52278.37,53555.58,9.63,40.42,-1.369450,-1.404375,0.820062,89.72,1
50040,0,52278,53522,52278.37,53555.52,-0.37,-33.52,-1.369450,-1.404373,0.820147,89.71,1
50083,0,52222,53369,52278.25,53555.14,-56.25,-186.14,-1.369448,-1.404366,0.820211,89.70,1
50121,0,52173,53306,52278.04,53554.65,-105.04,-248.65,-1.369444,-1.404357,0.820242,89.70,1
50161,0,52167,53332,52277.82,53554.20,-110.82,-222.20,-1.369439,-1.404349,0.820253,89.69,1
50202,0,52178,53349,52277.62,53553.79,-99.62,-204.79,-1.369435,-1.404341,0.820246,89.69,1
50238,0,52182,53362,52277.43,53553.41,-95.43,-191.41,-1.369432,-1.404334,0.820225,89.68,1
50277,0,52199,53390,52277.27,53553.09,-78.27,-163.09,-1.369429,-1.404328,0.820193,89.67,1
50320,0,52207,53402,52277.13,53552.79,-70.13,-150.79,-1.369426,-1.404323,0.820152,89.67,1
50361,0,52206,53404,52276.99,53552.49,-70.99,-148.49,-1.369423,-1.404317,0.820102,89.66,1
50401,0,52213,53423,52276.87,53552.23,-63.87,-129.23,-1.369421,-1.404312,0.820045,89.66,1
50441,0,52227,53443,52276.77,53552.01,-49.77,-109.01,-1.369419,-1.404308,0.819984,89.65,1
50480,0,52239,53465,52276.70,53551.84,-37.70,-86.84,-1.369418,-1.404305,0.819920,89.65,1
50522,0,52245,53491,52276.63,53551.72,-31.63,-60.72,-1.369416,-1.404302,0.819855,89.65,1
50560,0,52255,53504,52276.59,53551.62,-21.59,-47.63,-1.369416,-1.404301,0.819789,89.64,1
50600,0,52257,53514,52276.55,53551.55,-19.55,-37.55,-1.369415,-1.404299,0.819722,89.64,1
50643,0,52268,53531,52276.54,53551.51,-8.54,-20.51,-1.369415,-1.404299,0.819656,89.63,1
50681,0,52263,53547,52276.51,53551.50,-13.51,-4.50,-1.369414,-1.404298,0.819590,89.63,1
50720,0,52274,53576,52276.50,53551.55,-2.50,24.45,-1.369414,-1.404299,0.819524,89.63,1
50764,0,52289,53600,52276.53,53551.65,12.47,48.35,-1.369415,-1.404301,0.819457,89.62,1
50801,0,52276,53524,52276.53,53551.60,-0.53,-27.60,-1.369415,-1.404300,0.819389,89.62,1
50840,0,52225,53385,52276.43,53551.27,-51.43,-166.27,-1.369413,-1.404294,0.819306,89.62,1
50882,0,52181,53337,52276.24,53550.84,-95.24,-213.84,-1.369409,-1.404286,0.819202,89.61,1
50922,0,52181,53363,52276.05,53550.46,-95.05,-187.46,-1.369405,-1.404279,0.819086,89.61,1
50962,0,52197,53376,52275.89,53550.12,-78.89,-174.12,-1.369402,-1.404273,0.818958,89.61,1
51002,0,52198,53402,52275.74,53549.82,-77.74,-147.82,-1.369399,-1.404267,0.818823,89.61,1
51042,0,52217,53434,52275.62,53549.59,-58.62,-115.59,-1.369397,-1.404263,0.818684,89.60,1
51078,0,52225,53434,52275.52,53549.36,-50.52,-115.36,-1.369395,-1.404258,0.818539,89.60,1
51121,0,52226,53432,52275.42,53549.13,-49.42,-117.13,-1.369393,-1.404254,0.818389,89.60,1
51162,0,52237,53443,52275.35,53548.92,-38.35,-105.92,-1.369392,-1.404250,0.818234,89.60,1
51202,0,52243,53480,52275.29,53548.78,-32.29,-68.78,-1.369391,-1.404248,0.818078,89.60,1
51241,0,52251,53498,52275.24,53548.68,-24.24,-50.68,-1.369390,-1.404246,0.817921,89.60,1
51282,0,52264,53517,52275.22,53548.62,-11.22,-31.62,-1.369390,-1.404245,0.817764,89.59,1
51320,0,52270,53539,52275.21,53548.60,-5.21,-9.60,-1.369389,-1.404244,0.817607,89.59,1
51361,0,52272,53547,52275.21,53548.60,-3.21,-1.60,-1.369389,-1.404244,0.817451,89.59,1
51402,0,52274,53564,52275.21,53548.63,-1.21,15.37,-1.369389,-1.404245,0.817295,89.59,1
51443,0,52280,53574,52275.22,53548.68,4.78,25.32,-1.369390,-1.404246,0.817139,89.59,1
51483,0,52280,53591,52275.23,53548.77,4.77,42.23,-1.369390,-1.404247,0.816983,89.59,1
51523,0,52292,53624,52275.27,53548.92,16.73,75.08,-1.369390,-1.404250,0.816823,89.59,1
51562,0,52289,53571,52275.29,53548.96,13.71,22.04,-1.369391,-1.404251,0.816664,89.59,1
51603,0,52236,53408,52275.21,53548.68,-39.21,-140.68,-1.369389,-1.404246,0.816494,89.59,1
51642,0,52191,53336,52275.05,53548.26,-84.05,-212.26,-1.369386,-1.404238,0.816302,89.59,1
51685,0,52178,53353,52274.86,53547.87,-96.86,-194.87,-1.369383,-1.404231,0.816097,89.59,1
51721,0,52191,53361,52274.69,53547.50,-83.69,-186.50,-1.369379,-1.404224,0.815878,89.59,1
51760,0,52201,53361,52274.54,53547.12,-73.54,-186.12,-1.369377,-1.404217,0.815644,89.59,1
51799,0,52209,53382,52274.41,53546.80,-65.41,-164.80,-1.369374,-1.404211,0.815400,89.59,1
51841,0,52217,53397,52274.30,53546.50,-57.30,-149.50,-1.369372,-1.404205,0.815145,89.59,1
51880,0,52217,53394,52274.19,53546.20,-57.19,-152.20,-1.369370,-1.404199,0.814881,89.59,1
51924,0,52222,53400,52274.09,53545.91,-52.09,-145.91,-1.369368,-1.404194,0.814608,89.60,1
51962,0,52227,53423,52273.99,53545.66,-46.99,-122.66,-1.369366,-1.404189,0.814330,89.60,1
52003,0,52234,53441,52273.91,53545.45,-39.91,-104.45,-1.369365,-1.404185,0.814047,89.60,1
52044,0,52241,53462,52273.85,53545.29,-32.85,-83.29,-1.369363,-1.404182,0.813762,89.60,1
52084,0,52248,53473,52273.80,53545.14,-25.80,-72.14,-1.369362,-1.404180,0.813476,89.60,1
52124,0,52248,53486,52273.75,53545.03,-25.75,-59.03,-1.369361,-1.404178,0.813189,89.60,1
52163,0,52250,53491,52273.70,53544.92,-23.70,-53.92,-1.369360,-1.404176,0.812902,89.61,1
52204,0,52253,53516,52273.66,53544.87,-20.66,-28.87,-1.369360,-1.404175,0.812616,89.61,1
52244,0,52261,53524,52273.64,53544.83,-12.64,-20.83,-1.369359,-1.404174,0.812330,89.61,1
52283,0,52269,53553,52273.63,53544.85,-4.63,8.15,-1.369359,-1.404174,0.812045,89.61,1
52323,0,52275,53566,52273.63,53544.89,1.37,21.11,-1.369359,-1.404175,0.811761,89.62,1
52365,0,52262,53441,52273.61,53544.68,-11.61,-103.68,-1.369359,-1.404171,0.811471,89.62,1
52403,0,52198,53297,52273.46,53544.19,-75.46,-247.19,-1.369356,-1.404162,0.811150,89.62,1
52444,0,52164,53264,52273.24,53543.63,-109.24,-279.63,-1.369352,-1.404151,0.810798,89.63,1
52483,0,52167,53284,52273.03,53543.11,-106.03,-259.11,-1.369348,-1.404142,0.810421,89.63,1
52523,0,52179,53277,52272.84,53542.58,-93.84,-265.58,-1.369344,-1.404132,0.810017,89.63,1
52564,0,52178,53287,52272.66,53542.07,-94.66,-255.07,-1.369340,-1.404122,0.809590,89.64,1
52604,0,52186,53307,52272.48,53541.60,-86.48,-234.60,-1.369337,-1.404114,0.809145,89.64,1
52645,0,52193,53309,52272.33,53541.14,-79.33,-232.14,-1.369334,-1.404105,0.808682,89.64,1
52684,0,52193,53314,52272.17,53540.68,-79.17,-226.68,-1.369331,-1.404096,0.808202,89.65,1
52725,0,52198,53325,52272.02,53540.25,-74.02,-215.25,-1.369328,-1.404088,0.807707,89.65,1
52765,0,52200,53337,52271.88,53539.85,-71.88,-202.85,-1.369326,-1.404081,0.807201,89.66,1
52805,0,52212,53360,52271.76,53539.49,-59.76,-179.49,-1.369323,-1.404074,0.806685,89.66,1
52845,0,52214,53384,52271.65,53539.18,-57.65,-155.18,-1.369321,-1.404068,0.806164,89.67,1
52884,0,52220,53412,52271.55,53538.93,-51.55,-126.93,-1.369319,-1.404064,0.805640,89.68,1
52925,0,52230,53430,52271.46,53538.71,-41.46,-108.71,-1.369318,-1.404060,0.805114,89.68,1
52964,0,52244,53442,52271.41,53538.52,-27.41,-96.52,-1.369317,-1.404056,0.804587,89.69,1
53003,0,52249,53466,52271.37,53538.37,-22.37,-72.37,-1.369316,-1.404053,0.804059,89.69,1
53045,0,52253,53477,52271.33,53538.25,-18.33,-61.25,-1.369315,-1.404051,0.803531,89.70,1
53086,0,52261,53499,52271.31,53538.18,-10.31,-39.18,-1.369315,-1.404050,0.803005,89.71,1
53124,0,52278,53509,52271.33,53538.12,6.67,-29.12,-1.369315,-1.404048,0.802479,89.71,1
53165,0,52265,53384,52271.32,53537.81,-6.32,-153.81,-1.369315,-1.404043,0.801944,89.72,1
53205,0,52197,53244,52271.17,53537.22,-74.17,-293.22,-1.369312,-1.404032,0.801377,89.73,1
53246,0,52156,53214,52270.94,53536.58,-114.94,-322.58,-1.369308,-1.404020,0.800783,89.74,1
53285,0,52163,53233,52270.72,53535.97,-107.72,-302.97,-1.369303,-1.404008,0.800166,89.74,1
53325,0,52170,53244,52270.52,53535.39,-100.52,-291.39,-1.369300,-1.403998,0.799528,89.75,1
53365,0,52174,53265,52270.33,53534.85,-96.33,-269.85,-1.369296,-1.403987,0.798876,89.76,1
53406,0,52182,53282,52270.16,53534.35,-88.16,-252.35,-1.369293,-1.403978,0.798211,89.77,1
53446,0,52187,53282,52269.99,53533.84,-82.99,-251.84,-1.369289,-1.403969,0.797532,89.78,1
53487,0,52182,53279,52269.82,53533.34,-87.82,-254.34,-1.369286,-1.403959,0.796841,89.79,1
53526,0,52182,53303,52269.64,53532.87,-87.64,-229.87,-1.369283,-1.403951,0.796143,89.80,1
53566,0,52193,53337,52269.49,53532.48,-76.49,-195.48,-1.369280,-1.403943,0.795440,89.81,1
53606,0,52208,53370,52269.37,53532.16,-61.37,-162.16,-1.369277,-1.403937,0.794734,89.82,1
53645,0,52223,53393,52269.28,53531.88,-46.28,-138.88,-1.369276,-1.403932,0.794027,89.83,1
53686,0,52228,53418,52269.20,53531.66,-41.20,-113.66,-1.369274,-1.403928,0.793319,89.84,1
53725,0,52242,53441,52269.14,53531.48,-27.14,-90.48,-1.369273,-1.403924,0.792611,89.85,1
