t_ms,trial_id,t_trial_ms,phase,red_raw,ir_raw,red_dc,ir_dc,red_ac,ir_ac,R,spo2,spo2_valid
220905,1,0,0,48157,52271,47480.14,50740.87,676.86,1530.13,0.500882,97.45,1
220945,1,40,0,48162,52302,47481.50,50743.99,680.50,1558.01,0.500831,97.45,1
220985,1,80,0,48183,52350,47482.90,50747.21,700.10,1602.79,0.500780,97.45,1
221025,1,120,0,48190,52327,47484.32,50750.37,705.68,1576.63,0.500728,97.45,1
221066,1,161,0,48163,52279,47485.68,50753.43,677.32,1525.57,0.500676,97.46,1
221106,1,201,0,48156,52319,47487.02,50756.56,668.98,1562.44,0.500623,97.46,1
221146,1,241,0,48195,52423,47488.44,50759.89,706.56,1663.11,0.500569,97.46,1
221186,1,281,0,48230,52484,47489.92,50763.34,740.08,1720.66,0.500513,97.46,1
221226,1,321,0,48258,52537,47491.46,50766.89,766.54,1770.11,0.500456,97.46,1
221266,1,361,0,48274,52560,47493.03,50770.48,780.97,1789.52,0.500399,97.46,1
221306,1,401,0,48233,52317,47494.51,50773.57,738.49,1543.43,0.500343,97.46,1
221346,1,441,0,48092,52045,47495.70,50776.11,596.30,1268.89,0.500289,97.46,1
221386,1,481,0,48021,52016,47496.75,50778.59,524.25,1237.41,0.500233,97.46,1
221426,1,521,0,48035,52072,47497.83,50781.18,537.17,1290.82,0.500177,97.46,1
221466,1,561,0,48064,52146,47498.96,50783.91,565.04,1362.09,0.500119,97.46,1
221506,1,601,0,48120,52268,47500.21,50786.88,619.79,1481.12,0.500060,97.47,1
221546,1,641,0,48161,52329,47501.53,50789.97,659.47,1539.03,0.500000,97.47,1
221586,1,681,0,48210,52506,47502.95,50793.40,707.05,1712.60,0.499939,97.47,1
221627,1,722,0,48321,52708,47504.59,50797.23,816.41,1910.77,0.499876,97.47,1
221667,1,762,0,48384,52773,47506.35,50801.19,877.65,1971.81,0.499813,97.47,1
221707,1,802,0,48378,52706,47508.09,50805.00,869.91,1901.00,0.499751,97.47,1
221747,1,842,0,48330,52625,47509.74,50808.64,820.26,1816.36,0.499689,97.47,1
221787,1,882,0,48332,52712,47511.38,50812.45,820.62,1899.55,0.499627,97.47,1
221827,1,922,0,48383,52772,47513.13,50816.37,869.87,1955.63,0.499565,97.47,1
221867,1,962,0,48391,52738,47514.89,50820.21,876.11,1917.79,0.499503,97.48,1
221907,1,1002,0,48337,52474,47516.53,50823.52,820.47,1650.48,0.499445,97.48,1
221947,1,1042,0,48186,52181,47517.87,50826.24,668.13,1354.76,0.499388,97.48,1
221987,1,1082,0,48106,52145,47519.05,50828.88,586.95,1316.12,0.499331,97.48,1
222027,1,1122,0,48146,52253,47520.30,50831.73,625.70,1421.27,0.499275,97.48,1
222067,1,1162,0,48200,52332,47521.66,50834.73,678.34,1497.27,0.499218,97.48,1
222107,1,1202,0,48220,52328,47523.06,50837.71,696.94,1490.29,0.499163,97.48,1
222147,1,1242,0,48209,52314,47524.43,50840.67,684.57,1473.33,0.499109,97.48,1
222188,1,1283,0,48221,52333,47525.83,50843.65,695.17,1489.35,0.499055,97.49,1
222228,1,1323,0,48223,52351,47527.22,50846.67,695.78,1504.33,0.499002,97.49,1
222268,1,1363,0,48228,52350,47528.62,50849.68,699.37,1500.32,0.498950,97.49,1
222308,1,1403,0,48234,52344,47530.04,50852.66,703.96,1491.34,0.498900,97.49,1
222348,1,1443,0,48231,52336,47531.44,50855.63,699.56,1480.37,0.498850,97.49,1
222388,1,1483,0,48222,52339,47532.82,50858.60,689.18,1480.40,0.498801,97.49,1
222428,1,1523,0,48239,52404,47534.23,50861.70,704.77,1542.30,0.498753,97.49,1
222468,1,1563,0,48284,52466,47535.73,50864.91,748.27,1601.09,0.498706,97.49,1
222508,1,1603,0,48281,52291,47537.23,50867.76,743.77,1423.24,0.498661,97.49,1
222548,1,1643,0,48132,51975,47538.42,50869.97,593.58,1105.03,0.498619,97.50,1
222588,1,1683,0,48043,51906,47539.43,50872.05,503.57,1033.95,0.498578,97.50,1
222628,1,1723,0,48061,51993,47540.47,50874.29,520.53,1118.71,0.498537,97.50,1
222668,1,1763,0,48108,52098,47541.61,50876.74,566.39,1221.26,0.498497,97.50,1
222708,1,1803,0,48168,52212,47542.86,50879.41,625.14,1332.59,0.498458,97.50,1
222749,1,1844,0,48201,52210,47544.18,50882.07,656.82,1327.93,0.498420,97.50,1
222789,1,1884,0,48177,52179,47545.45,50884.67,631.55,1294.33,0.498383,97.50,1
222829,1,1924,0,48180,52204,47546.71,50887.31,633.29,1316.69,0.498347,97.50,1
222869,1,1964,0,48192,52206,47548.01,50889.95,643.99,1316.05,0.498313,97.51,1
222909,1,2004,0,48190,52211,47549.29,50892.59,640.71,1318.41,0.498280,97.51,1
222949,1,2044,0,48199,52233,47550.59,50895.28,648.41,1337.72,0.498248,97.51,1
222989,1,2084,0,48218,52276,47551.93,50898.04,666.07,1377.96,0.498217,97.51,1
223029,1,2124,0,48229,52278,47553.29,50900.80,675.71,1377.20,0.498187,97.51,1
223069,1,2164,0,48223,52295,47554.62,50903.59,668.37,1391.41,0.498159,97.51,1
223109,1,2204,0,48227,52195,47555.97,50906.18,671.03,1288.82,0.498133,97.51,1
223149,1,2244,0,48109,51867,47557.08,50908.10,551.92,958.90,0.498109,97.51,1
223189,1,2284,0,47981,51731,47557.93,50909.75,423.07,821.25,0.498086,97.51,1
223229,1,2324,0,47970,51746,47558.75,50911.42,411.25,834.58,0.498064,97.52,1
223270,1,2365,0,47983,51771,47559.60,50913.14,423.40,857.86,0.498042,97.52,1
223310,1,2405,0,47993,51791,47560.47,50914.89,432.53,876.11,0.498021,97.52,1
223350,1,2445,0,48000,51814,47561.35,50916.70,438.65,897.30,0.498001,97.52,1
223390,1,2485,0,47999,51818,47562.22,50918.50,436.78,899.50,0.497981,97.52,1
223430,1,2525,0,48018,51899,47563.14,50920.46,454.86,978.54,0.497961,97.52,1
223470,1,2565,0,48079,52037,47564.17,50922.70,514.83,1114.30,0.497941,97.52,1
223510,1,2605,0,48147,52167,47565.34,50925.18,581.66,1241.82,0.497922,97.52,1
223550,1,2645,0,48203,52253,47566.61,50927.84,636.39,1325.16,0.497903,97.52,1
223590,1,2685,0,48226,52253,47567.93,50930.49,658.07,1322.51,0.497886,97.52,1
223630,1,2725,0,48201,52194,47569.20,50933.02,631.80,1260.98,0.497871,97.52,1
223670,1,2765,0,48172,52141,47570.41,50935.44,601.59,1205.56,0.497857,97.53,1
223710,1,2805,0,48132,51951,47571.53,50937.47,560.47,1013.53,0.497844,97.53,1
223750,1,2845,0,47995,51662,47572.38,50938.92,422.62,723.08,0.497834,97.53,1
223790,1,2885,0,47880,51509,47573.00,50940.06,307.00,568.94,0.497824,97.53,1
223831,1,2926,0,47850,51518,47573.55,50941.21,276.45,576.79,0.497814,97.53,1
223871,1,2966,0,47878,51608,47574.16,50942.55,303.84,665.45,0.497804,97.53,1
223911,1,3006,0,47924,51725,47574.86,50944.12,349.14,780.88,0.497794,97.53,1
223951,1,3046,0,47993,51874,47575.70,50945.98,417.30,928.02,0.497783,97.53,1
223991,1,3086,0,48054,51991,47576.65,50948.07,477.35,1042.93,0.497773,97.53,1
224031,1,3126,0,48086,52008,47577.67,50950.19,508.33,1057.81,0.497763,97.53,1
224071,1,3166,0,48086,51995,47578.69,50952.28,507.31,1042.72,0.497754,97.53,1
224111,1,3206,0,48067,51935,47579.67,50954.24,487.33,980.76,0.497746,97.53,1
224151,1,3246,0,48052,51962,47580.61,50956.26,471.39,1005.74,0.497738,97.53,1
224191,1,3286,0,48060,51953,47581.57,50958.25,478.43,994.75,0.497730,97.54,1
224231,1,3326,0,48044,51922,47582.50,50960.18,461.50,961.82,0.497723,97.54,1
224271,1,3366,0,48025,51868,47583.39,50962.00,441.61,906.00,0.497716,97.54,1
224311,1,3406,0,47958,51660,47584.14,50963.40,373.86,696.60,0.497710,97.54,1
224352,1,3447,0,47858,51521,47584.69,50964.52,273.31,556.48,0.497704,97.54,1
224392,1,3487,0,47822,51495,47585.16,50965.58,236.84,529.42,0.497699,97.54,1
224432,1,3527,0,47818,51545,47585.63,50966.74,232.37,578.26,0.497693,97.54,1
224472,1,3567,0,47850,51564,47586.16,50967.93,263.84,596.07,0.497686,97.54,1
224512,1,3607,0,47833,51491,47586.66,50968.98,246.34,522.02,0.497680,97.54,1
224552,1,3647,0,47804,51505,47587.10,50970.05,216.90,534.95,0.497674,97.54,1
224592,1,3687,0,47835,51573,47587.59,50971.26,247.41,601.74,0.497667,97.54,1
224632,1,3727,0,47849,51556,47588.12,50972.43,260.88,583.57,0.497660,97.54,1
224672,1,3767,0,47834,51514,47588.61,50973.52,245.39,540.48,0.497653,97.54,1
224712,1,3807,0,47806,51483,47589.05,50974.54,216.95,508.46,0.497646,97.54,1
224752,1,3847,0,47789,51458,47589.45,50975.51,199.55,482.49,0.497638,97.54,1
224792,1,3887,0,47779,51482,47589.83,50976.52,189.17,505.48,0.497631,97.54,1
224832,1,3927,0,47803,51521,47590.25,50977.61,212.75,543.39,0.497623,97.54,1
224872,1,3967,0,47768,51343,47590.61,50978.34,177.39,364.66,0.497615,97.54,1
224912,1,4007,0,47667,51196,47590.76,50978.78,76.24,217.22,0.497606,97.55,1
224953,1,4048,0,47629,51187,47590.84,50979.20,38.16,207.80,0.497598,97.55,1
224993,1,4088,0,47629,51222,47590.92,50979.69,38.08,242.31,0.497590,97.55,1
225033,1,4128,0,47645,51264,47591.03,50980.26,53.97,283.74,0.497581,97.55,1
225073,1,4168,0,47666,51313,47591.18,50980.93,74.82,332.07,0.497571,97.55,1
225113,1,4208,0,47681,51376,47591.36,50981.72,89.64,394.28,0.497561,97.55,1
225153,1,4248,0,47726,51450,47591.63,50982.66,134.37,467.34,0.497551,97.55,1
225193,1,4288,0,47736,51384,47591.92,50983.46,144.08,400.54,0.497540,97.55,1
225233,1,4328,0,47686,51304,47592.11,50984.10,93.89,319.90,0.497528,97.55,1
225273,1,4368,0,47652,51261,47592.23,50984.66,59.77,276.34,0.497517,97.55,1
225313,1,4408,0,47627,51261,47592.30,50985.21,34.70,275.79,0.497505,97.55,1
225353,1,4448,0,47642,51314,47592.40,50985.87,49.60,328.13,0.497492,97.55,1
225393,1,4488,0,47666,51394,47592.55,50986.69,73.45,407.31,0.497479,97.55,1
225433,1,4528,0,47692,51393,47592.75,50987.50,99.25,405.50,0.497465,97.55,1
225474,1,4569,0,47644,51293,47592.85,50988.11,51.15,304.89,0.497450,97.55,1
225514,1,4609,0,47619,51316,47592.91,50988.77,26.09,327.23,0.497435,97.55,1
225554,1,4649,0,47645,51409,47593.01,50989.61,51.99,419.39,0.497419,97.55,1
225594,1,4689,0,47697,51554,47593.22,50990.74,103.78,563.26,0.497401,97.55,1
225634,1,4729,0,47766,51679,47593.57,50992.12,172.43,686.88,0.497381,97.55,1
225674,1,4769,0,47808,51751,47594.00,50993.64,214.00,757.36,0.497359,97.55,1
225714,1,4809,0,47846,51843,47594.50,50995.34,251.50,847.66,0.497335,97.55,1
225754,1,4849,0,47900,51941,47595.12,50997.23,304.88,943.77,0.497307,97.55,1
225794,1,4889,0,47934,52026,47595.80,50999.29,338.20,1026.71,0.497277,97.55,1
225834,1,4929,0,47983,52151,47596.57,51001.59,386.43,1149.41,0.497243,97.55,1
225874,1,4969,0,48028,52226,47597.44,51004.04,430.56,1221.96,0.497205,97.56,1
225914,1,5009,0,48051,52275,47598.35,51006.59,452.65,1268.41,0.497163,97.56,1
225954,1,5049,0,48068,52320,47599.29,51009.21,468.71,1310.79,0.497118,97.56,1
225994,1,5089,0,48077,52323,47600.25,51011.84,476.75,1311.16,0.497069,97.56,1
226035,1,5130,0,48059,52289,47601.16,51014.40,457.84,1274.60,0.497016,97.56,1
226075,1,5170,0,48055,52334,47602.07,51017.04,452.93,1316.96,0.496960,97.56,1
226115,1,5210,0,48079,52419,47603.03,51019.84,475.97,1399.16,0.496898,97.56,1
226155,1,5250,0,48138,52573,47604.10,51022.95,533.90,1550.05,0.496831,97.56,1
226195,1,5290,0,48222,52761,47605.34,51026.43,616.66,1734.57,0.496758,97.56,1
226235,1,5330,0,48303,52895,47606.74,51030.17,696.26,1864.83,0.496679,97.56,1
226275,1,5370,0,48344,52968,47608.21,51034.05,735.79,1933.95,0.496596,97.56,1
226315,1,5410,0,48390,53091,47609.78,51038.16,780.22,2052.84,0.496507,97.56,1
226355,1,5450,0,48453,53220,47611.47,51042.52,841.53,2177.48,0.496413,97.56,1
226395,1,5490,0,48494,53267,47613.23,51046.97,880.77,2220.03,0.496315,97.56,1
226435,1,5530,0,48505,53283,47615.02,51051.45,889.98,2231.55,0.496214,97.56,1
226475,1,5570,0,48501,53296,47616.79,51055.94,884.21,2240.06,0.496109,97.57,1
226515,1,5610,0,48502,53323,47618.57,51060.47,883.43,2262.53,0.496000,97.57,1
226556,1,5651,0,48507,53338,47620.34,51065.03,886.66,2272.97,0.495888,97.57,1
226596,1,5691,0,48490,53260,47622.09,51069.42,867.91,2190.58,0.495773,97.57,1
226636,1,5731,0,48441,53205,47623.73,51073.69,817.27,2131.31,0.495654,97.57,1
226676,1,5771,0,48428,53215,47625.34,51077.98,802.66,2137.02,0.495532,97.57,1
226716,1,5811,0,48443,53283,47626.97,51082.39,816.03,2200.61,0.495405,97.57,1
226756,1,5851,0,48480,53379,47628.68,51086.98,851.32,2292.02,0.495274,97.57,1
226796,1,5891,0,48529,53468,47630.48,51091.74,898.52,2376.26,0.495139,97.58,1
226836,1,5931,0,48561,53513,47632.34,51096.59,928.66,2416.41,0.495000,97.58,1
226876,1,5971,0,48585,53595,47634.25,51101.59,950.75,2493.41,0.494858,97.58,1
226916,1,6011,0,48622,53675,47636.23,51106.73,985.77,2568.27,0.494713,97.58,1
226956,1,6051,0,48661,53756,47638.28,51112.04,1022.72,2643.96,0.494565,97.58,1
226996,1,6091,0,48695,53830,47640.39,51117.47,1054.61,2712.53,0.494415,97.58,1
227036,1,6131,0,48716,53876,47642.54,51122.99,1073.46,2753.01,0.494262,97.59,1
227076,1,6171,0,48729,53920,47644.72,51128.59,1084.28,2791.41,0.494106,97.59,1
227117,1,6212,0,48751,53988,47646.93,51134.30,1104.07,2853.70,0.493949,97.59,1
227157,1,6252,0,48795,54066,47649.23,51140.17,1145.77,2925.83,0.493789,97.59,1
227197,1,6292,0,48812,54092,47651.56,51146.07,1160.44,2945.93,0.493628,97.59,1
227237,1,6332,0,48826,54139,47653.91,51152.06,1172.09,2986.94,0.493465,97.60,1
227277,1,6372,0,48848,54211,47656.30,51158.18,1191.70,3052.82,0.493301,97.60,1
227317,1,6412,0,48886,54282,47658.76,51164.43,1227.24,3117.57,0.493135,97.60,1
227357,1,6452,0,48913,54306,47661.27,51170.72,1251.73,3135.28,0.492968,97.60,1
227397,1,6492,0,48919,54306,47663.79,51176.99,1255.21,3129.01,0.492802,97.60,1
227437,1,6532,0,48908,54303,47666.27,51183.25,1241.73,3119.75,0.492635,97.61,1
227477,1,6572,0,48909,54327,47668.76,51189.54,1240.24,3137.46,0.492467,97.61,1
227517,1,6612,0,48924,54362,47671.27,51195.88,1252.73,3166.12,0.492299,97.61,1
227557,1,6652,0,48932,54376,47673.80,51202.25,1258.20,3173.75,0.492130,97.61,1
227597,1,6692,0,48927,54395,47676.30,51208.63,1250.70,3186.37,0.491960,97.62,1
227638,1,6733,0,48935,54419,47678.82,51215.05,1256.18,3203.95,0.491790,97.62,1
227678,1,6773,0,48945,54454,47681.36,51221.54,1263.64,3232.46,0.491618,97.62,1
227718,1,6813,0,48955,54509,47683.91,51228.11,1271.09,3280.89,0.491445,97.62,1
227758,1,6853,0,48975,54503,47686.49,51234.66,1288.51,3268.34,0.491272,97.63,1
227798,1,6893,0,48967,54489,47689.05,51241.18,1277.95,3247.82,0.491099,97.63,1
227838,1,6933,0,48970,54533,47691.61,51247.76,1278.39,3285.24,0.490924,97.63,1
227878,1,6973,0,48992,54570,47694.21,51254.41,1297.79,3315.59,0.490750,97.64,1
227918,1,7013,0,49015,54625,47696.86,51261.15,1318.14,3363.85,0.490574,97.64,1
227958,1,7053,0,49033,54635,47699.53,51267.90,1333.47,3367.10,0.490399,97.64,1
227998,1,7093,0,49013,54595,47702.16,51274.55,1310.84,3320.45,0.490224,97.65,1
228038,1,7133,0,49001,54608,47704.76,51281.22,1296.24,3326.78,0.490048,97.65,1
228078,1,7173,0,49018,54637,47707.39,51287.93,1310.61,3349.07,0.489871,97.65,1
228118,1,7213,0,49013,54636,47710.00,51294.63,1303.00,3341.37,0.489695,97.65,1
228159,1,7254,0,49015,54655,47712.61,51301.36,1302.39,3353.64,0.489518,97.66,1
228199,1,7294,0,49011,54655,47715.21,51308.06,1295.79,3346.94,0.489340,97.66,1
228239,1,7334,0,49009,54662,47717.80,51314.77,1291.20,3347.23,0.489162,97.66,1
228279,1,7374,0,49007,54680,47720.37,51321.50,1286.63,3358.50,0.488983,97.67,1
228319,1,7414,0,49017,54654,47722.97,51328.17,1294.03,3325.83,0.488804,97.67,1
228359,1,7454,0,48992,54631,47725.51,51334.78,1266.49,3296.22,0.488624,97.67,1
228399,1,7494,0,48995,54657,47728.05,51341.42,1266.95,3315.58,0.488443,97.68,1
228439,1,7534,0,49007,54690,47730.61,51348.12,1276.39,3341.88,0.488262,97.68,1
228479,1,7574,0,49033,54752,47733.21,51354.93,1299.79,3397.07,0.488081,97.69,1
228519,1,7614,0,49055,54777,47735.86,51361.77,1319.14,3415.23,0.487899,97.69,1
228559,1,7654,0,49051,54769,47738.49,51368.59,1312.51,3400.41,0.487717,97.69,1
228599,1,7694,0,49056,54793,47741.12,51375.44,1314.88,3417.56,0.487534,97.70,1
228639,1,7734,0,49067,54826,47743.78,51382.34,1323.22,3443.66,0.487351,97.70,1
228679,1,7774,0,49068,54837,47746.43,51389.25,1321.57,3447.75,0.487168,97.70,1
228720,1,7815,0,49067,54835,47749.07,51396.15,1317.93,3438.85,0.486985,97.71,1
228760,1,7855,0,49056,54840,47751.68,51403.04,1304.32,3436.96,0.486801,97.71,1
228800,1,7895,0,49061,54854,47754.30,51409.94,1306.70,3444.06,0.486616,97.71,1
228840,1,7935,0,49061,54843,47756.91,51416.81,1304.09,3426.19,0.486431,97.72,1
228880,1,7975,0,49050,54837,47759.50,51423.65,1290.50,3413.35,0.486246,97.72,1
228920,1,8015,0,49045,54800,47762.07,51430.40,1282.93,3369.60,0.486060,97.73,1
228960,1,8055,0,49035,54799,47764.62,51437.14,1270.38,3361.86,0.485874,97.73,1
229000,1,8095,0,49036,54807,47767.16,51443.88,1268.84,3363.12,0.485687,97.73,1
229040,1,8135,0,49049,54872,47769.73,51450.74,1279.27,3421.26,0.485500,97.74,1
229080,1,8175,0,49073,54903,47772.34,51457.65,1300.66,3445.35,0.485313,97.74,1
229120,1,8215,0,49071,54872,47774.93,51464.48,1296.07,3407.52,0.485125,97.74,1
229160,1,8255,0,49040,54830,47777.46,51471.21,1262.54,3358.79,0.484937,97.75,1
229200,1,8295,0,49023,54838,47779.96,51477.94,1243.04,3360.06,0.484748,97.75,1
229241,1,8336,0,49034,54867,47782.46,51484.72,1251.54,3382.28,0.484558,97.76,1
229281,1,8376,0,49041,54897,47784.98,51491.55,1256.02,3405.45,0.484368,97.76,1
229321,1,8416,0,49044,54917,47787.50,51498.40,1256.50,3418.60,0.484177,97.76,1
229361,1,8456,0,49059,54939,47790.05,51505.28,1268.95,3433.72,0.483985,97.77,1
229401,1,8496,0,49059,54944,47792.59,51512.16,1266.41,3431.84,0.483793,97.77,1
229441,1,8536,0,49061,54967,47795.12,51519.07,1265.88,3447.93,0.483600,97.78,1
229481,1,8576,0,49064,54926,47797.66,51525.89,1266.34,3400.11,0.483407,97.78,1
229521,1,8616,0,49040,54884,47800.15,51532.61,1239.85,3351.39,0.483213,97.79,1
229561,1,8656,0,49035,54900,47802.62,51539.34,1232.38,3360.66,0.483019,97.79,1
229601,1,8696,0,49038,54925,47805.09,51546.11,1232.91,3378.89,0.482824,97.79,1
229641,1,8736,0,49042,54937,47807.57,51552.89,1234.43,3384.11,0.482629,97.80,1
229681,1,8776,0,49039,54933,47810.04,51559.66,1228.96,3373.34,0.482433,97.80,1
229721,1,8816,0,49022,54896,47812.46,51566.33,1209.54,3329.67,0.482236,97.81,1
229762,1,8857,0,49006,54901,47814.85,51573.00,1191.15,3328.00,0.482038,97.81,1
229802,1,8897,0,49016,54940,47817.25,51579.74,1198.75,3360.26,0.481840,97.82,1
229842,1,8937,0,49019,54959,47819.66,51586.50,1199.34,3372.50,0.481641,97.82,1
229882,1,8977,0,49025,54976,47822.07,51593.28,1202.93,3382.72,0.481440,97.82,1
229922,1,9017,0,49026,54970,47824.48,51600.04,1201.52,3369.96,0.481239,97.83,1
229962,1,9057,0,49012,54962,47826.85,51606.76,1185.15,3355.24,0.481037,97.83,1
230002,1,9097,0,49020,54995,47829.24,51613.54,1190.76,3381.46,0.480835,97.84,1
230042,1,9137,0,49017,54921,47831.61,51620.16,1185.39,3300.84,0.480631,97.84,1
230082,1,9177,0,48969,54842,47833.89,51626.60,1135.11,3215.40,0.480427,97.85,1
230122,1,9217,0,48941,54846,47836.11,51633.04,1104.89,3212.96,0.480222,97.85,1
230162,1,9257,0,48951,54870,47838.34,51639.52,1112.66,3230.48,0.480016,97.85,1
230202,1,9297,0,48960,54890,47840.58,51646.02,1119.42,3243.98,0.479809,97.86,1
230242,1,9337,0,48959,54890,47842.82,51652.51,1116.18,3237.49,0.479601,97.86,1
230282,1,9377,0,48934,54847,47845.00,51658.90,1089.00,3188.10,0.479392,97.87,1
230323,1,9418,0,48915,54833,47847.14,51665.25,1067.86,3167.75,0.479182,97.87,1
230363,1,9458,0,48906,54820,47849.26,51671.56,1056.74,3148.44,0.478970,97.88,1
230403,1,9498,0,48884,54775,47851.33,51677.77,1032.67,3097.23,0.478758,97.88,1
230443,1,9538,0,48859,54746,47853.35,51683.91,1005.65,3062.09,0.478544,97.89,1
230483,1,9578,0,48838,54722,47855.32,51689.98,982.68,3032.02,0.478329,97.89,1
230523,1,9618,0,48830,54722,47857.27,51696.05,972.73,3025.95,0.478113,97.90,1
230563,1,9658,0,48832,54673,47859.21,51702.01,972.79,2970.99,0.477895,97.90,1
230603,1,9698,0,48779,54519,47861.05,51707.64,917.95,2811.36,0.477677,97.91,1
230643,1,9738,0,48706,54432,47862.75,51713.09,843.25,2718.91,0.477457,97.91,1
230683,1,9778,0,48674,54384,47864.37,51718.44,809.63,2665.56,0.477236,97.91,1
230723,1,9818,0,48664,54402,47865.97,51723.80,798.03,2678.20,0.477014,97.92,1
230763,1,9858,0,48674,54427,47867.59,51729.21,806.41,2697.79,0.476790,97.92,1
230803,1,9898,0,48676,54397,47869.21,51734.55,806.79,2662.45,0.476565,97.93,1
230844,1,9939,0,48651,54369,47870.77,51739.82,780.23,2629.18,0.476339,97.93,1
230884,1,9979,0,48654,54398,47872.34,51745.13,781.66,2652.87,0.476111,97.94,1
230924,1,10019,0,48661,54397,47873.92,51750.44,787.08,2646.56,0.475882,97.94,1
230964,1,10059,0,48658,54382,47875.49,51755.70,782.51,2626.30,0.475651,97.95,1
231004,1,10099,0,48644,54372,47877.03,51760.94,766.97,2611.06,0.475420,97.95,1
231044,1,10139,0,48632,54345,47878.54,51766.11,753.46,2578.89,0.475187,97.96,1
231084,1,10179,0,48627,54334,47880.04,51771.24,746.96,2562.76,0.474952,97.96,1
231124,1,10219,0,48628,54310,47881.54,51776.32,746.46,2533.68,0.474717,97.97,1
231164,1,10259,0,48591,54156,47882.96,51781.08,708.04,2374.92,0.474481,97.97,1
231204,1,10299,0,48520,54053,47884.23,51785.63,635.77,2267.37,0.474244,97.98,1
231244,1,10339,0,48496,54018,47885.46,51790.09,610.54,2227.91,0.474005,97.98,1
231284,1,10379,0,48485,54015,47886.66,51794.54,598.34,2220.46,0.473766,97.99,1
231324,1,10419,0,48498,54012,47887.88,51798.98,610.12,2213.02,0.473526,97.99,1
231365,1,10460,0,48492,53986,47889.09,51803.36,602.91,2182.64,0.473285,98.00,1
231405,1,10500,0,48483,53972,47890.28,51807.70,592.72,2164.30,0.473043,98.01,1
231445,1,10540,0,48481,53970,47891.46,51812.02,589.54,2157.98,0.472800,98.01,1
231485,1,10580,0,48478,53937,47892.64,51816.27,585.36,2120.73,0.472556,98.02,1
231525,1,10620,0,48466,53944,47893.79,51820.53,572.21,2123.47,0.472311,98.02,1
231565,1,10660,0,48483,53945,47894.96,51824.78,588.04,2120.22,0.472066,98.03,1
231605,1,10700,0,48471,53904,47896.12,51828.94,574.88,2075.06,0.471819,98.03,1
231645,1,10740,0,48462,53920,47897.25,51833.12,564.75,2086.88,0.471572,98.04,1
231685,1,10780,0,48480,53924,47898.42,51837.30,581.58,2086.70,0.471325,98.04,1
231725,1,10820,0,48453,53770,47899.53,51841.17,553.47,1928.83,0.471077,98.05,1
231765,1,10860,0,48383,53653,47900.50,51844.80,482.50,1808.20,0.470828,98.05,1
231805,1,10900,0,48348,53605,47901.39,51848.32,446.61,1756.68,0.470579,98.06,1
231845,1,10940,0,48344,53616,47902.28,51851.86,441.72,1764.14,0.470330,98.06,1
231886,1,10981,0,48370,53655,47903.21,51855.46,466.79,1799.54,0.470079,98.07,1
231926,1,11021,0,48381,53639,47904.17,51859.04,476.83,1779.96,0.469829,98.08,1
231966,1,11061,0,48368,53612,47905.10,51862.54,462.90,1749.46,0.469578,98.08,1
232006,1,11101,0,48377,53629,47906.05,51866.08,470.95,1762.92,0.469327,98.09,1
232046,1,11141,0,48384,53637,47907.00,51869.62,477.00,1767.38,0.469075,98.09,1
232086,1,11181,0,48390,53639,47907.97,51873.16,482.03,1765.84,0.468823,98.10,1
232126,1,11221,0,48401,53639,47908.96,51876.69,492.04,1762.31,0.468571,98.10,1
232166,1,11261,0,48410,53673,47909.96,51880.29,500.04,1792.71,0.468318,98.11,1
232206,1,11301,0,48429,53683,47911.00,51883.89,518.00,1799.11,0.468065,98.11,1
232246,1,11341,0,48429,53700,47912.04,51887.52,516.96,1812.48,0.467812,98.12,1
232286,1,11381,0,48444,53707,47913.11,51891.16,530.89,1815.84,0.467559,98.13,1
232326,1,11421,0,48423,53575,47914.13,51894.53,508.87,1680.47,0.467306,98.13,1
232366,1,11461,0,48354,53444,47915.01,51897.63,438.99,1546.37,0.467053,98.14,1
232407,1,11502,0,48323,53419,47915.83,51900.68,407.17,1518.32,0.466800,98.14,1
232447,1,11542,0,48340,53475,47916.68,51903.82,423.32,1571.18,0.466547,98.15,1
232487,1,11582,0,48367,53483,47917.58,51906.98,449.42,1576.02,0.466293,98.15,1
232527,1,11622,0,48368,53456,47918.48,51910.08,449.52,1545.92,0.466040,98.16,1
232567,1,11662,0,48356,53440,47919.36,51913.14,436.64,1526.86,0.465787,98.17,1
232607,1,11702,0,48360,53458,47920.24,51916.23,439.76,1541.77,0.465534,98.17,1
232647,1,11742,0,48383,53471,47921.16,51919.34,461.84,1551.66,0.465281,98.18,1
232687,1,11782,0,48394,53475,47922.11,51922.46,471.89,1552.54,0.465028,98.18,1
232727,1,11822,0,48393,53466,47923.05,51925.55,469.95,1540.45,0.464776,98.19,1
232767,1,11862,0,48386,53458,47923.98,51928.61,462.02,1529.39,0.464523,98.20,1
232807,1,11902,0,48390,53445,47924.91,51931.65,465.09,1513.35,0.464271,98.20,1
232847,1,11942,0,48383,53445,47925.83,51934.68,457.17,1510.32,0.464020,98.21,1
232887,1,11982,0,48392,53469,47926.76,51937.75,465.24,1531.25,0.463768,98.21,1
232927,1,12022,0,48384,53347,47927.68,51940.57,456.32,1406.43,0.463517,98.22,1
232968,1,12063,0,48320,53242,47928.46,51943.17,391.54,1298.83,0.463266,98.23,1
233008,1,12103,0,48304,53254,47929.21,51945.79,374.79,1308.21,0.463016,98.23,1
233048,1,12143,0,48335,53322,47930.03,51948.55,404.97,1373.45,0.462766,98.24,1
233088,1,12183,0,48382,53375,47930.93,51951.40,451.07,1423.60,0.462516,98.24,1
233128,1,12223,0,48404,53405,47931.88,51954.31,472.12,1450.69,0.462266,98.25,1
233168,1,12263,0,48416,53421,47932.85,51957.25,483.15,1463.75,0.462018,98.26,1
233208,1,12303,0,48434,53431,47933.86,51960.20,500.14,1470.80,0.461770,98.26,1
233248,1,12343,0,48448,53441,47934.89,51963.16,513.11,1477.84,0.461522,98.27,1
233288,1,12383,0,48452,53455,47935.92,51966.14,516.08,1488.86,0.461276,98.27,1
233328,1,12423,0,48458,53463,47936.97,51969.14,521.03,1493.86,0.461030,98.28,1
233368,1,12463,0,48471,53471,47938.04,51972.14,532.96,1498.86,0.460785,98.29,1
233408,1,12503,0,48469,53478,47939.10,51975.16,529.90,1502.84,0.460540,98.29,1
233448,1,12543,0,48480,53503,47940.18,51978.21,539.82,1524.79,0.460297,98.30,1
233489,1,12584,0,48493,53528,47941.29,51981.32,551.71,1546.68,0.460055,98.30,1
233529,1,12624,0,48487,53411,47942.38,51984.18,544.62,1426.82,0.459813,98.31,1
233569,1,12664,0,48411,53271,47943.32,51986.75,467.68,1284.25,0.459573,98.32,1
233609,1,12704,0,48383,53245,47944.20,51989.27,438.80,1255.73,0.459333,98.32,1
233649,1,12744,0,48408,53328,47945.13,51991.95,462.87,1336.05,0.459094,98.33,1
233689,1,12784,0,48455,53385,47946.15,51994.74,508.85,1390.26,0.458856,98.33,1
233729,1,12824,0,48480,53394,47947.22,51997.54,532.78,1396.46,0.458619,98.34,1
233769,1,12864,0,48487,53397,47948.30,52000.34,538.70,1396.66,0.458384,98.35,1
233809,1,12904,0,48494,53404,47949.39,52003.15,544.61,1400.85,0.458149,98.35,1
233849,1,12944,0,48504,53432,47950.50,52006.01,553.50,1425.99,0.457916,98.36,1
233889,1,12984,0,48523,53455,47951.65,52008.91,571.35,1446.09,0.457685,98.36,1
233929,1,13024,0,48532,53484,47952.81,52011.86,579.19,1472.14,0.457454,98.37,1
233969,1,13064,0,48550,53495,47954.00,52014.83,596.00,1480.17,0.457225,98.38,1
234010,1,13105,0,48547,53480,47955.19,52017.76,591.81,1462.24,0.456998,98.38,1
234050,1,13145,0,48545,53513,47956.37,52020.75,588.63,1492.25,0.456772,98.39,1
234090,1,13185,0,48564,53546,47957.59,52023.80,606.41,1522.20,0.456548,98.39,1
234130,1,13225,0,48549,53390,47958.77,52026.54,590.23,1363.46,0.456325,98.40,1
234170,1,13265,0,48469,53237,47959.79,52028.96,509.21,1208.04,0.456104,98.41,1
234210,1,13305,0,48433,53230,47960.74,52031.36,472.26,1198.64,0.455884,98.41,1
234250,1,13345,0,48461,53285,47961.74,52033.87,499.26,1251.13,0.455666,98.42,1
234290,1,13385,0,48500,53349,47962.82,52036.50,537.18,1312.50,0.455448,98.42,1
234330,1,13425,0,48537,53391,47963.97,52039.21,573.03,1351.79,0.455233,98.43,1
234370,1,13465,0,48544,53392,47965.13,52041.92,578.87,1350.08,0.455019,98.44,1
234410,1,13505,0,48546,53399,47966.29,52044.64,579.71,1354.36,0.454807,98.44,1
234450,1,13545,0,48567,53436,47967.50,52047.42,599.50,1388.58,0.454597,98.45,1
234490,1,13585,0,48577,53449,47968.71,52050.23,608.29,1398.77,0.454388,98.45,1
234530,1,13625,0,48581,53470,47969.94,52053.07,611.06,1416.93,0.454182,98.46,1
234571,1,13666,0,48590,53477,47971.18,52055.91,618.82,1421.09,0.453977,98.46,1
234611,1,13706,0,48588,53486,47972.42,52058.78,615.58,1427.22,0.453775,98.47,1
234651,1,13746,0,48605,53544,47973.68,52061.75,631.32,1482.25,0.453574,98.48,1
234691,1,13786,0,48634,53522,47975.00,52064.67,659.00,1457.33,0.453376,98.48,1
234731,1,13826,0,48580,53333,47976.21,52067.21,603.79,1265.79,0.453180,98.49,1
234771,1,13866,0,48506,53240,47977.28,52069.56,528.72,1170.44,0.452985,98.49,1
234811,1,13906,0,48505,53275,47978.34,52071.97,526.66,1203.03,0.452792,98.50,1
234851,1,13946,0,48556,53379,47979.49,52074.59,576.51,1304.41,0.452601,98.50,1
234891,1,13986,0,48590,53420,47980.71,52077.28,609.29,1342.72,0.452413,98.51,1
234931,1,14026,0,48601,53414,47981.96,52079.96,619.04,1334.04,0.452226,98.52,1
234971,1,14066,0,48595,53370,47983.18,52082.54,611.82,1287.46,0.452042,98.52,1
235011,1,14106,0,48578,53353,47984.37,52085.08,593.62,1267.92,0.451859,98.53,1
235051,1,14146,0,48569,53328,47985.55,52087.57,583.45,1240.43,0.451679,98.53,1
235091,1,14186,0,48555,53306,47986.69,52090.01,568.31,1215.99,0.451501,98.54,1
235132,1,14227,0,48552,53325,47987.82,52092.48,564.18,1232.52,0.451325,98.54,1
235172,1,14267,0,48562,53349,47988.97,52095.00,573.03,1254.00,0.451151,98.55,1
235212,1,14307,0,48564,53349,47990.12,52097.50,573.88,1251.50,0.450978,98.55,1
235252,1,14347,0,48577,53356,47991.30,52100.02,585.70,1255.98,0.450808,98.56,1
235292,1,14387,0,48534,53150,47992.38,52102.12,541.62,1047.88,0.450640,98.56,1
235332,1,14427,0,48443,53007,47993.29,52103.94,449.71,903.06,0.450473,98.57,1
235372,1,14467,0,48432,53037,47994.16,52105.80,437.84,931.20,0.450308,98.57,1
235412,1,14507,0,48475,53119,47995.13,52107.83,479.87,1011.17,0.450145,98.58,1
235452,1,14547,0,48501,53167,47996.14,52109.95,504.86,1057.05,0.449983,98.58,1
235492,1,14587,0,48531,53190,47997.21,52112.11,533.79,1077.89,0.449823,98.59,1
235532,1,14627,0,48522,53158,47998.26,52114.21,523.74,1043.79,0.449665,98.59,1
235572,1,14667,0,48497,53092,47999.26,52116.16,497.74,975.84,0.449509,98.60,1
235612,1,14707,0,48463,53024,48000.19,52117.98,462.81,906.02,0.449355,98.60,1
235653,1,14748,0,48443,53013,48001.08,52119.77,441.92,893.23,0.449203,98.61,1
235693,1,14788,0,48457,53049,48001.99,52121.63,455.01,927.37,0.449051,98.61,1
235733,1,14828,0,48459,53067,48002.91,52123.52,456.09,943.48,0.448902,98.62,1
235773,1,14868,0,48478,53120,48003.86,52125.52,474.14,994.48,0.448754,98.62,1
235813,1,14908,0,48504,53095,48004.86,52127.46,499.14,967.54,0.448608,98.63,1
235853,1,14948,0,48432,52823,48005.71,52128.85,426.29,694.15,0.448464,98.63,1
235893,1,14988,0,48326,52678,48006.36,52129.95,319.64,548.05,0.448321,98.64,1
235933,1,15028,0,48316,52706,48006.98,52131.11,309.02,574.89,0.448179,98.64,1
235973,1,15068,0,48337,52712,48007.64,52132.27,329.36,579.73,0.448038,98.65,1
236013,1,15108,0,48328,52694,48008.28,52133.39,319.72,560.61,0.447899,98.65,1
236053,1,15148,0,48342,52754,48008.95,52134.64,333.05,619.36,0.447761,98.66,1
236093,1,15188,0,48367,52765,48009.66,52135.90,357.34,629.10,0.447624,98.66,1
236133,1,15228,0,48355,52739,48010.36,52137.11,344.64,601.89,0.447488,98.67,1
236174,1,15269,0,48355,52754,48011.05,52138.34,343.95,615.66,0.447354,98.67,1
236214,1,15309,0,48367,52769,48011.76,52139.60,355.24,629.40,0.447221,98.68,1
236254,1,15349,0,48365,52783,48012.47,52140.89,352.53,642.11,0.447089,98.68,1
236294,1,15389,0,48375,52797,48013.20,52142.20,361.80,654.80,0.446959,98.68,1
236334,1,15429,0,48374,52784,48013.92,52143.49,360.08,640.51,0.446830,98.69,1
236374,1,15469,0,48349,52638,48014.59,52144.48,334.41,493.52,0.446703,98.69,1
236414,1,15509,0,48264,52450,48015.09,52145.09,248.91,304.91,0.446577,98.70,1
236454,1,15549,0,48224,52432,48015.51,52145.67,208.49,286.33,0.446451,98.70,1
236494,1,15589,0,48251,52535,48015.98,52146.45,235.02,388.55,0.446326,98.71,1
236534,1,15629,0,48320,52655,48016.59,52147.47,303.41,507.53,0.446203,98.71,1
236574,1,15669,0,48363,52717,48017.29,52148.61,345.71,568.39,0.446081,98.71,1
236614,1,15709,0,48381,52752,48018.02,52149.82,362.98,602.18,0.445961,98.72,1
236654,1,15749,0,48404,52821,48018.79,52151.16,385.21,669.84,0.445842,98.72,1
236694,1,15789,0,48434,52868,48019.62,52152.59,414.38,715.41,0.445725,98.73,1
236735,1,15830,0,48458,52949,48020.50,52154.19,437.50,794.81,0.445610,98.73,1
236775,1,15870,0,48496,53066,48021.45,52156.01,474.55,909.99,0.445496,98.73,1
236815,1,15910,0,48558,53226,48022.53,52158.15,535.47,1067.85,0.445386,98.74,1
236855,1,15950,0,48626,53324,48023.73,52160.48,602.27,1163.52,0.445278,98.74,1
236895,1,15990,0,48668,53396,48025.02,52162.96,642.98,1233.04,0.445173,98.75,1
236935,1,16030,0,48654,53228,48026.28,52165.09,627.72,1062.91,0.445072,98.75,1
236975,1,16070,0,48580,53128,48027.39,52167.02,552.61,960.98,0.444974,98.75,1
237015,1,16110,0,48583,53178,48028.50,52169.04,554.50,1008.96,0.444879,98.76,1
237055,1,16150,0,48624,53299,48029.70,52171.30,594.30,1127.70,0.444787,98.76,1
237095,1,16190,0,48674,53369,48030.98,52173.70,643.02,1195.30,0.444698,98.76,1
237135,1,16230,0,48690,53370,48032.30,52176.09,657.70,1193.91,0.444613,98.77,1
237175,1,16270,0,48687,53388,48033.62,52178.52,653.38,1209.48,0.444531,98.77,1
237215,1,16310,0,48705,53461,48034.96,52181.09,670.04,1279.91,0.444453,98.78,1
237256,1,16351,0,48743,53537,48036.38,52183.80,706.62,1353.20,0.444379,98.78,1
237296,1,16391,0,48780,53647,48037.87,52186.73,742.13,1460.27,0.444308,98.78,1
237336,1,16431,0,48846,53790,48039.48,52189.94,806.52,1600.06,0.444242,98.79,1
237376,1,16471,0,48893,53844,48041.19,52193.25,851.81,1650.75,0.444181,98.79,1
237416,1,16511,0,48897,53850,48042.90,52196.56,854.10,1653.44,0.444124,98.79,1
237456,1,16551,0,48900,53866,48044.62,52199.90,855.38,1666.10,0.444073,98.80,1
237496,1,16591,0,48905,53850,48046.34,52203.20,858.66,1646.80,0.444027,98.80,1
237536,1,16631,0,48910,53898,48048.07,52206.59,861.93,1691.41,0.443985,98.80,1
237576,1,16671,0,48962,54051,48049.90,52210.29,912.10,1840.71,0.443948,98.80,1
237616,1,16711,0,49039,54209,48051.88,52214.29,987.12,1994.71,0.443916,98.81,1
237656,1,16751,0,49098,54346,48053.97,52218.55,1044.03,2127.45,0.443890,98.81,1
237696,1,16791,0,49149,54405,48056.16,52222.93,1092.84,2182.07,0.443870,98.81,1
237736,1,16831,0,49134,54306,48058.32,52227.09,1075.68,2078.91,0.443857,98.82,1
237776,1,16871,0,49085,54246,48060.37,52231.13,1024.63,2014.87,0.443849,98.82,1
237817,1,16912,0,49070,54247,48062.39,52235.16,1007.61,2011.84,0.443847,98.82,1
237857,1,16952,0,49068,54246,48064.41,52239.19,1003.59,2006.81,0.443849,98.82,1
237897,1,16992,0,49070,54281,48066.42,52243.27,1003.58,2037.73,0.443856,98.83,1
237937,1,17032,0,49081,54293,48068.45,52247.37,1012.55,2045.63,0.443867,98.83,1
237977,1,17072,0,49080,54304,48070.47,52251.49,1009.53,2052.51,0.443882,98.83,1
238017,1,17112,0,49090,54366,48072.51,52255.72,1017.49,2110.28,0.443901,98.83,1
238057,1,17152,0,49115,54322,48074.60,52259.85,1040.40,2062.15,0.443925,98.83,1
238097,1,17192,0,49063,54149,48076.57,52263.63,986.43,1885.37,0.443953,98.84,1
238137,1,17232,0,48998,54057,48078.42,52267.22,919.58,1789.78,0.443985,98.84,1
238177,1,17272,0,48978,54067,48080.22,52270.82,897.78,1796.18,0.444021,98.84,1
238217,1,17312,0,49000,54122,48082.06,52274.53,917.94,1847.47,0.444059,98.84,1
238257,1,17352,0,49021,54157,48083.94,52278.29,937.06,1878.71,0.444101,98.84,1
238297,1,17392,0,49020,54140,48085.81,52282.02,934.19,1857.98,0.444147,98.85,1
238337,1,17432,0,49010,54134,48087.66,52285.73,922.34,1848.27,0.444195,98.85,1
238378,1,17473,0,49015,54179,48089.52,52289.52,925.48,1889.48,0.444246,98.85,1
238418,1,17513,0,49034,54222,48091.41,52293.38,942.59,1928.62,0.444300,98.85,1
238458,1,17553,0,49050,54249,48093.33,52297.30,956.67,1951.70,0.444356,98.85,1
238498,1,17593,0,49058,54282,48095.26,52301.27,962.74,1980.73,0.444415,98.85,1
238538,1,17633,0,49074,54327,48097.21,52305.32,976.79,2021.68,0.444477,98.85,1
238578,1,17673,0,49096,54379,48099.21,52309.47,996.79,2069.53,0.444541,98.85,1
238618,1,17713,0,49119,54417,48101.25,52313.69,1017.75,2103.31,0.444608,98.86,1
238658,1,17753,0,49132,54408,48103.32,52317.88,1028.68,2090.12,0.444678,98.86,1
238698,1,17793,0,49095,54300,48105.30,52321.84,989.70,1978.16,0.444751,98.86,1
238738,1,17833,0,49056,54248,48107.20,52325.70,948.80,1922.30,0.444827,98.86,1
238778,1,17873,0,49051,54294,48109.09,52329.64,941.91,1964.36,0.444904,98.86,1
238818,1,17913,0,49079,54367,48111.04,52333.71,967.96,2033.29,0.444983,98.86,1
238858,1,17953,0,49105,54420,48113.02,52337.89,991.98,2082.11,0.445064,98.86,1
238899,1,17994,0,49118,54433,48115.04,52342.08,1002.96,2090.92,0.445147,98.86,1
238939,1,18034,0,49119,54477,48117.04,52346.35,1001.96,2130.65,0.445232,98.86,1
238979,1,18074,0,49146,54533,48119.10,52350.72,1026.90,2182.28,0.445318,98.86,1
239019,1,18114,0,49162,54573,48121.19,52355.17,1040.81,2217.83,0.445406,98.86,1
239059,1,18154,0,49185,54635,48123.32,52359.73,1061.68,2275.27,0.445496,98.86,1
239099,1,18194,0,49213,54673,48125.50,52364.36,1087.50,2308.64,0.445587,98.86,1
239139,1,18234,0,49223,54706,48127.69,52369.04,1095.31,2336.96,0.445679,98.86,1
239179,1,18274,0,49233,54715,48129.90,52373.73,1103.10,2341.27,0.445774,98.86,1
239219,1,18314,0,49230,54724,48132.11,52378.44,1097.89,2345.56,0.445870,98.86,1
239259,1,18354,0,49229,54722,48134.30,52383.12,1094.70,2338.88,0.445967,98.86,1
239299,1,18394,0,49212,54633,48136.46,52387.62,1075.54,2245.38,0.446066,98.86,1
239339,1,18434,0,49165,54569,48138.52,52391.99,1026.48,2177.01,0.446166,98.86,1
239380,1,18475,0,49162,54625,48140.56,52396.46,1021.44,2228.54,0.446267,98.86,1
239420,1,18515,0,49194,54697,48142.67,52401.06,1051.33,2295.94,0.446369,98.86,1
239460,1,18555,0,49210,54725,48144.81,52405.71,1065.19,2319.29,0.446472,98.86,1
239500,1,18595,0,49225,54760,48146.97,52410.42,1078.03,2349.58,0.446575,98.86,1
239540,1,18635,0,49234,54779,48149.14,52415.16,1084.86,2363.84,0.446678,98.86,1
239580,1,18675,0,49244,54790,48151.34,52419.91,1092.66,2370.09,0.446783,98.86,1
239620,1,18715,0,49252,54788,48153.54,52424.64,1098.46,2363.36,0.446889,98.85,1
239660,1,18755,0,49242,54758,48155.72,52429.31,1086.28,2328.69,0.446995,98.85,1
239700,1,18795,0,49217,54711,48157.84,52433.88,1059.16,2277.12,0.447103,98.85,1
239740,1,18835,0,49202,54694,48159.93,52438.40,1042.07,2255.60,0.447211,98.85,1
239780,1,18875,0,49191,54699,48162.00,52442.93,1029.00,2256.07,0.447319,98.85,1
239820,1,18915,0,49186,54699,48164.05,52447.44,1021.95,2251.56,0.447427,98.85,1
239861,1,18956,0,49182,54667,48166.09,52451.88,1015.91,2215.12,0.447536,98.85,1
239901,1,18996,0,49156,54586,48168.07,52456.15,987.93,2129.85,0.447646,98.85,1
239941,1,19036,0,49126,54580,48169.98,52460.40,956.02,2119.60,0.447756,98.85,1
239981,1,19076,0,49140,54626,48171.93,52464.73,968.07,2161.27,0.447865,98.84,1
240021,1,19116,0,49172,54709,48173.93,52469.22,998.07,2239.78,0.447974,98.84,1
240061,1,19156,0,49200,54758,48175.98,52473.80,1024.02,2284.20,0.448083,98.84,1
240101,1,19196,0,49215,54777,48178.06,52478.41,1036.94,2298.59,0.448192,98.84,1
240141,1,19236,0,49233,54813,48180.17,52483.08,1052.83,2329.92,0.448302,98.84,1
240181,1,19276,0,49243,54829,48182.29,52487.77,1060.71,2341.23,0.448411,98.84,1
240221,1,19316,0,49244,54853,48184.42,52492.50,1059.58,2360.50,0.448520,98.84,1
240261,1,19356,0,49270,54901,48186.59,52497.32,1083.41,2403.68,0.448630,98.83,1
240301,1,19396,0,49277,54910,48188.77,52502.14,1088.23,2407.86,0.448739,98.83,1
240341,1,19436,0,49278,54935,48190.95,52507.01,1087.05,2427.99,0.448849,98.83,1
240382,1,19477,0,49287,54974,48193.14,52511.95,1093.86,2462.05,0.448958,98.83,1
240422,1,19517,0,49299,55009,48195.36,52516.94,1103.64,2492.06,0.449066,98.83,1
240462,1,19557,0,49299,54942,48197.57,52521.79,1101.43,2420.21,0.449175,98.83,1
240502,1,19597,0,49250,54811,48199.67,52526.37,1050.33,2284.63,0.449284,98.82,1
240542,1,19637,0,49203,54756,48201.68,52530.83,1001.32,2225.17,0.449393,98.82,1
240582,1,19677,0,49193,54782,48203.66,52535.34,989.34,2246.66,0.449502,98.82,1
240622,1,19717,0,49227,54842,48205.71,52539.95,1021.29,2302.05,0.449610,98.82,1
240662,1,19757,0,49250,54863,48207.80,52544.60,1042.20,2318.40,0.449719,98.82,1
240702,1,19797,0,49249,54877,48209.88,52549.27,1039.12,2327.73,0.449827,98.82,1
240742,1,19837,0,49273,54933,48212.01,52554.04,1060.99,2378.96,0.449935,98.81,1
240782,1,19877,0,49296,54970,48214.18,52558.87,1081.82,2411.13,0.450042,98.81,1
240822,1,19917,0,49304,54997,48216.36,52563.75,1087.64,2433.25,0.450150,98.81,1
240862,1,19957,0,49313,55028,48218.55,52568.68,1094.45,2459.32,0.450257,98.81,1
240903,1,19998,0,49329,55065,48220.78,52573.67,1108.22,2491.33,0.450364,98.81,1
240943,1,20038,1,49338,55091,48223.01,52578.70,1114.99,2512.30,0.450470,98.80,1
240983,1,20078,1,49343,55107,48225.25,52583.76,1117.75,2523.24,0.450577,98.80,1
241023,1,20118,1,49353,55145,48227.51,52588.89,1125.49,2556.11,0.450682,98.80,1
241063,1,20158,1,49374,55151,48229.80,52594.01,1144.20,2556.99,0.450788,98.80,1
241103,1,20198,1,49339,54991,48232.02,52598.81,1106.98,2392.19,0.450894,98.80,1
241143,1,20238,1,49271,54859,48234.10,52603.33,1036.90,2255.67,0.451000,98.79,1
241183,1,20278,1,49239,54810,48236.11,52607.75,1002.89,2202.25,0.451107,98.79,1
241223,1,20318,1,49233,54857,48238.11,52612.25,994.89,2244.75,0.451213,98.79,1
241263,1,20358,1,49269,54915,48240.17,52616.85,1028.83,2298.15,0.451319,98.79,1
241303,1,20398,1,49289,54922,48242.27,52621.46,1046.73,2300.54,0.451425,98.78,1
241343,1,20438,1,49286,54923,48244.36,52626.07,1041.64,2296.93,0.451531,98.78,1
241383,1,20478,1,49287,54924,48246.45,52630.67,1040.55,2293.33,0.451637,98.78,1
241424,1,20519,1,49286,54916,48248.53,52635.24,1037.47,2280.76,0.451743,98.78,1
241464,1,20559,1,49281,54917,48250.59,52639.80,1030.41,2277.20,0.451850,98.78,1
241504,1,20599,1,49283,54930,48252.66,52644.39,1030.34,2285.61,0.451956,98.77,1
241544,1,20639,1,49293,54944,48254.74,52648.99,1038.26,2295.01,0.452062,98.77,1
241584,1,20679,1,49304,54967,48256.84,52653.62,1047.16,2313.38,0.452168,98.77,1
241624,1,20719,1,49311,54979,48258.95,52658.28,1052.05,2320.72,0.452274,98.77,1
241664,1,20759,1,49313,54978,48261.06,52662.92,1051.94,2315.08,0.452381,98.76,1
241704,1,20799,1,49319,55007,48263.18,52667.61,1055.82,2339.39,0.452487,98.76,1
241744,1,20839,1,49337,54963,48265.33,52672.20,1071.67,2290.80,0.452594,98.76,1
241784,1,20879,1,49278,54779,48267.36,52676.42,1010.64,2102.58,0.452701,98.76,1
241824,1,20919,1,49214,54709,48269.25,52680.48,944.75,2028.52,0.452809,98.76,1
241864,1,20959,1,49214,54756,48271.14,52684.64,942.86,2071.36,0.452917,98.75,1
241904,1,20999,1,49243,54808,48273.09,52688.89,969.91,2119.11,0.453025,98.75,1
241945,1,21040,1,49261,54833,48275.06,52693.18,985.94,2139.82,0.453134,98.75,1
241985,1,21080,1,49269,54822,48277.05,52697.43,991.95,2124.57,0.453242,98.75,1
242025,1,21120,1,49261,54838,48279.02,52701.71,981.98,2136.29,0.453351,98.74,1
242065,1,21160,1,49276,54872,48281.02,52706.06,994.98,2165.94,0.453460,98.74,1
242105,1,21200,1,49292,54909,48283.04,52710.46,1008.96,2198.54,0.453569,98.74,1
242145,1,21240,1,49307,54957,48285.09,52714.96,1021.91,2242.04,0.453678,98.74,1
242185,1,21280,1,49336,55019,48287.19,52719.57,1048.81,2299.43,0.453787,98.73,1
242225,1,21320,1,49371,55089,48289.36,52724.31,1081.64,2364.69,0.453896,98.73,1
242265,1,21360,1,49396,55126,48291.57,52729.11,1104.43,2396.89,0.454006,98.73,1
242305,1,21400,1,49404,55141,48293.80,52733.94,1110.20,2407.06,0.454115,98.73,1
242345,1,21440,1,49414,55165,48296.04,52738.80,1117.96,2426.20,0.454225,98.72,1
242385,1,21480,1,49424,55197,48298.30,52743.72,1125.70,2453.28,0.454335,98.72,1
242425,1,21520,1,49415,55106,48300.54,52748.45,1114.46,2357.55,0.454446,98.72,1
242465,1,21560,1,49349,54966,48302.63,52752.88,1046.37,2213.12,0.454558,98.72,1
242506,1,21601,1,49307,54925,48304.64,52757.23,1002.36,2167.77,0.454669,98.71,1
242546,1,21641,1,49306,54967,48306.65,52761.65,999.35,2205.35,0.454781,98.71,1
242586,1,21681,1,49337,55048,48308.71,52766.22,1028.29,2281.78,0.454892,98.71,1
242626,1,21721,1,49370,55085,48310.84,52770.86,1059.16,2314.14,0.455003,98.71,1
242666,1,21761,1,49367,55072,48312.95,52775.47,1054.05,2296.53,0.455114,98.70,1
242706,1,21801,1,49367,55097,48315.06,52780.11,1051.94,2316.89,0.455225,98.70,1
242746,1,21841,1,49389,55130,48317.21,52784.81,1071.79,2345.19,0.455337,98.70,1
242786,1,21881,1,49401,55143,48319.37,52789.53,1081.63,2353.47,0.455448,98.70,1
242826,1,21921,1,49405,55164,48321.55,52794.28,1083.45,2369.72,0.455559,98.69,1
242866,1,21961,1,49416,55211,48323.74,52799.12,1092.26,2411.88,0.455670,98.69,1
242906,1,22001,1,49430,55223,48325.95,52803.96,1104.05,2419.04,0.455781,98.69,1
242946,1,22041,1,49427,55243,48328.16,52808.84,1098.84,2434.16,0.455892,98.69,1
242986,1,22081,1,49437,55264,48330.37,52813.75,1106.63,2450.25,0.456002,98.68,1
243026,1,22121,1,49439,55272,48332.59,52818.67,1106.41,2453.33,0.456113,98.68,1
243067,1,22162,1,49437,55300,48334.80,52823.64,1102.20,2476.36,0.456222,98.68,1
243107,1,22202,1,49440,55213,48337.02,52828.42,1102.98,2384.58,0.456332,98.68,1
243147,1,22242,1,49368,55052,48339.08,52832.87,1028.92,2219.13,0.456443,98.67,1
243187,1,22282,1,49322,55003,48341.05,52837.21,980.95,2165.79,0.456553,98.67,1
243227,1,22322,1,49315,55034,48343.00,52841.60,972.00,2192.40,0.456662,98.67,1
243267,1,22362,1,49342,55098,48345.00,52846.12,997.00,2251.88,0.456771,98.67,1
243307,1,22402,1,49365,55113,48347.04,52850.65,1017.96,2262.35,0.456880,98.66,1
243347,1,22442,1,49366,55102,48349.08,52855.16,1016.92,2246.84,0.456988,98.66,1
243387,1,22482,1,49359,55109,48351.10,52859.66,1007.90,2249.34,0.457096,98.66,1
243427,1,22522,1,49368,55131,48353.13,52864.21,1014.87,2266.79,0.457204,98.65,1
243467,1,22562,1,49373,55138,48355.17,52868.76,1017.83,2269.24,0.457311,98.65,1
243507,1,22602,1,49371,55151,48357.20,52873.32,1013.80,2277.68,0.457418,98.65,1
243547,1,22642,1,49376,55180,48359.24,52877.94,1016.76,2302.06,0.457524,98.65,1
243588,1,22683,1,49383,55203,48361.29,52882.59,1021.71,2320.41,0.457630,98.64,1
243628,1,22723,1,49399,55258,48363.37,52887.34,1035.63,2370.66,0.457734,98.64,1
243668,1,22763,1,49416,55292,48365.47,52892.16,1050.53,2399.84,0.457838,98.64,1
243708,1,22803,1,49423,55299,48367.59,52896.97,1055.41,2402.03,0.457942,98.64,1
243748,1,22843,1,49419,55321,48369.70,52901.82,1049.30,2419.18,0.458044,98.63,1
243788,1,22883,1,49432,55314,48371.82,52906.64,1060.18,2407.36,0.458146,98.63,1
243828,1,22923,1,49396,55139,48373.87,52911.11,1022.13,2227.89,0.458248,98.63,1
243868,1,22963,1,49325,55011,48375.77,52915.31,949.23,2095.69,0.458350,98.63,1
243908,1,23003,1,49283,54965,48377.59,52919.41,905.41,2045.59,0.458451,98.62,1
243948,1,23043,1,49280,55016,48379.39,52923.61,900.61,2092.39,0.458552,98.62,1
243988,1,23083,1,49312,55048,48381.26,52927.86,930.74,2120.14,0.458652,98.62,1
244028,1,23123,1,49311,55039,48383.12,52932.08,927.88,2106.92,0.458751,98.62,1
244068,1,23163,1,49301,55036,48384.96,52936.29,916.04,2099.71,0.458850,98.61,1
244108,1,23203,1,49302,55042,48386.79,52940.50,915.21,2101.50,0.458948,98.61,1
244149,1,23244,1,49303,55052,48388.62,52944.72,914.37,2107.28,0.459045,98.61,1
244189,1,23284,1,49305,55080,48390.46,52949.00,914.54,2131.00,0.459142,98.61,1
244229,1,23324,1,49315,55091,48392.31,52953.28,922.69,2137.72,0.459237,98.60,1
244269,1,23364,1,49316,55104,48394.16,52957.59,921.84,2146.41,0.459332,98.60,1
244309,1,23404,1,49325,55144,48396.02,52961.96,928.98,2182.04,0.459426,98.60,1
244349,1,23444,1,49343,55163,48397.92,52966.36,945.08,2196.64,0.459519,98.59,1
244389,1,23484,1,49340,55160,48399.80,52970.75,940.20,2189.25,0.459612,98.59,1
244429,1,23524,1,49350,55181,48401.71,52975.17,948.29,2205.83,0.459703,98.59,1
244469,1,23564,1,49360,55171,48403.62,52979.57,956.37,2191.43,0.459794,98.59,1
244509,1,23604,1,49306,54945,48405.43,52983.50,900.57,1961.50,0.459885,98.58,1
244549,1,23644,1,49214,54805,48407.05,52987.14,806.95,1817.86,0.459976,98.58,1
244589,1,23684,1,49173,54759,48408.58,52990.69,764.42,1768.31,0.460066,98.58,1
244629,1,23724,1,49173,54796,48410.11,52994.30,762.89,1801.70,0.460155,98.58,1
244670,1,23765,1,49196,54821,48411.68,52997.96,784.32,1823.04,0.460244,98.57,1
244710,1,23805,1,49192,54801,48413.25,53001.57,778.75,1799.43,0.460332,98.57,1
244750,1,23845,1,49176,54786,48414.77,53005.14,761.23,1780.86,0.460420,98.57,1
244790,1,23885,1,49186,54825,48416.32,53008.78,769.68,1816.22,0.460507,98.57,1
244830,1,23925,1,49207,54841,48417.90,53012.45,789.10,1828.55,0.460593,98.56,1
244870,1,23965,1,49206,54846,48419.48,53016.11,786.52,1829.89,0.460678,98.56,1
244910,1,24005,1,49219,54878,48421.08,53019.84,797.92,1858.16,0.460763,98.56,1
244950,1,24045,1,49233,54894,48422.70,53023.59,810.30,1870.41,0.460848,98.56,1
244990,1,24085,1,49240,54925,48424.34,53027.39,815.66,1897.61,0.460932,98.56,1
245030,1,24125,1,49248,54931,48425.99,53031.20,822.01,1899.80,0.461015,98.55,1
245070,1,24165,1,49243,54915,48427.62,53034.97,815.37,1880.03,0.461098,98.55,1
245110,1,24205,1,49233,54918,48429.24,53038.74,803.76,1879.26,0.461180,98.55,1
245150,1,24245,1,49234,54854,48430.85,53042.37,803.15,1811.63,0.461262,98.55,1
245190,1,24285,1,49157,54609,48432.30,53045.50,724.70,1563.50,0.461344,98.54,1
245231,1,24326,1,49068,54488,48433.57,53048.39,634.43,1439.61,0.461425,98.54,1
245271,1,24366,1,49049,54491,48434.80,53051.28,614.20,1439.72,0.461507,98.54,1
245311,1,24406,1,49066,54552,48436.07,53054.28,629.93,1497.72,0.461587,98.54,1
245351,1,24446,1,49104,54599,48437.40,53057.37,666.60,1541.63,0.461667,98.53,1
245391,1,24486,1,49119,54597,48438.77,53060.45,680.23,1536.55,0.461747,98.53,1
245431,1,24526,1,49109,54578,48440.11,53063.49,668.89,1514.51,0.461827,98.53,1
245471,1,24566,1,49116,54594,48441.46,53066.55,674.54,1527.45,0.461906,98.53,1
245511,1,24606,1,49127,54602,48442.83,53069.62,684.17,1532.38,0.461985,98.52,1
245551,1,24646,1,49126,54610,48444.20,53072.71,681.80,1537.29,0.462064,98.52,1
245591,1,24686,1,49137,54636,48445.58,53075.84,691.42,1560.16,0.462143,98.52,1
245631,1,24726,1,49148,54655,48446.99,53079.00,701.01,1576.00,0.462221,98.52,1
245671,1,24766,1,49154,54669,48448.40,53082.18,705.60,1586.82,0.462300,98.52,1
245711,1,24806,1,49150,54675,48449.81,53085.36,700.19,1589.64,0.462378,98.51,1
245752,1,24847,1,49164,54716,48451.24,53088.62,712.76,1627.38,0.462455,98.51,1
245792,1,24887,1,49181,54733,48452.70,53091.91,728.30,1641.09,0.462533,98.51,1
245832,1,24927,1,49135,54512,48454.07,53094.75,680.93,1417.25,0.462610,98.51,1
245872,1,24967,1,49034,54310,48455.23,53097.19,578.77,1212.81,0.462688,98.50,1
245912,1,25007,1,48982,54273,48456.28,53099.54,525.72,1173.46,0.462766,98.50,1
245952,1,25047,1,49002,54345,48457.37,53102.03,544.62,1242.97,0.462844,98.50,1
245992,1,25087,1,49037,54388,48458.54,53104.61,578.46,1283.39,0.462921,98.50,1
246032,1,25127,1,49063,54402,48459.75,53107.20,603.25,1294.80,0.462998,98.50,1
246072,1,25167,1,49056,54352,48460.94,53109.70,595.06,1242.30,0.463076,98.49,1
246112,1,25207,1,49035,54345,48462.09,53112.17,572.91,1232.83,0.463154,98.49,1
246152,1,25247,1,49049,54383,48463.27,53114.71,585.73,1268.29,0.463232,98.49,1
246192,1,25287,1,49071,54432,48464.48,53117.35,606.52,1314.65,0.463309,98.49,1
246232,1,25327,1,49094,54483,48465.74,53120.08,628.26,1362.92,0.463387,98.48,1
246272,1,25367,1,49113,54522,48467.04,53122.89,645.96,1399.11,0.463465,98.48,1
246313,1,25408,1,49128,54576,48468.36,53125.79,659.64,1450.21,0.463543,98.48,1
246353,1,25448,1,49145,54611,48469.72,53128.77,675.28,1482.23,0.463621,98.48,1
246393,1,25488,1,49154,54625,48471.09,53131.76,682.91,1493.24,0.463699,98.48,1
246433,1,25528,1,49161,54657,48472.47,53134.81,688.53,1522.19,0.463776,98.47,1
246473,1,25568,1,49145,54465,48473.82,53137.47,671.18,1327.53,0.463855,98.47,1
246513,1,25608,1,49028,54198,48474.93,53139.59,553.07,1058.41,0.463934,98.47,1
246553,1,25648,1,48956,54118,48475.89,53141.55,480.11,976.45,0.464013,98.47,1
246593,1,25688,1,48954,54154,48476.85,53143.57,477.15,1010.43,0.464092,98.47,1
246633,1,25728,1,48989,54212,48477.88,53145.71,511.12,1066.29,0.464172,98.46,1
246673,1,25768,1,49006,54227,48478.94,53147.87,527.06,1079.13,0.464252,98.46,1
246713,1,25808,1,49015,54224,48480.01,53150.03,534.99,1073.97,0.464332,98.46,1
246753,1,25848,1,49007,54213,48481.07,53152.16,525.93,1060.84,0.464412,98.46,1
246793,1,25888,1,49012,54229,48482.13,53154.31,529.87,1074.69,0.464493,98.46,1
246834,1,25929,1,49012,54234,48483.19,53156.47,528.81,1077.53,0.464573,98.45,1
246874,1,25969,1,49018,54261,48484.26,53158.68,533.74,1102.32,0.464654,98.45,1
246914,1,26009,1,49031,54297,48485.36,53160.96,545.64,1136.04,0.464736,98.45,1
246954,1,26049,1,49048,54325,48486.48,53163.29,561.52,1161.71,0.464817,98.45,1
246994,1,26089,1,49058,54360,48487.62,53165.68,570.37,1194.32,0.464899,98.44,1
247034,1,26129,1,49081,54392,48488.81,53168.14,592.19,1223.86,0.464981,98.44,1
247074,1,26169,1,49093,54418,48490.02,53170.64,602.98,1247.36,0.465063,98.44,1
247114,1,26209,1,49081,54213,48491.21,53172.72,589.79,1040.28,0.465147,98.44,1
247154,1,26249,1,48955,53944,48492.14,53174.27,462.86,769.73,0.465231,98.44,1
247194,1,26289,1,48887,53856,48492.93,53175.63,394.07,680.37,0.465316,98.43,1
247234,1,26329,1,48887,53904,48493.71,53177.09,393.29,726.91,0.465401,98.43,1
247274,1,26369,1,48927,53975,48494.58,53178.68,432.42,796.32,0.465486,98.43,1
247314,1,26409,1,48956,54003,48495.51,53180.33,460.49,822.67,0.465572,98.43,1
247355,1,26450,1,48958,54002,48496.43,53181.98,461.57,820.02,0.465659,98.43,1
247395,1,26490,1,48958,54005,48497.36,53183.62,460.64,821.37,0.465746,98.42,1
247435,1,26530,1,48965,54024,48498.30,53185.31,466.70,838.69,0.465834,98.42,1
247475,1,26570,1,48986,54061,48499.27,53187.06,486.73,873.94,0.465922,98.42,1
247515,1,26610,1,49002,54088,48500.28,53188.87,501.72,899.13,0.466012,98.42,1
247555,1,26650,1,49013,54115,48501.31,53190.72,511.69,924.28,0.466102,98.42,1
247595,1,26690,1,49038,54142,48502.38,53192.62,535.62,949.37,0.466193,98.41,1
247635,1,26730,1,49050,54156,48503.48,53194.55,546.52,961.45,0.466285,98.41,1
247675,1,26770,1,49058,54190,48504.59,53196.55,553.41,993.45,0.466378,98.41,1
247715,1,26810,1,49070,54218,48505.72,53198.59,564.28,1019.41,0.466472,98.41,1
247755,1,26850,1,49064,54030,48506.84,53200.25,557.16,829.75,0.466567,98.41,1
247795,1,26890,1,48947,53765,48507.72,53201.39,439.28,563.61,0.466665,98.40,1
247835,1,26930,1,48875,53671,48508.46,53202.33,366.54,468.67,0.466762,98.40,1
247876,1,26971,1,48871,53723,48509.18,53203.37,361.82,519.63,0.466861,98.40,1
247916,1,27011,1,48922,53830,48510.01,53204.62,411.99,625.37,0.466960,98.40,1
247956,1,27051,1,48958,53879,48510.91,53205.98,447.09,673.02,0.467060,98.39,1
247996,1,27091,1,48973,53871,48511.84,53207.31,461.16,663.69,0.467162,98.39,1
248036,1,27131,1,48974,53887,48512.76,53208.67,461.24,678.33,0.467265,98.39,1
248076,1,27171,1,48995,53935,48513.73,53210.12,481.27,724.88,0.467369,98.39,1
248116,1,27211,1,49017,53969,48514.73,53211.64,502.27,757.36,0.467474,98.39,1
248156,1,27251,1,49040,54004,48515.79,53213.23,524.21,790.77,0.467581,98.38,1
248196,1,27291,1,49055,54040,48516.86,53214.88,538.14,825.12,0.467689,98.38,1
248236,1,27331,1,49072,54114,48517.98,53216.68,554.02,897.32,0.467800,98.38,1
248276,1,27371,1,49132,54291,48519.21,53218.83,612.79,1072.17,0.467911,98.38,1
248316,1,27411,1,49202,54418,48520.57,53221.23,681.43,1196.77,0.468024,98.37,1
248356,1,27451,1,49232,54434,48522.00,53223.66,710.00,1210.34,0.468140,98.37,1
248397,1,27492,1,49197,54159,48523.35,53225.53,673.65,933.47,0.468259,98.37,1
248437,1,27532,1,49046,53849,48524.40,53226.78,521.60,622.22,0.468380,98.37,1
248477,1,27572,1,48969,53778,48525.29,53227.88,443.71,550.12,0.468502,98.36,1
248517,1,27612,1,48979,53814,48526.20,53229.05,452.80,584.95,0.468626,98.36,1
248557,1,27652,1,48999,53846,48527.14,53230.29,471.86,615.71,0.468751,98.36,1
248597,1,27692,1,49010,53848,48528.11,53231.53,481.89,616.47,0.468878,98.36,1
248637,1,27732,1,49006,53793,48529.07,53232.65,476.93,560.35,0.469007,98.35,1
248677,1,27772,1,48987,53755,48529.99,53233.70,457.01,521.30,0.469138,98.35,1
248717,1,27812,1,48990,53777,48530.91,53234.79,459.09,542.21,0.469270,98.35,1
248757,1,27852,1,49000,53800,48531.85,53235.92,468.15,564.08,0.469404,98.35,1
248797,1,27892,1,49011,53829,48532.81,53237.11,478.19,591.89,0.469540,98.34,1
248837,1,27932,1,49032,53884,48533.81,53238.41,498.19,645.59,0.469678,98.34,1
248877,1,27972,1,49048,53927,48534.84,53239.79,513.16,687.21,0.469817,98.34,1
248917,1,28012,1,49058,53947,48535.89,53241.20,522.11,705.80,0.469959,98.34,1
248958,1,28053,1,49071,53977,48536.96,53242.67,534.04,734.33,0.470102,98.33,1
248998,1,28093,1,49081,53995,48538.05,53244.18,542.95,750.82,0.470248,98.33,1
249038,1,28133,1,49053,53755,48539.08,53245.20,513.92,509.80,0.470396,98.33,1
249078,1,28173,1,48929,53502,48539.86,53245.72,389.14,256.28,0.470546,98.33,1
249118,1,28213,1,48874,53458,48540.53,53246.14,333.47,211.86,0.470697,98.32,1
249158,1,28253,1,48893,53548,48541.23,53246.75,351.77,301.25,0.470849,98.32,1
249198,1,28293,1,48950,53643,48542.05,53247.54,407.95,395.46,0.471003,98.32,1
249238,1,28333,1,48992,53706,48542.96,53248.46,449.04,457.54,0.471158,98.31,1
249278,1,28373,1,49002,53705,48543.87,53249.37,458.12,455.62,0.471316,98.31,1
249318,1,28413,1,48997,53700,48544.78,53250.28,452.22,449.72,0.471476,98.31,1
249358,1,28453,1,49005,53725,48545.70,53251.23,459.30,473.77,0.471637,98.31,1
249398,1,28493,1,49019,53764,48546.65,53252.25,472.35,511.75,0.471801,98.30,1
249438,1,28533,1,49033,53792,48547.62,53253.34,485.37,538.66,0.471967,98.30,1
249479,1,28574,1,49048,53835,48548.63,53254.50,499.37,580.50,0.472136,98.30,1
249519,1,28614,1,49070,53894,48549.67,53255.78,520.33,638.22,0.472307,98.29,1
249559,1,28654,1,49084,53915,48550.74,53257.10,533.26,657.90,0.472480,98.29,1
249599,1,28694,1,49091,53948,48551.82,53258.48,539.18,689.52,0.472656,98.29,1
249639,1,28734,1,49122,53987,48552.96,53259.94,569.04,727.06,0.472834,98.28,1
249679,1,28774,1,49081,53699,48554.02,53260.82,526.98,438.18,0.473016,98.28,1
249719,1,28814,1,48942,53436,48554.80,53261.17,387.20,174.83,0.473200,98.28,1
249759,1,28854,1,48893,53411,48555.48,53261.47,337.52,149.53,0.473385,98.27,1
249799,1,28894,1,48921,53503,48556.21,53261.96,364.79,241.04,0.473571,98.27,1
249839,1,28934,1,48963,53585,48557.02,53262.61,405.98,322.39,0.473760,98.27,1
249879,1,28974,1,48994,53622,48557.90,53263.32,436.10,358.68,0.473950,98.26,1
249919,1,29014,1,48997,53611,48558.78,53264.02,438.22,346.98,0.474143,98.26,1
249959,1,29054,1,48989,53629,48559.64,53264.75,429.36,364.25,0.474338,98.26,1
249999,1,29094,1,49008,53663,48560.54,53265.55,447.46,397.45,0.474536,98.25,1
250040,1,29135,1,49016,53679,48561.45,53266.37,454.55,412.62,0.474735,98.25,1
250080,1,29175,1,49025,53735,48562.38,53267.31,462.62,467.69,0.474937,98.25,1
250120,1,29215,1,49050,53787,48563.36,53268.35,486.64,518.65,0.475142,98.24,1
250160,1,29255,1,49070,53825,48564.37,53269.46,505.62,555.54,0.475349,98.24,1
250200,1,29295,1,49082,53868,48565.41,53270.66,516.59,597.34,0.475559,98.23,1
250240,1,29335,1,49101,53910,48566.48,53271.95,534.52,638.05,0.475771,98.23,1
250280,1,29375,1,49128,53880,48567.61,53273.16,560.39,606.84,0.475988,98.23,1
250320,1,29415,1,49048,53544,48568.57,53273.71,479.43,270.29,0.476207,98.22,1
250360,1,29455,1,48915,53340,48569.27,53273.84,345.73,66.16,0.476428,98.22,1
250400,1,29495,1,48882,53355,48569.89,53274.00,312.11,81.00,0.476650,98.21,1
250440,1,29535,1,48921,53465,48570.59,53274.39,350.41,190.61,0.476874,98.21,1
250480,1,29575,1,48974,53556,48571.40,53274.95,402.60,281.05,0.477100,98.21,1
250520,1,29615,1,49000,53601,48572.26,53275.61,427.74,325.39,0.477328,98.20,1
250561,1,29656,1,49007,53596,48573.13,53276.25,433.87,319.75,0.477559,98.20,1
250601,1,29696,1,49003,53614,48573.99,53276.92,429.01,337.08,0.477792,98.19,1
250641,1,29736,1,49015,53661,48574.87,53277.69,440.12,383.31,0.478027,98.19,1
250681,1,29776,1,49029,53716,48575.79,53278.57,453.21,437.43,0.478265,98.18,1
250721,1,29816,1,49057,53773,48576.75,53279.56,480.25,493.44,0.478506,98.18,1
250761,1,29856,1,49082,53834,48577.76,53280.67,504.24,553.33,0.478749,98.18,1
250801,1,29896,1,49103,53889,48578.81,53281.89,524.19,607.11,0.478996,98.17,1
250841,1,29936,1,49132,53934,48579.92,53283.20,552.08,650.80,0.479245,98.17,1
250881,1,29976,1,49151,53964,48581.07,53284.56,569.93,679.44,0.479499,98.16,1
250921,1,30016,1,49137,53767,48582.18,53285.52,554.82,481.48,0.479756,98.16,1
250961,1,30056,1,49003,53444,48583.02,53285.84,419.98,158.16,0.480016,98.15,1
251001,1,30096,1,48916,53379,48583.69,53286.03,332.31,92.97,0.480278,98.15,1
251041,1,30136,1,48927,53473,48584.38,53286.40,342.62,186.60,0.480542,98.14,1
251081,1,30176,1,48986,53602,48585.18,53287.04,400.82,314.96,0.480807,98.14,1
251122,1,30217,1,49031,53679,48586.08,53287.82,444.92,391.18,0.481075,98.13,1
251162,1,30257,1,49046,53686,48587.00,53288.62,459.00,397.38,0.481346,98.13,1
251202,1,30297,1,49036,53681,48587.90,53289.40,448.10,391.60,0.481619,98.12,1
251242,1,30337,1,49042,53700,48588.81,53290.23,453.19,409.77,0.481896,98.12,1
251282,1,30377,1,49057,53731,48589.75,53291.11,467.25,439.89,0.482175,98.11,1
251322,1,30417,1,49061,53748,48590.69,53292.02,470.31,455.98,0.482457,98.11,1
251362,1,30457,1,49080,53792,48591.67,53293.02,488.33,498.98,0.482742,98.10,1
251402,1,30497,1,49092,53806,48592.67,53294.05,499.33,511.95,0.483030,98.10,1
251442,1,30537,1,49099,53816,48593.69,53295.10,505.31,520.90,0.483321,98.09,1
251482,1,30577,1,49105,53860,48594.71,53296.23,510.29,563.77,0.483615,98.09,1
251522,1,30617,1,49113,53724,48595.75,53297.09,517.25,426.91,0.483914,98.08,1
251562,1,30657,1,48974,53339,48596.51,53297.17,377.49,41.83,0.484215,98.08,1
251602,1,30697,1,48852,53212,48597.02,53297.00,254.98,-85.00,0.484516,98.07,1
251642,1,30737,1,48847,53269,48597.52,53296.95,249.48,-27.95,0.484818,98.06,1
251683,1,30778,1,48889,53371,48598.11,53297.10,290.89,73.90,0.485121,98.06,1
251723,1,30818,1,48926,53460,48598.76,53297.43,327.24,162.57,0.485426,98.05,1
251763,1,30858,1,48948,53475,48599.46,53297.78,348.54,177.22,0.485732,98.05,1
251803,1,30898,1,48948,53467,48600.16,53298.12,347.84,168.88,0.486040,98.04,1
251843,1,30938,1,48945,53501,48600.85,53298.53,344.15,202.47,0.486350,98.03,1
251883,1,30978,1,48962,53536,48601.57,53299.00,360.43,237.00,0.486662,98.03,1
251923,1,31018,1,48974,53567,48602.32,53299.54,371.68,267.46,0.486975,98.02,1
251963,1,31058,1,48994,53617,48603.11,53300.18,390.89,316.82,0.487291,98.02,1
252003,1,31098,1,49010,53636,48603.92,53300.85,406.08,335.15,0.487610,98.01,1
252043,1,31138,1,49012,53665,48604.74,53301.58,407.26,363.42,0.487930,98.00,1
252083,1,31178,1,49027,53705,48605.59,53302.39,421.41,402.61,0.488253,98.00,1
252123,1,31218,1,49019,53529,48606.41,53302.84,412.59,226.16,0.488580,97.99,1
252163,1,31258,1,48878,53164,48606.96,53302.57,271.04,-138.57,0.488906,97.98,1
252204,1,31299,1,48764,53049,48607.27,53302.06,156.73,-253.06,0.489232,97.98,1
252244,1,31339,1,48760,53113,48607.58,53301.69,152.42,-188.69,0.489558,97.97,1
252284,1,31379,1,48800,53211,48607.97,53301.51,192.03,-90.51,0.489883,97.97,1
252324,1,31419,1,48840,53305,48608.43,53301.52,231.57,3.48,0.490209,97.96,1
252364,1,31459,1,48871,53340,48608.96,53301.59,262.04,38.41,0.490535,97.95,1
252404,1,31499,1,48872,53362,48609.49,53301.71,262.51,60.29,0.490863,97.95,1
252444,1,31539,1,48891,53395,48610.05,53301.90,280.95,93.10,0.491191,97.94,1
252484,1,31579,1,48910,53425,48610.65,53302.15,299.35,122.85,0.491522,97.93,1
252524,1,31619,1,48913,53463,48611.26,53302.47,301.74,160.53,0.491853,97.92,1
252564,1,31659,1,48936,53518,48611.91,53302.91,324.09,215.09,0.492186,97.92,1
252604,1,31699,1,48951,53533,48612.59,53303.37,338.41,229.63,0.492521,97.91,1
252644,1,31739,1,48952,53572,48613.27,53303.91,338.73,268.09,0.492857,97.90,1
252684,1,31779,1,48969,53612,48613.98,53304.52,355.02,307.48,0.493196,97.90,1
252724,1,31819,1,48936,53312,48614.62,53304.54,321.37,7.46,0.493536,97.89,1
252765,1,31860,1,48764,52994,48614.93,53303.92,149.07,-309.92,0.493876,97.88,1
252805,1,31900,1,48690,52963,48615.08,53303.24,74.92,-340.24,0.494213,97.88,1
252845,1,31940,1,48708,53051,48615.27,53302.73,92.73,-251.73,0.494549,97.87,1
252885,1,31980,1,48756,53157,48615.55,53302.45,140.45,-145.45,0.494884,97.86,1
252925,1,32020,1,48791,53223,48615.90,53302.29,175.10,-79.29,0.495219,97.85,1
252965,1,32060,1,48801,53218,48616.27,53302.12,184.73,-84.12,0.495554,97.85,1
253005,1,32100,1,48801,53220,48616.64,53301.96,184.36,-81.96,0.495889,97.84,1
253045,1,32140,1,48809,53266,48617.03,53301.89,191.97,-35.89,0.496224,97.83,1
253085,1,32180,1,48828,53302,48617.45,53301.89,210.55,0.11,0.496560,97.82,1
253125,1,32220,1,48832,53337,48617.88,53301.96,214.12,35.04,0.496896,97.82,1
253165,1,32260,1,48847,53365,48618.34,53302.09,228.66,62.91,0.497233,97.81,1
253205,1,32300,1,48853,53410,48618.81,53302.30,234.19,107.70,0.497570,97.80,1
253245,1,32340,1,48879,53468,48619.33,53302.64,259.67,165.36,0.497909,97.79,1
253286,1,32381,1,48891,53386,48619.87,53302.80,271.12,83.20,0.498248,97.79,1
253326,1,32421,1,48772,53002,48620.18,53302.20,151.82,-300.20,0.498587,97.78,1
253366,1,32461,1,48625,52816,48620.19,53301.23,4.81,-485.23,0.498922,97.77,1
253406,1,32501,1,48596,52835,48620.14,53300.30,-24.14,-465.30,0.499254,97.76,1
253446,1,32541,1,48631,52962,48620.17,53299.62,10.83,-337.62,0.499583,97.76,1
253486,1,32581,1,48680,53038,48620.29,53299.10,59.71,-261.10,0.499911,97.75,1
253526,1,32621,1,48708,53078,48620.46,53298.66,87.54,-220.66,0.500237,97.74,1
253566,1,32661,1,48709,53068,48620.64,53298.20,88.36,-230.20,0.500562,97.73,1
253606,1,32701,1,48710,53099,48620.82,53297.80,89.18,-198.80,0.500886,97.73,1
253646,1,32741,1,48717,53126,48621.02,53297.46,95.98,-171.46,0.501209,97.72,1
253686,1,32781,1,48732,53158,48621.24,53297.18,110.76,-139.18,0.501532,97.71,1
253726,1,32821,1,48739,53197,48621.48,53296.98,117.52,-99.98,0.501853,97.70,1
253766,1,32861,1,48756,53246,48621.75,53296.88,134.25,-50.88,0.502175,97.70,1
253807,1,32902,1,48770,53280,48622.05,53296.85,147.95,-16.85,0.502496,97.69,1
253847,1,32942,1,48787,53317,48622.38,53296.89,164.62,20.11,0.502817,97.68,1
253887,1,32982,1,48752,53015,48622.64,53296.33,129.36,-281.33,0.503137,97.67,1
253927,1,33022,1,48569,52696,48622.54,53295.13,-53.54,-599.13,0.503452,97.66,1
253967,1,33062,1,48492,52660,48622.27,53293.86,-130.27,-633.86,0.503762,97.66,1
254007,1,33102,1,48520,52784,48622.07,53292.84,-102.07,-508.84,0.504068,97.65,1
254047,1,33142,1,48573,52875,48621.97,53292.00,-48.97,-417.00,0.504371,97.64,1
254087,1,33182,1,48604,52912,48621.94,53291.25,-17.94,-379.25,0.504671,97.63,1
254127,1,33222,1,48615,52942,48621.93,53290.55,-6.93,-348.55,0.504969,97.63,1
254167,1,33262,1,48622,52970,48621.93,53289.91,0.07,-319.91,0.505265,97.62,1
254207,1,33302,1,48627,52993,48621.94,53289.32,5.06,-296.32,0.505558,97.61,1
254247,1,33342,1,48644,53057,48621.98,53288.85,22.02,-231.85,0.505850,97.60,1
254287,1,33382,1,48666,53104,48622.07,53288.48,43.93,-184.48,0.506141,97.60,1
254327,1,33422,1,48673,53115,48622.18,53288.14,50.82,-173.14,0.506431,97.59,1
254368,1,33463,1,48682,53173,48622.30,53287.91,59.70,-114.91,0.506719,97.58,1
254408,1,33503,1,48711,53242,48622.48,53287.82,88.52,-45.82,0.507008,97.57,1
254448,1,33543,1,48708,53042,48622.65,53287.33,85.35,-245.33,0.507294,97.56,1
254488,1,33583,1,48545,52696,48622.50,53286.15,-77.50,-590.15,0.507576,97.56,1
254528,1,33623,1,48440,52608,48622.13,53284.79,-182.13,-676.79,0.507852,97.55,1
254568,1,33663,1,48440,52678,48621.77,53283.58,-181.77,-605.58,0.508124,97.54,1
254608,1,33703,1,48494,52790,48621.52,53282.60,-127.52,-492.60,0.508392,97.53,1
254648,1,33743,1,48536,52867,48621.35,53281.77,-85.35,-414.77,0.508657,97.53,1
254688,1,33783,1,48546,52881,48621.20,53280.97,-75.20,-399.97,0.508920,97.52,1
254728,1,33823,1,48546,52916,48621.05,53280.24,-75.05,-364.24,0.509180,97.51,1
254768,1,33863,1,48568,52962,48620.95,53279.60,-52.95,-317.60,0.509439,97.50,1
254808,1,33903,1,48575,53006,48620.86,53279.05,-45.86,-273.05,0.509695,97.50,1
254848,1,33943,1,48594,53073,48620.80,53278.64,-26.80,-205.64,0.509951,97.49,1
254889,1,33984,1,48616,53109,48620.80,53278.30,-4.80,-169.30,0.510205,97.48,1
254929,1,34024,1,48625,53156,48620.80,53278.06,4.20,-122.06,0.510458,97.47,1
254969,1,34064,1,48644,53231,48620.85,53277.97,23.15,-46.97,0.510710,97.47,1
255009,1,34104,1,48672,53164,48620.96,53277.74,51.04,-113.74,0.510961,97.46,1
255049,1,34144,1,48569,52867,48620.86,53276.92,-51.86,-409.92,0.511210,97.45,1
255089,1,34184,1,48458,52751,48620.53,53275.87,-162.53,-524.87,0.511455,97.45,1
255129,1,34224,1,48444,52793,48620.18,53274.91,-176.18,-481.91,0.511697,97.44,1
255169,1,34264,1,48490,52912,48619.92,53274.18,-129.92,-362.18,0.511937,97.43,1
255209,1,34304,1,48532,52976,48619.75,53273.59,-87.75,-297.59,0.512176,97.42,1
255249,1,34344,1,48543,52989,48619.59,53273.02,-76.59,-284.02,0.512413,97.42,1
255289,1,34384,1,48533,53002,48619.42,53272.48,-86.42,-270.48,0.512648,97.41,1
255329,1,34424,1,48550,53071,48619.29,53272.08,-69.29,-201.08,0.512883,97.40,1
255369,1,34464,1,48571,53115,48619.19,53271.77,-48.19,-156.77,0.513116,97.40,1
255410,1,34505,1,48581,53161,48619.12,53271.55,-38.12,-110.55,0.513349,97.39,1
255450,1,34545,1,48606,53236,48619.09,53271.48,-13.09,-35.48,0.513581,97.38,1
255490,1,34585,1,48622,53272,48619.10,53271.48,2.90,0.52,0.513812,97.38,1
255530,1,34625,1,48636,53357,48619.14,53271.66,16.86,85.34,0.514043,97.37,1
255570,1,34665,1,48682,53392,48619.27,53271.90,62.73,120.10,0.514272,97.36,1
255610,1,34705,1,48625,53119,48619.28,53271.59,5.72,-152.59,0.514501,97.36,1
255650,1,34745,1,48495,52978,48619.03,53271.01,-124.03,-293.01,0.514729,97.35,1
255690,1,34785,1,48488,53015,48618.77,53270.50,-130.77,-255.50,0.514955,97.34,1
255730,1,34825,1,48524,53109,48618.58,53270.18,-94.58,-161.18,0.515181,97.34,1
255770,1,34865,1,48556,53184,48618.46,53270.00,-62.46,-86.00,0.515407,97.33,1
255810,1,34905,1,48583,53218,48618.39,53269.90,-35.39,-51.90,0.515632,97.32,1
255850,1,34945,1,48591,53238,48618.33,53269.84,-27.33,-31.84,0.515856,97.32,1
255890,1,34985,1,48593,53280,48618.28,53269.86,-25.28,10.14,0.516079,97.31,1
255930,1,35025,1,48614,53332,48618.27,53269.99,-4.27,62.01,0.516302,97.30,1
255971,1,35066,1,48628,53370,48618.29,53270.19,9.71,99.81,0.516524,97.30,1
256011,1,35106,1,48639,53431,48618.34,53270.52,20.66,160.48,0.516745,97.29,1
256051,1,35146,1,48660,53466,48618.42,53270.91,41.58,195.09,0.516965,97.28,1
256091,1,35186,1,48672,53515,48618.53,53271.39,53.47,243.61,0.517183,97.28,1
256131,1,35226,1,48694,53581,48618.68,53272.02,75.32,308.98,0.517399,97.27,1
256171,1,35266,1,48689,53422,48618.82,53272.32,70.18,149.68,0.517614,97.26,1
256211,1,35306,1,48586,53216,48618.76,53272.21,-32.76,-56.21,0.517829,97.26,1
256251,1,35346,1,48530,53204,48618.59,53272.07,-88.59,-68.07,0.518043,97.25,1
256291,1,35386,1,48543,53282,48618.44,53272.09,-75.44,9.91,0.518257,97.25,1
256331,1,35426,1,48578,53339,48618.36,53272.23,-40.36,66.77,0.518471,97.24,1
256371,1,35466,1,48602,53378,48618.33,53272.44,-16.33,105.56,0.518684,97.23,1
256411,1,35506,1,48597,53385,48618.29,53272.67,-21.29,112.33,0.518896,97.23,1
256451,1,35546,1,48605,53422,48618.26,53272.97,-13.26,149.03,0.519106,97.22,1
256492,1,35587,1,48627,53479,48618.28,53273.38,8.72,205.62,0.519316,97.21,1
256532,1,35627,1,48643,53525,48618.33,53273.89,24.67,251.11,0.519523,97.21,1
256572,1,35667,1,48666,53593,48618.43,53274.53,47.57,318.47,0.519728,97.20,1
256612,1,35707,1,48697,53643,48618.59,53275.27,78.41,367.73,0.519930,97.20,1
256652,1,35747,1,48707,53685,48618.77,53276.09,88.23,408.91,0.520128,97.19,1
256692,1,35787,1,48724,53728,48618.98,53276.99,105.02,451.01,0.520323,97.18,1
256732,1,35827,1,48743,53691,48619.23,53277.82,123.77,413.18,0.520514,97.18,1
256772,1,35867,1,48671,53476,48619.34,53278.22,51.66,197.78,0.520704,97.17,1
256812,1,35907,1,48587,53400,48619.27,53278.46,-32.27,121.54,0.520894,97.17,1
256852,1,35947,1,48582,53447,48619.20,53278.80,-37.20,168.20,0.521082,97.16,1
256892,1,35987,1,48612,53520,48619.19,53279.29,-7.19,240.71,0.521268,97.16,1
256932,1,36027,1,48631,53560,48619.21,53279.85,11.79,280.15,0.521453,97.15,1
256972,1,36067,1,48639,53574,48619.25,53280.44,19.75,293.56,0.521634,97.14,1
257013,1,36108,1,48644,53596,48619.30,53281.07,24.70,314.93,0.521814,97.14,1
257053,1,36148,1,48662,53663,48619.39,53281.84,42.61,381.16,0.521989,97.13,1
257093,1,36188,1,48681,53693,48619.51,53282.66,61.49,410.34,0.522161,97.13,1
257133,1,36228,1,48689,53728,48619.65,53283.55,69.35,444.45,0.522327,97.12,1
257173,1,36268,1,48708,53792,48619.83,53284.57,88.17,507.43,0.522489,97.12,1
257213,1,36308,1,48732,53822,48620.06,53285.65,111.94,536.35,0.522644,97.11,1
257253,1,36348,1,48747,53856,48620.31,53286.79,126.69,569.21,0.522793,97.11,1
257293,1,36388,1,48765,53919,48620.60,53288.06,144.40,630.94,0.522934,97.10,1
257333,1,36428,1,48767,53808,48620.89,53289.10,146.11,518.90,0.523071,97.09,1
257373,1,36468,1,48684,53655,48621.02,53289.84,62.98,365.16,0.523204,97.09,1
257413,1,36508,1,48641,53636,48621.07,53290.53,19.93,345.47,0.523335,97.08,1
257453,1,36548,1,48642,53698,48621.11,53291.35,20.89,406.65,0.523461,97.08,1
257493,1,36588,1,48673,53743,48621.21,53292.25,51.79,450.75,0.523583,97.07,1
257534,1,36629,1,48680,53766,48621.33,53293.20,58.67,472.80,0.523699,97.07,1
257574,1,36669,1,48686,53785,48621.46,53294.19,64.54,490.81,0.523810,97.06,1
257614,1,36709,1,48687,53798,48621.59,53295.20,65.41,502.80,0.523916,97.06,1
257654,1,36749,1,48699,53838,48621.75,53296.28,77.25,541.72,0.524015,97.05,1
257694,1,36789,1,48714,53868,48621.94,53297.43,92.06,570.57,0.524106,97.05,1
257734,1,36829,1,48720,53886,48622.14,53298.61,97.86,587.39,0.524191,97.04,1
257774,1,36869,1,48734,53914,48622.36,53299.84,111.64,614.16,0.524268,97.04,1
257814,1,36909,1,48739,53922,48622.60,53301.08,116.40,620.92,0.524337,97.04,1
257854,1,36949,1,48747,53981,48622.85,53302.44,124.15,678.56,0.524398,97.03,1
257894,1,36989,1,48777,54010,48623.16,53303.86,153.84,706.14,0.524449,97.03,1
257934,1,37029,1,48745,53854,48623.40,53304.96,121.60,549.04,0.524495,97.02,1
257974,1,37069,1,48657,53733,48623.47,53305.82,33.53,427.18,0.524536,97.02,1
258014,1,37109,1,48627,53745,48623.48,53306.70,3.52,438.30,0.524574,97.02,1
258055,1,37150,1,48655,53842,48623.54,53307.77,31.46,534.23,0.524605,97.01,1
258095,1,37190,1,48683,53879,48623.66,53308.91,59.34,570.09,0.524629,97.01,1
258135,1,37230,1,48690,53894,48623.80,53310.09,66.20,583.91,0.524646,97.00,1
258175,1,37270,1,48700,53916,48623.95,53311.30,76.05,604.70,0.524656,97.00,1
258215,1,37310,1,48709,53956,48624.12,53312.59,84.88,643.41,0.524657,97.00,1
258255,1,37350,1,48733,54004,48624.34,53313.97,108.66,690.03,0.524649,96.99,1
258295,1,37390,1,48748,54008,48624.59,53315.36,123.41,692.64,0.524632,96.99,1
258335,1,37430,1,48741,54023,48624.82,53316.78,116.18,706.22,0.524606,96.99,1
258375,1,37470,1,48750,54048,48625.07,53318.25,124.93,729.75,0.524570,96.98,1
258415,1,37510,1,48754,54035,48625.33,53319.68,128.67,715.32,0.524526,96.98,1
258455,1,37550,1,48741,54061,48625.57,53321.16,115.43,739.84,0.524472,96.98,1
258495,1,37590,1,48766,54085,48625.85,53322.69,140.15,762.31,0.524408,96.98,1
258536,1,37631,1,48737,53931,48626.07,53323.91,110.93,607.09,0.524337,96.97,1
258576,1,37671,1,48654,53866,48626.13,53325.00,27.87,541.00,0.524262,96.97,1
258616,1,37711,1,48654,53919,48626.19,53326.18,27.81,592.82,0.524179,96.97,1
258656,1,37751,1,48689,53986,48626.31,53327.50,62.69,658.50,0.524089,96.97,1
258696,1,37791,1,48713,54040,48626.49,53328.93,86.51,711.07,0.523990,96.96,1
258736,1,37831,1,48737,54068,48626.71,53330.41,110.29,737.59,0.523881,96.96,1
258776,1,37871,1,48738,54047,48626.93,53331.84,111.07,715.16,0.523764,96.96,1
258816,1,37911,1,48733,54067,48627.15,53333.32,105.85,733.68,0.523639,96.96,1
258856,1,37951,1,48754,54123,48627.40,53334.90,126.60,788.10,0.523503,96.96,1
258896,1,37991,1,48764,54125,48627.68,53336.48,136.32,788.52,0.523358,96.96,1
258936,1,38031,1,48764,54138,48627.95,53338.09,136.05,799.91,0.523204,96.96,1
258976,1,38071,1,48766,54153,48628.23,53339.72,137.77,813.28,0.523040,96.95,1
259016,1,38111,1,48770,54185,48628.51,53341.41,141.49,843.59,0.522866,96.95,1
259057,1,38152,1,48777,54195,48628.81,53343.12,148.19,851.88,0.522681,96.95,1
259097,1,38192,1,48767,54115,48629.09,53344.66,137.91,770.34,0.522489,96.95,1
259137,1,38232,1,48698,53961,48629.23,53345.90,68.77,615.10,0.522291,96.95,1
259177,1,38272,1,48637,53888,48629.24,53346.98,7.76,541.02,0.522089,96.95,1
259217,1,38312,1,48624,53939,48629.23,53348.17,-5.23,590.83,0.521882,96.95,1
259257,1,38352,1,48669,54035,48629.32,53349.54,39.68,685.46,0.521667,96.95,1
259297,1,38392,1,48710,54062,48629.48,53350.97,80.52,711.03,0.521445,96.95,1
259337,1,38432,1,48702,54041,48629.62,53352.35,72.37,688.65,0.521216,96.95,1
259377,1,38472,1,48703,54071,48629.77,53353.79,73.23,717.21,0.520980,96.95,1
259417,1,38512,1,48718,54083,48629.95,53355.25,88.05,727.75,0.520737,96.95,1
259457,1,38552,1,48713,54070,48630.12,53356.68,82.88,713.32,0.520487,96.96,1
259497,1,38592,1,48707,54069,48630.27,53358.11,76.73,710.89,0.520230,96.96,1
259537,1,38632,1,48704,54068,48630.42,53359.53,73.58,708.47,0.519966,96.96,1
259578,1,38673,1,48698,54063,48630.56,53360.94,67.44,702.06,0.519695,96.96,1
259618,1,38713,1,48692,54080,48630.68,53362.38,61.32,717.62,0.519418,96.96,1
259658,1,38753,1,48705,54063,48630.83,53363.78,74.17,699.22,0.519134,96.96,1
259698,1,38793,1,48644,53852,48630.86,53364.76,13.14,487.24,0.518848,96.97,1
259738,1,38833,1,48555,53733,48630.71,53365.50,-75.71,367.50,0.518561,96.97,1
259778,1,38873,1,48524,53700,48630.50,53366.17,-106.50,333.83,0.518274,96.97,1
259818,1,38913,1,48536,53739,48630.31,53366.91,-94.31,372.09,0.517987,96.97,1
259858,1,38953,1,48563,53767,48630.18,53367.71,-67.18,399.29,0.517699,96.97,1
259898,1,38993,1,48567,53761,48630.05,53368.50,-63.05,392.50,0.517409,96.98,1
259938,1,39033,1,48560,53748,48629.91,53369.27,-69.91,378.73,0.517119,96.98,1
259978,1,39073,1,48556,53734,48629.76,53370.00,-73.76,364.00,0.516828,96.98,1
260018,1,39113,1,48554,53733,48629.61,53370.72,-75.61,362.28,0.516536,96.99,1
260058,1,39153,1,48548,53724,48629.45,53371.43,-81.45,352.57,0.516244,96.99,1
260099,1,39194,1,48547,53712,48629.29,53372.11,-82.29,339.89,0.515952,96.99,1
260139,1,39234,1,48541,53725,48629.11,53372.82,-88.11,352.18,0.515659,97.00,1
260179,1,39274,1,48550,53753,48628.96,53373.58,-78.96,379.42,0.515366,97.00,1
260219,1,39314,1,48559,53740,48628.82,53374.32,-69.82,365.68,0.515072,97.00,1
260259,1,39354,1,48521,53545,48628.61,53374.66,-107.61,170.34,0.514779,97.01,1
260299,1,39394,1,48410,53371,48628.17,53374.65,-218.17,-3.65,0.514493,97.01,1
260339,1,39434,1,48369,53338,48627.65,53374.58,-258.65,-36.58,0.514216,97.02,1
260379,1,39474,1,48388,53384,48627.18,53374.60,-239.18,9.40,0.513947,97.02,1
260419,1,39514,1,48416,53435,48626.75,53374.72,-210.75,60.28,0.513683,97.02,1
260459,1,39554,1,48436,53453,48626.37,53374.88,-190.37,78.12,0.513425,97.03,1
260499,1,39594,1,48440,53436,48626.00,53375.00,-186.00,61.00,0.513171,97.03,1
260539,1,39634,1,48439,53455,48625.63,53375.16,-186.63,79.84,0.512923,97.04,1
260579,1,39674,1,48446,53454,48625.27,53375.32,-179.27,78.68,0.512679,97.04,1
260620,1,39715,1,48438,53446,48624.90,53375.47,-186.90,70.53,0.512440,97.05,1
260660,1,39755,1,48447,53480,48624.54,53375.68,-177.54,104.32,0.512206,97.05,1
260700,1,39795,1,48457,53484,48624.21,53375.90,-167.21,108.10,0.511975,97.05,1
260740,1,39835,1,48458,53493,48623.88,53376.13,-165.88,116.87,0.511749,97.06,1
260780,1,39875,1,48475,53532,48623.58,53376.45,-148.58,155.55,0.511525,97.06,1
260820,1,39915,1,48453,53336,48623.24,53376.37,-170.24,-40.37,0.511306,97.07,1
260860,1,39955,1,48328,53115,48622.65,53375.85,-294.65,-260.85,0.511097,97.07,1
260900,1,39995,1,48271,53083,48621.95,53375.26,-350.95,-292.26,0.510903,97.08,1
260940,1,40035,1,48291,53143,48621.29,53374.80,-330.29,-231.80,0.510722,97.08,1
260980,1,40075,1,48327,53194,48620.70,53374.44,-293.70,-180.44,0.510552,97.09,1
261020,1,40115,1,48344,53200,48620.15,53374.09,-276.15,-174.09,0.510392,97.09,1
261060,1,40155,1,48339,53194,48619.59,53373.73,-280.59,-179.73,0.510242,97.10,1
261100,1,40195,1,48344,53218,48619.04,53373.42,-275.04,-155.42,0.510102,97.10,1
261141,1,40236,1,48348,53201,48618.50,53373.08,-270.50,-172.08,0.509970,97.10,1
261181,1,40276,1,48340,53209,48617.95,53372.75,-277.95,-163.75,0.509849,97.11,1
261221,1,40316,1,48346,53232,48617.40,53372.47,-271.40,-140.47,0.509737,97.11,1
261261,1,40356,1,48348,53225,48616.86,53372.18,-268.86,-147.18,0.509634,97.12,1
261301,1,40396,1,48351,53252,48616.33,53371.94,-265.33,-119.94,0.509540,97.12,1
261341,1,40436,1,48369,53299,48615.84,53371.79,-246.84,-72.79,0.509455,97.13,1
261381,1,40476,1,48369,53140,48615.35,53371.33,-246.35,-231.33,0.509376,97.13,1
261421,1,40516,1,48243,52885,48614.61,53370.36,-371.61,-485.36,0.509310,97.13,1
261461,1,40556,1,48168,52842,48613.71,53369.30,-445.71,-527.30,0.509263,97.14,1
261501,1,40596,1,48180,52906,48612.85,53368.38,-432.85,-462.38,0.509234,97.14,1
261541,1,40636,1,48210,52936,48612.04,53367.52,-402.04,-431.52,0.509221,97.15,1
261581,1,40676,1,48224,52962,48611.27,53366.71,-387.27,-404.71,0.509223,97.15,1
261621,1,40716,1,48225,52957,48610.50,53365.89,-385.50,-408.89,0.509239,97.15,1
261662,1,40757,1,48223,52972,48609.73,53365.11,-386.73,-393.11,0.509270,97.16,1
261702,1,40797,1,48236,53000,48608.98,53364.37,-372.98,-364.37,0.509314,97.16,1
261742,1,40837,1,48242,53008,48608.25,53363.66,-366.25,-355.66,0.509371,97.16,1
261782,1,40877,1,48244,53036,48607.52,53363.01,-363.52,-327.01,0.509441,97.17,1
261822,1,40917,1,48262,53070,48606.83,53362.43,-344.83,-292.43,0.509524,97.17,1
261862,1,40957,1,48272,53109,48606.16,53361.92,-334.16,-252.92,0.509618,97.17,1
261902,1,40997,1,48292,53153,48605.53,53361.50,-313.53,-208.50,0.509723,97.17,1
261942,1,41037,1,48289,52990,48604.90,53360.76,-315.90,-370.76,0.509835,97.18,1
261982,1,41077,1,48173,52801,48604.04,53359.64,-431.04,-558.64,0.509961,97.18,1
262022,1,41117,1,48117,52774,48603.06,53358.48,-486.06,-584.48,0.510105,97.18,1
262062,1,41157,1,48135,52840,48602.13,53357.44,-467.13,-517.44,0.510266,97.18,1
262102,1,41197,1,48171,52917,48601.27,53356.56,-430.27,-439.56,0.510442,97.19,1
262142,1,41237,1,48195,52954,48600.46,53355.76,-405.46,-401.76,0.510633,97.19,1
262182,1,41277,1,48200,52954,48599.66,53354.96,-399.66,-400.96,0.510837,97.19,1
262223,1,41318,1,48208,52970,48598.87,53354.19,-390.87,-384.19,0.511053,97.19,1
262263,1,41358,1,48211,52993,48598.10,53353.46,-387.10,-360.46,0.511282,97.19,1
262303,1,41398,1,48214,53025,48597.34,53352.81,-383.34,-327.81,0.511524,97.19,1
262343,1,41438,1,48230,53050,48596.60,53352.20,-366.60,-302.20,0.511778,97.19,1
262383,1,41478,1,48233,53072,48595.87,53351.64,-362.87,-279.64,0.512044,97.19,1
262423,1,41518,1,48245,53120,48595.18,53351.18,-350.18,-231.18,0.512322,97.19,1
262463,1,41558,1,48269,53139,48594.52,53350.76,-325.52,-211.76,0.512609,97.19,1
262503,1,41598,1,48241,52965,48593.82,53349.99,-352.82,-384.99,0.512906,97.19,1
262543,1,41638,1,48126,52815,48592.88,53348.92,-466.88,-533.92,0.513216,97.19,1
262583,1,41678,1,48083,52782,48591.86,53347.79,-508.86,-565.79,0.513544,97.19,1
262623,1,41718,1,48088,52842,48590.86,53346.78,-502.86,-504.78,0.513890,97.19,1
262663,1,41758,1,48128,52913,48589.93,53345.91,-461.93,-432.91,0.514253,97.19,1
262703,1,41798,1,48135,52908,48589.02,53345.04,-454.02,-437.04,0.514630,97.19,1
262744,1,41839,1,48117,52883,48588.08,53344.11,-471.08,-461.11,0.515023,97.18,1
262784,1,41879,1,48115,52932,48587.13,53343.29,-472.13,-411.29,0.515433,97.18,1
262824,1,41919,1,48136,52962,48586.23,53342.53,-450.23,-380.53,0.515859,97.18,1
262864,1,41959,1,48140,52985,48585.34,53341.81,-445.34,-356.81,0.516300,97.18,1
262904,1,41999,1,48151,53042,48584.47,53341.21,-433.47,-299.21,0.516757,97.17,1
262944,1,42039,1,48177,53084,48583.66,53340.70,-406.66,-256.70,0.517229,97.17,1
262984,1,42079,1,48188,53106,48582.87,53340.23,-394.87,-234.23,0.517713,97.17,1
263024,1,42119,1,48206,53121,48582.12,53339.80,-376.12,-218.80,0.518210,97.16,1
263064,1,42159,1,48164,52956,48581.28,53339.03,-417.28,-383.03,0.518719,97.16,1
263104,1,42199,1,48075,52851,48580.27,53338.05,-505.27,-487.05,0.519243,97.16,1
263144,1,42239,1,48051,52874,48579.21,53337.13,-528.21,-463.13,0.519787,97.15,1
263184,1,42279,1,48088,52997,48578.23,53336.45,-490.23,-339.45,0.520350,97.15,1
263224,1,42319,1,48136,53063,48577.35,53335.90,-441.35,-272.90,0.520929,97.14,1
263265,1,42360,1,48147,53070,48576.49,53335.37,-429.49,-265.37,0.521523,97.14,1
263305,1,42400,1,48148,53101,48575.63,53334.90,-427.63,-233.90,0.522132,97.13,1
263345,1,42440,1,48162,53143,48574.81,53334.52,-412.81,-191.52,0.522756,97.12,1
263385,1,42480,1,48173,53159,48574.01,53334.17,-401.01,-175.17,0.523394,97.12,1
263425,1,42520,1,48179,53175,48573.22,53333.85,-394.22,-158.85,0.524046,97.11,1
263465,1,42560,1,48178,53182,48572.43,53333.55,-394.43,-151.55,0.524711,97.10,1
263505,1,42600,1,48187,53213,48571.66,53333.31,-384.66,-120.31,0.525390,97.10,1
263545,1,42640,1,48197,53224,48570.91,53333.09,-373.91,-109.09,0.526081,97.09,1
263585,1,42680,1,48186,53129,48570.14,53332.69,-384.14,-203.69,0.526784,97.08,1
263625,1,42720,1,48089,52937,48569.18,53331.90,-480.18,-394.90,0.527502,97.07,1
263665,1,42760,1,48006,52854,48568.05,53330.95,-562.05,-476.95,0.528240,97.07,1
263705,1,42800,1,47993,52909,48566.91,53330.10,-573.91,-421.10,0.529001,97.06,1
263745,1,42840,1,48029,52978,48565.83,53329.40,-536.83,-351.40,0.529784,97.05,1
263786,1,42881,1,48043,52991,48564.79,53328.72,-521.79,-337.72,0.530587,97.04,1
263826,1,42921,1,48036,52993,48563.73,53328.05,-527.73,-335.05,0.531411,97.03,1
263866,1,42961,1,48044,53039,48562.70,53327.47,-518.70,-288.47,0.532256,97.02,1
263906,1,43001,1,48052,53046,48561.68,53326.91,-509.68,-280.91,0.533120,97.01,1
263946,1,43041,1,48061,53089,48560.68,53326.44,-499.68,-237.44,0.534005,97.00,1
263986,1,43081,1,48079,53120,48559.71,53326.03,-480.71,-206.03,0.534909,96.99,1
264026,1,43121,1,48083,53126,48558.76,53325.63,-475.76,-199.63,0.535831,96.97,1
264066,1,43161,1,48095,53166,48557.84,53325.31,-462.84,-159.31,0.536771,96.96,1
264106,1,43201,1,48121,53218,48556.96,53325.10,-435.96,-107.10,0.537728,96.95,1
264146,1,43241,1,48096,53070,48556.04,53324.59,-460.04,-254.59,0.538699,96.94,1
264186,1,43281,1,47996,52925,48554.93,53323.79,-558.93,-398.79,0.539690,96.93,1
264226,1,43321,1,47954,52936,48553.73,53323.02,-599.73,-387.02,0.540705,96.91,1
264266,1,43361,1,47973,53002,48552.57,53322.38,-579.57,-320.38,0.541745,96.90,1
264307,1,43402,1,48000,53060,48551.46,53321.86,-551.46,-261.86,0.542808,96.88,1
264347,1,43442,1,48021,53086,48550.40,53321.39,-529.40,-235.39,0.543892,96.87,1
264387,1,43482,1,48012,53085,48549.33,53320.91,-537.33,-235.91,0.544999,96.85,1
264427,1,43522,1,48013,53116,48548.26,53320.50,-535.26,-204.50,0.546129,96.84,1
264467,1,43562,1,48032,53147,48547.23,53320.16,-515.23,-173.16,0.547280,96.82,1
264507,1,43602,1,48032,53168,48546.20,53319.86,-514.20,-151.86,0.548453,96.81,1
264547,1,43642,1,48052,53182,48545.21,53319.58,-493.21,-137.58,0.549645,96.79,1
264587,1,43682,1,48046,53196,48544.21,53319.34,-498.21,-123.34,0.550858,96.77,1
264627,1,43722,1,48064,53236,48543.25,53319.17,-479.25,-83.17,0.552090,96.76,1
264667,1,43762,1,48067,53187,48542.30,53318.91,-475.30,-131.91,0.553340,96.74,1
264707,1,43802,1,48003,53047,48541.22,53318.37,-538.22,-271.37,0.554610,96.72,1
264747,1,43842,1,47946,53005,48540.04,53317.74,-594.04,-312.74,0.555904,96.70,1
264787,1,43882,1,47934,53058,48538.82,53317.22,-604.82,-259.22,0.557225,96.68,1
264827,1,43922,1,47982,53153,48537.71,53316.89,-555.71,-163.89,0.558572,96.66,1
264868,1,43963,1,48018,53216,48536.67,53316.70,-518.67,-100.70,0.559940,96.64,1
264908,1,44003,1,48027,53208,48535.65,53316.48,-508.65,-108.48,0.561330,96.62,1
264948,1,44043,1,48006,53195,48534.59,53316.24,-528.59,-121.24,0.562742,96.60,1
264988,1,44083,1,48009,53218,48533.54,53316.04,-524.54,-98.04,0.564177,96.58,1
265028,1,44123,1,48010,53223,48532.50,53315.86,-522.50,-92.86,0.565635,96.56,1
265068,1,44163,1,48006,53203,48531.45,53315.64,-525.45,-112.64,0.567115,96.54,1
265108,1,44203,1,47994,53198,48530.37,53315.40,-536.37,-117.40,0.568618,96.52,1
265148,1,44243,1,48000,53241,48529.31,53315.25,-529.31,-74.25,0.570145,96.49,1
265188,1,44283,1,48016,53269,48528.29,53315.16,-512.29,-46.16,0.571693,96.47,1
265228,1,44323,1,48006,53170,48527.25,53314.87,-521.25,-144.87,0.573263,96.45,1
265268,1,44363,1,47929,53060,48526.05,53314.37,-597.05,-254.37,0.574857,96.42,1
265308,1,44403,1,47889,53057,48524.78,53313.86,-635.78,-256.86,0.576481,96.40,1
265349,1,44444,1,47901,53114,48523.53,53313.46,-622.53,-199.46,0.578134,96.37,1
265389,1,44484,1,47931,53175,48522.35,53313.18,-591.35,-138.18,0.579816,96.34,1
265429,1,44524,1,47944,53195,48521.19,53312.95,-577.19,-117.95,0.581525,96.32,1
265469,1,44564,1,47950,53219,48520.05,53312.76,-570.05,-93.76,0.583260,96.29,1
265509,1,44604,1,47960,53236,48518.93,53312.61,-558.93,-76.61,0.585021,96.26,1
265549,1,44644,1,47957,53250,48517.81,53312.48,-560.81,-62.48,0.586808,96.24,1
265589,1,44684,1,47973,53280,48516.72,53312.42,-543.72,-32.42,0.588619,96.21,1
265629,1,44724,1,47976,53264,48515.64,53312.32,-539.64,-48.32,0.590454,96.18,1
265669,1,44764,1,47965,53258,48514.54,53312.22,-549.54,-54.22,0.592314,96.15,1
265709,1,44804,1,47963,53274,48513.44,53312.14,-550.44,-38.14,0.594199,96.12,1
265749,1,44844,1,47952,53184,48512.32,53311.89,-560.32,-127.89,0.596108,96.09,1
265789,1,44884,1,47880,53076,48511.05,53311.42,-631.05,-235.42,0.598045,96.06,1
265829,1,44924,1,47828,53028,48509.69,53310.86,-681.69,-282.86,0.600012,96.02,1
265870,1,44965,1,47812,53038,48508.30,53310.31,-696.30,-272.31,0.602012,95.99,1
265910,1,45005,1,47825,53070,48506.93,53309.83,-681.93,-239.83,0.604045,95.96,1
265950,1,45045,1,47830,53071,48505.58,53309.36,-675.58,-238.36,0.606110,95.93,1
265990,1,45085,1,47817,53047,48504.20,53308.83,-687.20,-261.83,0.608206,95.89,1
266030,1,45125,1,47808,53066,48502.81,53308.35,-694.81,-242.35,0.610335,95.86,1
266070,1,45165,1,47821,53088,48501.45,53307.91,-680.45,-219.91,0.612496,95.82,1
266110,1,45205,1,47817,53058,48500.08,53307.41,-683.08,-249.41,0.614688,95.79,1
266150,1,45245,1,47802,53048,48498.69,53306.89,-696.69,-258.89,0.616910,95.75,1
266190,1,45285,1,47799,53057,48497.29,53306.39,-698.29,-249.39,0.619164,95.71,1
266230,1,45325,1,47794,53041,48495.88,53305.86,-701.88,-264.86,0.621449,95.68,1
266270,1,45365,1,47778,53003,48494.45,53305.26,-716.45,-302.26,0.623762,95.64,1
266310,1,45405,1,47732,52899,48492.93,53304.45,-760.93,-405.45,0.626098,95.60,1
266350,1,45445,1,47670,52811,48491.28,53303.46,-821.28,-492.46,0.628454,95.56,1
266391,1,45486,1,47630,52781,48489.56,53302.42,-859.56,-521.42,0.630829,95.52,1
266431,1,45526,1,47626,52820,48487.83,53301.45,-861.83,-481.45,0.633230,95.48,1
266471,1,45566,1,47642,52835,48486.14,53300.52,-844.14,-465.52,0.635655,95.44,1
266511,1,45606,1,47636,52825,48484.44,53299.57,-848.44,-474.57,0.638102,95.40,1
266551,1,45646,1,47633,52842,48482.74,53298.66,-849.74,-456.66,0.640573,95.35,1
266591,1,45686,1,47647,52856,48481.07,53297.78,-834.07,-441.78,0.643067,95.31,1
266631,1,45726,1,47642,52849,48479.39,53296.88,-837.39,-447.88,0.645583,95.27,1
266671,1,45766,1,47647,52882,48477.73,53296.05,-830.73,-414.05,0.648124,95.22,1
266711,1,45806,1,47657,52889,48476.09,53295.24,-819.09,-406.24,0.650688,95.18,1
266751,1,45846,1,47653,52891,48474.44,53294.43,-821.44,-403.43,0.653275,95.13,1
266791,1,45886,1,47659,52925,48472.81,53293.70,-813.81,-368.70,0.655889,95.09,1
266831,1,45926,1,47653,52857,48471.18,53292.82,-818.18,-435.82,0.658519,95.04,1
266872,1,45967,1,47592,52748,48469.42,53291.73,-877.42,-543.73,0.661158,94.99,1
266912,1,46007,1,47545,52733,48467.57,53290.62,-922.57,-557.62,0.663808,94.95,1
266952,1,46047,1,47549,52771,48465.73,53289.58,-916.73,-518.58,0.666475,94.90,1
266992,1,46087,1,47568,52783,48463.94,53288.57,-895.94,-505.57,0.669157,94.85,1
267032,1,46127,1,47558,52773,48462.13,53287.54,-904.13,-514.54,0.671853,94.80,1
267072,1,46167,1,47546,52774,48460.30,53286.51,-914.30,-512.51,0.674563,94.75,1
267112,1,46207,1,47556,52796,48458.49,53285.53,-902.49,-489.53,0.677290,94.70,1
267152,1,46247,1,47563,52773,48456.70,53284.50,-893.70,-511.50,0.680028,94.65,1
267192,1,46287,1,47532,52749,48454.85,53283.43,-922.85,-534.43,0.682776,94.60,1
267232,1,46327,1,47539,52777,48453.02,53282.42,-914.02,-505.42,0.685538,94.55,1
267272,1,46367,1,47535,52767,48451.18,53281.39,-916.18,-514.39,0.688311,94.49,1
267312,1,46407,1,47528,52772,48449.34,53280.37,-921.34,-508.37,0.691097,94.44,1
267353,1,46448,1,47530,52764,48447.50,53279.34,-917.50,-515.34,0.693894,94.39,1
267393,1,46488,1,47502,52685,48445.61,53278.16,-943.61,-593.16,0.696690,94.33,1
267433,1,46528,1,47451,52639,48443.62,53276.88,-992.62,-637.88,0.699486,94.28,1
267473,1,46568,1,47444,52657,48441.63,53275.64,-997.63,-618.64,0.702283,94.22,1
267513,1,46608,1,47456,52702,48439.66,53274.50,-983.66,-572.50,0.705088,94.17,1
267553,1,46648,1,47474,52724,48437.73,53273.39,-963.73,-549.39,0.707902,94.11,1
267593,1,46688,1,47477,52707,48435.81,53272.26,-958.81,-565.26,0.710721,94.05,1
267633,1,46728,1,47470,52726,48433.88,53271.17,-963.88,-545.17,0.713548,94.00,1
267673,1,46768,1,47481,52747,48431.97,53270.12,-950.97,-523.12,0.716385,93.94,1
267713,1,46808,1,47478,52742,48430.07,53269.07,-952.07,-527.07,0.719231,93.88,1
267753,1,46848,1,47480,52746,48428.17,53268.03,-948.17,-522.03,0.722086,93.82,1
267793,1,46888,1,47477,52754,48426.27,53267.00,-949.27,-513.00,0.724950,93.77,1
267833,1,46928,1,47475,52774,48424.36,53266.02,-949.36,-492.02,0.727827,93.71,1
267874,1,46969,1,47481,52783,48422.48,53265.05,-941.48,-482.05,0.730716,93.65,1
267914,1,47009,1,47475,52750,48420.58,53264.02,-945.58,-514.02,0.733612,93.59,1
267954,1,47049,1,47441,52714,48418.62,53262.93,-977.62,-548.93,0.736514,93.53,1
267994,1,47089,1,47419,52685,48416.63,53261.77,-997.63,-576.77,0.739420,93.47,1
268034,1,47129,1,47417,52711,48414.63,53260.67,-997.63,-549.67,0.742332,93.41,1
268074,1,47169,1,47425,52729,48412.66,53259.61,-987.66,-530.61,0.745253,93.35,1
268114,1,47209,1,47428,52714,48410.69,53258.52,-982.69,-544.52,0.748180,93.28,1
268154,1,47249,1,47419,52701,48408.71,53257.40,-989.71,-556.40,0.751110,93.22,1
268194,1,47289,1,47415,52718,48406.72,53256.32,-991.72,-538.32,0.754047,93.16,1
268234,1,47329,1,47421,52727,48404.75,53255.27,-983.75,-528.27,0.756991,93.10,1
268274,1,47369,1,47414,52724,48402.77,53254.20,-988.77,-530.20,0.759942,93.04,1
268314,1,47409,1,47413,52737,48400.80,53253.17,-987.80,-516.17,0.762901,92.97,1
268354,1,47449,1,47412,52734,48398.82,53252.14,-986.82,-518.14,0.765867,92.91,1
268395,1,47490,1,47412,52749,48396.85,53251.13,-984.85,-502.13,0.768843,92.84,1
268435,1,47530,1,47415,52752,48394.89,53250.14,-979.89,-498.14,0.771827,92.78,1
268475,1,47570,1,47392,52685,48392.88,53249.01,-1000.88,-564.01,0.774813,92.72,1
268515,1,47610,1,47358,52649,48390.81,53247.81,-1032.81,-598.81,0.777797,92.65,1
268555,1,47650,1,47332,52625,48388.70,53246.56,-1056.70,-621.56,0.780779,92.59,1
268595,1,47690,1,47328,52627,48386.57,53245.32,-1058.57,-618.32,0.783758,92.52,1
268635,1,47730,1,47331,52641,48384.46,53244.12,-1053.46,-603.12,0.786737,92.45,1
268675,1,47770,1,47336,52646,48382.37,53242.92,-1046.37,-596.92,0.789716,92.39,1
268715,1,47810,1,47334,52660,48380.28,53241.76,-1046.28,-581.76,0.792696,92.32,1
268755,1,47850,1,47346,52688,48378.21,53240.65,-1032.21,-552.65,0.795681,92.26,1
268795,1,47890,1,47347,52696,48376.15,53239.56,-1029.15,-543.56,0.798671,92.19,1
268835,1,47930,1,47348,52702,48374.09,53238.49,-1026.09,-536.49,0.801666,92.12,1
268876,1,47971,1,47344,52699,48372.04,53237.41,-1028.04,-538.41,0.804667,92.06,1
268916,1,48011,1,47339,52721,48369.97,53236.38,-1030.97,-515.38,0.807675,91.99,1
268956,1,48051,1,47353,52750,48367.94,53235.41,-1014.94,-485.41,0.810694,91.92,1
268996,1,48091,1,47360,52730,48365.92,53234.40,-1005.92,-504.40,0.813720,91.85,1
269036,1,48131,1,47330,52698,48363.85,53233.33,-1033.85,-535.33,0.816750,91.78,1
269076,1,48171,1,47323,52705,48361.77,53232.27,-1038.77,-527.27,0.819786,91.72,1
269116,1,48211,1,47334,52723,48359.71,53231.26,-1025.71,-508.26,0.822830,91.65,1
269156,1,48251,1,47337,52736,48357.67,53230.27,-1020.67,-494.27,0.825881,91.58,1
269196,1,48291,1,47338,52732,48355.63,53229.27,-1017.63,-497.27,0.828940,91.51,1
269236,1,48331,1,47327,52713,48353.58,53228.24,-1026.58,-515.24,0.832004,91.44,1
269276,1,48371,1,47309,52698,48351.49,53227.18,-1042.49,-529.18,0.835073,91.37,1
269316,1,48411,1,47301,52700,48349.39,53226.13,-1048.39,-526.13,0.838147,91.30,1
269357,1,48452,1,47306,52718,48347.30,53225.11,-1041.30,-507.11,0.841228,91.23,1
269397,1,48492,1,47292,52678,48345.19,53224.02,-1053.19,-546.02,0.844312,91.16,1
269437,1,48532,1,47256,52653,48343.02,53222.88,-1087.02,-569.88,0.847398,91.09,1
269477,1,48572,1,47304,52888,48340.94,53222.21,-1036.94,-334.21,0.850508,91.02,1
269517,1,48612,1,47423,52976,48339.10,53221.72,-916.10,-245.72,0.853640,90.95,1
269557,1,48652,1,47408,52855,48337.24,53220.99,-929.24,-365.99,0.856784,90.88,1
269597,1,48692,1,47343,52785,48335.25,53220.12,-992.25,-435.12,0.859937,90.81,1
269637,1,48732,1,47310,52712,48333.20,53219.10,-1023.20,-507.10,0.863093,90.74,1
269677,1,48772,1,47246,52601,48331.03,53217.87,-1085.03,-616.87,0.866242,90.66,1
269717,1,48812,1,47198,52537,48328.77,53216.51,-1130.77,-679.51,0.869376,90.59,1
269757,1,48852,1,47166,52514,48326.44,53215.11,-1160.44,-701.11,0.872495,90.52,1
269797,1,48892,1,47169,52579,48324.13,53213.84,-1155.13,-634.84,0.875610,90.45,1
269838,1,48933,1,47215,52672,48321.91,53212.75,-1106.91,-540.75,0.878730,90.37,1
269878,1,48973,1,47256,52750,48319.78,53211.83,-1063.78,-461.83,0.881863,90.30,1
269918,1,49013,1,47277,52771,48317.70,53210.95,-1040.70,-439.95,0.885007,90.23,1
269958,1,49053,1,47277,52752,48315.61,53210.03,-1038.61,-458.03,0.888161,90.16,1
269998,1,49093,1,47263,52764,48313.51,53209.14,-1050.51,-445.14,0.891326,90.08,1
270038,1,49133,1,47270,52791,48311.42,53208.30,-1041.42,-417.30,0.894505,90.01,1
270078,1,49173,1,47278,52768,48309.36,53207.43,-1031.36,-439.43,0.897694,89.94,1
270118,1,49213,1,47266,52738,48307.27,53206.49,-1041.27,-468.49,0.900890,89.86,1
270158,1,49253,1,47235,52737,48305.12,53205.55,-1070.13,-468.55,0.904095,89.79,1
270198,1,49293,1,47259,52785,48303.04,53204.71,-1044.04,-419.71,0.907314,89.71,1
270238,1,49333,1,47270,52790,48300.97,53203.88,-1030.97,-413.88,0.910544,89.64,1
270278,1,49373,1,47267,52794,48298.90,53203.06,-1031.90,-409.06,0.913787,89.57,1
270318,1,49413,1,47256,52741,48296.82,53202.14,-1040.82,-461.14,0.917036,89.49,1
270359,1,49454,1,47202,52614,48294.63,53200.96,-1092.63,-586.96,0.920279,89.42,1
270399,1,49494,1,47121,52518,48292.28,53199.60,-1171.28,-681.60,0.923505,89.34,1
270439,1,49534,1,47086,52497,48289.87,53198.20,-1203.87,-701.20,0.926715,89.27,1
270479,1,49574,1,47081,52490,48287.45,53196.79,-1206.45,-706.79,0.929909,89.19,1
270519,1,49614,1,47069,52484,48285.02,53195.36,-1216.02,-711.36,0.933086,89.11,1
270559,1,49654,1,47070,52518,48282.59,53194.01,-1212.59,-676.01,0.936253,89.04,1
270599,1,49694,1,47089,52524,48280.20,53192.67,-1191.20,-668.67,0.939409,88.96,1
270639,1,49734,1,47088,52538,48277.82,53191.36,-1189.82,-653.36,0.942556,88.89,1
270679,1,49774,1,47096,52559,48275.45,53190.10,-1179.45,-631.10,0.945698,88.81,1
270719,1,49814,1,47096,52565,48273.09,53188.85,-1177.09,-623.85,0.948836,88.74,1
270759,1,49854,1,47102,52586,48270.75,53187.64,-1168.75,-601.64,0.951970,88.66,1
270799,1,49894,1,47112,52614,48268.44,53186.50,-1156.44,-572.50,0.955106,88.58,1
270839,1,49934,1,47116,52638,48266.13,53185.41,-1150.13,-547.41,0.958245,88.51,1
270880,1,49975,1,47128,52653,48263.86,53184.34,-1135.86,-531.34,0.961389,88.43,1
270920,1,50015,1,47129,52658,48261.59,53183.29,-1132.59,-525.29,0.964536,88.35,1
270960,1,50055,1,47117,52641,48259.30,53182.21,-1142.30,-541.21,0.967687,88.28,1
271000,1,50095,1,47104,52625,48256.99,53181.10,-1152.99,-556.10,0.970840,88.20,1
271040,1,50135,1,47103,52666,48254.68,53180.07,-1151.68,-514.07,0.973999,88.13,1
271080,1,50175,1,47120,52679,48252.41,53179.07,-1132.41,-500.07,0.977166,88.05,1
271120,1,50215,1,47116,52652,48250.14,53178.02,-1134.14,-526.02,0.980335,87.97,1
271160,1,50255,1,47097,52634,48247.84,53176.93,-1150.84,-542.93,0.983508,87.90,1
271200,1,50295,1,47092,52667,48245.53,53175.91,-1153.53,-508.91,0.986687,87.82,1
271240,1,50335,1,47118,52727,48243.27,53175.02,-1125.27,-448.02,0.989877,87.74,1
271280,1,50375,1,47145,52765,48241.08,53174.20,-1096.08,-409.20,0.993081,87.66,1
271320,1,50415,1,47151,52777,48238.90,53173.40,-1087.90,-396.40,0.996299,87.59,1
271360,1,50455,1,47150,52795,48236.72,53172.65,-1086.72,-377.65,0.999532,87.51,1
271401,1,50496,1,47157,52810,48234.57,53171.93,-1077.57,-361.93,1.002780,87.43,1
271441,1,50536,1,47167,52851,48232.43,53171.29,-1065.43,-320.29,1.006048,87.35,1
271481,1,50576,1,47172,52836,48230.31,53170.62,-1058.31,-334.62,1.009331,87.28,1
271521,1,50616,1,47156,52815,48228.16,53169.91,-1072.16,-354.91,1.012631,87.20,1
271561,1,50656,1,47147,52851,48226.00,53169.27,-1079.00,-318.27,1.015950,87.12,1
271601,1,50696,1,47172,52869,48223.90,53168.67,-1051.90,-299.67,1.019287,87.04,1
271641,1,50736,1,47165,52799,48221.78,53167.93,-1056.78,-368.93,1.022637,86.97,1
271681,1,50776,1,47111,52729,48219.56,53167.06,-1108.56,-438.06,1.025996,86.89,1
271721,1,50816,1,47078,52692,48217.28,53166.11,-1139.28,-474.11,1.029361,86.81,1
271761,1,50856,1,47056,52676,48214.96,53165.13,-1158.96,-489.13,1.032732,86.73,1
271801,1,50896,1,47053,52681,48212.64,53164.16,-1159.64,-483.16,1.036110,86.65,1
271841,1,50936,1,47040,52647,48210.29,53163.13,-1170.29,-516.13,1.039491,86.57,1
271881,1,50976,1,47020,52638,48207.91,53162.08,-1187.91,-524.08,1.042874,86.49,1
271922,1,51017,1,47005,52615,48205.51,53160.98,-1200.51,-545.98,1.046258,86.41,1
271962,1,51057,1,46994,52609,48203.09,53159.88,-1209.09,-550.88,1.049642,86.33,1
272002,1,51097,1,46983,52600,48200.65,53158.77,-1217.65,-558.77,1.053026,86.25,1
272042,1,51137,1,46973,52588,48198.20,53157.62,-1225.20,-569.62,1.056408,86.17,1
272082,1,51177,1,46961,52589,48195.72,53156.49,-1234.72,-567.49,1.059789,86.09,1
272122,1,51217,1,46967,52591,48193.27,53155.36,-1226.27,-564.36,1.063170,86.01,1
272162,1,51257,1,46947,52509,48190.77,53154.07,-1243.77,-645.07,1.066537,85.93,1
272202,1,51297,1,46894,52439,48188.18,53152.64,-1294.18,-713.64,1.069883,85.85,1
272242,1,51337,1,46862,52424,48185.53,53151.18,-1323.53,-727.18,1.073209,85.77,1
272282,1,51377,1,46859,52433,48182.87,53149.75,-1323.88,-716.75,1.076516,85.69,1
272322,1,51417,1,46858,52439,48180.23,53148.32,-1322.23,-709.32,1.079807,85.61,1
272362,1,51457,1,46852,52428,48177.57,53146.89,-1325.57,-718.89,1.083080,85.53,1
272402,1,51497,1,46840,52428,48174.89,53145.45,-1334.89,-717.45,1.086336,85.45,1
272443,1,51538,1,46838,52429,48172.22,53144.02,-1334.22,-715.02,1.089576,85.37,1
272483,1,51578,1,46832,52420,48169.54,53142.57,-1337.54,-722.57,1.092799,85.29,1
272523,1,51618,1,46821,52424,48166.85,53141.14,-1345.85,-717.14,1.096008,85.21,1
272563,1,51658,1,46818,52409,48164.15,53139.67,-1346.15,-730.67,1.099200,85.13,1
272603,1,51698,1,46806,52413,48161.44,53138.22,-1355.44,-725.22,1.102376,85.05,1
272643,1,51738,1,46803,52378,48158.72,53136.70,-1355.72,-758.70,1.105532,84.97,1
272683,1,51778,1,46762,52283,48155.93,53134.99,-1393.93,-851.99,1.108653,84.89,1
272723,1,51818,1,46713,52217,48153.05,53133.16,-1440.05,-916.16,1.111732,84.80,1
272763,1,51858,1,46683,52204,48150.11,53131.30,-1467.11,-927.30,1.114770,84.72,1
272803,1,51898,1,46680,52221,48147.17,53129.48,-1467.17,-908.48,1.117773,84.64,1
272843,1,51938,1,46686,52212,48144.25,53127.65,-1458.25,-915.65,1.120739,84.56,1
272883,1,51978,1,46661,52175,48141.29,53125.75,-1480.29,-950.75,1.123664,84.49,1
272923,1,52018,1,46639,52159,48138.28,53123.81,-1499.28,-964.81,1.126550,84.41,1
272963,1,52058,1,46629,52156,48135.27,53121.88,-1506.27,-965.88,1.129398,84.33,1
273004,1,52099,1,46627,52147,48132.25,53119.93,-1505.25,-972.93,1.132209,84.25,1
273044,1,52139,1,46609,52144,48129.20,53117.98,-1520.20,-973.98,1.134983,84.17,1
273084,1,52179,1,46610,52161,48126.16,53116.07,-1516.16,-955.07,1.137727,84.09,1
273124,1,52219,1,46617,52180,48123.15,53114.20,-1506.15,-934.20,1.140443,84.01,1
273164,1,52259,1,46612,52143,48120.13,53112.25,-1508.13,-969.25,1.143127,83.93,1
273204,1,52299,1,46582,52085,48117.05,53110.20,-1535.05,-1025.20,1.145772,83.86,1
273244,1,52339,1,46550,52036,48113.92,53108.05,-1563.92,-1072.05,1.148373,83.78,1
273284,1,52379,1,46531,52052,48110.76,53105.94,-1579.76,-1053.94,1.150937,83.70,1
273324,1,52419,1,46549,52080,48107.64,53103.89,-1558.64,-1023.89,1.153469,83.63,1
273364,1,52459,1,46544,52066,48104.51,53101.82,-1560.51,-1035.82,1.155968,83.55,1
273404,1,52499,1,46531,52059,48101.37,53099.73,-1570.37,-1040.73,1.158435,83.48,1
273444,1,52539,1,46530,52062,48098.23,53097.66,-1568.23,-1035.66,1.160872,83.40,1
273485,1,52580,1,46525,52047,48095.08,53095.55,-1570.08,-1048.55,1.163278,83.33,1
273525,1,52620,1,46507,52042,48091.91,53093.45,-1584.91,-1051.45,1.165654,83.25,1
273565,1,52660,1,46500,52058,48088.72,53091.38,-1588.72,-1033.38,1.168005,83.18,1
273605,1,52700,1,46507,52072,48085.56,53089.34,-1578.56,-1017.34,1.170333,83.11,1
273645,1,52740,1,46510,52076,48082.41,53087.32,-1572.41,-1011.32,1.172639,83.03,1
273685,1,52780,1,46499,52024,48079.25,53085.19,-1580.25,-1061.19,1.174917,82.96,1
273725,1,52820,1,46464,51963,48076.02,53082.95,-1612.02,-1119.95,1.177161,82.89,1
273765,1,52860,1,46439,51962,48072.74,53080.71,-1633.74,-1118.71,1.179375,82.82,1
273805,1,52900,1,46438,51971,48069.47,53078.49,-1631.47,-1107.49,1.181562,82.75,1
273845,1,52940,1,46447,51977,48066.23,53076.29,-1619.23,-1099.29,1.183722,82.68,1
273885,1,52980,1,46442,51971,48062.98,53074.07,-1620.98,-1103.07,1.185855,82.61,1
273925,1,53020,1,46425,51945,48059.71,53071.82,-1634.71,-1126.82,1.187961,82.54,1
273965,1,53060,1,46409,51931,48056.41,53069.54,-1647.41,-1138.54,1.190040,82.47,1
274006,1,53101,1,46400,51919,48053.10,53067.23,-1653.10,-1148.23,1.192091,82.40,1
274046,1,53141,1,46380,51903,48049.75,53064.91,-1669.75,-1161.91,1.194116,82.33,1
274086,1,53181,1,46373,51913,48046.40,53062.61,-1673.40,-1149.61,1.196115,82.27,1
274126,1,53221,1,46379,51929,48043.07,53060.34,-1664.07,-1131.34,1.198093,82.20,1
274166,1,53261,1,46372,51885,48039.73,53057.99,-1667.73,-1172.99,1.200045,82.13,1
274206,1,53301,1,46335,51820,48036.32,53055.52,-1701.32,-1235.52,1.201965,82.07,1
274246,1,53341,1,46305,51780,48032.86,53052.96,-1727.86,-1272.96,1.203853,82.00,1
274286,1,53381,1,46295,51787,48029.39,53050.43,-1734.39,-1263.43,1.205710,81.94,1
274326,1,53421,1,46290,51776,48025.91,53047.89,-1735.91,-1271.89,1.207538,81.88,1
274366,1,53461,1,46274,51752,48022.41,53045.30,-1748.41,-1293.30,1.209335,81.81,1
274406,1,53501,1,46257,51728,48018.87,53042.66,-1761.88,-1314.66,1.211101,81.75,1
274446,1,53541,1,46238,51717,48015.32,53040.02,-1777.32,-1323.02,1.212837,81.69,1
274486,1,53581,1,46228,51700,48011.74,53037.34,-1783.74,-1337.34,1.214544,81.63,1
274527,1,53622,1,46213,51677,48008.14,53034.62,-1795.14,-1357.62,1.216219,81.57,1
274567,1,53662,1,46191,51655,48004.51,53031.86,-1813.51,-1376.86,1.217864,81.50,1
274607,1,53702,1,46172,51641,48000.85,53029.08,-1828.85,-1388.08,1.219480,81.44,1
274647,1,53742,1,46164,51608,47997.18,53026.24,-1833.18,-1418.24,1.221063,81.39,1
274687,1,53782,1,46135,51558,47993.45,53023.30,-1858.45,-1465.30,1.222613,81.33,1
274727,1,53822,1,46098,51504,47989.66,53020.27,-1891.66,-1516.27,1.224127,81.27,1
274767,1,53862,1,46076,51475,47985.84,53017.18,-1909.84,-1542.18,1.225604,81.21,1
274807,1,53902,1,46062,51471,47981.99,53014.09,-1919.99,-1543.09,1.227047,81.16,1
274847,1,53942,1,46071,51519,47978.17,53011.10,-1907.17,-1492.10,1.228462,81.10,1
274887,1,53982,1,46101,51589,47974.42,53008.25,-1873.42,-1419.25,1.229854,81.04,1
274927,1,54022,1,46142,51663,47970.75,53005.57,-1828.75,-1342.57,1.231231,80.99,1
274967,1,54062,1,46177,51745,47967.17,53003.05,-1790.17,-1258.05,1.232596,80.94,1
275007,1,54102,1,46228,51834,47963.69,53000.71,-1735.69,-1166.71,1.233956,80.88,1
275048,1,54143,1,46265,51899,47960.30,52998.51,-1695.30,-1099.51,1.235312,80.83,1
275088,1,54183,1,46298,51962,47956.97,52996.44,-1658.97,-1034.44,1.236668,80.78,1
275128,1,54223,1,46326,52004,47953.71,52994.45,-1627.71,-990.45,1.238025,80.72,1
275168,1,54263,1,46333,52004,47950.47,52992.47,-1617.47,-988.47,1.239383,80.67,1
275208,1,54303,1,46337,52010,47947.25,52990.51,-1610.25,-980.51,1.240741,80.62,1
275248,1,54343,1,46327,52012,47944.01,52988.55,-1617.01,-976.55,1.242101,80.57,1
275288,1,54383,1,46334,52024,47940.79,52986.62,-1606.79,-962.62,1.243462,80.52,1
275328,1,54423,1,46334,51997,47937.58,52984.65,-1603.58,-987.65,1.244823,80.47,1
275368,1,54463,1,46305,51949,47934.31,52982.58,-1629.31,-1033.58,1.246182,80.42,1
275408,1,54503,1,46276,51924,47931.00,52980.46,-1655.00,-1056.46,1.247538,80.38,1
275448,1,54543,1,46265,51903,47927.66,52978.31,-1662.66,-1075.31,1.248891,80.33,1
275488,1,54583,1,46241,51859,47924.29,52976.07,-1683.29,-1117.07,1.250238,80.28,1
275528,1,54623,1,46202,51815,47920.85,52973.75,-1718.85,-1158.75,1.251579,80.23,1
275569,1,54664,1,46175,51775,47917.36,52971.36,-1742.36,-1196.36,1.252911,80.19,1
275609,1,54704,1,46159,51768,47913.84,52968.95,-1754.84,-1200.95,1.254236,80.14,1
275649,1,54744,1,46133,51695,47910.29,52966.40,-1777.29,-1271.40,1.255548,80.09,1
275689,1,54784,1,46090,51641,47906.64,52963.75,-1816.64,-1322.75,1.256846,80.05,1
275729,1,54824,1,46062,51613,47902.96,52961.05,-1840.96,-1348.05,1.258130,80.00,1
275769,1,54864,1,46046,51620,47899.25,52958.37,-1853.25,-1338.38,1.259402,79.96,1
275809,1,54904,1,46047,51605,47895.54,52955.67,-1848.54,-1350.67,1.260659,79.92,1
275849,1,54944,1,46036,51581,47891.82,52952.92,-1855.82,-1371.92,1.261902,79.87,1
275889,1,54984,1,46022,51582,47888.09,52950.18,-1866.09,-1368.18,1.263131,79.83,1
275929,1,55024,1,46016,51563,47884.34,52947.41,-1868.34,-1384.41,1.264347,79.78,1
275969,1,55064,1,45996,51518,47880.57,52944.55,-1884.57,-1426.55,1.265545,79.74,1
276009,1,55104,1,45970,51508,47876.75,52941.68,-1906.75,-1433.68,1.266729,79.70,1
276049,1,55144,1,45961,51487,47872.91,52938.77,-1911.91,-1451.77,1.267896,79.66,1
276089,1,55184,1,45934,51450,47869.04,52935.79,-1935.04,-1485.79,1.269045,79.62,1
276130,1,55225,1,45909,51395,47865.12,52932.71,-1956.12,-1537.71,1.270175,79.58,1
276170,1,55265,1,45872,51358,47861.14,52929.56,-1989.14,-1571.56,1.271284,79.53,1
276210,1,55305,1,45848,51344,47857.11,52926.39,-2009.11,-1582.39,1.272374,79.49,1
276250,1,55345,1,45847,51340,47853.09,52923.22,-2006.09,-1583.22,1.273445,79.45,1
276290,1,55385,1,45842,51360,47849.07,52920.10,-2007.07,-1560.10,1.274498,79.41,1
276330,1,55425,1,45849,51355,47845.07,52916.97,-1996.07,-1561.97,1.275535,79.38,1
276370,1,55465,1,45843,51347,47841.07,52913.83,-1998.07,-1566.83,1.276556,79.34,1
276410,1,55505,1,45841,51355,47837.07,52910.71,-1996.07,-1555.71,1.277560,79.30,1
276450,1,55545,1,45842,51358,47833.08,52907.61,-1991.08,-1549.61,1.278550,79.26,1
276490,1,55585,1,45834,51342,47829.09,52904.48,-1995.09,-1562.48,1.279525,79.22,1
276530,1,55625,1,45818,51326,47825.07,52901.32,-2007.07,-1575.32,1.280485,79.19,1
276570,1,55665,1,45808,51338,47821.04,52898.20,-2013.04,-1560.20,1.281432,79.15,1
276610,1,55705,1,45807,51295,47817.01,52895.00,-2010.01,-1600.00,1.282362,79.11,1
276651,1,55746,1,45762,51213,47812.90,52891.63,-2050.90,-1678.63,1.283274,79.08,1
276691,1,55786,1,45718,51197,47808.71,52888.25,-2090.71,-1691.25,1.284169,79.04,1
276731,1,55826,1,45710,51188,47804.52,52884.85,-2094.52,-1696.85,1.285046,79.01,1
276771,1,55866,1,45699,51161,47800.30,52881.40,-2101.30,-1720.40,1.285905,78.97,1
276811,1,55906,1,45673,51124,47796.05,52877.89,-2123.05,-1753.89,1.286746,78.94,1
276851,1,55946,1,45648,51106,47791.76,52874.35,-2143.76,-1768.35,1.287568,78.90,1
276891,1,55986,1,45638,51072,47787.45,52870.75,-2149.45,-1798.75,1.288371,78.87,1
276931,1,56026,1,45614,51048,47783.11,52867.10,-2169.11,-1819.10,1.289155,78.84,1
276971,1,56066,1,45599,51015,47778.74,52863.40,-2179.74,-1848.40,1.289919,78.81,1
277011,1,56106,1,45564,50949,47774.31,52859.57,-2210.31,-1910.57,1.290661,78.77,1
277051,1,56146,1,45528,50912,47769.82,52855.68,-2241.82,-1943.68,1.291381,78.74,1
277091,1,56186,1,45493,50837,47765.27,52851.64,-2272.27,-2014.64,1.292076,78.71,1
277131,1,56226,1,45442,50771,47760.62,52847.48,-2318.63,-2076.48,1.292746,78.68,1
277172,1,56267,1,45405,50722,47755.91,52843.23,-2350.91,-2121.23,1.293388,78.65,1
277212,1,56307,1,45379,50726,47751.16,52839.00,-2372.16,-2113.00,1.294007,78.62,1
277252,1,56347,1,45385,50777,47746.43,52834.87,-2361.43,-2057.88,1.294607,78.59,1
277292,1,56387,1,45417,50802,47741.77,52830.81,-2324.77,-2028.81,1.295187,78.56,1
277332,1,56427,1,45428,50873,47737.15,52826.90,-2309.15,-1953.90,1.295754,78.53,1
277372,1,56467,1,45475,50950,47732.62,52823.14,-2257.63,-1873.14,1.296309,78.50,1
277412,1,56507,1,45510,50969,47728.18,52819.44,-2218.18,-1850.44,1.296853,78.48,1
277452,1,56547,1,45511,50980,47723.75,52815.76,-2212.75,-1835.76,1.297387,78.45,1
277492,1,56587,1,45517,50993,47719.33,52812.12,-2202.33,-1819.12,1.297912,78.42,1
277532,1,56627,1,45519,50994,47714.93,52808.48,-2195.93,-1814.48,1.298428,78.40,1
277572,1,56667,1,45501,50916,47710.51,52804.70,-2209.51,-1888.70,1.298931,78.37,1
277612,1,56707,1,45437,50832,47705.96,52800.75,-2268.96,-1968.75,1.299421,78.34,1
277652,1,56747,1,45406,50827,47701.36,52796.80,-2295.36,-1969.80,1.299898,78.32,1
277693,1,56788,1,45399,50814,47696.76,52792.84,-2297.76,-1978.84,1.300363,78.29,1
277733,1,56828,1,45382,50800,47692.13,52788.86,-2310.13,-1988.86,1.300816,78.27,1
277773,1,56868,1,45369,50783,47687.49,52784.84,-2318.49,-2001.84,1.301256,78.24,1
277813,1,56908,1,45353,50765,47682.82,52780.80,-2329.82,-2015.80,1.301685,78.22,1
277853,1,56948,1,45338,50754,47678.13,52776.75,-2340.13,-2022.75,1.302102,78.20,1
277893,1,56988,1,45332,50754,47673.44,52772.71,-2341.44,-2018.71,1.302508,78.18,1
277933,1,57028,1,45332,50732,47668.76,52768.63,-2336.76,-2036.63,1.302902,78.15,1
277973,1,57068,1,45311,50712,47664.04,52764.52,-2353.04,-2052.52,1.303285,78.13,1
278013,1,57108,1,45305,50703,47659.32,52760.40,-2354.32,-2057.40,1.303656,78.11,1
278053,1,57148,1,45275,50625,47654.56,52756.13,-2379.56,-2131.13,1.304014,78.09,1
278093,1,57188,1,45232,50591,47649.71,52751.80,-2417.71,-2160.80,1.304359,78.07,1
278133,1,57228,1,45215,50573,47644.85,52747.45,-2429.85,-2174.45,1.304690,78.05,1
278173,1,57268,1,45199,50571,47639.96,52743.09,-2440.96,-2172.09,1.305009,78.03,1
278214,1,57309,1,45207,50608,47635.09,52738.82,-2428.09,-2130.82,1.305318,78.01,1
278254,1,57349,1,45217,50609,47630.26,52734.57,-2413.26,-2125.57,1.305617,77.99,1
278294,1,57389,1,45201,50597,47625.40,52730.29,-2424.40,-2133.29,1.305906,77.97,1
278334,1,57429,1,45202,50620,47620.56,52726.07,-2418.56,-2106.07,1.306186,77.95,1
278374,1,57469,1,45217,50633,47615.75,52721.89,-2398.75,-2088.89,1.306458,77.93,1
278414,1,57509,1,45209,50632,47610.94,52717.71,-2401.94,-2085.71,1.306722,77.91,1
278454,1,57549,1,45214,50656,47606.15,52713.59,-2392.15,-2057.59,1.306980,77.90,1
278494,1,57589,1,45228,50625,47601.39,52709.41,-2373.39,-2084.41,1.307229,77.88,1
278534,1,57629,1,45176,50531,47596.55,52705.06,-2420.55,-2174.06,1.307468,77.86,1
278574,1,57669,1,45129,50503,47591.61,52700.66,-2462.61,-2197.66,1.307698,77.84,1
278614,1,57709,1,45119,50490,47586.67,52696.23,-2467.67,-2206.23,1.307918,77.83,1
278654,1,57749,1,45108,50493,47581.71,52691.83,-2473.71,-2198.83,1.308130,77.81,1
278694,1,57789,1,45105,50487,47576.76,52687.42,-2471.76,-2200.42,1.308333,77.80,1
278735,1,57830,1,45083,50448,47571.77,52682.94,-2488.77,-2234.94,1.308527,77.78,1
278775,1,57870,1,45067,50459,47566.77,52678.50,-2499.77,-2219.50,1.308713,77.77,1
278815,1,57910,1,45061,50447,47561.75,52674.04,-2500.75,-2227.04,1.308891,77.75,1
278855,1,57950,1,45046,50422,47556.72,52669.53,-2510.72,-2247.53,1.309061,77.74,1
278895,1,57990,1,45034,50415,47551.68,52665.02,-2517.68,-2250.02,1.309223,77.72,1
278935,1,58030,1,45021,50415,47546.62,52660.52,-2525.62,-2245.52,1.309378,77.71,1
278975,1,58070,1,45019,50370,47541.57,52655.95,-2522.57,-2285.95,1.309524,77.70,1
279015,1,58110,1,44982,50319,47536.45,52651.27,-2554.45,-2332.27,1.309661,77.68,1
279055,1,58150,1,44964,50317,47531.30,52646.61,-2567.30,-2329.61,1.309789,77.67,1
279095,1,58190,1,44966,50337,47526.18,52641.99,-2560.18,-2304.99,1.309910,77.66,1
279135,1,58230,1,44978,50349,47521.08,52637.40,-2543.08,-2288.40,1.310024,77.65,1
279175,1,58270,1,44972,50336,47515.98,52632.80,-2543.98,-2296.80,1.310131,77.63,1
279215,1,58310,1,44958,50330,47510.87,52628.20,-2552.87,-2298.20,1.310231,77.62,1
279255,1,58350,1,44951,50323,47505.75,52623.59,-2554.75,-2300.59,1.310325,77.61,1
279296,1,58391,1,44938,50300,47500.62,52618.94,-2562.62,-2318.94,1.310411,77.60,1
279336,1,58431,1,44919,50287,47495.46,52614.28,-2576.46,-2327.28,1.310491,77.59,1
279376,1,58471,1,44909,50283,47490.29,52609.62,-2581.29,-2326.62,1.310565,77.58,1
279416,1,58511,1,44904,50280,47485.12,52604.96,-2581.12,-2324.96,1.310633,77.57,1
279456,1,58551,1,44892,50227,47479.93,52600.21,-2587.93,-2373.21,1.310694,77.56,1
279496,1,58591,1,44842,50179,47474.66,52595.37,-2632.66,-2416.37,1.310747,77.55,1
279536,1,58631,1,44833,50166,47469.38,52590.51,-2636.38,-2424.51,1.310794,77.54,1
279576,1,58671,1,44827,50173,47464.09,52585.68,-2637.09,-2412.68,1.310833,77.53,1
279616,1,58711,1,44838,50196,47458.84,52580.90,-2620.84,-2384.90,1.310866,77.52,1
279656,1,58751,1,44838,50206,47453.60,52576.15,-2615.60,-2370.15,1.310895,77.51,1
279696,1,58791,1,44836,50191,47448.37,52571.38,-2612.37,-2380.38,1.310917,77.50,1
279736,1,58831,1,44826,50197,47443.12,52566.64,-2617.13,-2369.64,1.310934,77.49,1
279776,1,58871,1,44825,50203,47437.89,52561.91,-2612.89,-2358.91,1.310947,77.49,1
279817,1,58912,1,44825,50218,47432.67,52557.22,-2607.67,-2339.22,1.310956,77.48,1
279857,1,58952,1,44845,50281,47427.49,52552.67,-2582.49,-2271.67,1.310962,77.47,1
279897,1,58992,1,44881,50352,47422.40,52548.27,-2541.40,-2196.27,1.310966,77.46,1
279937,1,59032,1,44897,50324,47417.35,52543.83,-2520.35,-2219.83,1.310969,77.46,1
279977,1,59072,1,44860,50264,47412.24,52539.27,-2552.24,-2275.27,1.310968,77.45,1
280017,1,59112,1,44834,50271,47407.08,52534.73,-2573.08,-2263.73,1.310964,77.44,1
280057,1,59152,1,44853,50330,47401.98,52530.33,-2548.98,-2200.33,1.310960,77.44,1
280097,1,59192,1,44883,50352,47396.94,52525.97,-2513.94,-2173.97,1.310954,77.43,1
280137,1,59232,1,44882,50344,47391.91,52521.61,-2509.91,-2177.61,1.310948,77.42,1
280177,1,59272,1,44876,50375,47386.88,52517.32,-2510.88,-2142.32,1.310941,77.42,1
280217,1,59312,1,44895,50396,47381.90,52513.07,-2486.90,-2117.07,1.310933,77.41,1
280257,1,59352,1,44903,50395,47376.94,52508.84,-2473.94,-2113.84,1.310926,77.41,1
280297,1,59392,1,44896,50414,47371.98,52504.65,-2475.98,-2090.65,1.310918,77.40,1
280337,1,59432,1,44900,50416,47367.04,52500.48,-2467.04,-2084.48,1.310911,77.40,1
280378,1,59473,1,44891,50367,47362.09,52496.21,-2471.09,-2129.21,1.310903,77.39,1
280418,1,59513,1,44847,50310,47357.06,52491.84,-2510.06,-2181.84,1.310894,77.39,1
280458,1,59553,1,44815,50277,47351.98,52487.41,-2536.98,-2210.41,1.310884,77.38,1
280498,1,59593,1,44798,50277,47346.87,52482.99,-2548.88,-2205.99,1.310872,77.38,1
280538,1,59633,1,44809,50317,47341.80,52478.66,-2532.80,-2161.66,1.310860,77.37,1
280578,1,59673,1,44823,50323,47336.77,52474.35,-2513.77,-2151.35,1.310848,77.37,1
280618,1,59713,1,44807,50296,47331.71,52470.00,-2524.71,-2174.00,1.310835,77.36,1
280658,1,59753,1,44797,50276,47326.64,52465.61,-2529.64,-2189.61,1.310821,77.36,1
280698,1,59793,1,44793,50275,47321.57,52461.23,-2528.57,-2186.23,1.310807,77.36,1
280738,1,59833,1,44783,50261,47316.50,52456.83,-2533.50,-2195.83,1.310791,77.35,1
280778,1,59873,1,44759,50232,47311.39,52452.38,-2552.39,-2220.38,1.310774,77.35,1
280818,1,59913,1,44746,50220,47306.26,52447.92,-2560.26,-2227.92,1.310756,77.35,1
280858,1,59953,1,44734,50177,47301.11,52443.38,-2567.11,-2266.38,1.310736,77.34,1
280898,1,59993,1,44689,50113,47295.89,52438.72,-2606.89,-2325.72,1.310714,77.34,1
280939,1,60034,2,44656,50075,47290.61,52433.99,-2634.61,-2358.99,1.310688,77.34,1
280979,1,60074,2,44636,50069,47285.30,52429.26,-2649.30,-2360.26,1.310660,77.33,1
281019,1,60114,2,44628,50075,47279.99,52424.55,-2651.99,-2349.55,1.310630,77.33,1
281059,1,60154,2,44633,50077,47274.70,52419.86,-2641.70,-2342.86,1.310598,77.33,1
281099,1,60194,2,44636,50094,47269.42,52415.21,-2633.42,-2321.21,1.310564,77.32,1
281139,1,60234,2,44624,50064,47264.13,52410.51,-2640.13,-2346.51,1.310528,77.32,1
281179,1,60274,2,44608,50060,47258.82,52405.81,-2650.82,-2345.81,1.310490,77.32,1
281219,1,60314,2,44604,50024,47253.51,52401.05,-2649.51,-2377.05,1.310450,77.32,1
281259,1,60354,2,44580,50005,47248.16,52396.26,-2668.16,-2391.26,1.310407,77.31,1
281299,1,60394,2,44565,50004,47242.80,52391.48,-2677.80,-2387.48,1.310362,77.31,1
281339,1,60434,2,44560,49951,47237.44,52386.60,-2677.44,-2435.60,1.310313,77.31,1
281379,1,60474,2,44500,49853,47231.96,52381.54,-2731.96,-2528.54,1.310260,77.31,1
281419,1,60514,2,44455,49834,47226.41,52376.44,-2771.41,-2542.44,1.310204,77.31,1
